Data from hue_200_FLMS001491_00044.txt Node
Date: Tue Feb 07 16:43:20 GMT 2017
User: dcchb
Spectrometer: FLMS00149
Trigger mode: 0
Integration Time (sec): 2.000000E-2
Scans to average: 10
Electric dark correction enabled: true
Nonlinearity correction enabled: false
Boxcar width: 0
XAxis mode: Wavelengths
Number of Pixels in Spectrum: 2048
>>>>>Begin Spectral Data<<<<<
341.393	-14.79
341.776	-14.79
342.16	-14.79
342.543	-69.02
342.927	-70.61
343.31	-72.41
343.693	-69.93
344.077	-86.42
344.46	-76.26
344.843	-45.52
345.226	-41
345.61	-37.16
345.993	-11.62
346.376	-0.1
346.759	20.01
347.142	22.05
347.525	42.61
347.908	62.5
348.291	80.58
348.674	102.95
349.057	109.73
349.44	114.02
349.823	131.42
350.206	156.73
350.588	191.31
350.971	208.03
351.354	222.27
351.737	222.27
352.119	255.94
352.502	245.09
352.884	259.33
353.267	276.28
353.65	295.03
354.032	310.4
354.414	292.1
354.797	310.85
355.179	320.8
355.562	337.07
355.944	320.34
356.326	341.36
356.709	340.68
357.091	333.9
357.473	333.45
357.855	359.44
358.238	340.46
358.62	332.32
359.002	323.73
359.384	330.74
359.766	340.01
360.148	350.63
360.53	337.75
360.912	334.81
361.294	340.46
361.676	336.39
362.057	346.56
362.439	353.56
362.821	339.55
363.203	322.83
363.584	317.86
363.966	322.6
364.348	308.82
364.729	338.88
365.111	317.41
365.493	313.34
365.874	320.8
366.256	321.7
366.637	328.93
367.019	321.25
367.4	313.79
367.781	331.19
368.163	302.94
368.544	316.28
368.925	322.6
369.306	319.44
369.688	326.22
370.069	311.98
370.45	314.24
370.831	319.21
371.212	320.12
371.593	322.15
371.974	298.88
372.355	301.81
372.736	297.52
373.117	322.6
373.498	324.41
373.879	321.02
374.26	307.01
374.641	332.55
375.021	320.34
375.402	314.24
375.783	334.36
376.163	327.8
376.544	328.93
376.925	317.63
377.305	319.67
377.686	337.97
378.066	323.73
378.447	333.9
378.827	323.06
379.208	317.63
379.588	322.38
379.968	333.45
380.349	316.05
380.729	330.74
381.109	335.71
381.489	327.12
381.87	341.81
382.25	355.37
382.63	338.88
383.01	339.55
383.39	329.38
383.77	359.89
384.15	355.82
384.53	353.79
384.91	347.91
385.29	370.74
385.67	351.3
386.049	334.58
386.429	341.59
386.809	341.59
387.189	361.25
387.568	350.17
387.948	327.12
388.328	368.93
388.707	357.86
389.087	364.19
389.466	345.43
389.846	389.04
390.225	365.09
390.605	360.12
390.984	361.25
391.363	354.92
391.743	377.74
392.122	343.85
392.501	389.72
392.881	389.27
393.26	378.65
393.639	384.3
394.018	373.68
394.397	347.01
394.776	384.07
395.155	387.24
395.534	396.05
395.913	386.11
396.292	411.42
396.671	385.65
397.05	400.57
397.429	394.24
397.808	379.33
398.186	393.79
398.565	414.13
398.944	411.19
399.323	403.51
399.701	421.13
400.08	420.91
400.458	412.55
400.837	417.29
401.215	408.93
401.594	407.35
401.972	430.4
402.351	434.24
402.729	430.4
403.107	428.36
403.486	462.94
403.864	436.95
404.242	450.06
404.62	461.36
404.999	450.74
405.377	489.61
405.755	446.67
406.133	470.62
406.511	487.35
406.889	483.73
407.267	497.06
407.645	507.01
408.023	498.42
408.401	497.06
408.779	506.78
409.156	515.59
409.534	505.2
409.912	520.11
410.29	527.12
410.667	557.85
411.045	575.93
411.422	555.37
411.8	572.54
412.178	584.74
412.555	601.69
412.933	564.41
413.31	616.38
413.687	615.48
414.065	617.74
414.442	641.47
414.819	646.89
415.197	656.38
415.574	657.06
415.951	654.8
416.328	684.63
416.705	706.55
417.082	694.12
417.46	710.62
417.837	741.35
418.214	741.12
418.591	765.08
418.967	742.93
419.344	774.12
419.721	787.23
420.098	778.64
420.475	806.21
420.852	832.42
421.228	826.32
421.605	851.63
421.982	825.19
422.358	867.45
422.735	874.45
423.111	890.73
423.488	922.81
423.864	945.41
424.241	939.54
424.617	984.73
424.994	956.71
425.37	975.47
425.746	1010.04
426.123	1026.54
426.499	1045.07
426.875	1070.61
427.251	1058.86
427.627	1092.98
428.003	1098.4
428.379	1106.09
428.756	1129.14
429.132	1130.49
429.507	1175.92
429.883	1160.55
430.259	1197.38
430.635	1214.56
431.011	1210.72
431.387	1242.58
431.763	1251.85
432.138	1236.7
432.514	1281.9
432.89	1290.04
433.265	1354.22
433.641	1350.83
434.016	1368.23
434.392	1419.07
434.767	1436.47
435.143	1452.29
435.518	1469.24
435.894	1521.9
436.269	1531.61
436.644	1565.96
437.02	1606.41
437.395	1577.94
437.77	1650.93
438.145	1675.79
438.52	1677.37
438.895	1758.5
439.271	1745.17
439.646	1790.36
440.021	1784.71
440.395	1814.09
440.77	1839.17
441.145	1862
441.52	1906.52
441.895	1919.85
442.27	1930.47
442.645	1945.16
443.019	1990.81
443.394	1992.84
443.769	2020.86
444.143	2039.85
444.518	2079.39
444.892	2065.16
445.267	2117.59
445.641	2124.14
446.016	2157.36
446.39	2173.86
446.764	2201.65
447.139	2160.52
447.513	2208.2
447.887	2226.96
448.262	2244.14
448.636	2262.44
449.01	2308.32
449.384	2295.21
449.758	2321.65
450.132	2385.38
450.506	2343.34
450.88	2384.92
451.254	2414.53
451.628	2440.29
452.002	2465.82
452.376	2450.01
452.75	2502.89
453.123	2516.67
453.497	2575.88
453.871	2560.06
454.244	2661.75
454.618	2663.33
454.992	2698.59
455.365	2670.79
455.739	2758.92
456.112	2792.37
456.486	2773.39
456.859	2843.44
457.232	2887.28
457.606	2893.16
457.979	2911.24
458.352	2964.79
458.725	3024
459.099	3033.72
459.472	3103.1
459.845	3086.83
460.218	3120.05
460.591	3143.77
460.964	3193.94
461.337	3266.71
461.71	3367.5
462.083	3339.93
462.456	3359.59
462.829	3404.56
463.201	3448.4
463.574	3438.68
463.947	3507.15
464.32	3582.18
464.692	3607.72
465.065	3616.3
465.438	3672.35
465.81	3698.56
466.183	3780.37
466.555	3853.81
466.928	3876.86
467.3	3851.78
467.672	3940.81
468.045	4017.65
468.417	4021.26
468.789	4017.2
469.161	4108.49
469.534	4169.73
469.906	4260.81
470.278	4306.91
470.65	4328.83
471.022	4432.1
471.394	4427.58
471.766	4474.13
472.138	4522.04
472.51	4685.65
472.882	4691.98
473.253	4739.66
473.625	4853.56
473.997	4866.44
474.369	4931.52
474.74	4994.12
475.112	5121.57
475.484	5169.26
475.855	5225.53
476.227	5261.68
476.598	5415.13
476.97	5452.19
477.341	5543.48
477.713	5610.6
478.084	5697.15
478.455	5804.72
478.827	5829.13
479.198	6000.42
479.569	5985.96
479.94	6191.83
480.311	6184.82
480.682	6352.95
481.053	6466.85
481.424	6498.71
481.795	6564.25
482.166	6687.41
482.537	6808.76
482.908	6877.69
483.279	6986.38
483.65	7101.41
484.021	7202.2
484.391	7269.09
484.762	7318.35
485.133	7420.27
485.503	7415.3
485.874	7665.24
486.244	7683.99
486.615	7845.34
486.985	7905.23
487.356	7989.97
487.726	8063.64
488.097	8250.98
488.467	8256.18
488.837	8417.98
489.207	8446.23
489.578	8594.93
489.948	8657.3
490.318	8735.72
490.688	8739.33
491.058	8882.38
491.428	8938.88
491.798	9120.57
492.168	9270.39
492.538	9257.06
492.908	9345.87
493.278	9406.21
493.648	9473.1
494.017	9530.95
494.387	9527.79
494.757	9670.16
495.126	9702.02
495.496	9663.6
495.866	9809.13
496.235	9903.14
496.605	9954.22
496.974	10010.26
497.344	10092.52
497.713	10057.04
498.082	10131.61
498.452	10258.16
498.821	10205.73
499.19	10276.47
499.559	10374.77
499.928	10381.1
500.298	10400.08
500.667	10458.16
501.036	10494.99
501.405	10594.88
501.774	10498.83
502.143	10603.01
502.512	10672.39
502.88	10679.17
503.249	10703.8
503.618	10817.7
503.987	10739.96
504.356	10832.84
504.724	10829.22
505.093	10852.72
505.462	10919.16
505.83	10938.82
506.199	10977.24
506.567	11110.57
506.936	10959.39
507.304	11209.55
507.672	11190.79
508.041	11212.04
508.409	11166.61
508.777	11262.43
509.145	11353.05
509.514	11297.91
509.882	11287.97
510.25	11311.92
510.618	11449.54
510.986	11416.78
511.354	11419.49
511.722	11471.69
512.09	11469.43
512.458	11503.33
512.826	11614.06
513.193	11546.72
513.561	11524.8
513.929	11619.03
514.297	11732.93
514.664	11713.49
515.032	11732.02
515.4	11735.41
515.767	11682.31
516.135	11710.55
516.502	11609.77
516.869	11793.04
517.237	11792.81
517.604	11680.95
517.972	11771.79
518.339	11867.39
518.706	11749.2
519.073	11839.36
519.44	11809.08
519.808	11925.69
520.175	11831
520.542	11937.21
520.909	11928.4
521.276	11870.55
521.643	11876.2
522.009	11964.56
522.376	12006.14
522.743	11964.33
523.11	12070.32
523.477	12012.69
523.843	12086.14
524.21	12140.6
524.577	12168.85
524.943	12165.23
525.31	12132.69
525.676	12236.42
526.043	12144.89
526.409	12256.98
526.776	12275.06
527.142	12214.72
527.508	12186.47
527.874	12235.96
528.241	12183.99
528.607	12162.75
528.973	12255.17
529.339	12146.02
529.705	12229.41
530.071	12225.79
530.437	12187.38
530.803	12190.09
531.169	12169.3
531.535	12067.83
531.901	12043.43
532.267	12111.22
532.632	12102.63
532.998	12018.34
533.364	12089.53
533.73	12001.85
534.095	12028.74
534.461	12030.55
534.826	12010.88
535.192	12010.88
535.557	11969.98
535.923	11918.23
536.288	11904.45
536.653	11771.79
537.019	11694.51
537.384	11784.22
537.749	11792.13
538.114	11682.98
538.479	11698.12
538.845	11618.8
539.21	11537.9
539.575	11547.62
539.94	11534.97
540.305	11544
540.67	11379.71
541.034	11417.91
541.399	11444.8
541.764	11388.75
542.129	11339.94
542.494	11286.38
542.858	11222.88
543.223	11142.66
543.587	11204.8
543.952	11116.22
544.316	11002.55
544.681	11036.45
545.045	11022.66
545.41	10967.52
545.774	10955.32
546.138	10832.16
546.503	10814.53
546.867	10769.34
547.231	10754.65
547.595	10714.42
547.959	10721.43
548.324	10598.04
548.688	10635.1
549.052	10544.48
549.416	10469.68
549.779	10451.83
550.143	10414.99
550.507	10468.33
550.871	10361.89
551.235	10306.97
551.599	10338.61
551.962	10294.55
552.326	10199.63
552.689	10275.34
553.053	10131.84
553.417	10104.95
553.78	10185.85
554.143	10063.82
554.507	10026.3
554.87	10084.61
555.234	10059.75
555.597	10010.94
555.96	9894.56
556.323	9945.85
556.686	9881.22
557.05	9916.02
557.413	9862.01
557.776	9808
558.139	9786.76
558.502	9725.07
558.865	9778.4
559.228	9790.15
559.59	9791.06
559.953	9725.52
560.316	9776.82
560.679	9721.91
561.041	9746.76
561.404	9742.47
561.767	9774.33
562.129	9676.48
562.492	9759.87
562.854	9638.29
563.217	9648.69
563.579	9642.36
563.941	9627.22
564.304	9622.02
564.666	9719.19
565.028	9629.93
565.39	9605.98
565.753	9624.73
566.115	9683.49
566.477	9637.84
566.839	9658.4
567.201	9690.49
567.563	9662.25
567.925	9675.35
568.287	9657.5
568.648	9674.9
569.01	9653.66
569.372	9744.5
569.734	9683.04
570.095	9748.35
570.457	9757.84
570.819	9736.82
571.18	9699.08
571.542	9688.91
571.903	9679.65
572.265	9683.94
572.626	9771.62
572.987	9713.32
573.349	9749.25
573.71	9706.09
574.071	9782.69
574.432	9676.48
574.794	9742.02
575.155	9757.84
575.516	9668.57
575.877	9723.94
576.238	9774.79
576.599	9746.31
576.96	9711.51
577.32	9751.06
577.681	9767.55
578.042	9797.16
578.403	9737.5
578.763	9799.64
579.124	9712.41
579.485	9791.73
579.845	9812.98
580.206	9743.83
580.566	9777.95
580.927	9761.45
581.287	9826.08
581.648	9669.03
582.008	9780.89
582.368	9749.48
582.728	9760.1
583.089	9768.46
583.449	9709.48
583.809	9711.06
584.169	9670.16
584.529	9659.99
584.889	9747.44
585.249	9676.03
585.609	9638.74
585.969	9632.64
586.329	9663.15
586.688	9730.94
587.048	9691.85
587.408	9654.56
587.768	9587.9
588.127	9623.6
588.487	9582.93
588.846	9684.84
589.206	9532.08
589.565	9603.04
589.925	9716.93
590.284	9576.15
590.643	9605.98
591.003	9650.72
591.362	9608.69
591.721	9668.8
592.08	9656.14
592.44	9597.39
592.799	9552.19
593.158	9600.33
593.517	9595.81
593.876	9589.48
594.235	9538.18
594.593	9578.18
594.952	9594.9
595.311	9482.82
595.67	9492.08
596.029	9572.76
596.387	9544.06
596.746	9521.91
597.104	9577.05
597.463	9513.78
597.822	9559.2
598.18	9467.67
598.538	9474
598.897	9471.29
599.255	9555.58
599.613	9556.94
599.972	9498.63
600.33	9487.79
600.688	9429.03
601.046	9492.98
601.404	9497.5
601.762	9501.12
602.12	9480.33
602.478	9570.5
602.836	9455.7
603.194	9476.26
603.552	9442.82
603.91	9457.05
604.268	9441.01
604.625	9377.96
604.983	9516.49
605.341	9452.08
605.698	9496.6
606.056	9484.62
606.413	9460.67
606.771	9465.41
607.128	9444.62
607.485	9364.63
607.843	9481.23
608.2	9484.62
608.557	9486.88
608.914	9474.45
609.272	9499.31
609.629	9524.17
609.986	9522.14
610.343	9482.14
610.7	9520.1
611.057	9492.31
611.414	9490.73
611.771	9519.88
612.127	9560.1
612.484	9495.7
612.841	9587.45
613.198	9582.02
613.554	9574.79
613.911	9557.62
614.267	9530.27
614.624	9565.98
614.98	9577.5
615.337	9556.71
615.693	9523.94
616.05	9587.9
616.406	9715.8
616.762	9587.67
617.118	9578.86
617.475	9662.47
617.831	9659.76
618.187	9614.79
618.543	9710.61
618.899	9717.84
619.255	9634.68
619.611	9658.86
619.967	9701.11
620.323	9673.55
620.678	9661.12
621.034	9618.18
621.39	9678.06
621.746	9594.9
622.101	9765.97
622.457	9667.44
622.812	9614.79
623.168	9688.23
623.523	9680.78
623.879	9717.39
624.234	9566.88
624.589	9617.95
624.945	9617.5
625.3	9612.08
625.655	9637.16
626.01	9584.73
626.365	9645.75
626.72	9630.83
627.075	9613.43
627.43	9626.31
627.785	9582.7
628.14	9601.68
628.495	9584.96
628.85	9605.07
629.205	9599.87
629.559	9652.08
629.914	9594.45
630.269	9575.69
630.623	9535.24
630.978	9567.33
631.332	9565.75
631.687	9490.05
632.041	9472.65
632.396	9514
632.75	9476.94
633.104	9467.45
633.459	9495.24
633.813	9491.63
634.167	9502.02
634.521	9380.67
634.875	9432.87
635.229	9445.3
635.583	9356.04
635.937	9365.3
636.291	9335.7
636.645	9394.91
636.999	9387.9
637.352	9253.44
637.706	9318.98
638.06	9352.42
638.413	9306.32
638.767	9308.36
639.121	9265.87
639.474	9241.92
639.828	9228.59
640.181	9154.01
640.534	9254.57
640.888	9202.37
641.241	9201.47
641.594	9241.69
641.947	9241.24
642.301	9249.38
642.654	9161.02
643.007	9217.29
643.36	9135.48
643.713	9127.34
644.066	9233.1
644.419	9154.24
644.771	9108.14
645.124	8996.5
645.477	8998.76
645.83	8988.14
646.182	8944.98
646.535	8898.65
646.888	8947.01
647.24	8843.96
647.593	8875.6
647.945	8853.91
648.298	8853.23
648.65	8826.11
649.002	8863.17
649.355	8909.5
649.707	8888.48
650.059	8891.64
650.411	8994.92
650.763	9064.3
651.115	9055.26
651.467	9056.39
651.819	9104.52
652.171	9086.67
652.523	8999.44
652.875	9084.41
653.227	8962.6
653.578	9066.33
653.93	9028.59
654.282	8961.93
654.633	9007.35
654.985	9086.67
655.337	9018.2
655.688	9090.51
656.039	9090.74
656.391	9042.83
656.742	9062.71
657.094	9040.12
657.445	9137.51
657.796	9060.23
658.147	9082.83
658.498	9123.96
658.849	9107.68
659.2	9089.61
659.551	9069.27
659.902	9076.72
660.253	9071.53
660.604	9108.81
660.955	9079.44
661.306	9117.18
661.656	9154.46
662.007	9115.59
662.358	9137.29
662.708	9122.37
663.059	9122.83
663.409	9082.37
663.76	9156.04
664.11	9213.22
664.461	9163.05
664.811	9201.69
665.161	9119.21
665.511	9068.14
665.862	9128.7
666.212	9182.26
666.562	9208.02
666.912	9207.12
667.262	9124.86
667.612	9174.8
667.962	9171.86
668.312	9130.96
668.662	9160.56
669.011	9172.32
669.361	9115.82
669.711	9182.71
670.06	9149.94
670.41	9101.81
670.76	9108.14
671.109	9111.07
671.459	9126.89
671.808	9115.37
672.157	9085.31
672.507	9114.01
672.856	9038.99
673.205	9148.81
673.554	9086.22
673.904	9094.35
674.253	9053.22
674.602	9070.4
674.951	8981.59
675.3	8845.32
675.649	9014.58
675.998	8965.54
676.346	8989.5
676.695	9076.05
677.044	8942.49
677.393	9020
677.741	8977.29
678.09	8968.93
678.438	8965.32
678.787	8973
679.135	8924.41
679.484	8880.8
679.832	8969.38
680.181	8857.52
680.529	8901.14
680.877	8859.78
681.225	8838.99
681.573	8830.86
681.922	8839.44
682.27	8845.54
682.618	8785.21
682.966	8812.1
683.314	8766.68
683.661	8670.86
684.009	8705.89
684.357	8684.64
684.705	8651.2
685.053	8628.83
685.4	8649.17
685.748	8580.47
686.095	8513.35
686.443	8485.1
686.79	8506.34
687.138	8535.04
687.485	8539.56
687.832	8492.56
688.18	8491.2
688.527	8467.93
688.874	8437.42
689.221	8368.49
689.568	8344.77
689.915	8387.03
690.262	8328.04
690.609	8310.64
690.956	8263.19
691.303	8258.89
691.65	8257.54
691.997	8196.75
692.344	8172.34
692.69	8113.13
693.037	8137.09
693.383	8106.81
693.73	8045.34
694.077	8037.88
694.423	8050.54
694.769	7975.51
695.116	7913.82
695.462	7940.48
695.808	7884.21
696.155	7931.9
696.501	7825.46
696.847	7849.19
697.193	7781.39
697.539	7806.25
697.885	7739.81
698.231	7685.12
698.577	7659.59
698.923	7654.16
699.269	7583.43
699.614	7538.91
699.96	7563.09
700.306	7518.8
700.651	7524.9
700.997	7434.96
701.342	7394.73
701.688	7389.99
702.033	7342.08
702.379	7415.75
702.724	7286.94
703.069	7408.97
703.415	7197.68
703.76	7258.69
704.105	7248.07
704.45	7170.79
704.795	7166.94
705.14	7100.28
705.485	7163.33
705.83	7081.07
706.175	7101.18
706.52	7088.98
706.865	7070.68
707.209	7036.78
707.554	6987.74
707.899	7006.95
708.243	6942.32
708.588	6953.39
708.932	6946.61
709.277	6879.27
709.621	6900.06
709.966	6822.32
710.31	6872.26
710.654	6824.35
710.998	6793.85
711.342	6799.72
711.687	6800.85
712.031	6756.33
712.375	6761.08
712.719	6706.84
713.063	6717.92
713.407	6690.12
713.75	6701.42
714.094	6676.79
714.438	6682.89
714.782	6659.16
715.125	6627.3
715.469	6640.86
715.812	6572.61
716.156	6579.39
716.499	6619.39
716.843	6550.69
717.186	6548.2
717.53	6533.74
717.873	6553.4
718.216	6573.29
718.559	6470.47
718.902	6478.83
719.246	6513.4
719.589	6475.89
719.932	6489.22
720.275	6494.42
720.617	6498.94
720.96	6406.29
721.303	6444.7
721.646	6425.72
721.989	6435.21
722.331	6413.74
722.674	6447.64
723.016	6426.62
723.359	6444.48
723.701	6441.99
724.044	6391.15
724.386	6364.03
724.729	6345.27
725.071	6379.85
725.413	6360.19
725.755	6369
726.097	6377.36
726.439	6321.32
726.782	6308.89
727.124	6352.95
727.465	6338.49
727.807	6339.4
728.149	6303.69
728.491	6297.59
728.833	6286.06
729.175	6304.59
729.516	6320.41
729.858	6265.95
730.199	6359.96
730.541	6308.21
730.882	6295.1
731.224	6342.79
731.565	6253.3
731.906	6296.91
732.248	6338.04
732.589	6280.64
732.93	6301.2
733.271	6295.33
733.612	6348.66
733.953	6300.98
734.294	6329.45
734.635	6332.62
734.976	6342.11
735.317	6264.14
735.658	6343.46
735.999	6387.53
736.339	6323.12
736.68	6297.36
737.021	6359.06
737.361	6329.68
737.702	6364.93
738.042	6310.47
738.383	6286.74
738.723	6371.03
739.063	6384.82
739.404	6361.09
739.744	6309.79
740.084	6361.77
740.424	6369.9
740.764	6429.11
741.104	6455.32
741.444	6432.27
741.784	6430.92
742.124	6528.54
742.464	6474.53
742.804	6510.92
743.143	6495.78
743.483	6574.19
743.823	6547.98
744.162	6589.33
744.502	6631.82
744.841	6608.54
745.181	6684.47
745.52	6727.41
745.86	6839.27
746.199	6789.33
746.538	6824.58
746.877	6841.3
747.216	6948.42
747.556	6953.16
747.895	6961.53
748.234	6979.83
748.573	7066.16
748.911	7144.8
749.25	7216.66
749.589	7230.67
749.928	7308.18
750.267	7384.79
750.605	7421.17
750.944	7542.3
751.283	7574.62
751.621	7652.36
751.96	7755.63
752.298	7833.14
752.636	7981.61
752.975	7997.88
753.313	8024.1
753.651	8250.76
753.989	8321.72
754.327	8420.47
754.666	8554.03
755.004	8689.84
755.342	8808.03
755.679	8872.44
756.017	9054.35
756.355	9242.14
756.693	9348.13
757.031	9496.83
757.368	9659.76
757.706	9730.94
758.044	9854.56
758.381	10080.31
758.719	10149.46
759.056	10386.52
759.394	10561.66
759.731	10637.59
760.068	10775.66
760.405	10991.93
760.743	11167.97
761.08	11271.47
761.417	11463.1
761.754	11592.59
762.091	11821.29
762.428	12008.17
762.765	12131.56
763.102	12324.55
763.438	12461.95
763.775	12606.12
764.112	12882.73
764.449	13148.26
764.785	13250.4
765.122	13343.05
765.458	13464.41
765.795	13546.21
766.131	13830.72
766.467	14019.65
766.804	14091.06
767.14	14256.02
767.476	14388.9
767.812	14478.39
768.148	14657.14
768.485	14820.98
768.821	14884.48
769.157	15159.28
769.492	15186.39
769.828	15381.42
770.164	15423.68
770.5	15629.77
770.836	15746.61
771.171	15783.21
771.507	15967.16
771.842	16002.19
772.178	16079.48
772.513	16211.45
772.849	16352.92
773.184	16403.09
773.519	16415.51
773.855	16563.53
774.19	16598.79
774.525	16669.07
774.86	16816.86
775.195	16929.4
775.53	16944.54
775.865	16892.79
776.2	17017.31
776.535	16948.83
776.87	17187.7
777.205	17119.45
777.539	17154.93
777.874	17239.9
778.209	17120.58
778.543	17272.22
778.878	17364.42
779.212	17387.01
779.547	17425.43
779.881	17531.64
780.215	17403.96
780.55	17508.37
780.884	17513.56
781.218	17486.22
781.552	17616.84
781.886	17569.38
782.22	17516.28
782.554	17617.52
782.888	17488.71
783.222	17507.92
783.556	17471.98
783.889	17479.67
784.223	17423.62
784.557	17403.51
784.89	17509.27
785.224	17436.28
785.557	17375.72
785.891	17347.69
786.224	17377.98
786.558	17429.05
786.891	17284.19
787.224	17315.83
787.557	17316.51
787.891	17339.56
788.224	17279.22
788.557	17370.52
788.89	17327.58
789.223	17396.51
789.556	17204.87
789.888	17240.13
790.221	17210.75
790.554	17099.11
790.887	17145.89
791.219	17074.03
791.552	17146.57
791.884	17029.96
792.217	16974.37
792.549	17103.86
792.882	16978.89
793.214	16979.34
793.546	16922.62
793.879	16831.77
794.211	16744.77
794.543	16849.63
794.875	16832.68
795.207	16987.93
795.539	16810.98
795.871	16739.8
796.203	16720.37
796.535	16537.32
796.867	16602.4
797.198	16545.91
797.53	16653.25
797.862	16435.85
798.193	16553.14
798.525	16399.02
798.856	16439.47
799.188	16290.55
799.519	16204.22
799.85	16213.26
800.182	16271.79
800.513	16271.79
800.844	16074.28
801.175	16295.97
801.506	16188.18
801.837	16103.88
802.168	15985.7
802.499	16061.17
802.83	15921.74
803.161	15973.72
803.491	15969.42
803.822	15912.7
804.153	15903.89
804.483	15825.7
804.814	15791.12
805.145	15744.12
805.475	15695.08
805.805	15640.17
806.136	15660.28
806.466	15646.27
806.796	15706.83
807.126	15533.05
807.457	15417.8
807.787	15550.23
808.117	15477.01
808.447	15458.48
808.777	15398.14
809.107	15366.28
809.436	15290.8
809.766	15264.36
810.096	15272.04
810.426	15136.23
810.755	15183
811.085	15098.94
811.414	15265.94
811.744	15030.69
812.073	15050.58
812.403	15055.78
812.732	15004.03
813.061	14980.98
813.39	14927.42
813.719	14935.78
814.049	14898.94
814.378	14853.75
814.707	14890.36
815.036	14841.54
815.365	14761.32
815.693	14618.5
816.022	14684.26
816.351	14635.67
816.68	14588.67
817.008	14643.81
817.337	14555.9
817.665	14518.62
817.994	14521.33
818.322	14501.44
818.651	14388.9
818.979	14440.43
819.307	14520.88
819.636	14438.17
819.964	14360.43
820.292	14419.63
820.62	14420.09
820.948	14265.51
821.276	14319.98
821.604	14276.81
821.932	14294.67
822.259	14417.83
822.587	14363.82
822.915	14319.52
823.243	14444.49
823.57	14261
823.898	14327.89
824.225	14263.93
824.553	14277.49
824.88	14307.55
825.207	14397.04
825.535	14376.92
825.862	14383.48
826.189	14281.79
826.516	14470.71
826.843	14428.67
827.17	14296.7
827.497	14354.1
827.824	14402.91
828.151	14393.87
828.478	14375.12
828.805	14400.65
829.131	14396.81
829.458	14334.89
829.785	14274.33
830.111	14327.89
830.438	14376.7
830.764	14397.71
831.09	14371.95
831.417	14332.18
831.743	14368.79
832.069	14308
832.395	14363.37
832.722	14315.68
833.048	14345.96
833.374	14292.63
833.7	14208.34
834.026	14259.64
834.351	14259.19
834.677	14247.89
835.003	14331.05
835.329	14195.91
835.654	14201.11
835.98	14145.74
836.306	14194.78
836.631	14166.53
836.956	14197.95
837.282	14190.26
837.607	14042.47
837.932	14102.81
838.258	14068.68
838.583	14075.01
838.908	13978.06
839.233	14051.06
839.558	13977.61
839.883	14004.05
840.208	13859.65
840.533	13882.02
840.858	13845.41
841.182	13885.41
841.507	13898.07
841.832	13752.31
842.156	13841.12
842.481	13766.54
842.805	13750.5
843.13	13683.38
843.454	13727
843.778	13631.18
844.103	13547.57
844.427	13598.41
844.751	13609.03
845.075	13583.72
845.399	13493.11
845.723	13431.19
846.047	13354.8
846.371	13345.31
846.695	13340.12
847.019	13176.5
847.343	13161.59
847.666	13135.37
847.99	12995.49
848.313	12977.41
848.637	12980.8
848.96	12977.86
849.284	12966.57
849.607	12783.07
849.931	12764.09
850.254	12733.8
850.577	12588.5
850.9	12619.46
851.223	12455.62
851.546	12574.49
851.869	12419.69
852.192	12516.86
852.515	12344.21
852.838	12365.23
853.161	12269.41
853.483	12207.26
853.806	12171.33
854.129	12190.77
854.451	12117.55
854.774	12011.56
855.096	12028.51
855.419	11992.81
855.741	11911.23
856.063	11944.67
856.385	11936.54
856.708	11791.23
857.03	11802.75
857.352	11806.82
857.674	11746.94
857.996	11688.86
858.318	11635.3
858.64	11606.15
858.961	11585.81
859.283	11472.59
859.605	11497.9
859.926	11577.9
860.248	11478.92
860.57	11465.14
860.891	11500.84
861.212	11437.11
861.534	11329.32
861.855	11371.81
862.176	11297.46
862.498	11366.61
862.819	11329.55
863.14	11258.36
863.461	11240.28
863.782	11283.67
864.103	11165.48
864.424	11198.93
864.745	11172.71
865.065	11132.94
865.386	11120.96
865.707	11114.19
866.027	11037.13
866.348	11075.54
866.668	11056.79
866.989	11044.58
867.309	10981.53
867.63	11067.18
867.95	10943.34
868.27	10878.71
868.59	10957.35
868.91	10941.08
869.23	10897.92
869.55	10905.83
869.87	10977.69
870.19	10820.86
870.51	10798.71
870.83	10840.29
871.15	10824.02
871.469	10771.14
871.789	10806.4
872.109	10801.2
872.428	10680.75
872.748	10749.9
873.067	10666.51
873.386	10636.01
873.706	10695.89
874.025	10558.72
874.344	10575.67
874.663	10659.73
874.982	10561.66
875.301	10543.8
875.62	10459.51
875.939	10496.57
876.258	10545.61
876.577	10503.81
876.896	10517.82
877.214	10382.45
877.533	10464.94
877.852	10412.06
878.17	10417.93
878.489	10432.4
878.807	10479.4
879.125	10390.59
879.444	10330.7
879.762	10411.6
880.08	10374.54
880.398	10272.4
880.716	10344.49
881.034	10230.14
881.352	10278.5
881.67	10217.71
881.988	10249.58
882.306	10185.85
882.624	10146.75
882.941	10033.31
883.259	10059.52
883.577	10108.79
883.894	10021.56
884.212	9989.02
884.529	10003.48
884.846	9946.53
885.164	9999.19
885.481	9926.65
885.798	9944.27
886.115	9807.1
886.432	9880.55
886.75	9788.34
887.067	9841
887.383	9829.02
887.7	9835.12
888.017	9706.76
888.334	9744.73
888.651	9708.12
888.967	9706.09
889.284	9603.04
889.6	9619.76
889.917	9511.52
890.233	9627.22
890.55	9541.12
890.866	9570.04
891.182	9498.63
891.498	9410.95
891.815	9528.46
892.131	9439.65
892.447	9397.39
892.763	9307.45
893.079	9350.39
893.395	9314.68
893.71	9321.01
894.026	9214.35
894.342	9222.48
894.657	9191.07
894.973	9195.37
895.289	9167.12
895.604	9127.12
895.92	9060.45
896.235	8995.82
896.55	8956.95
896.865	8964.64
897.181	8913.11
897.496	8983.85
897.811	8871.98
898.126	8829.05
898.441	8876.73
898.756	8800.35
899.071	8714.7
899.386	8706.34
899.7	8648.04
900.015	8667.24
900.33	8544.54
900.644	8543.18
900.959	8594.7
901.273	8517.42
901.588	8515.84
901.902	8491.2
902.216	8433.58
902.531	8395.61
902.845	8403.75
903.159	8349.74
903.473	8302.51
903.787	8276.97
904.101	8262.06
904.415	8213.47
904.729	8149.52
905.042	8102.06
905.356	8126.47
905.67	8077.88
905.984	8117.88
906.297	7981.84
906.611	7999.46
906.924	7950.65
907.237	7984.1
907.551	7909.07
907.864	7869.52
908.177	7885.12
908.491	7813.03
908.804	7736.87
909.117	7752.47
909.43	7651.9
909.743	7653.03
910.056	7586.14
910.368	7630.21
910.681	7533.71
910.994	7540.72
911.307	7503.21
911.619	7461.17
911.932	7498.24
912.244	7372.81
912.557	7423.89
912.869	7327.84
913.181	7314.74
913.494	7237.22
913.806	7227.51
914.118	7249.65
914.43	7262.31
914.742	7214.17
915.054	7130.79
915.366	7121.97
915.678	7110.67
915.99	7097.12
916.302	7030.68
916.613	7023.45
916.925	6982.09
917.236	6914.3
917.548	6915.65
917.859	6897.8
918.171	6841.08
918.482	6853.96
918.794	6770.12
919.105	6806.95
919.416	6710.69
919.727	6735.77
920.038	6728.31
920.349	6696
920.66	6678.37
920.971	6643.57
921.282	6646.05
921.593	6597.24
921.903	6574.42
922.214	6498.71
922.525	6473.18
922.835	6471.6
923.146	6430.69
923.456	6427.98
923.767	6383.01
924.077	6410.13
924.387	6371.26
924.697	6295.78
925.008	6259.4
925.318	6299.85
925.628	6251.94
925.938	6224.37
926.248	6167.65
926.558	6205.61
926.867	6141.89
927.177	6102.34
927.487	6048.78
927.796	6044.49
928.106	6030.03
928.416	5995.22
928.725	5953.42
929.034	5938.95
929.344	5956.81
929.653	5973.08
929.962	5915.23
930.271	5850.82
930.581	5858.5
930.89	5827.09
931.199	5767.89
931.508	5744.16
931.817	5814.44
932.125	5697.6
932.434	5722.91
932.743	5694.67
933.051	5590.71
933.36	5647.66
933.669	5596.14
933.977	5563.14
934.286	5612.18
934.594	5573.99
934.902	5468.91
935.21	5516.14
935.519	5473.66
935.827	5483.15
936.135	5392.08
936.443	5402.24
936.751	5402.24
937.059	5361.12
937.367	5339.42
937.674	5314.79
937.982	5302.36
938.29	5298.07
938.597	5278.18
938.905	5218.75
939.213	5213.1
939.52	5155.7
939.827	5181.69
940.135	5161.35
940.442	5070.73
940.749	5066.66
941.056	5090.84
941.363	5025.53
941.67	4999.09
941.977	5020.33
942.284	5007
942.591	4966.1
942.898	4981.47
943.205	4938.3
943.511	4897.17
943.818	4858.98
944.125	4859.21
944.431	4840.45
944.738	4823.05
945.044	4814.69
945.35	4761.13
945.657	4748.93
945.963	4745.77
946.269	4703.73
946.575	4702.83
946.881	4689.5
947.187	4657.18
947.493	4597.29
947.799	4611.98
948.105	4595.26
948.41	4549.39
948.716	4587.13
949.022	4522.49
949.327	4516.62
949.633	4473.68
949.938	4475.04
950.244	4506.9
950.549	4440.69
950.854	4406.34
951.16	4393.01
951.465	4379.9
951.77	4349.62
952.075	4379.9
952.38	4310.97
952.685	4336.51
952.99	4303.74
953.294	4259.45
953.599	4277.75
953.904	4220.13
954.209	4221.71
954.513	4188.27
954.818	4139.23
955.122	4157.31
955.426	4100.81
955.731	4131.54
956.035	4071.66
956.339	4078.66
956.643	4081.38
956.948	4046.8
957.252	4045.67
957.556	3976.07
957.86	4014.48
958.163	3967.71
958.467	4009.29
958.771	3956.63
959.075	3918.89
959.378	3920.02
959.682	3917.54
959.985	3882.96
960.289	3826.92
960.592	3860.36
960.896	3840.25
961.199	3822.85
961.502	3807.94
961.805	3794.6
962.108	3739.01
962.411	3705.79
962.714	3771.1
963.017	3722.52
963.32	3771.33
963.623	3708.5
963.926	3694.49
964.228	3622.18
964.531	3662.63
964.833	3617.89
965.136	3601.16
965.438	3598.22
965.741	3539.92
966.043	3568.62
966.345	3532.01
966.648	3537.89
966.95	3486.59
967.252	3504.89
967.554	3492.24
967.856	3481.62
968.158	3452.24
968.46	3440.04
968.761	3411.79
969.063	3411.11
969.365	3368.17
969.666	3383.77
969.968	3365.01
970.269	3371.56
970.571	3306.71
970.872	3314.84
971.174	3275.3
971.475	3299.25
971.776	3287.95
972.077	3257.22
972.378	3226.93
972.679	3237.56
972.98	3235.97
973.281	3225.58
973.582	3231.45
973.883	3179.7
974.183	3224.45
974.484	3165.24
974.785	3141.51
975.085	3160.95
975.386	3149.2
975.686	3075.3
975.986	3096.54
976.287	3102.42
976.587	3039.6
976.887	3052.02
977.187	3007.73
977.487	3054.06
977.787	2968.64
978.087	2979.26
978.387	2998.69
978.687	2950.56
978.987	2973.61
979.286	2895.19
979.586	2956.89
979.885	2918.92
980.185	2897.45
980.484	2890.22
980.784	2893.38
981.083	2897
981.382	2845.48
981.682	2850
981.981	2809.32
982.28	2807.51
982.579	2782.65
982.878	2784.91
983.177	2768.87
983.475	2780.84
983.774	2737.46
984.073	2719.15
984.372	2710.34
984.67	2713.28
984.969	2696.78
985.267	2727.29
985.566	2685.48
985.864	2658.14
986.162	2652.71
986.461	2636.89
986.759	2627.4
987.057	2604.58
987.355	2622.21
987.653	2601.19
987.951	2555.54
988.249	2594.86
988.547	2573.62
988.844	2554.18
989.142	2590.79
989.44	2492.72
989.737	2515.54
990.035	2494.98
990.332	2505.82
990.63	2467.41
990.927	2461.08
991.224	2423.34
991.521	2437.8
991.819	2455.43
992.116	2448.65
992.413	2409.33
992.71	2378.37
993.006	2369.56
993.303	2376.11
993.6	2384.02
993.897	2354.19
994.193	2359.39
994.49	2343.34
994.787	2348.31
995.083	2315.09
995.379	2285.26
995.676	2286.17
995.972	2264.93
996.268	2237.58
996.565	2251.82
996.861	2236
997.157	2264.25
997.453	2257.24
997.749	2223.57
998.044	2188.77
998.34	2205.94
998.636	2152.84
998.932	2175.44
999.227	2167.08
999.523	2144.25
999.818	2123.69
1000.114	2128.21
1000.409	2115.78
1000.704	2093.63
1001	2061.99
1001.295	2069.68
1001.59	2093.63
1001.885	2063.58
1002.18	2026.06
1002.475	2029.45
1002.77	2045.5
1003.065	1988.32
1003.359	1999.62
1003.654	2009.11
1003.949	1967.53
1004.243	1942
1004.538	1943.58
1004.832	1939.29
1005.127	1917.14
1005.421	1907.65
1005.715	1901.09
1006.009	1888.44
1006.304	1925.27
1006.598	1897.48
1006.892	1904.71
1007.186	1851.6
1007.48	1846.18
1007.773	1853.64
1008.067	1803.92
1008.361	1800.08
1008.655	1804.6
1008.948	1771.83
1009.242	1761.44
1009.535	1778.84
1009.829	1753.3
1010.122	1753.98
1010.415	1746.07
1010.708	1769.35
1011.001	1731.16
1011.295	1719.63
1011.588	1702.68
1011.881	1700.2
1012.173	1669.91
1012.466	1670.37
1012.759	1678.73
1013.052	1643.93
1013.344	1658.39
1013.637	1640.76
1013.93	1627.43
1014.222	1628.11
1014.514	1622.46
1014.807	1600.54
1015.099	1569.58
1015.391	1591.95
1015.683	1600.76
1015.976	1582.46
1016.268	1544.95
1016.56	1552.4
1016.851	1545.17
1017.143	1540.65
1017.435	1515.79
1017.727	1496.36
1018.018	1510.82
1018.31	1471.95
1018.602	1489.35
1018.893	1487.77
1019.185	1473.31
1019.476	1460.2
1019.767	1460.2
1020.058	1463.59
1020.35	1418.62
1020.641	1398.06
1020.932	1415.01
1021.223	1409.13
1021.514	1372.07
1021.804	1401.9
1022.095	1368
1022.386	1360.77
1022.677	1367.77
1022.967	1381.33
1023.258	1309.25
1023.548	1320.54
1023.839	1310.83
1024.129	1319.41
1024.419	1290.49
1024.709	1297.27
1025	1275.8
1025.29	1261.56
1025.58	1289.58
1025.87	1263.6
1026.16	1232.19
1026.449	1237.83
1026.739	1222.69
1027.029	1207.1
1027.319	1209.36
1027.608	1210.04
1027.898	1198.51
1028.187	1185.18
1028.477	1170.27
1028.766	1181.11
1029.055	1130.27
1029.344	1162.36
1029.634	1160.77
1029.923	1162.36
1030.212	1149.93
1030.501	1138.4
1030.79	1131.17
1031.078	1113.77
1031.367	1113.54
1031.656	1078.97
1031.945	1061.79
1032.233	1096.14
1032.522	1079.87
1032.81	1092.3
1033.099	1071.96
1033.387	1066.54
1033.675	1028.35
1033.963	1075.81
1034.251	1076.26
1034.54	1046.2
1034.828	1034.22
1035.116	1020.44
1035.403	1011.85
1035.691	1031.74
1035.979	1036.94
1036.267	991.74
1036.554	985.64
1036.842	1000.1
1037.129	961.01
1037.417	1013.43
1037.704	974.11
1037.992	943.15
1038.279	956.03
1038.566	933.66
1038.853	933.66
1039.14	933.66
