Data from hue_70_FLMS001491_97.txt Node
Date: Mon Feb 06 15:21:47 GMT 2017
User: dcchb
Spectrometer: FLMS00149
Trigger mode: 0
Integration Time (sec): 2.000000E-2
Scans to average: 10
Electric dark correction enabled: true
Nonlinearity correction enabled: false
Boxcar width: 0
XAxis mode: Wavelengths
Number of Pixels in Spectrum: 2048
>>>>>Begin Spectral Data<<<<<
341.393	-36.88
341.776	-36.88
342.16	-36.88
342.543	-58.12
342.927	-66.48
343.31	-49.98
343.693	-51.79
344.077	-77.78
344.46	-71.9
344.843	-50.21
345.226	-42.3
345.61	-30.32
345.993	-20.61
346.376	1.77
346.759	-1.85
347.142	11.48
347.525	43.57
347.908	48.54
348.291	72.95
348.674	111.14
349.057	107.3
349.44	125.6
349.823	152.95
350.206	157.24
350.588	179.39
350.971	187.3
351.354	229.33
351.737	218.48
352.119	246.96
352.502	252.38
352.884	272.49
353.267	273.4
353.65	288.76
354.032	284.02
354.414	294.64
354.797	294.64
355.179	334.19
355.562	312.49
355.944	326.28
356.326	324.02
356.709	316.56
357.091	340.29
357.473	332.83
357.855	334.86
358.238	315.88
358.62	338.48
359.002	339.61
359.384	359.95
359.766	340.29
360.148	334.41
360.53	320.63
360.912	307.07
361.294	352.49
361.676	327.63
362.057	338.48
362.439	325.82
362.821	320.63
363.203	314.75
363.584	329.67
363.966	319.95
364.348	321.53
364.729	312.27
365.111	332.38
365.493	299.84
365.874	314.53
366.256	319.5
366.637	311.14
367.019	317.69
367.4	335.77
367.781	308.65
368.163	326.05
368.544	324.47
368.925	316.11
369.306	330.8
369.688	308.88
370.069	309.55
370.45	313.62
370.831	327.41
371.212	304.13
371.593	298.71
371.974	310.46
372.355	312.72
372.736	316.11
373.117	321.31
373.498	347.52
373.879	298.93
374.26	317.01
374.641	311.36
375.021	321.53
375.402	326.5
375.783	318.37
376.163	323.56
376.544	319.05
376.925	321.53
377.305	309.55
377.686	311.36
378.066	319.5
378.447	299.16
378.827	321.53
379.208	333.28
379.588	343.23
379.968	333.28
380.349	323.11
380.729	317.01
381.109	335.77
381.489	331.47
381.87	341.42
382.25	318.37
382.63	324.92
383.01	323.34
383.39	321.98
383.77	341.42
384.15	355.65
384.53	322.66
384.91	335.32
385.29	334.19
385.67	338.25
386.049	333.28
386.429	324.92
386.809	359.5
387.189	349.33
387.568	340.74
387.948	335.77
388.328	350.91
388.707	345.71
389.087	344.58
389.466	355.65
389.846	343.45
390.225	373.51
390.605	354.75
390.984	357.91
391.363	362.21
391.743	355.88
392.122	354.3
392.501	368.76
392.881	349.78
393.26	367.86
393.639	351.13
394.018	358.82
394.397	351.59
394.776	368.76
395.155	377.12
395.534	370.12
395.913	372.6
396.292	373.73
396.671	350.23
397.05	369.44
397.429	365.6
397.808	370.12
398.186	379.83
398.565	373.06
398.944	364.92
399.323	357.69
399.701	372.15
400.08	383.68
400.458	374.86
400.837	380.06
401.215	400.85
401.594	386.61
401.972	394.3
402.351	392.94
402.729	387.07
403.107	401.08
403.486	402.66
403.864	391.59
404.242	415.77
404.62	398.14
404.999	375.77
405.377	394.3
405.755	413.28
406.133	434.97
406.511	400.63
406.889	423.9
407.267	425.71
407.645	420.06
408.023	415.99
408.401	385.94
408.779	420.06
409.156	432.49
409.534	431.36
409.912	422.32
410.29	434.75
410.667	429.32
411.045	428.65
411.422	425.94
411.8	462.32
412.178	444.92
412.555	429.32
412.933	434.52
413.31	439.95
413.687	446.5
414.065	477.23
414.442	444.92
414.819	479.72
415.197	464.58
415.574	464.13
415.951	448.99
416.328	470.91
416.705	467.06
417.082	477.91
417.46	455.09
417.837	487.63
418.214	487.85
418.591	494.18
418.967	484.92
419.344	510.45
419.721	488.98
420.098	496.44
420.475	499.61
420.852	479.04
421.228	521.53
421.605	499.15
421.982	517.23
422.358	505.26
422.735	512.71
423.111	516.1
423.488	504.58
423.864	504.35
424.241	536.21
424.617	528.98
424.994	535.08
425.37	530.79
425.746	543.45
426.123	554.52
426.499	572.37
426.875	554.07
427.251	552.94
427.627	548.87
428.003	572.15
428.379	536.44
428.756	575.08
429.132	554.75
429.507	581.64
429.883	560.17
430.259	601.07
430.635	583.67
431.011	597.23
431.387	603.33
431.763	595.2
432.138	614.18
432.514	595.65
432.89	627.06
433.265	628.87
433.641	637
434.016	625.7
434.392	638.36
434.767	636.1
435.143	626.83
435.518	620.05
435.894	635.65
436.269	646.95
436.644	677
437.02	646.95
437.395	648.53
437.77	668.19
438.145	692.59
438.52	661.18
438.895	696.89
439.271	675.42
439.646	694.4
440.021	691.01
440.395	688.3
440.77	702.09
441.145	705.48
441.52	726.72
441.895	742.99
442.27	720.62
442.645	732.82
443.019	730.11
443.394	739.37
443.769	745.25
444.143	722.42
444.518	730.79
444.892	734.18
445.267	755.42
445.641	745.25
446.016	741.63
446.39	783.44
446.764	759.94
447.139	767.85
447.513	791.58
447.887	788.19
448.262	801.07
448.636	819.37
449.01	797
449.384	793.38
449.758	805.59
450.132	816.66
450.506	813.5
450.88	803.55
451.254	815.76
451.628	840.61
452.002	814.85
452.376	839.94
452.75	856.66
453.123	871.8
453.497	862.08
453.871	845.36
454.244	876.77
454.618	896.43
454.992	902.08
455.365	878.35
455.739	921.29
456.112	931.91
456.486	927.84
456.859	935.53
457.232	954.96
457.606	965.13
457.979	952.25
458.352	981.17
458.725	985.69
459.099	979.82
459.472	1002.19
459.845	1029.76
460.218	1015.75
460.591	1030.89
460.964	1037.22
461.337	1065.47
461.71	1093.94
462.083	1071.34
462.456	1102.98
462.829	1117.89
463.201	1142.07
463.574	1165.12
463.947	1151.79
464.32	1173.94
464.692	1181.4
465.065	1164.67
465.438	1223.2
465.81	1224.78
466.183	1256.65
466.555	1291
466.928	1294.39
467.3	1291.45
467.672	1280.38
468.045	1337.78
468.417	1353.14
468.789	1391.56
469.161	1362.63
469.534	1412.58
469.906	1437.66
470.278	1459.81
470.65	1491.67
471.022	1516.98
471.394	1525.34
471.766	1554.27
472.138	1567.15
472.51	1631.55
472.882	1667.48
473.253	1696.18
473.625	1745.67
473.997	1786.35
474.369	1814.6
474.74	1793.58
475.112	1860.02
475.484	1913.81
475.855	1974.59
476.227	2010.98
476.598	2064.08
476.97	2120.35
477.341	2189.05
477.713	2182.95
478.084	2282.61
478.455	2371.65
478.827	2394.24
479.198	2450.06
479.569	2507.24
479.94	2624.97
480.311	2660
480.682	2743.16
481.053	2848.24
481.424	2898.41
481.795	3036.71
482.166	3099.76
482.537	3132.76
482.908	3262.02
483.279	3350.6
483.65	3423.6
484.021	3535.23
484.391	3629.01
484.762	3727.32
485.133	3782.91
485.503	3929.12
485.874	4030.36
486.244	4131.6
486.615	4236.46
486.985	4376.34
487.356	4506.05
487.726	4598.48
488.097	4774.52
488.467	4822.43
488.837	5031.46
489.207	5101.52
489.578	5277.56
489.948	5376.99
490.318	5545.57
490.688	5608.4
491.058	5790.99
491.428	5937.65
491.798	6051.32
492.168	6253.35
492.538	6359.34
492.908	6484.53
493.278	6621.03
493.648	6712.32
494.017	6924.97
494.387	6997.29
494.757	7149.37
495.126	7300.1
495.496	7426.2
495.866	7575.58
496.235	7796.14
496.605	7874.78
496.974	7952.52
497.344	8177.82
497.713	8293.3
498.082	8457.14
498.452	8575.1
498.821	8666.62
499.19	8776.45
499.559	8967.86
499.928	9063
500.298	9137.57
500.667	9392.93
501.036	9455.08
501.405	9634.96
501.774	9622.53
502.143	9871.34
502.512	9875.4
502.88	10099.35
503.249	10101.61
503.618	10310.87
503.987	10408.95
504.356	10509.96
504.724	10646.01
505.093	10799
505.462	10866.56
505.83	10951.76
506.199	11060.46
506.567	11304.29
506.936	11306.1
507.304	11493.44
507.672	11594.46
508.041	11684.85
508.409	11807.78
508.777	11961.68
509.145	12029.92
509.514	12160.09
509.882	12184.72
510.25	12307.66
510.618	12389.91
510.986	12490.25
511.354	12640.08
511.722	12788.77
512.09	12864.93
512.458	12917.13
512.826	13136.79
513.193	13146.5
513.561	13225.15
513.929	13358.25
514.297	13474.41
514.664	13616.32
515.032	13687.06
515.4	13750.78
515.767	13860.61
516.135	13932.02
516.502	13968.86
516.869	14206.59
517.237	14230.54
517.604	14179.47
517.972	14423.99
518.339	14534.72
518.706	14501.72
519.073	14546.24
519.44	14700.59
519.808	14891.32
520.175	14799.79
520.542	15048.83
520.909	15126.57
521.276	15155.49
521.643	15318.88
522.009	15354.81
522.376	15467.12
522.743	15518.65
523.11	15697.17
523.477	15772.2
523.843	15929.93
524.21	16039.54
524.577	16175.35
524.943	16159.53
525.31	16251.73
525.676	16365.4
526.043	16435.46
526.409	16577.83
526.776	16717.94
527.142	16736.24
527.508	16811.49
527.874	16901.89
528.241	17081.32
528.607	17107.3
528.973	17214.87
529.339	17193.4
529.705	17279.05
530.071	17494.86
530.437	17509.1
530.803	17660.74
531.169	17644.24
531.535	17615.54
531.901	17683.79
532.267	17644.69
532.632	17868.19
532.998	17942.76
533.364	17989.99
533.73	17999.48
534.095	18005.36
534.461	18097.11
534.826	18204.45
535.192	18271.57
535.557	18432.69
535.923	18202.64
536.288	18311.34
536.653	18428.4
537.019	18308.63
537.384	18321.96
537.749	18439.47
538.114	18502.97
538.479	18440.6
538.845	18524.67
539.21	18387.27
539.575	18578
539.94	18596.3
540.305	18665.91
540.67	18579.58
541.034	18687.15
541.399	18695.29
541.764	18805.79
542.129	18822.51
542.494	18796.53
542.858	18836.07
543.223	18749.07
543.587	19024.99
543.952	18834.49
544.316	18880.14
544.681	18869.07
545.045	18961.27
545.41	19066.57
545.774	18999.68
546.138	18905.9
546.503	19011.89
546.867	19016.41
547.231	19115.16
547.595	19103.86
547.959	19236.97
548.324	19069.74
548.688	19103.64
549.052	19193.35
549.416	19133.69
549.779	19114.48
550.143	19187.7
550.507	19290.07
550.871	19289.62
551.235	19316.96
551.599	19342.73
551.962	19446.68
552.326	19451.88
552.689	19475.83
553.053	19317.42
553.417	19443.97
553.78	19621.36
554.143	19579.56
554.507	19580.23
554.87	19624.07
555.234	19776.84
555.597	19628.37
555.96	19760.57
556.323	19750.85
556.686	19658.2
557.05	19774.8
557.413	19943.39
557.776	19902.49
558.139	20018.87
558.502	19958.98
558.865	20045.08
559.228	20219.76
559.59	20309.03
559.953	20214.57
560.316	20434.67
560.679	20391.74
561.041	20419.99
561.404	20445.07
561.767	20593.09
562.129	20423.15
562.492	20654.78
562.854	20692.97
563.217	20732.07
563.579	20686.42
563.941	20748.56
564.304	20928.67
564.666	20881.44
565.028	20902.01
565.39	20971.84
565.753	21062
566.115	21166.18
566.477	21341.77
566.839	21241.43
567.201	21397.81
567.563	21399.62
567.925	21523.69
568.287	21402.78
568.648	21558.94
569.01	21593.97
569.372	21687.75
569.734	21659.5
570.095	21710.35
570.457	21846.84
570.819	21866.73
571.18	21844.36
571.542	21974.75
571.903	21915.09
572.265	22061.98
572.626	22210
572.987	22176.55
573.349	22216.77
573.71	22229.88
574.071	22364.12
574.432	22375.41
574.794	22428.07
575.155	22488.41
575.516	22356.66
575.877	22415.19
576.238	22535.64
576.599	22496.09
576.96	22524.56
577.32	22595.52
577.681	22661.51
578.042	22636.2
578.403	22701.96
578.763	22612.7
579.124	22752.35
579.485	22847.49
579.845	22842.97
580.206	22800.26
580.566	22765.01
580.927	22849.53
581.287	22858.57
581.648	22803.65
582.008	22861.05
582.368	22883.65
582.728	22924.55
583.089	22850.66
583.449	22861.28
583.809	22972.91
584.169	22901.05
584.529	22865.35
584.889	23035.51
585.249	22986.02
585.609	22866.93
585.969	23013.82
586.329	22916.42
586.688	22971.33
587.048	22885.01
587.408	22903.54
587.768	22912.35
588.127	22848.4
588.487	22792.58
588.846	22999.13
589.206	22821.73
589.565	22862.63
589.925	22964.33
590.284	22886.59
590.643	22950.77
591.003	22993.93
591.362	23010.88
591.721	23054.49
592.08	23006.36
592.44	23039.58
592.799	23022.18
593.158	22876.87
593.517	22988.73
593.876	23000.26
594.235	23004.32
594.593	22964.55
594.952	23002.06
595.311	22930.43
595.67	22958
596.029	23100.14
596.387	23139.24
596.746	23103.76
597.104	23062.18
597.463	23001.61
597.822	23121.84
598.18	22912.8
598.538	23008.84
598.897	23156.86
599.255	22953.7
599.613	23268.05
599.972	23075.06
600.33	23263.07
600.688	23174.94
601.046	23141.95
601.404	23311.89
601.762	23113.47
602.12	23311.21
602.478	23181.72
602.836	23317.08
603.194	23203.87
603.552	23169.07
603.91	23180.59
604.268	23291.77
604.625	23208.39
604.983	23204.09
605.341	23206.58
605.698	23328.84
606.056	23374.71
606.413	23369.51
606.771	23564.08
607.128	23463.3
607.485	23296.07
607.843	23420.13
608.2	23470.53
608.557	23581.48
608.914	23468.04
609.272	23576.06
609.629	23652.44
609.986	23659
610.343	23585.1
610.7	23855.15
611.057	23683.85
611.414	23715.72
611.771	23766.79
612.127	23941.48
612.484	23849.05
612.841	23966.56
613.198	23854.7
613.554	23887.69
613.911	24074.35
614.267	23976.28
614.624	24000.23
614.98	23995.03
615.337	24179.21
615.693	24089.72
616.05	24115.71
616.406	24107.35
616.762	24171.75
617.118	24156.16
617.475	24275.25
617.831	24157.06
618.187	24212.88
618.543	24192.77
618.899	24380.11
619.255	24389.6
619.611	24266.89
619.967	24444.29
620.323	24405.42
620.678	24443.38
621.034	24393.67
621.39	24416.04
621.746	24284.97
622.101	24726.31
622.457	24602.02
622.812	24491.07
623.168	24612.42
623.523	24560.44
623.879	24551.4
624.234	24400.9
624.589	24476.6
624.945	24540.33
625.3	24592.31
625.655	24663.72
626.01	24665.98
626.365	24660.55
626.72	24574.23
627.075	24600.67
627.43	24514.79
627.785	24518.41
628.14	24529.71
628.495	24605.41
628.85	24555.92
629.205	24559.76
629.559	24603.6
629.914	24533.78
630.269	24548.92
630.623	24611.06
630.978	24484.96
631.332	24601.12
631.687	24528.58
632.041	24420.78
632.396	24633.89
632.75	24438.19
633.104	24521.35
633.459	24351.18
633.813	24397.28
634.167	24394.12
634.521	24459.65
634.875	24308.47
635.229	24286.78
635.583	24207.23
635.937	24296.04
636.291	24216.27
636.645	24222.82
636.999	24134.01
637.352	24190.28
637.706	24120.68
638.06	24121.58
638.413	24162.03
638.767	24015.82
639.121	24113.22
639.474	23942.38
639.828	23864.87
640.181	24025.54
640.534	24080.45
640.888	23891.31
641.241	23900.35
641.594	23976.28
641.947	23969.5
642.301	24014.47
642.654	23942.38
643.007	23852.89
643.36	23870.97
643.713	23881.36
644.066	24065.54
644.419	23838.88
644.771	23653.57
645.124	23394.6
645.477	23351.89
645.83	23217.88
646.182	23147.37
646.535	23183.75
646.888	23120.71
647.24	22997.55
647.593	23097.88
647.945	23151.21
648.298	23030.31
648.65	23057.88
649.002	22972.69
649.355	23049.75
649.707	22986.25
650.059	23180.82
650.411	23406.12
650.763	23330.19
651.115	23634.59
651.467	23584.2
651.819	23613.35
652.171	23534.93
652.523	23447.7
652.875	23456.97
653.227	23498.55
653.578	23444.54
653.93	23486.12
654.282	23442.73
654.633	23463.52
654.985	23410.87
655.337	23381.26
655.688	23448.83
656.039	23517.98
656.391	23312.79
656.742	23298.55
657.094	23378.1
657.445	23394.6
657.796	23358.44
658.147	23471.43
658.498	23322.96
658.849	23473.01
659.2	23316.63
659.551	23336.29
659.902	23356.63
660.253	23360.47
660.604	23362.73
660.955	23304.2
661.306	23449.51
661.656	23319.12
662.007	23292.45
662.358	23358.21
662.708	23345.78
663.059	23290.42
663.409	23178.56
663.76	23397.99
664.11	23347.14
664.461	23292.45
664.811	23397.31
665.161	23267.82
665.511	23343.07
665.862	23408.16
666.212	23451.09
666.562	23478.66
666.912	23339
667.262	23398.21
667.612	23308.27
667.962	23415.16
668.312	23353.02
668.662	23540.36
669.011	23387.59
669.361	23328.16
669.711	23338.78
670.06	23268.72
670.41	23243.87
670.76	23204.32
671.109	23439.34
671.459	23326.8
671.808	23221.49
672.157	23261.49
672.507	23169.97
672.856	23197.09
673.205	23172
673.554	23165.22
673.904	23155.96
674.253	23267.82
674.602	23072.12
674.951	22783.77
675.3	22706.93
675.649	23048.39
675.998	23101.05
676.346	23124.32
676.695	23086.13
677.044	22898.56
677.393	23054.94
677.741	23024.21
678.09	22991.44
678.438	22812.01
678.787	22917.77
679.135	22913.25
679.484	22787.38
679.832	22863.99
680.181	22773.82
680.529	22824.44
680.877	22813.6
681.225	22648.4
681.573	22815.85
681.922	22760.26
682.27	22476.88
682.618	22635.75
682.966	22500.83
683.314	22663.32
683.661	22481.85
684.009	22379.48
684.357	22442.76
684.705	22361.63
685.053	22391.69
685.4	22325.47
685.748	22170.22
686.095	22227.17
686.443	22063.11
686.79	22033.95
687.138	22107.4
687.485	22095.42
687.832	21977.68
688.18	22020.85
688.527	21795.54
688.874	21755.32
689.221	21777.69
689.568	21744.7
689.915	21625.15
690.262	21696.11
690.609	21565.72
690.956	21502.22
691.303	21401.43
691.65	21385.61
691.997	21366.85
692.344	21219.06
692.69	21125.96
693.037	21170.47
693.383	21007.77
693.73	21109.69
694.077	20869.01
694.423	20861.33
694.769	20851.16
695.116	20751.5
695.462	20705.4
695.808	20620.88
696.155	20777.26
696.501	20513.99
696.847	20621.11
697.193	20434.22
697.539	20499.53
697.885	20243.95
698.231	20256.83
698.577	20212.08
698.923	20165.08
699.269	20114.68
699.614	20012.09
699.96	19912.65
700.306	19847.12
700.651	19778.42
700.997	19773.45
701.342	19730.74
701.688	19625.43
702.033	19567.58
702.379	19602.83
702.724	19518.77
703.069	19535.49
703.415	19295.27
703.76	19313.57
704.105	19359
704.45	19199.45
704.795	19158.1
705.14	19020.25
705.485	18920.14
705.83	18939.12
706.175	18961.94
706.52	18906.58
706.865	18857.31
707.209	18824.77
707.554	18853.7
707.899	18775.28
708.243	18688.51
708.588	18629.75
708.932	18463.65
709.277	18418
709.621	18446.03
709.966	18315.63
710.31	18385.69
710.654	18172.81
710.998	18189.31
711.342	18216.2
711.687	18110.22
712.031	18089.2
712.375	18035.87
712.719	18135.07
713.063	17969.88
713.407	18010.78
713.75	17898.47
714.094	17931.92
714.438	17826.61
714.782	17858.92
715.125	17832.03
715.469	17789.32
715.812	17682.2
716.156	17552.94
716.499	17688.98
716.843	17758.13
717.186	17590.91
717.53	17649.66
717.873	17561.53
718.216	17550.68
718.559	17450.8
718.902	17328.54
719.246	17436.79
719.589	17400.63
719.932	17240.86
720.275	17324.93
720.617	17330.8
720.96	17212.16
721.303	17363.57
721.646	17263.01
721.989	17074.76
722.331	17169.68
722.674	17218.26
723.016	17160.18
723.359	17102.11
723.701	17196.79
724.044	17007.65
724.386	16870.7
724.729	17052.84
725.071	16965.61
725.413	16998.15
725.755	16897.82
726.097	16866.18
726.439	16791.38
726.782	16728.33
727.124	16930.36
727.465	16768.1
727.807	16784.15
728.149	16737.14
728.491	16726.75
728.833	16780.99
729.175	16746.86
729.516	16700.31
729.858	16693.53
730.199	16733.75
730.541	16689.01
730.882	16648.11
731.224	16701.89
731.565	16631.38
731.906	16635.23
732.248	16647.66
732.589	16518.62
732.93	16463.93
733.271	16451.73
733.612	16538.96
733.953	16553.65
734.294	16486.08
734.635	16423.71
734.976	16439.3
735.317	16376.02
735.658	16456.93
735.999	16363.82
736.339	16426.42
736.68	16425.29
737.021	16459.64
737.361	16408.11
737.702	16433.65
738.042	16339.64
738.383	16321.79
738.723	16398.62
739.063	16360.21
739.404	16373.76
739.744	16340.09
740.084	16365.18
740.424	16366.76
740.764	16305.52
741.104	16388.91
741.444	16309.13
741.784	16346.42
742.124	16381.67
742.464	16360.43
742.804	16353.88
743.143	16361.11
743.483	16384.39
743.823	16318.62
744.162	16355.91
744.502	16324.73
744.841	16364.73
745.181	16564.49
745.52	16451.05
745.86	16532.63
746.199	16501.22
746.538	16469.13
746.877	16534.89
747.216	16600.2
747.556	16624.38
747.895	16556.36
748.234	16547.77
748.573	16528.79
748.911	16639.52
749.25	16773.3
749.589	16665.96
749.928	16758.39
750.267	16784.6
750.605	16820.76
750.944	16822.79
751.283	16861.66
751.621	16842.45
751.96	16934.43
752.298	17079.51
752.636	17147.98
752.975	17038.61
753.313	17075.21
753.651	17213.74
753.989	17259.84
754.327	17366.05
754.666	17367.86
755.004	17383.46
755.342	17557.01
755.679	17613.28
756.017	17554.75
756.355	17696.89
756.693	17738.47
757.031	17793.84
757.368	17834.29
757.706	17907.06
758.044	17923.55
758.381	18088.07
758.719	18078.58
759.056	18232.92
759.394	18203.09
759.731	18150.21
760.068	18242.87
760.405	18367.84
760.743	18380.04
761.08	18522.86
761.417	18535.06
761.754	18565.35
762.091	18570.99
762.428	18577.1
762.765	18601.95
763.102	18826.81
763.438	18783.42
763.775	18733.02
764.112	18935.28
764.449	18843.08
764.785	18915.39
765.122	18868.39
765.458	18932.57
765.795	18971.66
766.131	19000.14
766.467	18992.9
766.804	19007.82
767.14	19051.21
767.476	19024.77
767.812	19005.56
768.148	19003.75
768.485	18984.32
768.821	18933.47
769.157	18979.12
769.492	18965.79
769.828	19036.97
770.164	18934.38
770.5	18987.71
770.836	19161.49
771.171	18998.1
771.507	19001.27
771.842	18852.57
772.178	18900.25
772.513	18831.78
772.849	18891.89
773.184	18815.73
773.519	18818.45
773.855	18839.24
774.19	18797.88
774.525	18661.39
774.86	18825.68
775.195	18734.15
775.53	18726.92
775.865	18675.17
776.2	18508.85
776.535	18427.04
776.87	18398.8
777.205	18418.68
777.539	18403.32
777.874	18419.36
778.209	18280.61
778.543	18332.81
778.878	18127.16
779.212	18195.64
779.547	18153.6
779.881	18189.54
780.215	18034.06
780.55	18061.63
780.884	18004
781.218	17971.91
781.552	17907.28
781.886	17813.73
782.22	17876.32
782.554	17806.27
782.888	17664.8
783.222	17583.45
783.556	17515.43
783.889	17585.94
784.223	17328.77
784.557	17330.12
784.89	17365.38
785.224	17265.04
785.557	17248.32
785.891	17207.87
786.224	17160.64
786.558	17238.15
786.891	17012.39
787.224	16968.33
787.557	17027.76
787.891	16879.97
788.224	16895.78
788.557	16892.17
788.89	16825.28
789.223	16664.15
789.556	16703.7
789.888	16545.06
790.221	16585.28
790.554	16516.81
790.887	16483.14
791.219	16360.66
791.552	16381.45
791.884	16373.09
792.217	16220.77
792.549	16233.43
792.882	16145.75
793.214	16053.32
793.546	16059.42
793.879	16020.78
794.211	15889.71
794.543	15995.47
794.875	15849.94
795.207	15945.53
795.539	15775.81
795.871	15799.09
796.203	15703.27
796.535	15620.79
796.867	15486.78
797.198	15548.7
797.53	15495.14
797.862	15435.48
798.193	15482.26
798.525	15326.79
798.856	15398.42
799.188	15149.84
799.519	15122.27
799.85	15093.35
800.182	15089.96
800.513	15064.87
800.844	14930.41
801.175	15080.24
801.506	14976.96
801.837	14961.37
802.168	14849.06
802.499	14855.61
802.83	14775.39
803.161	14752.56
803.491	14672.79
803.822	14738.33
804.153	14621.27
804.483	14572.91
804.814	14501.5
805.145	14543.76
805.475	14437.77
805.805	14346.25
806.136	14403.87
806.466	14379.24
806.796	14332.69
807.126	14202.3
807.457	14259.47
807.787	14204.56
808.117	14122.98
808.447	14081.4
808.777	14057.89
809.107	14056.09
809.436	14048.4
809.766	13934.05
810.096	13857.67
810.426	13882.53
810.755	13858.12
811.085	13879.14
811.414	13818.8
811.744	13668.98
812.073	13726.38
812.403	13728.41
812.732	13581.75
813.061	13537.68
813.39	13490.68
813.719	13527.29
814.049	13609.32
814.378	13492.71
814.707	13412.26
815.036	13499.26
815.365	13349.66
815.693	13277.57
816.022	13261.53
816.351	13349.89
816.68	13137.47
817.008	13125.26
817.337	13166.84
817.665	13023.12
817.994	13104.02
818.322	13139.95
818.651	13016.34
818.979	13043.23
819.307	13041.65
819.636	12999.62
819.964	12939.96
820.292	12962.33
820.62	13010.01
820.948	12867.42
821.276	12971.37
821.604	12951.03
821.932	12879.17
822.259	12911.26
822.587	12843.91
822.915	12829.22
823.243	12901.09
823.57	12818.6
823.898	12818.38
824.225	12703.35
824.553	12807.53
824.88	12809.79
825.207	12882.1
825.535	12718.27
825.862	12834.65
826.189	12757.59
826.516	12818.15
826.843	12864.03
827.17	12904.93
827.497	12896.34
827.824	12856.79
828.151	12879.62
828.478	12811.15
828.805	12903.12
829.131	12813.86
829.458	12799.85
829.785	12719.85
830.111	12759.85
830.438	12859.28
830.764	12822.45
831.09	12838.72
831.417	12669.91
831.743	12702
832.069	12758.27
832.395	12744.48
832.722	12744.03
833.048	12643.47
833.374	12754.88
833.7	12690.02
834.026	12723.92
834.351	12761.43
834.677	12699.06
835.003	12688.66
835.329	12632.62
835.654	12658.16
835.98	12663.13
836.306	12638.72
836.631	12509.23
836.956	12597.59
837.282	12559.63
837.607	12505.84
837.932	12497.48
838.258	12457.48
838.583	12473.53
838.908	12378.39
839.233	12424.72
839.558	12383.13
839.883	12302.23
840.208	12266.08
840.533	12290.48
840.858	12304.72
841.182	12333.42
841.507	12203.03
841.832	12224.49
842.156	12177.04
842.481	12120.09
842.805	12193.99
843.13	12132.52
843.454	12032.18
843.778	12007.33
844.103	11951.51
844.427	11935.24
844.751	11984.73
845.075	11860.89
845.399	11916.25
845.723	11877.16
846.047	11855.01
846.371	11733.43
846.695	11716.94
847.019	11653.44
847.343	11632.42
847.666	11587.22
847.99	11541.8
848.313	11557.85
848.637	11425.19
848.96	11461.8
849.284	11498.64
849.607	11290.96
849.931	11282.37
850.254	11201.47
850.577	11130.06
850.9	11057.52
851.223	11130.96
851.546	11033.79
851.869	10988.37
852.192	11027.01
852.515	10946.79
852.838	10856.85
853.161	10850.07
853.483	10787.47
853.806	10737.75
854.129	10775.95
854.451	10674.03
854.774	10713.57
855.096	10578.89
855.419	10589.28
855.741	10533.01
856.063	10481.72
856.385	10432.45
856.708	10414.83
857.03	10380.93
857.352	10424.09
857.674	10371.44
857.996	10336.41
858.318	10302.29
858.64	10236.3
858.961	10283.76
859.283	10234.49
859.605	10138
859.926	10209.18
860.248	10149.3
860.57	10111.78
860.891	10072.46
861.212	10100.26
861.534	10027.04
861.855	10015.97
862.176	10028.39
862.498	10003.31
862.819	9984.78
863.14	9969.64
863.461	9959.7
863.782	9876.31
864.103	9868.4
864.424	9816.2
864.745	9857.1
865.065	9822.07
865.386	9780.94
865.707	9767.16
866.027	9749.31
866.348	9802.41
866.668	9785.92
866.989	9699.82
867.309	9656.2
867.63	9637.9
867.95	9691.45
868.27	9594.73
868.59	9663.88
868.91	9629.31
869.23	9575.07
869.55	9538.69
869.87	9598.12
870.19	9491.46
870.51	9483.55
870.83	9472.02
871.15	9517.67
871.469	9490.78
871.789	9503.89
872.109	9537.33
872.428	9349.99
872.748	9407.39
873.067	9423.21
873.386	9417.56
873.706	9357.45
874.025	9264.35
874.344	9330.79
874.663	9315.87
874.982	9313.16
875.301	9266.83
875.62	9234.52
875.939	9246.72
876.258	9259.38
876.577	9235.2
876.896	9216.66
877.214	9109.55
877.533	9185.48
877.852	9188.19
878.17	9214.86
878.489	9151.13
878.807	9089.89
879.125	9132.82
879.444	9141.41
879.762	9013.05
880.08	9050.57
880.398	9046.05
880.716	9106.61
881.034	9025.26
881.352	9011.02
881.67	9044.47
881.988	8962.66
882.306	8980.96
882.624	8946.39
882.941	8886.73
883.259	8850.35
883.577	8834.08
883.894	8803.34
884.212	8774.42
884.529	8818.93
884.846	8693.29
885.164	8746.62
885.481	8722.21
885.798	8743.23
886.115	8661.42
886.432	8627.53
886.75	8656.68
887.067	8698.71
887.383	8608.77
887.7	8629.56
888.017	8565.83
888.334	8544.37
888.651	8561.09
888.967	8476.57
889.284	8448.55
889.6	8464.59
889.917	8434.76
890.233	8383.24
890.55	8383.01
890.866	8387.53
891.182	8372.39
891.498	8304.37
891.815	8299.85
892.131	8256.46
892.447	8204.26
892.763	8229.8
893.079	8194.54
893.395	8154.32
893.71	8178.27
894.026	8107.32
894.342	8137.6
894.657	8063.25
894.973	7985.51
895.289	8076.13
895.604	8037.71
895.92	7942.8
896.235	7873.87
896.55	7925.17
896.865	7885.4
897.181	7862.8
897.496	7839.75
897.811	7799.07
898.126	7802.92
898.441	7755.46
898.756	7719.75
899.071	7729.02
899.386	7699.19
899.7	7638.85
900.015	7583.26
900.33	7513.43
900.644	7526.77
900.959	7568.8
901.273	7543.94
901.588	7477.73
901.902	7457.84
902.216	7388.01
902.531	7430.72
902.845	7336.71
903.159	7312.76
903.473	7286.32
903.787	7250.61
904.101	7261.24
904.415	7259.65
904.729	7202.25
905.042	7102.14
905.356	7197.96
905.67	7137.4
905.984	7164.06
906.297	7082.26
906.611	7044.97
906.924	6987.34
907.237	7016.5
907.551	6961.36
907.864	6987.57
908.177	6882.49
908.491	6903.28
908.804	6843.62
909.117	6815.37
909.43	6815.82
909.743	6803.17
910.056	6734.7
910.368	6725.66
910.681	6740.12
910.994	6687.47
911.307	6607.92
911.619	6588.48
911.932	6603.85
912.244	6544.87
912.557	6583.74
912.869	6528.37
913.181	6468.26
913.494	6481.6
913.806	6456.06
914.118	6433.69
914.43	6406.79
914.742	6362.28
915.054	6338.32
915.366	6280.47
915.678	6317.98
915.99	6206.35
916.302	6222.17
916.613	6176.97
916.925	6166.12
917.236	6165.22
917.548	6127.25
917.859	6125.45
918.171	6071.21
918.482	5995.73
918.794	6064.2
919.105	6037.31
919.416	6023.75
919.727	5954.83
920.038	5965
920.349	5879.35
920.66	5866.7
920.971	5892.68
921.282	5843.87
921.593	5810.43
921.903	5799.35
922.214	5783.31
922.525	5749.64
922.835	5698.11
923.146	5694.05
923.456	5664.67
923.767	5665.12
924.077	5625.35
924.387	5594.61
924.697	5535.86
925.008	5593.26
925.318	5543.99
925.628	5472.36
925.938	5453.15
926.248	5449.08
926.558	5428.74
926.867	5375.86
927.177	5376.09
927.487	5346.03
927.796	5349.65
928.106	5333.15
928.416	5280.72
928.725	5271.23
929.034	5218.13
929.344	5292.47
929.653	5247.05
929.962	5154.62
930.271	5163.44
930.581	5164.79
930.89	5112.82
931.199	5131.35
931.508	5071.69
931.817	5096.09
932.125	4999.83
932.434	5036.21
932.743	4979.94
933.051	4947.4
933.36	4960.73
933.669	4957.34
933.977	4860.39
934.286	4888.19
934.594	4939.71
934.902	4882.77
935.21	4818.36
935.519	4850.9
935.827	4766.84
936.135	4732.26
936.443	4694.52
936.751	4714.86
937.059	4731.58
937.367	4696.56
937.674	4699.95
937.982	4661.76
938.29	4632.83
938.597	4587.63
938.905	4573.17
939.213	4561.19
939.52	4492.27
939.827	4557.8
940.135	4499.95
940.442	4487.75
940.749	4493.85
941.056	4482.1
941.363	4422.21
941.67	4431.48
941.977	4410.69
942.284	4354.65
942.591	4363.23
942.898	4323.01
943.205	4314.65
943.511	4312.84
943.818	4262.44
944.125	4247.98
944.431	4227.42
944.738	4248.43
945.044	4165.05
945.35	4203.69
945.657	4170.92
945.963	4169.34
946.269	4134.76
946.575	4114.43
946.881	4097.03
947.187	4092.73
947.493	4094.77
947.799	4037.82
948.105	4016.8
948.41	4047.08
948.716	4060.64
949.022	3989.01
949.327	3960.76
949.633	3920.98
949.938	3950.59
950.244	3967.31
950.549	3908.33
950.854	3860.65
951.16	3906.07
951.465	3881.66
951.77	3826.75
952.075	3856.58
952.38	3805.96
952.685	3821.33
952.99	3783.36
953.294	3803.93
953.599	3723.02
953.904	3720.76
954.209	3705.17
954.513	3728
954.818	3676.92
955.122	3663.14
955.426	3633.76
955.731	3631.95
956.035	3608.22
956.339	3603.25
956.643	3572.52
956.948	3563.25
957.252	3579.75
957.556	3506.98
957.86	3544.27
958.163	3535.46
958.467	3485.74
958.771	3492.75
959.075	3471.05
959.378	3427.89
959.682	3447.78
959.985	3443.48
960.289	3373.43
960.592	3387.89
960.896	3388.8
961.199	3354.67
961.502	3342.92
961.805	3329.36
962.108	3330.04
962.411	3315.12
962.714	3274.9
963.017	3246.43
963.32	3238.74
963.623	3211.17
963.926	3227.67
964.228	3200.55
964.531	3216.37
964.833	3211.4
965.136	3151.74
965.438	3186.54
965.741	3159.65
966.043	3151.29
966.345	3152.42
966.648	3117.39
966.95	3084.17
967.252	3091.85
967.554	3106.99
967.856	3084.17
968.158	3053.89
968.46	3046.66
968.761	3040.33
969.063	3005.53
969.365	2970.73
969.666	2999.43
969.968	2956.94
970.269	2952.87
970.571	2958.52
970.872	2954.46
971.174	2911.07
971.475	2919.43
971.776	2903.16
972.077	2893.21
972.378	2899.77
972.679	2860.22
972.98	2844.63
973.281	2832.88
973.582	2846.44
973.883	2818.64
974.183	2791.52
974.484	2757.63
974.785	2787
975.085	2797.17
975.386	2777.06
975.686	2715.14
975.986	2733.22
976.287	2718.08
976.587	2690.51
976.887	2668.36
977.187	2653.9
977.487	2666.55
977.787	2636.27
978.087	2637.18
978.387	2638.08
978.687	2600.12
978.987	2587.91
979.286	2583.62
979.586	2560.79
979.885	2564.18
980.185	2576.61
980.484	2549.5
980.784	2535.94
981.083	2548.59
981.382	2535.71
981.682	2519.67
981.981	2482.38
982.28	2472.89
982.579	2480.34
982.878	2495.26
983.177	2480.8
983.475	2457.75
983.774	2443.51
984.073	2435.83
984.372	2415.49
984.67	2404.19
984.969	2410.52
985.267	2421.36
985.566	2380.69
985.864	2338.88
986.162	2354.47
986.461	2333.46
986.759	2310.86
987.057	2319.22
987.355	2282.84
987.653	2320.57
987.951	2260.24
988.249	2241.93
988.547	2272.89
988.844	2268.15
989.142	2250.52
989.44	2224.53
989.737	2259.33
990.035	2227.02
990.332	2236.28
990.63	2220.46
990.927	2166.23
991.224	2169.17
991.521	2172.33
991.819	2184.98
992.116	2186.34
992.413	2158.54
992.71	2086.91
993.006	2119.22
993.303	2085.1
993.6	2096.85
993.897	2106.79
994.193	2098.89
994.49	2072.22
994.787	2067.25
995.083	2049.17
995.379	2068.6
995.676	2021.37
995.972	2025.89
996.268	1987.7
996.565	1998.78
996.861	1997.42
997.157	1987.48
997.453	1971.88
997.749	1982.73
998.044	1945.22
998.34	1970.98
998.636	1923.75
998.932	1934.37
999.227	1904.31
999.523	1927.59
999.818	1900.02
1000.114	1896.63
1000.409	1859.34
1000.704	1888.27
1001	1891.43
1001.295	1833.58
1001.59	1860.47
1001.885	1834.26
1002.18	1844.43
1002.475	1819.12
1002.77	1794.94
1003.065	1766.01
1003.359	1793.58
1003.654	1783.41
1003.949	1765.79
1004.243	1756.3
1004.538	1746.35
1004.832	1752.91
1005.127	1752.68
1005.421	1739.8
1005.715	1730.53
1006.009	1690.76
1006.304	1696.86
1006.598	1670.65
1006.892	1678.78
1007.186	1648.5
1007.48	1630.2
1007.773	1655.73
1008.067	1617.09
1008.361	1649.63
1008.655	1599.69
1008.948	1613.47
1009.242	1626.81
1009.535	1599.92
1009.829	1590.88
1010.122	1573.7
1010.415	1564.66
1010.708	1552.01
1011.001	1539.13
1011.295	1548.84
1011.588	1550.88
1011.881	1545.23
1012.173	1514.49
1012.466	1515.62
1012.759	1507.04
1013.052	1495.51
1013.344	1481.5
1013.637	1450.09
1013.93	1462.07
1014.222	1462.29
1014.514	1456.19
1014.807	1451.9
1015.099	1441.95
1015.391	1430.65
1015.683	1427.72
1015.976	1409.19
1016.268	1381.84
1016.56	1378
1016.851	1392.69
1017.143	1358.79
1017.435	1369.87
1017.727	1382.29
1018.018	1349.53
1018.31	1348.62
1018.602	1342.07
1018.893	1305.46
1019.185	1326.48
1019.476	1300.94
1019.767	1296.19
1020.058	1290.09
1020.35	1281.05
1020.641	1311.11
1020.932	1244.67
1021.223	1261.85
1021.514	1261.17
1021.804	1235.63
1022.095	1252.81
1022.386	1215.29
1022.677	1232.69
1022.967	1182.07
1023.258	1181.4
1023.548	1182.98
1023.839	1212.36
1024.129	1202.86
1024.419	1145.24
1024.709	1172.58
1025	1175.29
1025.29	1176.42
1025.58	1169.87
1025.87	1146.37
1026.16	1164.67
1026.449	1136.65
1026.739	1168.97
1027.029	1095.3
1027.319	1108.63
1027.608	1096.88
1027.898	1093.71
1028.187	1112.02
1028.477	1097.56
1028.766	1058.46
1029.055	1054.85
1029.344	1063.88
1029.634	1047.84
1029.923	1070.89
1030.212	1047.39
1030.501	1036.31
1030.79	1023.66
1031.078	1041.06
1031.367	1022.98
1031.656	1018.01
1031.945	1033.38
1032.233	994.51
1032.522	997.67
1032.81	995.64
1033.099	980.5
1033.387	948.18
1033.675	957.9
1033.963	948.18
1034.251	992.02
1034.54	936.88
1034.828	956.77
1035.116	920.39
1035.403	939.59
1035.691	942.76
1035.979	925.58
1036.267	912.02
1036.554	913.83
1036.842	877.22
1037.129	880.84
1037.417	882.87
1037.704	892.14
1037.992	874.96
1038.279	873.38
1038.566	856.21
1038.853	856.21
1039.14	856.21
