Data from hue_350_FLMS001491_11.txt Node
Date: Mon Feb 06 15:37:39 GMT 2017
User: dcchb
Spectrometer: FLMS00149
Trigger mode: 0
Integration Time (sec): 2.000000E-2
Scans to average: 10
Electric dark correction enabled: true
Nonlinearity correction enabled: false
Boxcar width: 0
XAxis mode: Wavelengths
Number of Pixels in Spectrum: 2048
>>>>>Begin Spectral Data<<<<<
341.393	9.11
341.776	9.11
342.16	9.11
342.543	-63.88
342.927	-47.61
343.31	-66.14
343.693	-79.7
344.077	-90.77
344.46	-53.71
344.843	-50.1
345.226	-32.7
345.61	-8.29
345.993	-22.75
346.376	-12.58
346.759	-11.45
347.142	35.78
347.525	35.32
347.908	80.52
348.291	60.86
348.674	101.99
349.057	113.74
349.44	107.41
349.823	154.19
350.206	138.82
350.588	205.71
350.971	225.38
351.354	231.48
351.737	227.86
352.119	224.7
352.502	261.98
352.884	260.18
353.267	277.8
353.65	285.49
354.032	280.06
354.414	291.81
354.797	294.98
355.179	314.19
355.562	306.73
355.944	333.62
356.326	312.15
356.709	306.28
357.091	328.42
357.473	348.76
357.855	316.9
358.238	339.72
358.62	324.81
359.002	341.53
359.384	341.98
359.766	340.4
360.148	338.59
360.53	328.42
360.912	339.27
361.294	329.33
361.676	337.46
362.057	326.39
362.439	319.61
362.821	311.02
363.203	325.94
363.584	332.94
363.966	315.54
364.348	299.5
364.729	312.6
365.111	328.2
365.493	337.91
365.874	342.21
366.256	325.71
366.637	317.35
367.019	287.07
367.4	307.18
367.781	293.4
368.163	298.14
368.544	306.73
368.925	307.86
369.306	314.41
369.688	332.49
370.069	309.67
370.45	318.93
370.831	304.02
371.212	333.4
371.593	325.49
371.974	320.74
372.355	329.55
372.736	326.16
373.117	320.97
373.498	309.22
373.879	304.7
374.26	318.93
374.641	297.24
375.021	311.7
375.402	338.14
375.783	316.45
376.163	342.21
376.544	326.16
376.925	317.35
377.305	339.04
377.686	316.9
378.066	327.75
378.447	321.42
378.827	315.54
379.208	329.55
379.588	318.48
379.968	336.11
380.349	325.94
380.729	330.68
381.109	323
381.489	317.12
381.87	339.5
382.25	335.2
382.63	351.47
383.01	320.74
383.39	343.34
383.77	349.21
384.15	337.91
384.53	325.71
384.91	348.76
385.29	326.39
385.67	339.5
386.049	347.86
386.429	338.59
386.809	349.89
387.189	341.76
387.568	342.21
387.948	337.46
388.328	365.94
388.707	335.88
389.087	340.85
389.466	356.22
389.846	344.24
390.225	350.12
390.605	360.29
390.984	343.56
391.363	348.76
391.743	350.8
392.122	381.53
392.501	368.42
392.881	374.75
393.26	372.94
393.639	369.55
394.018	376.78
394.397	363.45
394.776	382.43
395.155	379.72
395.534	375.43
395.913	382.43
396.292	370.91
396.671	363.68
397.05	391.02
397.429	378.14
397.808	385.37
398.186	369.1
398.565	388.99
398.944	400.06
399.323	379.04
399.701	373.39
400.08	384.69
400.458	391.47
400.837	391.7
401.215	389.21
401.594	419.04
401.972	383.11
402.351	393.05
402.729	398.25
403.107	408.42
403.486	385.37
403.864	397.57
404.242	413.62
404.62	402.55
404.999	425.82
405.377	408.65
405.755	405.48
406.133	400.96
406.511	411.59
406.889	433.96
407.267	431.47
407.645	424.47
408.023	447.29
408.401	458.36
408.779	415.65
409.156	424.24
409.534	442.09
409.912	438.48
410.29	447.06
410.667	443.22
411.045	457.91
411.422	466.95
411.8	444.8
412.178	478.93
412.555	467.18
412.933	456.56
413.31	466.73
413.687	487.29
414.065	467.18
414.442	472.83
414.819	501.07
415.197	490.91
415.574	495.2
415.951	480.28
416.328	501.07
416.705	506.05
417.082	505.59
417.46	499.04
417.837	498.14
418.214	478.02
418.591	525.48
418.967	522.77
419.344	511.7
419.721	512.15
420.098	509.66
420.475	537.23
420.852	539.94
421.228	537.46
421.605	543.33
421.982	541.3
422.358	533.16
422.735	524.12
423.111	546.72
423.488	568.87
423.864	563.9
424.241	562.77
424.617	583.78
424.994	549.66
425.37	577.23
425.746	565.71
426.123	573.84
426.499	602.54
426.875	601.41
427.251	578.36
427.627	616.78
428.003	628.98
428.379	616.1
428.756	606.83
429.132	615.42
429.507	639.38
429.883	620.85
430.259	647.74
430.635	628.98
431.011	647.96
431.387	662.65
431.763	657.23
432.138	682.99
432.514	696.32
432.89	680.28
433.265	693.61
433.641	706.94
434.016	678.02
434.392	715.31
434.767	706.04
435.143	716.44
435.518	712.37
435.894	744.23
436.269	734.97
436.644	730.22
437.02	729.54
437.395	752.14
437.77	742.42
438.145	746.72
438.52	773.16
438.895	772.03
439.271	753.95
439.646	789.2
440.021	791.24
440.395	794.85
440.77	797.56
441.145	786.04
441.52	798.92
441.895	791.69
442.27	820.39
442.645	793.72
443.019	805.47
443.394	805.47
443.769	825.13
444.143	810.22
444.518	816.32
444.892	829.2
445.267	818.81
445.641	829.43
446.016	842.53
446.39	841.63
446.764	862.19
447.139	856.32
447.513	866.04
447.887	861.29
448.262	855.42
448.636	880.27
449.01	865.36
449.384	873.49
449.758	895.41
450.132	890.89
450.506	899.93
450.88	880.27
451.254	908.75
451.628	911.23
452.002	900.61
452.376	933.15
452.75	916.2
453.123	919.82
453.497	916.2
453.871	933.38
454.244	955.3
454.618	972.93
454.992	976.99
455.365	973.38
455.739	977.67
456.112	1008.41
456.486	998.01
456.859	1005.92
457.232	1034.62
457.606	1042.3
457.979	1066.48
458.352	1044.34
458.725	1092.25
459.099	1052.92
459.472	1081.4
459.845	1092.47
460.218	1115.07
460.591	1114.62
460.964	1113.71
461.337	1143.77
461.71	1144.22
462.083	1183.32
462.456	1173.15
462.829	1157.78
463.201	1183.99
463.574	1170.21
463.947	1211.11
464.32	1226.93
464.692	1232.81
465.065	1265.8
465.438	1249.76
465.81	1254.73
466.183	1275.52
466.555	1310.09
466.928	1320.49
467.3	1321.62
467.672	1348.28
468.045	1363.88
468.417	1345.35
468.789	1371.11
469.161	1356.87
469.534	1394.16
469.906	1424.44
470.278	1437.32
470.65	1437.77
471.022	1474.38
471.394	1510.31
471.766	1539.24
472.138	1551.22
472.51	1547.15
472.882	1608.39
473.253	1606.36
473.625	1626.47
473.997	1676.64
474.369	1710.99
474.74	1677.99
475.112	1741.27
475.484	1753.7
475.855	1770.65
476.227	1784.88
476.598	1854.26
476.97	1880.02
477.341	1900.36
477.713	1934.03
478.084	1965.67
478.455	1989.62
478.827	2006.57
479.198	2086.57
479.569	2050.86
479.94	2102.84
480.311	2139.68
480.682	2165.21
481.053	2229.16
481.424	2309.61
481.795	2312.1
482.166	2324.53
482.537	2370.86
482.908	2430.29
483.279	2413.11
483.65	2472.1
484.021	2553.22
484.391	2598.19
484.762	2613.56
485.133	2631.87
485.503	2653.79
485.874	2698.98
486.244	2767.23
486.615	2813.78
486.985	2813.78
487.356	2915.93
487.726	2919.09
488.097	2917.96
488.467	3000.44
488.837	3042.25
489.207	3094
489.578	3141.23
489.948	3170.61
490.318	3205.86
490.688	3244.05
491.058	3277.05
491.428	3314.79
491.798	3362.24
492.168	3424.16
492.538	3450.15
492.908	3449.92
493.278	3528.57
493.648	3486.53
494.017	3532.18
494.387	3584.84
494.757	3655.12
495.126	3678.62
495.496	3679.97
495.866	3712.06
496.235	3748.9
496.605	3805.17
496.974	3741.67
497.344	3835.68
497.713	3817.15
498.082	3863.92
498.452	3927.42
498.821	3934.66
499.19	3949.12
499.559	3990.93
499.928	4049
500.298	4096.01
500.667	4076.57
501.036	4112.05
501.405	4123.35
501.774	4092.84
502.143	4168.1
502.512	4179.17
502.88	4202.9
503.249	4253.52
503.618	4256
503.987	4266.17
504.356	4295.32
504.724	4299.17
505.093	4326.96
505.462	4395.89
505.83	4382.1
506.199	4429.56
506.567	4451.93
506.936	4424.81
507.304	4477.02
507.672	4504.13
508.041	4540.97
508.409	4527.86
508.777	4543.45
509.145	4631.59
509.514	4617.58
509.882	4612.38
510.25	4667.52
510.618	4689.89
510.986	4636.11
511.354	4707.29
511.722	4731.25
512.09	4720.85
512.458	4739.61
512.826	4783
513.193	4759.04
513.561	4798.81
513.929	4879.72
514.297	4892.15
514.664	4908.42
515.032	4920.39
515.4	4923.78
515.767	4965.59
516.135	5002.88
516.502	4965.59
516.869	5046.27
517.237	5055.53
517.604	5028.86
517.972	5056.43
518.339	5027.96
518.706	5114.51
519.073	5077.68
519.44	5150.22
519.808	5200.16
520.175	5182.08
520.542	5209.65
520.909	5215.53
521.276	5181.18
521.643	5301.17
522.009	5311.57
522.376	5292.36
522.743	5356.99
523.11	5338.69
523.477	5380.27
523.843	5452.81
524.21	5487.61
524.577	5524.22
524.943	5465.92
525.31	5530.09
525.676	5595.86
526.043	5567.16
526.409	5646.02
526.776	5655.29
527.142	5691.67
527.508	5702.29
527.874	5744.78
528.241	5798.34
528.607	5788.17
528.973	5839.47
529.339	5860.26
529.705	5926.92
530.071	5930.99
530.437	5983.19
530.803	5934.6
531.169	6002.17
531.535	6048.95
531.901	6059.57
532.267	6084.2
532.632	6083.75
532.998	6116.52
533.364	6169.4
533.73	6202.17
534.095	6199.68
534.461	6263.18
534.826	6282.62
535.192	6316.06
535.557	6314.71
535.923	6378.66
536.288	6359.68
536.653	6387.7
537.019	6355.38
537.384	6450.52
537.749	6485.78
538.114	6483.29
538.479	6462.73
538.845	6501.14
539.21	6536.62
539.575	6574.59
539.94	6569.16
540.305	6641.03
540.67	6643.06
541.034	6688.71
541.399	6761.7
541.764	6699.56
542.129	6683.74
542.494	6775.71
542.858	6769.16
543.223	6830.85
543.587	6869.04
543.952	6926.67
544.316	6876.5
544.681	6903.17
545.045	6981.36
545.41	7010.51
545.774	7056.61
546.138	6976.16
546.503	7097.74
546.867	7030.85
547.231	7096.38
547.595	7110.62
547.959	7225.87
548.324	7199.43
548.688	7221.8
549.052	7254.8
549.416	7248.69
549.779	7263.61
550.143	7274
550.507	7371.63
550.871	7361.68
551.235	7391.74
551.599	7383.15
551.962	7454.11
552.326	7462.47
552.689	7537.73
553.053	7462.47
553.417	7511.51
553.78	7653.88
554.143	7616.37
554.507	7607.55
554.87	7642.36
555.234	7700.66
555.597	7648.01
555.96	7722.13
556.323	7763.93
556.686	7745.4
557.05	7780.21
557.413	7829.92
557.776	7810.71
558.139	7872.63
558.502	7877.83
558.865	7897.26
559.228	7947.21
559.59	7968.45
559.953	7984.27
560.316	8030.82
560.679	8065.85
561.041	8107.65
561.404	8127.99
561.767	8157.6
562.129	8221.55
562.492	8260.42
562.854	8216.13
563.217	8231.94
563.579	8280.3
563.941	8267.65
564.304	8422.9
564.666	8366.63
565.028	8342.22
565.39	8393.52
565.753	8455.67
566.115	8499.51
566.477	8534.99
566.839	8539.73
567.201	8555.78
567.563	8612.5
567.925	8679.39
568.287	8715.32
568.648	8666.74
569.01	8733.85
569.372	8774.53
569.734	8841.42
570.095	8859.95
570.457	8871.25
570.819	8868.76
571.18	8889.78
571.542	8952.15
571.903	8937.24
572.265	9024.69
572.626	9103.56
572.987	9117.12
573.349	9221.52
573.71	9200.28
574.071	9271.69
574.432	9364.8
574.794	9433.49
575.155	9493.38
575.516	9501.52
575.877	9660.38
576.238	9605.24
576.599	9697.89
576.96	9735.63
577.32	9824.9
577.681	9902.86
578.042	9975.85
578.403	10094.27
578.763	10126.13
579.124	10247.48
579.485	10373.13
579.845	10519.79
580.206	10550.08
580.566	10601.83
580.927	10738.77
581.287	10931.99
581.648	11007.24
582.008	11158.65
582.368	11260.34
582.728	11421.24
583.089	11521.35
583.449	11704.85
583.809	11765.64
584.169	12032.52
584.529	12129.24
584.889	12327.2
585.249	12512.28
585.609	12615.56
585.969	12823.01
586.329	13094.42
586.688	13356.56
587.048	13469.09
587.408	13614.63
587.768	13870.44
588.127	14045.13
588.487	14310.2
588.846	14646.69
589.206	14794.71
589.565	15008.49
589.925	15328.93
590.284	15584.52
590.643	15732.54
591.003	16026.09
591.362	16369.58
591.721	16713.76
592.08	16931.6
592.44	17111.94
592.799	17383.79
593.158	17649.55
593.517	17890.67
593.876	18272.58
594.235	18470.55
594.593	18727.49
594.952	19159.57
595.311	19271.88
595.67	19754.58
596.029	20124.51
596.387	20336.71
596.746	20649.25
597.104	20831.84
597.463	21194.09
597.822	21556.79
598.18	21627.3
598.538	21967.4
598.897	22262.31
599.255	22559.93
599.613	23129.86
599.972	23143.19
600.33	23538.66
600.688	23693.23
601.046	24069.72
601.404	24411.18
601.762	24503.16
602.12	25029.24
602.478	25219.52
602.836	25594.65
603.194	25726.4
603.552	25967.07
603.91	26086.16
604.268	26457.68
604.625	26673.04
604.983	27044.33
605.341	27151.9
605.698	27570.87
606.056	27831.2
606.413	28028.26
606.771	28299.44
607.128	28567.68
607.485	28597.28
607.843	28885.19
608.2	29258.28
608.557	29602.23
608.914	29694.21
609.272	29965.16
609.629	30300.29
609.986	30516.78
610.343	30578.02
610.7	31120.61
611.057	31190.44
611.414	31211.91
611.771	31475.63
612.127	31897.09
612.484	32006.91
612.841	32202.16
613.198	32260.01
613.554	32395.83
613.911	32890.51
614.267	32972.31
614.624	33130.95
614.98	33229.25
615.337	33662.91
615.693	33597.38
616.05	33649.36
616.406	34085.28
616.762	34144.26
617.118	34349.9
617.475	34314.87
617.831	34625.6
618.187	34719.16
618.543	34868.31
618.899	35208.86
619.255	35311.01
619.611	35397.33
619.967	35580.38
620.323	35656.99
620.678	35606.14
621.034	35690.88
621.39	35757.1
621.746	35931.33
622.101	36414.03
622.457	36078.44
622.812	36286.35
623.168	36534.25
623.523	36674.36
623.879	36785.32
624.234	36619.45
624.589	36945.99
624.945	36890.85
625.3	37119.55
625.655	37073.45
626.01	37224.85
626.365	37255.81
626.72	37419.43
627.075	37358.41
627.43	37549.59
627.785	37404.28
628.14	37579.42
628.495	37639.31
628.85	37677.05
629.205	37692.41
629.559	37924.72
629.914	37765.41
630.269	37867.1
630.623	37844.27
630.978	37867.55
631.332	38048.11
631.687	38072.74
632.041	38014.21
632.396	38143.25
632.75	37884.05
633.104	38078.84
633.459	37984.16
633.813	37881.56
634.167	38072.97
634.521	38099.18
634.875	38180.99
635.229	38197.48
635.583	37899.41
635.937	38016.25
636.291	37837.95
636.645	38094.66
636.999	38133.31
637.352	38074.78
637.706	37841.11
638.06	38190.93
638.413	38036.13
638.767	37987.32
639.121	38041.33
639.474	37823.48
639.828	38050.82
640.181	37980.31
640.534	37955
640.888	38051.05
641.241	37797.04
641.594	37887.66
641.947	38053.76
642.301	37968.56
642.654	38078.84
643.007	37973.54
643.36	37874.78
643.713	37796.36
644.066	38044.95
644.419	37875.68
644.771	37619.87
645.124	37519.54
645.477	37295.36
645.83	37107.12
646.182	36959.78
646.535	36807.46
646.888	36964.52
647.24	36814.24
647.593	37061.47
647.945	36922.94
648.298	36717.75
648.65	36684.08
649.002	36539
649.355	36726.79
649.707	36716.39
650.059	36873.45
650.411	37311.63
650.763	37370.16
651.115	37666.2
651.467	37686.31
651.819	37618.97
652.171	37585.07
652.523	37500.33
652.875	37488.12
653.227	37354.12
653.578	37533.32
653.93	37461.46
654.282	37345.3
654.633	37306.89
654.985	37452.19
655.337	37463.04
655.688	37309.37
656.039	37420.78
656.391	37138.53
656.742	37322.71
657.094	37195.02
657.445	37476.37
657.796	37286.77
658.147	37303.95
658.498	37179.88
658.849	37264.63
659.2	37235.7
659.551	37235.48
659.902	37298.75
660.253	37182.14
660.604	37263.05
660.955	37192.31
661.306	37283.61
661.656	37209.04
662.007	37190.28
662.358	37232.99
662.708	37108.47
663.059	37158.64
663.409	36874.36
663.76	37268.02
664.11	37105.08
664.461	37314.57
664.811	37200.22
665.161	37203.39
665.511	37009.94
665.862	37001.13
666.212	37160.22
666.562	37228.02
666.912	37157.06
667.262	37082.49
667.612	37132.43
667.962	37145.99
668.312	36968.14
668.662	37311.86
669.011	37163.61
669.361	37060.57
669.711	37009.94
670.06	36935.6
670.41	36910.51
670.76	36927.01
671.109	36918.2
671.459	36915.71
671.808	37034.35
672.157	36912.09
672.507	36735.83
672.856	36739.67
673.205	36832.1
673.554	36879.33
673.904	36797.07
674.253	37035.71
674.602	36879.55
674.951	36316.4
675.3	36127.26
675.649	36706.22
675.998	36634.14
676.346	36773.34
676.695	36784.19
677.044	36517.3
677.393	36665.32
677.741	36754.58
678.09	36470.07
678.438	36496.51
678.787	36618.09
679.135	36590.97
679.484	36260.59
679.832	36442.73
680.181	36261.26
680.529	36393.69
680.877	36253.58
681.225	36250.64
681.573	36384.2
681.922	36186.92
682.27	36038.22
682.618	36179.23
682.966	35925
683.314	36108.73
683.661	35957.09
684.009	35939.24
684.357	35674.39
684.705	35713.71
685.053	35623.54
685.4	35757.1
685.748	35543.32
686.095	35472.36
686.443	35288.18
686.79	35286.6
687.138	35323.44
687.485	35506.48
687.832	35288.41
688.18	35249.99
688.527	35119.37
688.874	35098.13
689.221	35043.22
689.568	35005.48
689.915	34905.37
690.262	34958.02
690.609	34775.43
690.956	34655.43
691.303	34663.34
691.65	34477.58
691.997	34551.48
692.344	34331.15
692.69	34310.81
693.037	34302.9
693.383	33987.88
693.73	34064.94
694.077	33903.13
694.423	33947.65
694.769	33784.27
695.116	33707.66
695.462	33639.41
695.808	33614.78
696.155	33702.01
696.501	33445.07
696.847	33391.51
697.193	33130.95
697.539	33269.93
697.885	33095.02
698.231	33008.47
698.577	32958.3
698.923	32956.94
699.269	32663.17
699.614	32543.4
699.96	32615.71
700.306	32641.02
700.651	32450.29
700.997	32339.79
701.342	32351.76
701.688	32201.48
702.033	32084.65
702.379	32109.51
702.724	32022.05
703.069	32131.2
703.415	31700.93
703.76	31604.44
704.105	31694.6
704.45	31694.15
704.795	31505.91
705.14	31345.46
705.485	31368.29
705.83	31178.46
706.175	31269.98
706.52	31152.92
706.865	31110.67
707.209	30994.96
707.554	30837.23
707.899	31030.22
708.243	30834.97
708.588	30644.01
708.932	30609.89
709.277	30598.81
709.621	30511.13
709.966	30309.33
710.31	30418.25
710.654	30192.72
710.998	30196.34
711.342	30313.4
711.687	30161.99
712.031	30001.09
712.375	29964.93
712.719	29977.36
713.063	29901.66
713.407	29864.82
713.75	29809.91
714.094	29777.59
714.438	29650.36
714.782	29897.82
715.125	29553.87
715.469	29639.52
715.812	29420.31
716.156	29287.66
716.499	29329.47
716.843	29368.11
717.186	29250.83
717.53	29358.85
717.873	29317.49
718.216	29136.25
718.559	28971.96
718.902	28848.58
719.246	28960.67
719.589	28859.88
719.932	28772.2
720.275	28790.05
720.617	28684.51
720.96	28653.1
721.303	28583.05
721.646	28802.25
721.989	28395.93
722.331	28578.53
722.674	28470.73
723.016	28482.94
723.359	28505.31
723.701	28405.65
724.044	28244.75
724.386	28105.77
724.729	28242.27
725.071	28185.54
725.413	28119.56
725.755	28114.81
726.097	27997.98
726.439	27854.48
726.782	27921.37
727.124	27931.54
727.465	27667.59
727.807	27780.81
728.149	27686.57
728.491	27745.1
728.833	27671.66
729.175	27606.8
729.516	27605.22
729.858	27615.16
730.199	27512.79
730.541	27519.57
730.882	27471.44
731.224	27572.68
731.565	27387.83
731.906	27249.52
732.248	27373.14
732.589	27155.51
732.93	27135.4
733.271	27094.95
733.612	27229.19
733.953	27072.13
734.294	27010.89
734.635	26906.48
734.976	26977.21
735.317	26875.75
735.658	26830.55
735.999	26865.13
736.339	26869.19
736.68	26795.98
737.021	26752.14
737.361	26680.05
737.702	26759.59
738.042	26598.92
738.383	26572.48
738.723	26642.31
739.063	26485.02
739.404	26456.78
739.744	26433.95
740.084	26334.29
740.424	26437.12
740.764	26260.85
741.104	26484.35
741.444	26198.25
741.784	26083
742.124	26239.38
742.464	26145.82
742.804	26130.01
743.143	26015.21
743.483	26045.04
743.823	25921.87
744.162	25906.96
744.502	25977.24
744.841	25793.97
745.181	25907.86
745.52	25881.42
745.86	25854.76
746.199	25772.73
746.538	25726.4
746.877	25832.16
747.216	25787.87
747.556	25555.78
747.895	25585.61
748.234	25515.33
748.573	25565.95
748.911	25433.3
749.25	25417.48
749.589	25252.29
749.928	25367.54
750.267	25381.1
750.605	25379.29
750.944	25191.27
751.283	25055.91
751.621	25175.23
751.96	25044.38
752.298	25042.12
752.636	25057.94
752.975	24861.34
753.313	24764.84
753.651	24866.31
753.989	24789.93
754.327	24792.19
754.666	24604.85
755.004	24660.89
755.342	24650.95
755.679	24651.17
756.017	24438.52
756.355	24582.02
756.693	24361.24
757.031	24386.77
757.368	24212.09
757.706	24289.83
758.044	24175.25
758.381	24245.31
758.719	23923.28
759.056	24067.01
759.394	23917.18
759.731	23865.88
760.068	23762.38
760.405	23824.08
760.743	23569.85
761.08	23732.78
761.417	23604.42
761.754	23597.87
762.091	23362.85
762.428	23358.33
762.765	23201.04
763.102	23351.55
763.438	23146.13
763.775	23103.42
764.112	23134.15
764.449	23098.9
764.785	22994.49
765.122	22907.49
765.458	22809.41
765.795	22760.83
766.131	22752.01
766.467	22601.74
766.804	22501.17
767.14	22407.17
767.476	22529.65
767.812	22257.56
768.148	22367.39
768.485	22121.3
768.821	22011.24
769.157	22092.15
769.492	21982.09
769.828	21969.89
770.164	21757.24
770.5	21724.7
770.836	21703.23
771.171	21673.17
771.507	21607.19
771.842	21303.24
772.178	21419.62
772.513	21287.87
772.849	21342.11
773.184	21162.9
773.519	21109.57
773.855	21072.74
774.19	20925.4
774.525	20921.1
774.86	20951.16
775.195	20899.86
775.53	20735.34
775.865	20506.88
776.2	20499.42
776.535	20371.96
776.87	20323.15
777.205	20274.11
777.539	20199.77
777.874	20183.72
778.209	19994.12
778.543	20017.62
778.878	19800.68
779.212	19824.18
779.547	19779.44
779.881	19768.36
780.215	19597.3
780.55	19641.59
780.884	19481.37
781.218	19447.69
781.552	19528.37
781.886	19382.16
782.22	19262.84
782.554	19173.13
782.888	19106.46
783.222	18918.9
783.556	18950.08
783.889	18845.22
784.223	18639.81
784.557	18671.9
784.89	18734.49
785.224	18642.52
785.557	18533.14
785.891	18466.03
786.224	18340.61
786.558	18372.02
786.891	18301.96
787.224	18137.67
787.557	18170.89
787.891	18038.92
788.224	18025.36
788.557	18073.72
788.89	18052.7
789.223	17926.15
789.556	17870.34
789.888	17771.81
790.221	17608.65
790.554	17608.2
790.887	17611.13
791.219	17495.2
791.552	17400.97
791.884	17327.3
792.217	17309.45
792.549	17237.58
792.882	17092.05
793.214	16975.44
793.546	17068.1
793.879	16926.41
794.211	16883.69
794.543	16927.08
794.875	16735.9
795.207	16885.5
795.539	16695
795.871	16721.44
796.203	16589.69
796.535	16529.13
796.867	16399.19
797.198	16408
797.53	16394.89
797.862	16308.79
798.193	16316.25
798.525	16188.57
798.856	16248.46
799.188	16066.54
799.519	16043.49
799.85	16022.02
800.182	16050.5
800.513	15980.22
800.844	15804.85
801.175	15886.43
801.506	15771.86
801.837	15727.57
802.168	15665.87
802.499	15640.79
802.83	15566.89
803.161	15505.65
803.491	15531.19
803.822	15494.8
804.153	15436.95
804.483	15267.01
804.814	15231.31
805.145	15263.85
805.475	15242.16
805.805	15136.17
806.136	15189.5
806.466	15175.04
806.796	15060.47
807.126	14966.91
807.457	14922.39
807.787	14919.9
808.117	14902.5
808.447	14775.73
808.777	14888.27
809.107	14748.16
809.436	14681.72
809.766	14654.6
810.096	14565.34
810.426	14642.62
810.755	14629.06
811.085	14543.19
811.414	14543.42
811.744	14366.92
812.073	14322.86
812.403	14378.45
812.732	14272.24
813.061	14242.18
813.39	14206.02
813.719	14156.31
814.049	14200.15
814.378	14242.63
814.707	14034.96
815.036	14142.98
815.365	14032.47
815.693	13931.68
816.022	13789.09
816.351	13874.28
816.68	13855.98
817.008	13877.67
817.337	13700.28
817.665	13664.12
817.994	13745.02
818.322	13712.25
818.651	13636.55
818.979	13630.45
819.307	13627.96
819.636	13582.09
819.964	13446.27
820.292	13550.22
820.62	13483.33
820.948	13466.16
821.276	13559.49
821.604	13420.73
821.932	13508.19
822.259	13515.87
822.587	13488.08
822.915	13433.16
823.243	13468.64
823.57	13468.64
823.898	13408.31
824.225	13423.45
824.553	13371.02
824.88	13412.83
825.207	13437.68
825.535	13357.23
825.862	13360.62
826.189	13286.27
826.516	13376.67
826.843	13436.78
827.17	13470.68
827.497	13426.16
827.824	13435.88
828.151	13442.43
828.478	13350
828.805	13435.88
829.131	13267.52
829.458	13373.96
829.785	13294.18
830.111	13343.45
830.438	13353.17
830.764	13294.18
831.09	13347.52
831.417	13271.13
831.743	13383.67
832.069	13392.26
832.395	13169.22
832.722	13242.89
833.048	13205.37
833.374	13307.29
833.7	13286.05
834.026	13282.66
834.351	13216.9
834.677	13110.01
835.003	13204.7
835.329	13247.41
835.654	13111.82
835.98	13084.92
836.306	13129.22
836.631	13041.99
836.956	13046.28
837.282	13104.36
837.607	13034.76
837.932	13070.91
838.258	13018.03
838.583	12978.94
838.908	12992.27
839.233	12976.45
839.558	12922.44
839.883	12804.93
840.208	12876.34
840.533	12832.5
840.858	12834.76
841.182	12807.87
841.507	12757.25
841.832	12681.55
842.156	12686.97
842.481	12669.34
842.805	12712.05
843.13	12574.66
843.454	12717.7
843.778	12587.08
844.103	12483.13
844.427	12489.23
844.751	12515.45
845.075	12470.93
845.399	12465.28
845.723	12295.11
846.047	12379.86
846.371	12296.7
846.695	12249.69
847.019	12190.71
847.343	12138.28
847.666	12094.67
847.99	12034.1
848.313	12021.22
848.637	11956.59
848.96	11917.05
849.284	11850.38
849.607	11822.81
849.931	11772.19
850.254	11706.2
850.577	11607
850.9	11592.76
851.223	11588.24
851.546	11532.65
851.869	11509.6
852.192	11401.35
852.515	11348.47
852.838	11298.53
853.161	11320.68
853.483	11214.69
853.806	11221.24
854.129	11175.14
854.451	11110.06
854.774	11068.25
855.096	10961.36
855.419	11058.76
855.741	11021.02
856.063	10938.09
856.385	10902.83
856.708	10929.95
857.03	10836.17
857.352	10819.22
857.674	10796.4
857.996	10728.83
858.318	10750.07
858.64	10726.34
858.961	10723.86
859.283	10574.03
859.605	10578.55
859.926	10682.28
860.248	10500.36
860.57	10456.74
860.891	10512.79
861.212	10547.59
861.534	10399.57
861.855	10413.13
862.176	10428.72
862.498	10449.74
862.819	10384.66
863.14	10285.22
863.461	10351.89
863.782	10277.54
864.103	10202.97
864.424	10289.52
864.745	10253.59
865.065	10184.44
865.386	10199.58
865.707	10242.51
866.027	10139.01
866.348	10109.86
866.668	10093.82
866.989	10125.45
867.309	10074.38
867.63	10012.69
867.95	10068.51
868.27	10084.1
868.59	10028.06
868.91	9978.79
869.23	9955.06
869.55	9944.22
869.87	9949.64
870.19	9956.19
870.51	9909.19
870.83	9940.6
871.15	9759.36
871.469	9940.6
871.789	9838
872.109	9891.34
872.428	9747.61
872.748	9904.22
873.067	9751.9
873.386	9791.68
873.706	9758.91
874.025	9760.72
874.344	9687.73
874.663	9786.25
874.982	9640.5
875.301	9676.88
875.62	9624.22
875.939	9634.85
876.258	9612.25
876.577	9502.87
876.896	9606.37
877.214	9554.85
877.533	9534.96
877.852	9504
878.17	9532.7
878.489	9505.58
878.807	9509.88
879.125	9510.78
879.444	9450.67
879.762	9429.2
880.08	9493.83
880.398	9425.13
880.716	9347.85
881.034	9334.74
881.352	9384.23
881.67	9345.14
881.988	9326.83
882.306	9307.85
882.624	9287.74
882.941	9232.14
883.259	9201.18
883.577	9186.95
883.894	9141.53
884.212	9114.86
884.529	9120.73
884.846	9118.7
885.164	9106.72
885.481	9081.41
885.798	9082.32
886.115	9051.81
886.432	9054.97
886.75	9027.86
887.067	9007.07
887.383	8969.55
887.7	9002.77
888.017	8944.92
888.334	8916.22
888.651	8901.53
888.967	8870.57
889.284	8823.79
889.6	8844.13
889.917	8727.3
890.233	8727.07
890.55	8695.44
890.866	8737.24
891.182	8653.4
891.498	8647.3
891.815	8590.35
892.131	8575.66
892.447	8585.16
892.763	8527.98
893.079	8542.9
893.395	8541.99
893.71	8467.42
894.026	8434.65
894.342	8496.12
894.657	8378.38
894.973	8362.11
895.289	8340.19
895.604	8402.56
895.92	8259.51
896.235	8260.42
896.55	8259.29
896.865	8172.06
897.181	8241.21
897.496	8184.71
897.811	8115.11
898.126	8114.66
898.441	8086.86
898.756	8009.8
899.071	8020.65
899.386	8011.39
899.7	7984.49
900.015	7884.38
900.33	7883.03
900.644	7929.35
900.959	7878.06
901.273	7819.3
901.588	7758.06
901.902	7721.22
902.216	7741.34
902.531	7736.14
902.845	7718.29
903.159	7602.81
903.473	7679.42
903.787	7516.48
904.101	7572.98
904.415	7525.3
904.729	7465.19
905.042	7476.48
905.356	7450.5
905.67	7421.8
905.984	7420.44
906.297	7368.92
906.611	7352.19
906.924	7345.19
907.237	7330.95
907.551	7267.22
907.864	7262.25
908.177	7197.17
908.491	7225.19
908.804	7195.36
909.117	7126.44
909.43	7089.38
909.743	7036.95
910.056	7012.99
910.368	6978.19
910.681	7000.34
910.994	6959.89
911.307	6987.01
911.619	6849.38
911.932	6850.29
912.244	6867.91
912.557	6806.67
912.869	6800.34
913.181	6778.42
913.494	6747.01
913.806	6714.24
914.118	6691.87
914.43	6608.71
914.742	6615.26
915.054	6585.66
915.366	6601.93
915.678	6550.41
915.99	6448.94
916.302	6462.5
916.613	6415.04
916.925	6456.4
917.236	6422.95
917.548	6370.07
917.859	6415.95
918.171	6313.35
918.482	6296.85
918.794	6306.57
919.105	6296.63
919.416	6241.04
919.727	6258.66
920.038	6224.09
920.349	6191.55
920.66	6113.58
920.971	6067.03
921.282	6102.96
921.593	6068.61
921.903	6014.83
922.214	5988.16
922.525	6040.36
922.835	5963.98
923.146	5901.16
923.456	5909.75
923.767	5846.47
924.077	5848.28
924.387	5811.22
924.697	5784.1
925.008	5738.45
925.318	5724.21
925.628	5744.1
925.938	5738.22
926.248	5685.12
926.558	5644.67
926.867	5552.69
927.177	5596.08
927.487	5534.39
927.796	5542.75
928.106	5515.86
928.416	5521.51
928.725	5494.84
929.034	5507.27
929.344	5459.14
929.653	5442.41
929.962	5390.44
930.271	5382.53
930.581	5355.86
930.89	5278.12
931.199	5261.85
931.508	5270.89
931.817	5225.7
932.125	5230.44
932.434	5216.43
932.743	5185.7
933.051	5138.69
933.36	5160.61
933.669	5121.52
933.977	5091.01
934.286	5117.68
934.594	5043.55
934.902	5037.45
935.21	5042.88
935.519	4991.58
935.827	4979.37
936.135	4916.55
936.443	4960.84
936.751	4912.71
937.059	4868.42
937.367	4852.15
937.674	4859.83
937.982	4816.22
938.29	4838.36
938.597	4844.69
938.905	4783
939.213	4735.99
939.52	4741.41
939.827	4723.11
940.135	4711.13
940.442	4634.53
940.749	4620.74
941.056	4617.35
941.363	4599.05
941.67	4585.94
941.977	4557.92
942.284	4550.01
942.591	4519.95
942.898	4538.03
943.205	4473.63
943.511	4474.3
943.818	4455.32
944.125	4397.02
944.431	4385.94
944.738	4421.88
945.044	4384.81
945.35	4337.81
945.657	4320.63
945.963	4351.82
946.269	4305.27
946.575	4353.63
946.881	4239.06
947.187	4251.03
947.493	4265.95
947.799	4215.78
948.105	4210.36
948.41	4169.45
948.716	4184.14
949.022	4169.68
949.327	4132.39
949.633	4098.04
949.938	4101.66
950.244	4100.3
950.549	4048.33
950.854	4030.47
951.16	4020.08
951.465	4001.32
951.77	4002.23
952.075	3953.19
952.38	3951.15
952.685	3949.35
952.99	3937.14
953.294	3905.5
953.599	3864.15
953.904	3862.12
954.209	3797.94
954.513	3847.43
954.818	3809.69
955.122	3833.42
955.426	3802.46
955.731	3747.77
956.035	3759.97
956.339	3753.42
956.643	3766.53
956.948	3702.57
957.252	3642.46
957.556	3687.43
957.86	3680.65
958.163	3668.67
958.467	3613.31
958.771	3604.95
959.075	3604.95
959.378	3573.31
959.682	3547.77
959.985	3550.26
960.289	3560.88
960.592	3504.61
960.896	3474.33
961.199	3516.81
961.502	3493.31
961.805	3464.61
962.108	3463.26
962.411	3459.87
962.714	3417.61
963.017	3424.39
963.32	3397.27
963.623	3388.46
963.926	3366.99
964.228	3305.75
964.531	3332.64
964.833	3324.73
965.136	3316.14
965.438	3330.83
965.741	3316.14
966.043	3278.4
966.345	3227.78
966.648	3247.44
966.95	3242.25
967.252	3165.86
967.554	3176.94
967.856	3154.11
968.158	3185.98
968.46	3172.19
968.761	3111.18
969.063	3138.52
969.365	3097.39
969.666	3091.51
969.968	3055.13
970.269	3051.06
970.571	3060.78
970.872	3029.37
971.174	3012.19
971.475	3032.08
971.776	3020.1
972.077	2966.77
972.378	2946.43
972.679	2931.74
972.98	2976.26
973.281	2918.41
973.582	2925.19
973.883	2919.77
974.183	2903.05
974.484	2898.53
974.785	2846.78
975.085	2869.83
975.386	2877.74
975.686	2812.65
975.986	2827.34
976.287	2830.05
976.587	2784.86
976.887	2808.81
977.187	2761.58
977.487	2779.21
977.787	2745.31
978.087	2751.86
978.387	2729.72
978.687	2723.84
978.987	2686.33
979.286	2680.45
979.586	2690.17
979.885	2672.99
980.185	2620.79
980.484	2601.58
980.784	2621.47
981.083	2630.96
981.382	2589.16
981.682	2613.56
981.981	2607.46
982.28	2582.83
982.579	2540.12
982.878	2556.61
983.177	2564.75
983.475	2541.02
983.774	2478.42
984.073	2542.6
984.372	2487.91
984.67	2486.56
984.969	2454.02
985.267	2508.71
985.566	2483.62
985.864	2465.09
986.162	2426
986.461	2410.63
986.759	2401.36
987.057	2422.61
987.355	2383.28
987.653	2385.32
987.951	2414.24
988.249	2392.1
988.547	2380.57
988.844	2338.54
989.142	2351.87
989.44	2329.73
989.737	2311.87
990.035	2310.97
990.332	2283.4
990.63	2265.77
990.927	2272.78
991.224	2252.67
991.521	2261.71
991.819	2260.8
992.116	2230.75
992.413	2215.83
992.71	2165.89
993.006	2180.13
993.303	2192.1
993.6	2229.39
993.897	2178.77
994.193	2160.24
994.49	2141.71
994.787	2080.24
995.083	2093.35
995.379	2110.52
995.676	2093.57
995.972	2111.88
996.268	2097.19
996.565	2091.99
996.861	2066.68
997.157	2055.16
997.453	2070.75
997.749	2057.87
998.044	2018.55
998.34	2030.98
998.636	2001.6
998.932	1983.52
999.227	1977.87
999.523	1973.35
999.818	1947.36
1000.114	1925.22
1000.409	1930.42
1000.704	1925.67
1001	1921.83
1001.295	1892
1001.59	1870.3
1001.885	1894.71
1002.18	1898.1
1002.475	1843.64
1002.77	1877.76
1003.065	1857.87
1003.359	1824.2
1003.654	1834.6
1003.949	1828.27
1004.243	1807.71
1004.538	1788.5
1004.832	1840.02
1005.127	1820.36
1005.421	1795.05
1005.715	1787.37
1006.009	1720.93
1006.304	1740.14
1006.598	1741.72
1006.892	1751.89
1007.186	1733.81
1007.48	1739.91
1007.773	1693.13
1008.067	1708.73
1008.361	1671.44
1008.655	1667.6
1008.948	1667.82
1009.242	1659.01
1009.535	1655.62
1009.829	1637.54
1010.122	1653.59
1010.415	1605.68
1010.708	1609.29
1011.001	1604.1
1011.295	1583.76
1011.588	1602.74
1011.881	1567.26
1012.173	1558.22
1012.466	1576.07
1012.759	1542.4
1013.052	1551.22
1013.344	1537.88
1013.637	1534.49
1013.93	1512.8
1014.222	1501.95
1014.514	1499.92
1014.807	1456.53
1015.099	1448.39
1015.391	1484.1
1015.683	1465.12
1015.976	1454.72
1016.268	1456.3
1016.56	1421.05
1016.851	1404.55
1017.143	1433.93
1017.435	1427.15
1017.727	1413.59
1018.018	1368.85
1018.31	1369.75
1018.602	1363.88
1018.893	1353.71
1019.185	1395.29
1019.476	1330.43
1019.767	1340.83
1020.058	1351.67
1020.35	1347.38
1020.641	1327.27
1020.932	1315.06
1021.223	1299.25
1021.514	1305.12
1021.804	1292.24
1022.095	1308.51
1022.386	1255.18
1022.677	1252.69
1022.967	1242.75
1023.258	1265.57
1023.548	1259.92
1023.839	1242.75
1024.129	1224.9
1024.419	1230.77
1024.709	1200.04
1025	1191.9
1025.29	1190.77
1025.58	1195.75
1025.87	1166.59
1026.16	1183.99
1026.449	1168.63
1026.739	1147.39
1027.029	1175.63
1027.319	1151.23
1027.608	1134.28
1027.898	1126.37
1028.187	1134.28
1028.477	1112.13
1028.766	1106.71
1029.055	1090.89
1029.344	1087.27
1029.634	1069.87
1029.923	1093.38
1030.212	1053.15
1030.501	1072.58
1030.79	1062.87
1031.078	1049.76
1031.367	1057.67
1031.656	1051.12
1031.945	1028.07
1032.233	1007.95
1032.522	1006.15
1032.81	998.91
1033.099	1009.99
1033.387	1015.41
1033.675	989.65
1033.963	974.96
1034.251	1009.76
1034.54	983.77
1034.828	945.58
1035.116	948.97
1035.403	956.43
1035.691	959.59
1035.979	911.01
1036.267	915.98
1036.554	924.11
1036.842	924.79
1037.129	903.32
1037.417	915.07
1037.704	906.71
1037.992	913.04
1038.279	882.31
1038.566	885.47
1038.853	885.47
1039.14	885.47
