Data from hue_340_FLMS001491_7.txt Node
Date: Mon Feb 06 15:42:13 GMT 2017
User: dcchb
Spectrometer: FLMS00149
Trigger mode: 0
Integration Time (sec): 2.000000E-2
Scans to average: 10
Electric dark correction enabled: true
Nonlinearity correction enabled: false
Boxcar width: 0
XAxis mode: Wavelengths
Number of Pixels in Spectrum: 2048
>>>>>Begin Spectral Data<<<<<
341.393	-9.76
341.776	-9.76
342.16	-9.76
342.543	-42.75
342.927	-41.17
343.31	-70.77
343.693	-62.41
344.077	-61.51
344.46	-54.05
344.843	-65.8
345.226	-53.6
345.61	-45.69
345.993	-8.86
346.376	4.48
346.759	12.61
347.142	13.06
347.525	49.22
347.908	65.49
348.291	66.85
348.674	102.78
349.057	108.2
349.44	119.5
349.823	159.05
350.206	160.41
350.588	175.55
350.971	213.51
351.354	204.25
351.737	242.66
352.119	229.56
352.502	255.09
352.884	295.32
353.267	267.97
353.65	277.46
354.032	292.83
354.414	310.23
354.797	318.14
355.179	313.85
355.562	324.92
355.944	306.62
356.326	306.16
356.709	353.17
357.091	349.78
357.473	323.11
357.855	332.6
358.238	325.37
358.62	344.81
359.002	322.44
359.384	338.93
359.766	339.61
360.148	333.51
360.53	338.03
360.912	322.21
361.294	315.43
361.676	344.13
362.057	324.47
362.439	295.54
362.821	321.76
363.203	329.67
363.584	328.99
363.966	328.08
364.348	320.4
364.729	300.29
365.111	314.07
365.493	326.28
365.874	313.17
366.256	303.23
366.637	298.93
367.019	317.46
367.4	302.77
367.781	281.76
368.163	312.27
368.544	310.46
368.925	292.15
369.306	301.42
369.688	307.97
370.069	304.58
370.45	320.63
370.831	315.66
371.212	302.32
371.593	320.4
371.974	314.3
372.355	303.9
372.736	329.89
373.117	315.88
373.498	328.76
373.879	336.9
374.26	317.24
374.641	308.88
375.021	314.53
375.402	304.13
375.783	319.27
376.163	334.64
376.544	333.51
376.925	318.82
377.305	352.72
377.686	331.02
378.066	348.42
378.447	312.72
378.827	311.81
379.208	314.3
379.588	304.81
379.968	342.55
380.349	344.58
380.729	318.14
381.109	313.85
381.489	315.43
381.87	337.35
382.25	338.03
382.63	352.72
383.01	335.99
383.39	323.11
383.77	358.59
384.15	333.28
384.53	315.88
384.91	349.1
385.29	365.37
385.67	319.72
386.049	351.13
386.429	343
386.809	347.52
387.189	345.26
387.568	327.18
387.948	348.42
388.328	345.94
388.707	346.84
389.087	346.16
389.466	364.24
389.846	346.16
390.225	341.19
390.605	335.32
390.984	382.77
391.363	366.28
391.743	370.34
392.122	386.61
392.501	361.3
392.881	373.51
393.26	350
393.639	360.4
394.018	346.62
394.397	381.42
394.776	380.51
395.155	368.76
395.534	364.47
395.913	367.18
396.292	395.65
396.671	397.69
397.05	386.39
397.429	378.93
397.808	375.54
398.186	371.93
398.565	367.18
398.944	372.15
399.323	390.23
399.701	387.29
400.08	388.2
400.458	396.33
400.837	391.59
401.215	410.12
401.594	394.3
401.972	400.17
402.351	394.52
402.729	402.66
403.107	417.12
403.486	399.72
403.864	393.62
404.242	425.71
404.62	407.18
404.999	402.21
405.377	415.77
405.755	420.06
406.133	414.64
406.511	429.55
406.889	435.88
407.267	438.82
407.645	428.42
408.023	419.38
408.401	421.64
408.779	452.38
409.156	451.47
409.534	450.57
409.912	462.32
410.29	460.74
410.667	458.25
411.045	454.18
411.422	481.3
411.8	464.58
412.178	472.49
412.555	480.17
412.933	503.9
413.31	492.83
413.687	498.25
414.065	511.58
414.442	518.81
414.819	493.96
415.197	480.62
415.574	534.18
415.951	513.84
416.328	517.91
416.705	553.39
417.082	507.29
417.46	495.99
417.837	545.25
418.214	552.94
418.591	562.65
418.967	541.19
419.344	561.07
419.721	577.12
420.098	549.77
420.475	557.68
420.852	571.24
421.228	555.65
421.605	587.74
421.982	581.41
422.358	598.13
422.735	594.74
423.111	590.22
423.488	602.88
423.864	613.05
424.241	593.61
424.617	619.15
424.994	613.27
425.37	627.74
425.746	614.18
426.123	624.8
426.499	631.13
426.875	665.7
427.251	688.98
427.627	640.62
428.003	677.68
428.379	660.96
428.756	688.75
429.132	708.87
429.507	676.32
429.883	683.78
430.259	717.68
430.635	707.51
431.011	726.72
431.387	760.62
431.763	731.24
432.138	715.87
432.514	736.21
432.89	739.6
433.265	761.07
433.641	800.39
434.016	756.77
434.392	779.6
434.767	794.06
435.143	789.77
435.518	789.77
435.894	803.78
436.269	805.81
436.644	825.02
437.02	834.74
437.395	839.48
437.77	866.6
438.145	840.84
438.52	843.33
438.895	871.57
439.271	850.78
439.646	863.89
440.021	867.73
440.395	890.1
440.77	863.44
441.145	904.34
441.52	905.47
441.895	881.52
442.27	891.46
442.645	902.76
443.019	903.21
443.394	909.99
443.769	904.34
444.143	912.02
444.518	905.7
444.892	894.62
445.267	945.02
445.641	919.71
446.016	952.93
446.39	975.3
446.764	939.59
447.139	947.96
447.513	957.9
447.887	979.82
448.262	971.68
448.636	972.36
449.01	975.98
449.384	989.54
449.758	976.43
450.132	985.02
450.506	995.64
450.88	1009.42
451.254	1009.42
451.628	1013.94
452.002	1039.93
452.376	1015.07
452.75	1039.03
453.123	1030.44
453.497	1067.27
453.871	1041.06
454.244	1081.29
454.618	1053.72
454.992	1098.46
455.365	1084.45
455.739	1118.12
456.112	1142.75
456.486	1094.62
456.859	1127.39
457.232	1140.72
457.606	1156.54
457.979	1148.18
458.352	1173.49
458.725	1184.56
459.099	1201.06
459.472	1188.4
459.845	1205.35
460.218	1230.21
460.591	1222.52
460.964	1241.51
461.337	1259.36
461.71	1276.76
462.083	1300.26
462.456	1300.26
462.829	1288.29
463.201	1328.51
463.574	1314.5
463.947	1331.9
464.32	1358.79
464.692	1349.98
465.065	1374.38
465.438	1361.28
465.81	1411.67
466.183	1410.77
466.555	1418.68
466.928	1460.94
467.3	1402.18
467.672	1454.61
468.045	1472.69
468.417	1490.99
468.789	1494.16
469.161	1540.93
469.534	1546.58
469.906	1559.01
470.278	1568.96
470.65	1563.31
471.022	1604.44
471.394	1650.54
471.766	1645.56
472.138	1674.94
472.51	1672
472.882	1725.56
473.253	1770.53
473.625	1730.99
473.997	1783.87
474.369	1785.22
474.74	1800.81
475.112	1830.64
475.484	1862.28
475.855	1919.91
476.227	1911.55
476.598	1961.04
476.97	1992.67
477.341	2004.65
477.713	2050.3
478.084	2057.3
478.455	2085.1
478.827	2103.63
479.198	2160.35
479.569	2129.17
479.94	2205.32
480.311	2255.04
480.682	2297.3
481.053	2358.09
481.424	2321.7
481.795	2421.14
482.166	2407.35
482.537	2448.25
482.908	2507.46
483.279	2508.82
483.65	2550.4
484.021	2589.27
484.391	2633.79
484.762	2654.8
485.133	2679.44
485.503	2710.17
485.874	2756.5
486.244	2787
486.615	2828.13
486.985	2861.58
487.356	2913.1
487.726	2919.2
488.097	2992.2
488.467	2982.03
488.837	3020.22
489.207	3083.04
489.578	3120.78
489.948	3151.29
490.318	3162.59
490.688	3195.58
491.058	3229.93
491.428	3255.92
491.798	3334.33
492.168	3402.13
492.538	3374.78
492.908	3434.22
493.278	3452.97
493.648	3479.87
494.017	3505.63
494.387	3586.08
494.757	3596.47
495.126	3622.91
495.496	3677.83
495.866	3626.98
496.235	3691.84
496.605	3675.34
496.974	3692.97
497.344	3749.69
497.713	3782.68
498.082	3786.3
498.452	3859.97
498.821	3865.17
499.19	3890.7
499.559	3904.94
499.928	3975.67
500.298	3970.25
500.667	3972.51
501.036	3976.12
501.405	4007.08
501.774	3987.65
502.143	4059.29
502.512	4079.85
502.88	4100.87
503.249	4102.9
503.618	4099.96
503.987	4169.79
504.356	4157.14
504.724	4188.77
505.093	4198.94
505.462	4216.12
505.83	4229.45
506.199	4272.39
506.567	4308.77
506.936	4281.43
507.304	4337.24
507.672	4324.36
508.041	4360.52
508.409	4375.66
508.777	4403.01
509.145	4391.48
509.514	4436.9
509.882	4457.24
510.25	4455.66
510.618	4538.37
510.986	4524.58
511.354	4567.07
511.722	4588.31
512.09	4614.98
512.458	4578.59
512.826	4574.3
513.193	4618.59
513.561	4647.97
513.929	4641.42
514.297	4723.9
514.664	4670.8
515.032	4700.62
515.4	4746.5
515.767	4734.75
516.135	4803.67
516.502	4802.77
516.869	4784.69
517.237	4827.4
517.604	4821.98
517.972	4885.03
518.339	4882.77
518.706	4872.6
519.073	4869.21
519.44	4937.68
519.808	4945.82
520.175	4927.96
520.542	4953.5
520.909	4970
521.276	5039.6
521.643	5058.36
522.009	5033.95
522.376	5080.28
522.743	5125.7
523.11	5149.43
523.477	5165.7
523.843	5170.44
524.21	5238.46
524.577	5295.19
524.943	5213.83
525.31	5260.84
525.676	5373.83
526.043	5322.08
526.409	5334.51
526.776	5446.82
527.142	5416.54
527.508	5461.51
527.874	5494.73
528.241	5492.92
528.607	5506.48
528.973	5553.71
529.339	5585.57
529.705	5631.67
530.071	5612.92
530.437	5635.74
530.803	5659.24
531.169	5735.4
531.535	5701.28
531.901	5769.52
532.267	5771.78
532.632	5802.29
532.998	5824.21
533.364	5843.87
533.73	5918.67
534.095	5903.08
534.461	5923.19
534.826	5994.83
535.192	5986.01
535.557	6036.64
535.923	6012.68
536.288	6055.17
536.653	6090.19
537.019	6083.41
537.384	6096.75
537.749	6149.17
538.114	6149.63
538.479	6124.77
538.845	6256.74
539.21	6196.63
539.575	6241.38
539.94	6311.88
540.305	6327.02
540.67	6331.54
541.034	6383.29
541.399	6395.72
541.764	6427.36
542.129	6461.71
542.494	6466.23
542.858	6501.93
543.223	6501.03
543.587	6495.83
543.952	6526.34
544.316	6579.9
544.681	6577.41
545.045	6634.36
545.41	6701.02
545.774	6623.06
546.138	6684.98
546.503	6773.34
546.867	6723.17
547.231	6773.79
547.595	6780.57
547.959	6833.9
548.324	6856.27
548.688	6859.89
549.052	6887.69
549.416	6915.26
549.779	6931.98
550.143	6921.36
550.507	6983.95
550.871	7045.42
551.235	7023.28
551.599	7049.72
551.962	7120
552.326	7123.84
552.689	7141.01
553.053	7161.58
553.417	7121.35
553.78	7230.73
554.143	7217.17
554.507	7212.2
554.87	7257.17
555.234	7329.48
555.597	7301.69
555.96	7326.09
556.323	7351.18
556.686	7363.38
557.05	7440.89
557.413	7419.42
557.776	7436.15
558.139	7446.99
558.502	7469.37
558.865	7488.8
559.228	7517.95
559.59	7587.55
559.953	7567.89
560.316	7662.13
560.679	7625.75
561.041	7756.36
561.404	7731.28
561.767	7686.99
562.129	7703.03
562.492	7823.71
562.854	7825.29
563.217	7826.64
563.579	7805.63
563.941	7902.57
564.304	7936.25
564.666	7918.85
565.028	7985.51
565.39	7985.96
565.753	8058.28
566.115	8028.22
566.477	8058.5
566.839	8108.67
567.201	8179.86
567.563	8195.9
567.925	8315.9
568.287	8255.33
568.648	8230.7
569.01	8259.85
569.372	8352.96
569.734	8359.96
570.095	8397.25
570.457	8436.8
570.819	8462.79
571.18	8472.05
571.542	8603.8
571.903	8608.32
572.265	8578.72
572.626	8682.22
572.987	8682.22
573.349	8769.67
573.71	8799.73
574.071	8831.36
574.432	8869.33
574.794	8984.58
575.155	9035.65
575.516	9058.48
575.877	9159.94
576.238	9128.08
576.599	9241.52
576.96	9317.9
577.32	9354.06
577.681	9471.12
578.042	9542.08
578.403	9540.05
578.763	9657.56
579.124	9719.93
579.485	9846.03
579.845	10034.72
580.206	10075.4
580.566	10155.62
580.927	10345.45
581.287	10485.11
581.648	10488.04
582.008	10699.56
582.368	10759
582.728	10935.94
583.089	11010.06
583.449	11260.68
583.809	11360.34
584.169	11559.43
584.529	11710.61
584.889	11991.05
585.249	12139.53
585.609	12268.79
585.969	12563.02
586.329	12676.23
586.688	12926.17
587.048	13120.52
587.408	13333.17
587.768	13524.12
588.127	13798.01
588.487	13919.82
588.846	14306.02
589.206	14411.78
589.565	14626.92
589.925	14975.38
590.284	15176.28
590.643	15424.41
591.003	15818.98
591.362	16099.2
591.721	16350.94
592.08	16654.43
592.44	16908.89
592.799	17145.72
593.158	17374.87
593.517	17639.04
593.876	17955.19
594.235	18268.4
594.593	18593.37
594.952	18853.25
595.311	19133.01
595.67	19521.03
596.029	19829.27
596.387	20170.05
596.746	20482.81
597.104	20650.04
597.463	20969.35
597.822	21328.89
598.18	21474.65
598.538	21832.6
598.897	22212.25
599.255	22306.04
599.613	22937.43
599.972	23041.16
600.33	23423.52
600.688	23577.19
601.046	23840.46
601.404	24144.86
601.762	24451.52
602.12	24819.42
602.478	25117.49
602.836	25260.99
603.194	25406.97
603.552	25702.78
603.91	25959.5
604.268	26383.44
604.625	26471.35
604.983	26912.92
605.341	27056.42
605.698	27340.93
606.056	27646.69
606.413	27769.4
606.771	28197.63
607.128	28391.98
607.485	28551.98
607.843	28693.21
608.2	29006.65
608.557	29317.15
608.914	29480.76
609.272	29825.84
609.629	29972.05
609.986	30335.21
610.343	30261.53
610.7	30805.25
611.057	30837.79
611.414	31142.42
611.771	31346.48
612.127	31495.17
612.484	31729.29
612.841	32077.76
613.198	32023.75
613.554	32364.08
613.911	32649.95
614.267	32774.24
614.624	32831.18
614.98	33001.35
615.337	33340.55
615.693	33402.92
616.05	33573.99
616.406	33785.51
616.762	33800.65
617.118	33971.04
617.475	34016.46
617.831	34300.07
618.187	34343.69
618.543	34466.85
618.899	34889.21
619.255	34960.17
619.611	34870.45
619.967	35204
620.323	35407.84
620.678	35366.49
621.034	35444.9
621.39	35470.21
621.746	35688.28
622.101	36194.26
622.457	35938.9
622.812	35993.14
623.168	36286.69
623.523	36187.25
623.879	36551.54
624.234	36478.09
624.589	36590.41
624.945	36637.64
625.3	36787.92
625.655	36790.63
626.01	36968.48
626.365	36912.43
626.72	36887.12
627.075	37083.95
627.43	36947.91
627.785	37088.25
628.14	37328.24
628.495	37158.75
628.85	37242.59
629.205	37174.35
629.559	37505.64
629.914	37439.65
630.269	37507.45
630.623	37534.79
630.978	37504.51
631.332	37630.61
631.687	37768.46
632.041	37623.38
632.396	37624.96
632.75	37562.36
633.104	37725.07
633.459	37595.58
633.813	37657.95
634.167	37733.65
634.521	37678.97
634.875	37768.46
635.229	37675.8
635.583	37595.58
635.937	37618.86
636.291	37464.74
636.645	37631.51
636.999	37594.9
637.352	37816.82
637.706	37608.69
638.06	37740.66
638.413	37628.35
638.767	37616.6
639.121	37702.47
639.474	37515.58
639.828	37642.58
640.181	37537.5
640.534	37802.58
640.888	37609.14
641.241	37408.01
641.594	37595.81
641.947	37634.9
642.301	37537.95
642.654	37550.61
643.007	37601
643.36	37476.49
643.713	37460.89
644.066	37673.77
644.419	37329.15
644.771	37189.26
645.124	36933.45
645.477	36957.18
645.83	36705.89
646.182	36501.82
646.535	36483.52
646.888	36573.91
647.24	36372.33
647.593	36571.65
647.945	36487.81
648.298	36366.69
648.65	36297.99
649.002	36100.7
649.355	36457.76
649.707	36332.79
650.059	36545.89
650.411	36911.76
650.763	36829.5
651.115	37339.31
651.467	37188.58
651.819	37210.05
652.171	37058.19
652.523	37144.52
652.875	37224.97
653.227	36848.03
653.578	37120.34
653.93	37141.81
654.282	37037.85
654.633	36899.55
654.985	37075.14
655.337	37036.5
655.688	36942.72
656.039	37134.8
656.391	36812.55
656.742	36931.42
657.094	36802.15
657.445	36975.93
657.796	36974.58
658.147	36908.82
658.498	36843.06
658.849	37004.63
659.2	36857.29
659.551	36698.43
659.902	36912.21
660.253	36742.95
660.604	37042.37
660.955	36656.85
661.306	36744.75
661.656	36667.69
662.007	36736.39
662.358	36778.65
662.708	36756.51
663.059	36738.65
663.409	36483.97
663.76	36790.63
664.11	36781.82
664.461	36732.78
664.811	36707.92
665.161	36644.87
665.511	36700.46
665.862	36662.27
666.212	36861.14
666.562	36891.19
666.912	36689.84
667.262	36701.14
667.612	36658.43
667.962	36735.49
668.312	36596.28
668.662	36709.27
669.011	36497.3
669.361	36736.39
669.711	36532.56
670.06	36515.83
670.41	36453.24
670.76	36475.61
671.109	36556.96
671.459	36626.34
671.808	36424.31
672.157	36500.24
672.507	36439.45
672.856	36350.41
673.205	36512.9
673.554	36476.96
673.904	36411.66
674.253	36556.51
674.602	36420.47
674.951	35877.66
675.3	35772.35
675.649	36472.44
675.998	36330.08
676.346	36370.53
676.695	36310.64
677.044	36144.77
677.393	36319.23
677.741	36241.04
678.09	36280.59
678.438	36196.75
678.787	36070.65
679.135	36015.96
679.484	35878.79
679.832	36008.5
680.181	35951.55
680.529	36003.98
680.877	35837.89
681.225	35765.12
681.573	36060.93
681.922	35836.76
682.27	35768.28
682.618	35628.85
682.966	35544.11
683.314	35693.26
683.661	35547.72
684.009	35343.21
684.357	35295.53
684.705	35300.05
685.053	35404.22
685.4	35295.07
685.748	35163.33
686.095	35084.46
686.443	35118.81
686.79	34954.97
687.138	35094.63
687.485	35029.55
687.832	34926.04
688.18	34830.45
688.527	34767.41
688.874	34691.93
689.221	34526.73
689.568	34681.98
689.915	34512.27
690.262	34550.24
690.609	34333.07
690.956	34285.84
691.303	34240.41
691.65	34087.65
691.997	34139.85
692.344	33895.34
692.69	33795.45
693.037	33934.66
693.383	33627.1
693.73	33613.54
694.077	33626.42
694.423	33585.29
694.769	33537.15
695.116	33420.1
695.462	33348.91
695.808	33201.8
696.155	33354.79
696.501	33094.45
696.847	33036.15
697.193	32812.88
697.539	32979.43
697.885	32651.53
698.231	32638.87
698.577	32700.79
698.923	32469.16
699.269	32310.75
699.614	32388.03
699.96	32137.87
700.306	32142.39
700.651	32101.03
700.997	31964.77
701.342	31926.35
701.688	31787.37
702.033	31793.02
702.379	31718.22
702.724	31596.41
703.069	31789.63
703.415	31391.45
703.76	31457.21
704.105	31381.05
704.45	31266.93
704.795	31129.31
705.14	31109.65
705.485	31071.46
705.83	30798.47
706.175	30910.78
706.52	30745.82
706.865	30713.5
707.209	30704.91
707.554	30488.87
707.899	30699.72
708.243	30448.2
708.588	30404.81
708.932	30243
709.277	30059.96
709.621	30243.91
709.966	30130.69
710.31	30095.44
710.654	29864.03
710.998	29875.1
711.342	29935.22
711.687	29784.71
712.031	29737.48
712.375	29651.61
712.719	29647.99
713.063	29587.43
713.407	29728.22
713.75	29486.41
714.094	29450.48
714.438	29293.88
714.782	29393.54
715.125	29244.39
715.469	29274.67
715.812	29067.44
716.156	28933.21
716.499	29004.39
716.843	28982.02
717.186	28857.73
717.53	29017.95
717.873	28938.86
718.216	28912.64
718.559	28698.86
718.902	28531.64
719.246	28655.93
719.589	28633.33
719.932	28444.86
720.275	28416.84
720.617	28416.16
720.96	28276.73
721.303	28382.04
721.646	28296.39
721.989	28262.94
722.331	28313.34
722.674	28081.71
723.016	28086
723.359	28022.27
723.701	28157.86
724.044	27879.68
724.386	27814.59
724.729	27857.98
725.071	27852.56
725.413	27754.26
725.755	27662.96
726.097	27679.46
726.439	27539.8
726.782	27520.36
727.124	27725.1
727.465	27507.26
727.807	27492.34
728.149	27461.83
728.491	27460.25
728.833	27396.07
729.175	27221.61
729.516	27274.72
729.858	27261.39
730.199	27318.34
730.541	27094.39
730.882	27106.36
731.224	27173.48
731.565	26963.77
731.906	26927.61
732.248	27028.4
732.589	26803.09
732.93	26880.15
733.271	26747.28
733.612	26865.01
733.953	26932.13
734.294	26664.57
734.635	26636.32
734.976	26744.79
735.317	26593.38
735.658	26501.86
735.999	26559.94
736.339	26520.16
736.68	26509.54
737.021	26342.32
737.361	26350.23
737.702	26500.28
738.042	26343.45
738.383	26380.51
738.723	26451.69
739.063	26201.08
739.404	26194.07
739.744	26173.51
740.084	25983.46
740.424	26059.61
740.764	26108.42
741.104	26116.11
741.444	26002.66
741.784	25860.29
742.124	25868.43
742.464	25749.79
742.804	25739.39
743.143	25667.53
743.483	25573.3
743.823	25668.66
744.162	25648.32
744.502	25658.04
744.841	25546.18
745.181	25630.02
745.52	25492.62
745.86	25453.98
746.199	25430.7
746.538	25488.78
746.877	25374.21
747.216	25267.54
747.556	25365.17
747.895	25380.53
748.234	25204.94
748.573	25131.05
748.911	25144.83
749.25	25106.87
749.589	24965.4
749.928	24974.67
750.267	25089.92
750.605	24934.44
750.944	24905.97
751.283	24743.26
751.621	24816.93
751.96	24769.02
752.298	24677.5
752.636	24725.18
752.975	24668.01
753.313	24546.43
753.651	24734.45
753.989	24464.4
754.327	24500.1
754.666	24309.6
755.004	24296.27
755.342	24297.4
755.679	24314.8
756.017	24165.88
756.355	24166.55
756.693	24116.61
757.031	24148.93
757.368	23968.59
757.706	23971.3
758.044	23825.32
758.381	23911.42
758.719	23790.74
759.056	23863.06
759.394	23708.49
759.731	23499.9
760.068	23503.75
760.405	23386.91
760.743	23359.57
761.08	23430.75
761.417	23266.24
761.754	23329.06
762.091	23164.77
762.428	23134.04
762.765	23082.29
763.102	23029.86
763.438	22949.41
763.775	22786.7
764.112	22815.18
764.449	22721.17
764.785	22696.54
765.122	22527.27
765.458	22469.2
765.795	22481.17
766.131	22407.96
766.467	22305.81
766.804	22199.37
767.14	22090.68
767.476	22125.7
767.812	21968.65
768.148	22022.88
768.485	21874.64
768.821	21770.91
769.157	21821.3
769.492	21690.69
769.828	21673.96
770.164	21428.32
770.5	21369.34
770.836	21320.98
771.171	21342
771.507	21195.11
771.842	21082.57
772.178	21039.4
772.513	21010.25
772.849	20897.94
773.184	20831.5
773.519	20962.8
773.855	20761.9
774.19	20631.28
774.525	20572.3
774.86	20590.15
775.195	20530.49
775.53	20405.97
775.865	20218.18
776.2	20231.29
776.535	20069.71
776.87	19998.75
777.205	19967.34
777.539	20013.44
777.874	19863.16
778.209	19718.54
778.543	19699.1
778.878	19531.2
779.212	19510.41
779.547	19549.73
779.881	19458.66
780.215	19341.82
780.55	19362.39
780.884	19220.92
781.218	19147.7
781.552	19143.18
781.886	19073.58
782.22	18957.88
782.554	18872.91
782.888	18713.36
783.222	18726.02
783.556	18577.32
783.889	18592.69
784.223	18381.4
784.557	18319.25
784.89	18423.88
785.224	18314.28
785.557	18207.84
785.891	18182.98
786.224	18135.53
786.558	18152.7
786.891	17879.71
787.224	17859.38
787.557	17735.31
787.891	17807.4
788.224	17763.33
788.557	17694.86
788.89	17661.64
789.223	17652.6
789.556	17496.67
789.888	17454.19
790.221	17355.66
790.554	17219.17
790.887	17264.81
791.219	17243.57
791.552	17093.75
791.884	17185.27
792.217	17050.36
792.549	17036.35
792.882	16837.93
793.214	16725.17
793.546	16857.82
793.879	16712.06
794.211	16623.48
794.543	16629.35
794.875	16566.3
795.207	16660.08
795.539	16534.21
795.871	16420.32
796.203	16291.96
796.535	16289.92
796.867	16257.16
797.198	16236.14
797.53	16221.68
797.862	16084.28
798.193	16065.3
798.525	15982.59
798.856	15985.98
799.188	15919.31
799.519	15814.23
799.85	15666.66
800.182	15738.75
800.513	15782.59
800.844	15546.44
801.175	15710.28
801.506	15594.35
801.837	15614.46
802.168	15478.87
802.499	15449.27
802.83	15365.43
803.161	15348.48
803.491	15210.41
803.822	15298.54
804.153	15205.66
804.483	15059.45
804.814	14989.17
805.145	15064.87
805.475	14928.6
805.805	14942.62
806.136	14936.51
806.466	14894.26
806.796	14829.85
807.126	14708.27
807.457	14682.06
807.787	14600.03
808.117	14591.44
808.447	14558.9
808.777	14560.93
809.107	14477.77
809.436	14492.01
809.766	14483.87
810.096	14398
810.426	14421.27
810.755	14365.68
811.085	14368.62
811.414	14280.03
811.744	14225.35
812.073	14213.82
812.403	14207.95
812.732	14077.78
813.061	14000.72
813.39	13988.06
813.719	13995.75
814.049	13934.51
814.378	13964.56
814.707	13859.93
815.036	13918.24
815.365	13827.84
815.693	13689.09
816.022	13711.69
816.351	13599.15
816.68	13622.42
817.008	13623.1
817.337	13508.3
817.665	13473.05
817.994	13518.25
818.322	13519.83
818.651	13380.85
818.979	13338.36
819.307	13383.56
819.636	13289.1
819.964	13255.65
820.292	13323.9
820.62	13299.49
820.948	13351.02
821.276	13358.7
821.604	13227.86
821.932	13206.84
822.259	13275.31
822.587	13262.89
822.915	13239.61
823.243	13220.63
823.57	13144.7
823.898	13179.27
824.225	13131.59
824.553	13188.54
824.88	13160.74
825.207	13220.63
825.535	13130.46
825.862	13200.74
826.189	13101.31
826.516	13307.63
826.843	13240.51
827.17	13149.22
827.497	13252.26
827.824	13273.96
828.151	13222.43
828.478	13229.21
828.805	13246.16
829.131	13162.32
829.458	13132.27
829.785	13080.74
830.111	13117.35
830.438	13121.19
830.764	13157.13
831.09	13201.87
831.417	13103.12
831.743	13217.01
832.069	13167.75
832.395	13119.84
832.722	13048.65
833.048	13056.34
833.374	13137.92
833.7	12955.32
834.026	12962.55
834.351	13048.43
834.677	13003.91
835.003	13070.57
835.329	12899.28
835.654	12985.6
835.98	13020.18
836.306	12953.97
836.631	12856.12
836.956	12924.59
837.282	12885.49
837.607	12844.82
837.932	12835.1
838.258	12851.37
838.583	12746.52
838.908	12700.19
839.233	12697.02
839.558	12682.34
839.883	12719.62
840.208	12626.97
840.533	12649.34
840.858	12590.36
841.182	12675.78
841.507	12587.88
841.832	12549.68
842.156	12523.24
842.481	12560.76
842.805	12453.87
843.13	12410.93
843.454	12383.59
843.778	12345.4
844.103	12341.33
844.427	12330.93
844.751	12337.49
845.075	12244.83
845.399	12238.73
845.723	12165.06
846.047	12169.13
846.371	12070.6
846.695	12082.58
847.019	11906.76
847.343	11984.5
847.666	11860.21
847.99	11794.22
848.313	11818.18
848.637	11724.62
848.96	11739.99
849.284	11721.68
849.607	11608.92
849.931	11627
850.254	11554
850.577	11411.86
850.9	11380.22
851.223	11397.85
851.546	11378.19
851.869	11276.95
852.192	11227.69
852.515	11170.51
852.838	11162.6
853.161	11185.65
853.483	11069.27
853.806	11074.92
854.129	11001.7
854.451	10959.22
854.774	10921.03
855.096	10880.35
855.419	10878.09
855.741	10869.95
856.063	10773.69
856.385	10808.26
856.708	10777.75
857.03	10678.77
857.352	10738.43
857.674	10619.57
857.996	10579.34
858.318	10508.61
858.64	10491.89
858.961	10455.28
859.283	10458.89
859.605	10418.67
859.926	10458.21
860.248	10409.85
860.57	10354.26
860.891	10404.88
861.212	10317.65
861.534	10333.25
861.855	10287.6
862.176	10283.53
862.498	10223.42
862.819	10231.33
863.14	10201.05
863.461	10118.11
863.782	10111.56
864.103	10178
864.424	10080.6
864.745	10126.92
865.065	10129.18
865.386	9967.61
865.707	10025
866.027	9961.28
866.348	9967.38
866.668	9976.87
866.989	9938.68
867.309	9886.25
867.63	9934.16
867.95	10022.52
868.27	9859.36
868.59	9889.42
868.91	9879.92
869.23	9874.5
869.55	9811.45
869.87	9856.42
870.19	9832.47
870.51	9879.7
870.83	9778.01
871.15	9752.24
871.469	9735.07
871.789	9782.98
872.109	9698.46
872.428	9665.47
872.748	9680.16
873.067	9656.65
873.386	9721.74
873.706	9653.04
874.025	9641.51
874.344	9593.38
874.663	9653.94
874.982	9506.15
875.301	9565.81
875.62	9531.23
875.939	9526.03
876.258	9538.69
876.577	9404.91
876.896	9458.01
877.214	9423.66
877.533	9520.39
877.852	9477.67
878.17	9386.38
878.489	9428.64
878.807	9443.1
879.125	9406.94
879.444	9334.63
879.762	9282.43
880.08	9286.95
880.398	9284.69
880.716	9304.8
881.034	9221.86
881.352	9213.95
881.67	9230.68
881.988	9198.81
882.306	9157.46
882.624	9103.9
882.941	9096.89
883.259	9095.54
883.577	9029.78
883.894	9015.77
884.212	9060.06
884.529	8967.86
884.846	8979.61
885.164	8948.42
885.481	8968.54
885.798	8919.05
886.115	8947.07
886.432	8912.49
886.75	8868.88
887.067	8857.13
887.383	8786.17
887.7	8792.95
888.017	8797.24
888.334	8833.17
888.651	8754.3
888.967	8716.34
889.284	8678.37
889.6	8603.57
889.917	8623.91
890.233	8592.95
890.55	8564.03
890.866	8571.03
891.182	8533.07
891.498	8513.41
891.815	8514.31
892.131	8475.89
892.447	8486.51
892.763	8433.41
893.079	8399.96
893.395	8351.6
893.71	8387.31
894.026	8311.38
894.342	8289.46
894.657	8253.53
894.973	8232.06
895.289	8183.02
895.604	8208.1
895.92	8150.93
896.235	8196.8
896.55	8130.37
896.865	8098.28
897.181	8099.41
897.496	7992.97
897.811	8005.4
898.126	7959.52
898.441	8014.89
898.756	7938.28
899.071	7918.39
899.386	7916.59
899.7	7792.07
900.015	7838.62
900.33	7800.88
900.644	7704.84
900.959	7800.66
901.273	7719.53
901.588	7631.17
901.902	7669.36
902.216	7585.75
902.531	7622.81
902.845	7586.65
903.159	7512.98
903.473	7486.54
903.787	7478.63
904.101	7491.29
904.415	7459.87
904.729	7372.87
905.042	7378.75
905.356	7369.26
905.67	7304.62
905.984	7350.05
906.297	7310.95
906.611	7211.97
906.924	7201.12
907.237	7165.19
907.551	7141.69
907.864	7152.09
908.177	7128.13
908.491	7124.06
908.804	7063.27
909.117	7072.54
909.43	7010.39
909.743	6953.67
910.056	6954.58
910.368	6912.77
910.681	6918.87
910.994	6864.64
911.307	6834.35
911.619	6780.57
911.932	6824.41
912.244	6720.68
912.557	6724.53
912.869	6646.11
913.181	6677.97
913.494	6654.47
913.806	6597.75
914.118	6554.36
914.43	6603.63
914.742	6543.51
915.054	6532.44
915.366	6502.16
915.678	6436.4
915.99	6409.51
916.302	6357.3
916.613	6331.54
916.925	6391.43
917.236	6295.61
917.548	6234.14
917.859	6273.92
918.171	6254.26
918.482	6244.54
918.794	6216.07
919.105	6173.81
919.416	6127.93
919.727	6162.96
920.038	6082.06
920.349	6065.56
920.66	6010.87
920.971	6026.01
921.282	5954.15
921.593	5942.63
921.903	5932.01
922.214	5882.29
922.525	5867.15
922.835	5859.92
923.146	5814.49
923.456	5829.18
923.767	5817.43
924.077	5775.62
924.387	5771.11
924.697	5760.94
925.008	5707.38
925.318	5675.97
925.628	5657.44
925.938	5712.12
926.248	5604.56
926.558	5570.88
926.867	5548.06
927.177	5508.29
927.487	5459.7
927.796	5456.76
928.106	5460.61
928.416	5420.15
928.725	5483.88
929.034	5381.74
929.344	5387.61
929.653	5329.99
929.962	5351
930.271	5299.03
930.581	5289.08
930.89	5249.76
931.199	5251.8
931.508	5181.06
931.817	5189.65
932.125	5223.32
932.434	5172.93
932.743	5106.72
933.051	5085.25
933.36	5042.54
933.669	5072.59
933.977	5039.6
934.286	5014.74
934.594	5018.36
934.902	4951.69
935.21	4925.03
935.519	4955.99
935.827	4932.71
936.135	4839.38
936.443	4835.54
936.751	4839.38
937.059	4838.93
937.367	4804.8
937.674	4820.85
937.982	4795.76
938.29	4729.1
938.597	4746.27
938.905	4730.45
939.213	4657.69
939.52	4662.43
939.827	4657.46
940.135	4562.1
940.442	4594.64
940.749	4633.73
941.056	4560.74
941.363	4521.65
941.67	4568.43
941.977	4471.7
942.284	4454.3
942.591	4423.57
942.898	4430.12
943.205	4421.08
943.511	4400.75
943.818	4419.05
944.125	4366.62
944.431	4351.26
944.738	4340.63
945.044	4322.1
945.35	4261.77
945.657	4295.44
945.963	4313.74
946.269	4203.69
946.575	4238.94
946.881	4212.73
947.187	4191.26
947.493	4200.98
947.799	4142.9
948.105	4157.14
948.41	4109.68
948.716	4088.66
949.022	4051.15
949.327	4103.8
949.633	4024.48
949.938	4022.9
950.244	3961.89
950.549	3993.52
950.854	3984.94
951.16	3961.89
951.465	3992.62
951.77	3958.72
952.075	3933.19
952.38	3924.6
952.685	3926.18
952.99	3887.77
953.294	3869.46
953.599	3860.65
953.904	3824.94
954.209	3783.13
954.513	3796.92
954.818	3749.92
955.122	3697.71
955.426	3738.84
955.731	3749.46
956.035	3716.7
956.339	3711.72
956.643	3660.43
956.948	3652.52
957.252	3607.55
957.556	3626.75
957.86	3593.76
958.163	3603.7
958.467	3563.03
958.771	3592.63
959.075	3554.21
959.378	3556.7
959.682	3585.85
959.985	3506.53
960.289	3465.4
960.592	3425.18
960.896	3498.4
961.199	3449.13
961.502	3431.51
961.805	3414.78
962.108	3377.5
962.411	3389.92
962.714	3385.86
963.017	3365.97
963.32	3330.72
963.623	3336.59
963.926	3331.4
964.228	3319.64
964.531	3299.08
964.833	3274
965.136	3234
965.438	3237.39
965.741	3233.32
966.043	3201.46
966.345	3168.91
966.648	3164.17
966.95	3177.05
967.252	3145.19
967.554	3161.23
967.856	3133.21
968.158	3075.36
968.46	3108.35
968.761	3116.26
969.063	3044.17
969.365	3063.61
969.666	3051.18
969.968	3033.32
970.269	2995.81
970.571	2973.89
970.872	3000.1
971.174	2986.32
971.475	2996.26
971.776	3009.6
972.077	2950.39
972.378	2907.68
972.679	2927.11
972.98	2932.31
973.281	2903.61
973.582	2871.52
973.883	2848.24
974.183	2840.56
974.484	2827.23
974.785	2880.33
975.085	2779.77
975.386	2810.73
975.686	2757.17
975.986	2801.47
976.287	2781.58
976.587	2777.06
976.887	2756.27
977.187	2707.91
977.487	2714.46
977.787	2716.5
978.087	2678.76
978.387	2675.37
978.687	2685.99
978.987	2639.66
979.286	2664.29
979.586	2645.99
979.885	2612.09
980.185	2594.92
980.484	2593.56
980.784	2629.49
981.083	2593.56
981.382	2577.74
981.682	2572.09
981.981	2553.56
982.28	2562.15
982.579	2561.47
982.878	2525.54
983.177	2517.18
983.475	2514.02
983.774	2508.59
984.073	2478.08
984.372	2438.54
984.67	2412.55
984.969	2447.35
985.267	2426.56
985.566	2416.62
985.864	2433.34
986.162	2435.6
986.461	2382.95
986.759	2352.44
987.057	2354.92
987.355	2337.07
987.653	2351.31
987.951	2343.17
988.249	2325.55
988.547	2338.88
988.844	2274.25
989.142	2330.74
989.44	2296.62
989.737	2306.79
990.035	2271.31
990.332	2232.22
990.63	2269.28
990.927	2222.95
991.224	2254.81
991.521	2214.81
991.819	2191.09
992.116	2202.61
992.413	2189.5
992.71	2172.78
993.006	2187.47
993.303	2158.77
993.6	2124.2
993.897	2132.78
994.193	2137.3
994.49	2083.74
994.787	2155.83
995.083	2106.12
995.379	2079.45
995.676	2081.26
995.972	2084.42
996.268	2059.79
996.565	2029.28
996.861	2076.74
997.157	2051.2
997.453	2014.59
997.749	2014.59
998.044	1971.43
998.34	1988.15
998.636	1966.46
998.932	1996.97
999.227	1955.61
999.523	1940.25
999.818	1903.41
1000.114	1930.75
1000.409	1938.21
1000.704	1900.92
1001	1889.17
1001.295	1916.07
1001.59	1898.44
1001.885	1865.22
1002.18	1847.82
1002.475	1836.52
1002.77	1815.96
1003.065	1860.02
1003.359	1824.32
1003.654	1829.29
1003.949	1819.12
1004.243	1753.58
1004.538	1755.84
1004.832	1786.58
1005.127	1751.78
1005.421	1749.06
1005.715	1751.1
1006.009	1731.66
1006.304	1725.34
1006.598	1723.98
1006.892	1722.85
1007.186	1686.24
1007.48	1706.35
1007.773	1693.25
1008.067	1659.58
1008.361	1672
1008.655	1643.98
1008.948	1670.65
1009.242	1637.2
1009.535	1600.59
1009.829	1632.68
1010.122	1614.83
1010.415	1608.5
1010.708	1606.7
1011.001	1551.1
1011.295	1548.62
1011.588	1557.2
1011.881	1547.71
1012.173	1540.71
1012.466	1552.01
1012.759	1541.16
1013.052	1531.89
1013.344	1538.45
1013.637	1528.05
1013.93	1499.35
1014.222	1486.47
1014.514	1445.57
1014.807	1465
1015.099	1465.46
1015.391	1443.54
1015.683	1444.67
1015.976	1424.78
1016.268	1436.98
1016.56	1402.86
1016.851	1430.88
1017.143	1400.15
1017.435	1372.35
1017.727	1385.68
1018.018	1361.73
1018.31	1374.84
1018.602	1359.02
1018.893	1352.69
1019.185	1341.39
1019.476	1337.78
1019.767	1328.06
1020.058	1324.89
1020.35	1320.37
1020.641	1323.09
1020.932	1284.44
1021.223	1284.67
1021.514	1287.61
1021.804	1263.2
1022.095	1253.94
1022.386	1262.98
1022.677	1245.57
1022.967	1245.57
1023.258	1236.99
1023.548	1228.4
1023.839	1219.36
1024.129	1219.13
1024.419	1186.14
1024.709	1186.37
1025	1202.41
1025.29	1159.93
1025.58	1182.98
1025.87	1173.94
1026.16	1162.41
1026.449	1151.57
1026.739	1137.1
1027.029	1140.49
1027.319	1121.28
1027.608	1141.4
1027.898	1139.36
1028.187	1121.96
1028.477	1092.58
1028.766	1108.63
1029.055	1084
1029.344	1076.54
1029.634	1067.05
1029.923	1069.53
1030.212	1055.07
1030.501	1038.12
1030.79	1021.4
1031.078	1031.57
1031.367	1042.42
1031.656	1045.13
1031.945	1002.42
1032.233	1034.73
1032.522	1016.43
1032.81	984.34
1033.099	971.23
1033.387	985.69
1033.675	1015.75
1033.963	999.25
1034.251	982.08
1034.54	955.86
1034.828	940.72
1035.116	934.4
1035.403	949.76
1035.691	935.07
1035.979	938.46
1036.267	923.55
1036.554	932.36
1036.842	912.7
1037.129	913.38
1037.417	915.41
1037.704	927.84
1037.992	896.21
1038.279	912.48
1038.566	908.63
1038.853	908.63
1039.14	908.63
