Data from hue_190_FLMS001491_00094.txt Node
Date: Tue Feb 07 16:46:02 GMT 2017
User: dcchb
Spectrometer: FLMS00149
Trigger mode: 0
Integration Time (sec): 2.000000E-2
Scans to average: 10
Electric dark correction enabled: true
Nonlinearity correction enabled: false
Boxcar width: 0
XAxis mode: Wavelengths
Number of Pixels in Spectrum: 2048
>>>>>Begin Spectral Data<<<<<
341.393	27.36
341.776	27.36
342.16	27.36
342.543	-52.41
342.927	-74.11
343.31	-60.55
343.693	-69.81
344.077	-59.87
344.46	-48.57
344.843	-45.18
345.226	-61.23
345.61	-39.98
345.993	-23.04
346.376	1.6
346.759	6.34
347.142	21.03
347.525	47.02
347.908	63.29
348.291	73.68
348.674	94.7
349.057	100.58
349.44	135.15
349.823	139.22
350.206	164.76
350.588	174.02
350.971	203.62
351.354	205.66
351.737	237.97
352.119	242.04
352.502	266
352.884	281.81
353.267	286.79
353.65	298.31
354.032	309.16
354.414	298.31
354.797	322.72
355.179	308.93
355.562	307.58
355.944	333.34
356.326	331.76
356.709	326.11
357.091	326.11
357.473	331.08
357.855	352.1
358.238	336.95
358.62	324.98
359.002	340.34
359.384	333.34
359.766	339.67
360.148	340.12
360.53	327.24
360.912	346.9
361.294	317.75
361.676	329.95
362.057	331.08
362.439	318.42
362.821	335.6
363.203	323.62
363.584	326.11
363.966	304.41
364.348	325.66
364.729	340.12
365.111	324.07
365.493	310.51
365.874	305.32
366.256	283.62
366.637	323.17
367.019	318.88
367.4	322.27
367.781	299.67
368.163	309.84
368.544	298.09
368.925	310.29
369.306	322.72
369.688	303.51
370.069	310.97
370.45	325.88
370.831	313
371.212	298.99
371.593	294.92
371.974	323.62
372.355	311.42
372.736	327.92
373.117	296.05
373.498	303.96
373.879	327.46
374.26	305.09
374.641	313
375.021	315.49
375.402	299.22
375.783	331.08
376.163	313.68
376.544	307.8
376.925	326.11
377.305	336.95
377.686	325.66
378.066	320.01
378.447	305.32
378.827	337.18
379.208	323.62
379.588	314.36
379.968	338.76
380.349	333.79
380.729	309.38
381.109	327.69
381.489	336.73
381.87	336.5
382.25	315.94
382.63	334.02
383.01	325.43
383.39	341.93
383.77	356.16
384.15	323.62
384.53	324.98
384.91	353
385.29	352.55
385.67	342.83
386.049	340.57
386.429	338.31
386.809	362.04
387.189	344.19
387.568	357.52
387.948	327.69
388.328	344.64
388.707	338.31
389.087	351.19
389.466	334.24
389.846	342.83
390.225	366.56
390.605	337.18
390.984	367.46
391.363	363.17
391.743	359.55
392.122	365.65
392.501	364.3
392.881	364.52
393.26	364.3
393.639	381.92
394.018	378.99
394.397	387.57
394.776	362.72
395.155	370.4
395.534	384.64
395.913	397.52
396.292	371.08
396.671	385.54
397.05	395.71
397.429	396.39
397.808	379.67
398.186	374.24
398.565	389.16
398.944	379.44
399.323	380.34
399.701	422.83
400.08	407.46
400.458	396.39
400.837	391.64
401.215	416.27
401.594	383.73
401.972	401.36
402.351	421.25
402.729	427.8
403.107	424.64
403.486	426.22
403.864	418.31
404.242	415.37
404.62	423.73
404.999	444.3
405.377	436.16
405.755	445.65
406.133	441.58
406.511	452.21
406.889	439.32
407.267	448.14
407.645	456.73
408.023	477.06
408.401	467.8
408.779	477.52
409.156	486.78
409.534	517.29
409.912	495.82
410.29	513.67
410.667	491.75
411.045	513.22
411.422	519.1
411.8	531.53
412.178	529.27
412.555	548.93
412.933	563.84
413.31	563.39
413.687	574.91
414.065	571.98
414.442	569.49
414.819	594.57
415.197	607.46
415.574	609.94
415.951	629.6
416.328	629.83
416.705	621.69
417.082	627.34
417.46	637.06
417.837	657.85
418.214	653.33
418.591	674.57
418.967	652.88
419.344	664.63
419.721	701.92
420.098	700.56
420.475	698.98
420.852	701.46
421.228	722.03
421.605	720.67
421.982	743.27
422.358	752.54
422.735	783.04
423.111	788.02
423.488	802.48
423.864	834.57
424.241	820.11
424.617	836.38
424.994	853.33
425.37	844.74
425.746	860.56
426.123	876.83
426.499	915.47
426.875	908.46
427.251	929.26
427.627	926.54
428.003	944.85
428.379	989.59
428.756	972.64
429.132	984.4
429.507	978.75
429.883	988.91
430.259	1034.79
430.635	1046.54
431.011	1038.63
431.387	1044.05
431.763	1067.78
432.138	1085.64
432.514	1076.6
432.89	1128.12
433.265	1152.75
433.641	1154.11
434.016	1176.25
434.392	1190.49
434.767	1240.43
435.143	1221.22
435.518	1245.18
435.894	1311.84
436.269	1292.86
436.644	1329.92
437.02	1359.53
437.395	1343.48
437.77	1403.82
438.145	1426.87
438.52	1443.82
438.895	1430.48
439.271	1468.45
439.646	1511.61
440.021	1501.44
440.395	1512.74
440.77	1543.93
441.145	1559.07
441.52	1598.39
441.895	1592.51
442.27	1645.39
442.645	1653.53
443.019	1655.11
443.394	1664.83
443.769	1695.79
444.143	1675.9
444.518	1746.18
444.892	1741.66
445.267	1737.14
445.641	1776.69
446.016	1752.96
446.39	1810.14
446.764	1811.94
447.139	1850.36
447.513	1848.1
447.887	1865.73
448.262	1875.22
448.636	1876.57
449.01	1919.29
449.384	1917.03
449.758	1969.45
450.132	1945.05
450.506	1991.37
450.88	1990.02
451.254	1992.5
451.628	2004.03
452.002	2044.93
452.376	2065.5
452.75	2078.15
453.123	2093.29
453.497	2137.13
453.871	2170.58
454.244	2230.01
454.618	2250.12
454.992	2244.02
455.365	2215.32
455.739	2315.43
456.112	2309.11
456.486	2333.06
456.859	2348.43
457.232	2397.92
457.606	2395.21
457.979	2416
458.352	2479.95
458.725	2498.25
459.099	2526.28
459.472	2611.47
459.845	2573.51
460.218	2605.82
460.591	2660.96
460.964	2661.19
461.337	2720.39
461.71	2778.02
462.083	2824.12
462.456	2808.3
462.829	2830.22
463.201	2897.79
463.574	2900.95
463.947	2940.73
464.32	3028.64
464.692	3011.69
465.065	3066.15
465.438	3143.21
465.81	3125.13
466.183	3180.27
466.555	3269.31
466.928	3261.85
467.3	3293.03
467.672	3353.15
468.045	3436.53
468.417	3417.78
468.789	3457.78
469.161	3485.12
469.534	3572.58
469.906	3672.69
470.278	3679.69
470.65	3707.26
471.022	3784.55
471.394	3866.13
471.766	3862.51
472.138	3951.77
472.51	3979.34
472.882	4068.61
473.253	4119.91
473.625	4178.21
473.997	4237.19
474.369	4272.22
474.74	4413.46
475.112	4455.26
475.484	4467.02
475.855	4589.05
476.227	4628.82
476.598	4742.49
476.97	4750.4
477.341	4914.91
477.713	4956.04
478.084	5000.79
478.455	5100.67
478.827	5194
479.198	5304.06
479.569	5342.92
479.94	5506.54
480.311	5509.93
480.682	5632.18
481.053	5782.91
481.424	5885.06
481.795	5958.28
482.166	6012.96
482.537	6152.17
482.908	6263.58
483.279	6353.07
483.65	6403.91
484.021	6592.61
484.391	6643
484.762	6697.47
485.133	6751.48
485.503	6844.58
485.874	6932.04
486.244	7072.37
486.615	7188.53
486.985	7253.38
487.356	7352.59
487.726	7430.33
488.097	7609.08
488.467	7620.38
488.837	7803.65
489.207	7895.17
489.578	8003.42
489.948	8120.7
490.318	8142.62
490.688	8148.05
491.058	8301.04
491.428	8420.81
491.798	8520.92
492.168	8669.62
492.538	8642.27
492.908	8715.49
493.278	8843.4
493.648	8863.96
494.017	9013.56
494.387	9037.06
494.757	9127.46
495.126	9259.88
495.496	9235.48
495.866	9278.41
496.235	9319.09
496.605	9444.51
496.974	9473.21
497.344	9583.49
497.713	9585.98
498.082	9632.53
498.452	9717.05
498.821	9771.96
499.19	9763.37
499.559	9932.18
499.928	9887.66
500.298	9929.02
500.667	10034.55
501.036	9962.92
501.405	10105.29
501.774	10057.83
502.143	10170.37
502.512	10197.03
502.88	10209.01
503.249	10214.43
503.618	10321.55
503.987	10268.22
504.356	10351.83
504.724	10380.98
505.093	10387.09
505.462	10476.12
505.83	10455.78
506.199	10457.37
506.567	10644.93
506.936	10579.4
507.304	10647.64
507.672	10745.95
508.041	10680.41
508.409	10743.01
508.777	10796.34
509.145	10791.82
509.514	10858.94
509.882	10862.78
510.25	10867.07
510.618	10899.16
510.986	10886.28
511.354	10955.43
511.722	10893.96
512.09	11046.5
512.458	11065.49
512.826	11067.97
513.193	11058.71
513.561	11042.89
513.929	11103.68
514.297	11155.65
514.664	11168.31
515.032	11167.4
515.4	11144.13
515.767	11194.07
516.135	11216.22
516.502	11095.32
516.869	11245.59
517.237	11268.19
517.604	11133.96
517.972	11232.26
518.339	11337.34
518.706	11229.1
519.073	11267.06
519.44	11299.38
519.808	11297.57
520.175	11326.95
520.542	11406.04
520.909	11366.04
521.276	11291.02
521.643	11352.03
522.009	11284.24
522.376	11359.04
522.743	11364.91
523.11	11401.3
523.477	11382.54
523.843	11464.12
524.21	11498.47
524.577	11478.13
524.943	11458.7
525.31	11463.67
525.676	11487.4
526.043	11462.54
526.409	11463.67
526.776	11638.35
527.142	11470.45
527.508	11523.33
527.874	11560.16
528.241	11532.59
528.607	11536.89
528.973	11443.56
529.339	11447.17
529.705	11466.15
530.071	11446.94
530.437	11527.62
530.803	11398.81
531.169	11356.55
531.535	11325.82
531.901	11315.65
532.267	11281.98
532.632	11324.69
532.998	11220.96
533.364	11246.27
533.73	11221.64
534.095	11260.51
534.461	11237.68
534.826	11216.89
535.192	11093.28
535.557	11065.94
535.923	11070.91
536.288	10977.13
536.653	10966.05
537.019	10944.36
537.384	10895.55
537.749	10816.23
538.114	10811.71
538.479	10704.37
538.845	10693.07
539.21	10595.89
539.575	10602.45
539.94	10528.55
540.305	10580.53
540.67	10492.17
541.034	10405.84
541.399	10420.08
541.764	10365.39
542.129	10321.32
542.494	10241.55
542.858	10168.56
543.223	10117.71
543.587	10162.91
543.952	10101.44
544.316	10092.4
544.681	9932.86
545.045	9904.84
545.41	9882.92
545.774	9792.07
546.138	9793.88
546.503	9703.71
546.867	9714.33
547.231	9719.76
547.595	9649.25
547.959	9555.92
548.324	9579.88
548.688	9423.5
549.052	9389.37
549.416	9371.52
549.779	9322.93
550.143	9284.74
550.507	9241.35
550.871	9221.24
551.235	9168.36
551.599	9196.16
551.962	9125.42
552.326	9073.22
552.689	9052.88
553.053	8987.35
553.417	8909.84
553.78	8945.99
554.143	8854.24
554.507	8790.07
554.87	8796.17
555.234	8760.46
555.597	8733.57
555.96	8682.05
556.323	8677.98
556.686	8649.5
557.05	8668.49
557.413	8576.06
557.776	8552.33
558.139	8528.83
558.502	8559.79
558.865	8467.14
559.228	8499
559.59	8488.38
559.953	8417.42
560.316	8426.23
560.679	8364.54
561.041	8384.65
561.404	8313.69
561.767	8316.86
562.129	8266.69
562.492	8322.51
562.854	8266.69
563.217	8220.14
563.579	8271.89
563.941	8276.18
564.304	8228.27
564.666	8257.88
565.028	8250.19
565.39	8245.45
565.753	8284.54
566.115	8237.54
566.477	8207.71
566.839	8217.88
567.201	8322.96
567.563	8154.83
567.925	8212.23
568.287	8151.21
568.648	8207.26
569.01	8190.31
569.372	8250.19
569.734	8218.33
570.095	8178.33
570.457	8214.71
570.819	8159.8
571.18	8188.27
571.542	8241.61
571.903	8227.59
572.265	8159.35
572.626	8140.82
572.987	8167.26
573.349	8163.42
573.71	8190.08
574.071	8171.55
574.432	8187.14
574.794	8146.47
575.155	8195.05
575.516	8102.85
575.877	8194.37
576.238	8176.97
576.599	8181.04
576.96	8169.97
577.32	8101.95
577.681	8137.43
578.042	8161.38
578.403	8226.92
578.763	8128.39
579.124	8075.28
579.485	8086.81
579.845	8176.97
580.206	8195.05
580.566	8102.4
580.927	8056.98
581.287	8097.88
581.648	8106.92
582.008	8132.46
582.368	8121.61
582.728	8136.07
583.089	8096.98
583.449	8073.7
583.809	7996.19
584.169	8026.47
584.529	7999.8
584.889	8073.47
585.249	7983.53
585.609	7971.56
585.969	8012.01
586.329	7982.86
586.688	7953.25
587.048	7951.67
587.408	7953.25
587.768	7958.45
588.127	7939.24
588.487	7921.84
588.846	7928.17
589.206	7906.7
589.565	7974.04
589.925	7920.26
590.284	7932.23
590.643	7870.32
591.003	7934.49
591.362	7872.8
591.721	7840.94
592.08	7933.82
592.44	7901.95
592.799	7875.97
593.158	7828.96
593.517	7846.36
593.876	7852.01
594.235	7807.49
594.593	7852.69
594.952	7899.24
595.311	7779.92
595.67	7784.44
596.029	7796.19
596.387	7822.86
596.746	7850.2
597.104	7761.62
597.463	7762.3
597.822	7739.7
598.18	7756.87
598.538	7719.36
598.897	7791.22
599.255	7713.94
599.613	7793.71
599.972	7728.85
600.33	7722.97
600.688	7765.46
601.046	7682.07
601.404	7729.08
601.762	7678
602.12	7805.68
602.478	7720.94
602.836	7697.21
603.194	7672.58
603.552	7741.73
603.91	7651.79
604.268	7686.59
604.625	7684.56
604.983	7677.78
605.341	7631.9
605.698	7743.77
606.056	7674.16
606.413	7679.36
606.771	7677.55
607.128	7687.04
607.485	7683.65
607.843	7643.65
608.2	7755.29
608.557	7690.43
608.914	7703.09
609.272	7782.18
609.629	7747.83
609.986	7746.03
610.343	7635.97
610.7	7794.84
611.057	7727.95
611.414	7790.54
611.771	7731.11
612.127	7720.94
612.484	7737.44
612.841	7761.84
613.198	7740.38
613.554	7758.91
613.911	7753.03
614.267	7855.63
614.624	7695.86
614.98	7749.19
615.337	7827.38
615.693	7806.36
616.05	7700.15
616.406	7825.35
616.762	7769.08
617.118	7787.61
617.475	7742.18
617.831	7818.11
618.187	7769.53
618.543	7822.63
618.899	7850.2
619.255	7895.4
619.611	7819.92
619.967	7883.42
620.323	7850.43
620.678	7800.04
621.034	7797.32
621.39	7826.48
621.746	7816.98
622.101	7869.19
622.457	7835.06
622.812	7779.47
623.168	7830.09
623.523	7892.46
623.879	7862.18
624.234	7748.28
624.589	7850.43
624.945	7855.85
625.3	7830.77
625.655	7798.45
626.01	7782.41
626.365	7809.98
626.72	7820.83
627.075	7781.73
627.43	7809.53
627.785	7795.74
628.14	7775.85
628.495	7813.14
628.85	7800.26
629.205	7758.91
629.559	7730.21
629.914	7727.72
630.269	7731.79
630.623	7765.69
630.978	7765.01
631.332	7745.35
631.687	7771.56
632.041	7639.59
632.396	7662.19
632.75	7699.7
633.104	7685.91
633.459	7602.98
633.813	7667.38
634.167	7617.44
634.521	7637.55
634.875	7663.32
635.229	7635.52
635.583	7539.02
635.937	7568.18
636.291	7557.78
636.645	7555.97
636.999	7546.71
637.352	7579.25
637.706	7538.57
638.06	7563.66
638.413	7553.94
638.767	7504.68
639.121	7481.85
639.474	7463.32
639.828	7492.92
640.181	7449.31
640.534	7467.39
640.888	7464
641.241	7385.13
641.594	7495.64
641.947	7473.94
642.301	7400.27
642.654	7381.51
643.007	7450.67
643.36	7413.6
643.713	7352.36
644.066	7439.37
644.419	7393.04
644.771	7374.06
645.124	7349.2
645.477	7262.87
645.83	7234.85
646.182	7254.06
646.535	7200.73
646.888	7212.03
647.24	7193.72
647.593	7191.24
647.945	7140.62
648.298	7108.08
648.65	7190.79
649.002	7179.94
649.355	7158.47
649.707	7166.38
650.059	7207.73
650.411	7296.77
650.763	7272.82
651.115	7308.97
651.467	7337.9
651.819	7334.51
652.171	7328.86
652.523	7338.58
652.875	7294.51
653.227	7307.39
653.578	7280.73
653.93	7305.36
654.282	7295.42
654.633	7382.64
654.985	7339.71
655.337	7347.62
655.688	7374.28
656.039	7318.01
656.391	7295.19
656.742	7365.7
657.094	7337
657.445	7376.54
657.796	7318.47
658.147	7379.71
658.498	7369.54
658.849	7341.74
659.2	7357.56
659.551	7385.36
659.902	7397.79
660.253	7419.25
660.604	7412.02
660.955	7336.09
661.306	7428.07
661.656	7421.74
662.007	7401.63
662.358	7348.75
662.708	7423.55
663.059	7386.71
663.409	7344.23
663.76	7395.07
664.11	7378.8
664.461	7407.73
664.811	7388.75
665.161	7400.05
665.511	7296.32
665.862	7381.74
666.212	7460.38
666.562	7392.14
666.912	7391.01
667.262	7418.12
667.612	7405.02
667.962	7413.38
668.312	7419.03
668.662	7467.16
669.011	7440.04
669.361	7369.99
669.711	7396.43
670.06	7428.29
670.41	7376.09
670.76	7389.65
671.109	7414.96
671.459	7396.43
671.808	7401.63
672.157	7390.78
672.507	7391.01
672.856	7349.43
673.205	7412.02
673.554	7341.06
673.904	7323.89
674.253	7397.79
674.602	7348.75
674.951	7251.57
675.3	7165.7
675.649	7285.47
675.998	7300.61
676.346	7393.49
676.695	7339.03
677.044	7288.64
677.393	7304
677.741	7274.4
678.09	7252.03
678.438	7245.93
678.787	7291.8
679.135	7263.55
679.484	7210.45
679.832	7279.14
680.181	7174.51
680.529	7226.26
680.877	7141.52
681.225	7158.47
681.573	7206.83
681.922	7045.93
682.27	7076.44
682.618	7133.39
682.966	7097
683.314	7189.88
683.661	7078.02
684.009	6996.89
684.357	6996.67
684.705	7031.92
685.053	7025.37
685.4	7018.59
685.748	6978.81
686.095	6954.18
686.443	6956.44
686.79	6928.87
687.138	6979.49
687.485	6976.55
687.832	6864.92
688.18	6901.08
688.527	6849.33
688.874	6811.36
689.221	6824.69
689.568	6841.64
689.915	6809.55
690.262	6798.71
690.609	6762.77
690.956	6750.12
691.303	6772.04
691.65	6684.81
691.997	6668.54
692.344	6676.45
692.69	6666.05
693.037	6643.68
693.383	6548.77
693.73	6557.36
694.077	6511.26
694.423	6534.31
694.769	6515.55
695.116	6431.71
695.462	6447.98
695.808	6406.4
696.155	6438.49
696.501	6365.72
696.847	6387.64
697.193	6324.82
697.539	6339.73
697.885	6302.9
698.231	6286.18
698.577	6273.07
698.923	6248.44
699.269	6200.76
699.614	6135.22
699.96	6128.89
700.306	6155.11
700.651	6108.33
700.997	6015.45
701.342	6071.94
701.688	6078.95
702.033	6027.43
702.379	6032.17
702.724	5954.21
703.069	6001.66
703.415	5895.23
703.76	5898.62
704.105	5917.6
704.45	5883.02
704.795	5846.87
705.14	5858.62
705.485	5833.31
705.83	5822.01
706.175	5774.1
706.52	5781.78
706.865	5755.79
707.209	5763.93
707.554	5752.86
707.899	5713.76
708.243	5721.67
708.588	5693.88
708.932	5678.96
709.277	5621.11
709.621	5669.24
709.966	5583.14
710.31	5583.14
710.654	5591.28
710.998	5571.85
711.342	5555.57
711.687	5557.38
712.031	5517.61
712.375	5541.79
712.719	5495.69
713.063	5459.76
713.407	5496.37
713.75	5460.66
714.094	5490.94
714.438	5428.35
714.782	5481.23
715.125	5411.85
715.469	5422.24
715.812	5436.93
716.156	5367.78
716.499	5424.05
716.843	5379.53
717.186	5365.97
717.53	5370.27
717.873	5372.08
718.216	5363.26
718.559	5349.48
718.902	5297.05
719.246	5296.15
719.589	5329.59
719.932	5280.55
720.275	5291.85
720.617	5302.47
720.96	5291.85
721.303	5252.98
721.646	5264.51
721.989	5234.9
722.331	5254.34
722.674	5282.14
723.016	5258.86
723.359	5259.08
723.701	5227.67
724.044	5225.19
724.386	5180.89
724.729	5224.28
725.071	5223.83
725.413	5272.87
725.755	5250.5
726.097	5210.72
726.439	5158.75
726.782	5158.97
727.124	5182.7
727.465	5174.34
727.807	5191.97
728.149	5179.99
728.491	5183.61
728.833	5230.16
729.175	5193.55
729.516	5153.78
729.858	5184.06
730.199	5193.1
730.541	5129.37
730.882	5183.38
731.224	5153.1
731.565	5154.45
731.906	5170.5
732.248	5175.25
732.589	5200.78
732.93	5208.24
733.271	5151.97
733.612	5213.44
733.953	5192.87
734.294	5189.26
734.635	5242.36
734.976	5229.03
735.317	5174.57
735.658	5141.12
735.999	5250.27
736.339	5174.79
736.68	5194
737.021	5248.69
737.361	5206.66
737.702	5285.3
738.042	5180.89
738.383	5219.99
738.723	5252.08
739.063	5223.61
739.404	5290.5
739.744	5255.47
740.084	5239.42
740.424	5288.24
740.764	5310.38
741.104	5308.8
741.444	5309.25
741.784	5327.11
742.124	5341.34
742.464	5352.64
742.804	5347.9
743.143	5409.59
743.483	5403.71
743.823	5449.14
744.162	5461.57
744.502	5469.02
744.841	5469.93
745.181	5530.72
745.52	5563.26
745.86	5598.74
746.199	5632.63
746.538	5660.66
746.877	5738.62
747.216	5766.42
747.556	5786.98
747.895	5786.53
748.234	5872.18
748.573	5932.74
748.911	5931.84
749.25	6006.64
749.589	6085.28
749.928	6132.28
750.267	6211.38
750.605	6221.77
750.944	6262.9
751.283	6317.14
751.621	6466.74
751.96	6560.07
752.298	6589.22
752.636	6752.83
752.975	6753.06
753.313	6888.87
753.651	7043.22
753.989	7068.08
754.327	7127.28
754.666	7351.23
755.004	7389.88
755.342	7631.9
755.679	7677.1
756.017	7782.63
756.355	7946.7
756.693	8021.27
757.031	8216.07
757.368	8283.86
757.706	8462.16
758.044	8569.73
758.381	8791.65
758.719	8872.55
759.056	9088.14
759.394	9202.71
759.731	9324.97
760.068	9530.16
760.405	9731.74
760.743	9851.51
761.08	9971.5
761.417	10170.59
761.754	10357.48
762.091	10511.15
762.428	10692.61
762.765	10862.78
763.102	11041.08
763.438	11161.75
763.775	11335.99
764.112	11552.03
764.449	11711.8
764.785	11914.73
765.122	11981.85
765.458	12110.66
765.795	12267.04
766.131	12496.86
766.467	12566.46
766.804	12752
767.14	12923.52
767.476	13077.64
767.812	13221.59
768.148	13438.3
768.485	13488.7
768.821	13593.78
769.157	13744.06
769.492	13788.13
769.828	14008.23
770.164	14092.75
770.5	14181.56
770.836	14280.77
771.171	14430.37
771.507	14537.26
771.842	14578.61
772.178	14785.84
772.513	14787.42
772.849	14888.44
773.184	14982.45
773.519	15132.05
773.855	15215.66
774.19	15296.79
774.525	15299.05
774.86	15497.01
775.195	15504.69
775.53	15617.68
775.865	15571.36
776.2	15686.61
776.535	15665.82
776.87	15758.92
777.205	15861.29
777.539	15869.2
777.874	15893.16
778.209	15776.77
778.543	16033.04
778.878	16030.33
779.212	16133.38
779.547	16023.77
779.881	16212.24
780.215	16123.66
780.55	16243.2
780.884	16105.58
781.218	16261.73
781.552	16293.6
781.886	16332.01
782.22	16286.37
782.554	16316.42
782.888	16197.1
783.222	16192.81
783.556	16176.99
783.889	16287.27
784.223	16078.69
784.557	16154.84
784.89	16299.25
785.224	16163.66
785.557	16254.05
785.891	16140.38
786.224	16178.8
786.558	16177.22
786.891	16149.87
787.224	16075.75
787.557	16220.38
787.891	16152.13
788.224	16159.59
788.557	16175.63
788.89	16174.73
789.223	16200.72
789.556	16062.64
789.888	16089.76
790.221	15998.92
790.554	15991.46
790.887	16002.08
791.219	15902.65
791.552	15961.85
791.884	15874.4
792.217	15904
792.549	15887.51
792.882	15842.54
793.214	15794.63
793.546	15824.91
793.879	15729.32
794.211	15666.49
794.543	15722.54
794.875	15751.69
795.207	15741.07
795.539	15709.66
795.871	15707.17
796.203	15571.13
796.535	15456.33
796.867	15603.67
797.198	15538.59
797.53	15505.82
797.862	15471.47
798.193	15515.99
798.525	15391.7
798.856	15366.62
799.188	15317.8
799.519	15200.97
799.85	15135.21
800.182	15264.92
800.513	15190.12
800.844	15173.63
801.175	15172.72
801.506	15196.22
801.837	15116.23
802.168	15058.38
802.499	15040.07
802.83	14983.35
803.161	14930.92
803.491	15023.8
803.822	14944.48
804.153	14843.01
804.483	14839.85
804.814	14780.42
805.145	14781.77
805.475	14723.69
805.805	14721.66
806.136	14677.14
806.466	14675.11
806.796	14704.26
807.126	14551.04
807.457	14507.2
807.787	14477.83
808.117	14558.73
808.447	14454.32
808.777	14474.89
809.107	14411.39
809.436	14425.4
809.766	14382.23
810.096	14272.63
810.426	14208
810.755	14329.58
811.085	14261.33
811.414	14167.1
811.744	14096.82
812.073	14137.5
812.403	14163.94
812.732	14047.1
813.061	14071.96
813.39	14001.23
813.719	13984.96
814.049	14082.13
814.378	14069.7
814.707	13936.6
815.036	13974.79
815.365	13859.08
815.693	13786.77
816.022	13726.88
816.351	13703.16
816.68	13675.59
817.008	13792.19
817.337	13580.67
817.665	13632.65
817.994	13695.25
818.322	13628.13
818.651	13561.92
818.979	13652.99
819.307	13631.29
819.636	13537.74
819.964	13501.13
820.292	13572.54
820.62	13499.77
820.948	13444.86
821.276	13528.02
821.604	13441.69
821.932	13587.91
822.259	13486.44
822.587	13451.41
822.915	13500.45
823.243	13558.75
823.57	13494.35
823.898	13438.76
824.225	13385.2
824.553	13431.53
824.88	13576.15
825.207	13470.17
825.535	13415.25
825.862	13499.55
826.189	13432.2
826.516	13412.09
826.843	13546.1
827.17	13483.05
827.497	13522.82
827.824	13496.16
828.151	13574.12
828.478	13447.12
828.805	13581.35
829.131	13456.16
829.458	13559.43
829.785	13426.33
830.111	13520.79
830.438	13547.23
830.764	13518.3
831.09	13472.88
831.417	13364.18
831.743	13535.93
832.069	13454.12
832.395	13431.53
832.722	13538.19
833.048	13399.21
833.374	13429.72
833.7	13401.24
834.026	13491.18
834.351	13434.46
834.677	13464.07
835.003	13401.02
835.329	13436.27
835.654	13457.06
835.98	13378.87
836.306	13311.75
836.631	13316.95
836.956	13336.16
837.282	13358.31
837.607	13267.01
837.932	13306.56
838.258	13225.43
838.583	13300.91
838.908	13204.64
839.233	13204.86
839.558	13122.38
839.883	13131.42
840.208	13133.91
840.533	13089.39
840.858	13020.69
841.182	13046.68
841.507	13043.96
841.832	13005.32
842.156	12996.96
842.481	12934.82
842.805	12935.95
843.13	12857.53
843.454	12882.61
843.778	12813.69
844.103	12837.87
844.427	12800.13
844.751	12862.27
845.075	12761.94
845.399	12701.15
845.723	12646.91
846.047	12639.46
846.371	12553.58
846.695	12623.86
847.019	12400.14
847.343	12397.43
847.666	12288.5
847.99	12314.27
848.313	12274.04
848.637	12280.14
848.96	12190.43
849.284	12138
849.607	12029.3
849.931	11987.27
850.254	11961.96
850.577	11848.97
850.9	11874.28
851.223	11824.56
851.546	11801.96
851.869	11688.52
852.192	11766.94
852.515	11652.59
852.838	11602.65
853.161	11566.26
853.483	11480.62
853.806	11399.49
854.129	11418.24
854.451	11406.95
854.774	11338.02
855.096	11360.17
855.419	11347.51
855.741	11260.51
856.063	11208.76
856.385	11228.19
856.708	11111.13
857.03	11138.93
857.352	11199.95
857.674	11133.28
857.996	11060.06
858.318	11046.5
858.64	11024.81
858.961	10981.87
859.283	10895.32
859.605	10890.8
859.926	10849.45
860.248	10798.37
860.57	10789.56
860.891	10894.42
861.212	10761.54
861.534	10670.92
861.855	10689.9
862.176	10778.71
862.498	10679.73
862.819	10752.5
863.14	10635.67
863.461	10558.83
863.782	10519.29
864.103	10582.56
864.424	10553.18
864.745	10544.82
865.065	10502.56
865.386	10501.21
865.707	10352.74
866.027	10381.21
866.348	10461.89
866.668	10350.25
866.989	10439.97
867.309	10317.71
867.63	10363.58
867.95	10380.08
868.27	10270.25
868.59	10253.53
868.91	10314.09
869.23	10214.89
869.55	10248.11
869.87	10264.38
870.19	10238.61
870.51	10261.21
870.83	10169.24
871.15	10224.15
871.469	10137.37
871.789	10171.72
872.109	10154.78
872.428	10030.48
872.748	10063.03
873.067	10087.66
873.386	10060.31
873.706	10087.66
874.025	10039.07
874.344	9957.27
874.663	9948.45
874.982	9952.52
875.301	10004.27
875.62	9976.47
875.939	9866.87
876.258	9931.28
876.577	9922.01
876.896	9888.57
877.214	9903.71
877.533	9886.76
877.852	9810.6
878.17	9842.92
878.489	9708.69
878.807	9765.86
879.125	9790.72
879.444	9777.61
879.762	9736.48
880.08	9745.07
880.398	9685.18
880.716	9771.28
881.034	9699.42
881.352	9721.79
881.67	9613.77
881.988	9646.99
882.306	9624.17
882.624	9588.01
882.941	9564.73
883.259	9538.07
883.577	9473.44
883.894	9494.45
884.212	9516.15
884.529	9472.31
884.846	9365.42
885.164	9434.12
885.481	9324.51
885.798	9342.59
886.115	9344.18
886.432	9266.44
886.75	9221.92
887.067	9259.88
887.383	9258.3
887.7	9207.91
888.017	9288.81
888.334	9223.73
888.651	9234.35
888.967	9127.01
889.284	9123.84
889.6	9120.23
889.917	9066.89
890.233	8987.12
890.55	9014.24
890.866	8997.07
891.182	8972.66
891.498	8925.66
891.815	8988.93
892.131	8900.35
892.447	8901.47
892.763	8820.8
893.079	8748.26
893.395	8733.12
893.71	8712.1
894.026	8757.98
894.342	8697.64
894.657	8651.54
894.973	8592.33
895.289	8592.56
895.604	8570.86
895.92	8561.6
896.235	8496.51
896.55	8435.27
896.865	8456.74
897.181	8442.5
897.496	8379.68
897.811	8362.51
898.126	8288.61
898.441	8290.87
898.756	8284.09
899.071	8242.06
899.386	8236.41
899.7	8169.74
900.015	8133.36
900.33	8114.83
900.644	8143.75
900.959	8129.74
901.273	8075.51
901.588	7982.63
901.902	7986.02
902.216	7971.1
902.531	7957.55
902.845	7936.98
903.159	7863.08
903.473	7856.53
903.787	7789.19
904.101	7728.4
904.415	7736.31
904.729	7719.36
905.042	7663.32
905.356	7632.58
905.67	7585.58
905.984	7562.75
906.297	7562.08
906.611	7514.84
906.924	7499.25
907.237	7466.48
907.551	7488.86
907.864	7411.34
908.177	7383.32
908.491	7337.45
908.804	7321.86
909.117	7255.42
909.43	7224
909.743	7155.31
910.056	7155.98
910.368	7219.49
910.681	7144.23
910.994	7106.72
911.307	7063.78
911.619	7033.28
911.932	7053.39
912.244	7002.99
912.557	6987.85
912.869	6956.44
913.181	6961.19
913.494	6862.43
913.806	6839.83
914.118	6883.22
914.43	6810
914.742	6816.33
915.054	6741.53
915.366	6737.46
915.678	6711.7
915.99	6694.53
916.302	6636.68
916.613	6597.13
916.925	6581.54
917.236	6534.98
917.548	6488.66
917.859	6522.78
918.171	6470.13
918.482	6479.17
918.794	6425.16
919.105	6402.78
919.416	6407.3
919.727	6382.9
920.038	6345.38
920.349	6326.85
920.66	6305.84
920.971	6248.66
921.282	6248.89
921.593	6189.23
921.903	6194.43
922.214	6157.37
922.525	6168.21
922.835	6080.76
923.146	6046.41
923.456	6019.52
923.767	6078.5
924.077	6050.48
924.387	5991.72
924.697	5961.89
925.008	5934.1
925.318	5942.46
925.628	5883.25
925.938	5899.97
926.248	5831.73
926.558	5826.08
926.867	5833.08
927.177	5781.56
927.487	5793.53
927.796	5714.67
928.106	5707.66
928.416	5659.98
928.725	5669.92
929.034	5566.65
929.344	5650.71
929.653	5604.16
929.962	5571.17
930.271	5531.62
930.581	5486.88
930.89	5490.49
931.199	5464.96
931.508	5466.09
931.817	5439.19
932.125	5401.45
932.434	5392.41
932.743	5362.36
933.051	5313.77
933.36	5271.97
933.669	5320.1
933.977	5252.31
934.286	5235.58
934.594	5201.23
934.902	5266.09
935.21	5166.66
935.519	5164.62
935.827	5196.71
936.135	5094.8
936.443	5113.78
936.751	5053.89
937.059	5106.55
937.367	5059.09
937.674	5028.81
937.982	5034.68
938.29	5017.28
938.597	5029.26
938.905	4974.12
939.213	4933.22
939.52	4881.69
939.827	4879.89
940.135	4856.61
940.442	4821.36
940.749	4819.77
941.056	4820
941.363	4728.48
941.67	4733.22
941.977	4731.87
942.284	4714.01
942.591	4689.38
942.898	4670.17
943.205	4666.78
943.511	4625.88
943.818	4594.7
944.125	4572.1
944.431	4565.54
944.738	4553.11
945.044	4529.39
945.35	4539.56
945.657	4464.98
945.963	4478.09
946.269	4449.84
946.575	4405.55
946.881	4425.89
947.187	4436.28
947.493	4371.42
947.799	4379.11
948.105	4351.76
948.41	4355.38
948.716	4308.15
949.022	4309.05
949.327	4278.77
949.633	4237.42
949.938	4254.59
950.244	4267.7
950.549	4231.77
950.854	4185.44
951.16	4177.76
951.465	4166.68
951.77	4170.98
952.075	4105.89
952.38	4122.84
952.685	4107.25
952.99	4043.52
953.294	4071.55
953.599	4002.39
953.904	4008.95
954.209	3982.51
954.513	3947.71
954.818	3949.74
955.122	3933.24
955.426	3952.45
955.731	3882.62
956.035	3898.89
956.339	3925.11
956.643	3879.01
956.948	3842.85
957.252	3822.06
957.556	3826.35
957.86	3754.04
958.163	3779.8
958.467	3777.99
958.771	3756.75
959.075	3718.33
959.378	3701.16
959.682	3690.76
959.985	3668.84
960.289	3667.26
960.592	3643.08
960.896	3650.99
961.199	3613.93
961.502	3614.83
961.805	3619.35
962.108	3588.39
962.411	3564.44
962.714	3566.47
963.017	3530.99
963.32	3561.05
963.623	3486.02
963.926	3514.95
964.228	3477.21
964.531	3434.73
964.833	3419.81
965.136	3471.56
965.438	3448.06
965.741	3385.24
966.043	3368.51
966.345	3396.53
966.648	3377.78
966.95	3336.88
967.252	3302.75
967.554	3338.46
967.856	3258.69
968.158	3281.96
968.46	3263.21
968.761	3291.9
969.063	3257.1
969.365	3242.41
969.666	3210.78
969.968	3215.07
970.269	3162.42
970.571	3205.13
970.872	3170.33
971.174	3116.54
971.475	3125.58
971.776	3080.84
972.077	3069.09
972.378	3104.79
972.679	3107.73
972.98	3042.19
973.281	3072.7
973.582	3043.1
973.883	3046.94
974.183	2988.41
974.484	3029.09
974.785	2968.07
975.085	2964.23
975.386	2969.65
975.686	2944.57
975.986	2915.19
976.287	2924.01
976.587	2943.67
976.887	2903.44
977.187	2900.05
977.487	2880.84
977.787	2836.32
978.087	2847.4
978.387	2830.22
978.687	2807.17
978.987	2786.83
979.286	2801.07
979.586	2786.61
979.885	2778.7
980.185	2760.62
980.484	2739.6
980.784	2750.9
981.083	2724.91
981.382	2723.78
981.682	2713.39
981.981	2721.52
982.28	2721.3
982.579	2665.03
982.878	2662.09
983.177	2654.86
983.475	2653.5
983.774	2623.22
984.073	2603.34
984.372	2601.3
984.67	2579.61
984.969	2566.27
985.267	2564.24
985.566	2556.78
985.864	2543.9
986.162	2517.24
986.461	2541.42
986.759	2491.93
987.057	2514.75
987.355	2465.71
987.653	2481.76
987.951	2400.4
988.249	2437.46
988.547	2455.77
988.844	2409.67
989.142	2407.18
989.44	2408.31
989.737	2408.54
990.035	2398.82
990.332	2359.27
990.63	2370.57
990.927	2363.12
991.224	2326.05
991.521	2307.3
991.819	2299.61
992.116	2319.73
992.413	2291.71
992.71	2288.32
993.006	2304.13
993.303	2288.77
993.6	2273.17
993.897	2238.83
994.193	2200.86
994.49	2223.23
994.787	2206.28
995.083	2186.85
995.379	2192.27
995.676	2173.06
995.972	2185.72
996.268	2182.78
996.565	2156.12
996.861	2148.88
997.157	2117.92
997.453	2101.65
997.749	2131.71
998.044	2097.13
998.34	2061.2
998.636	2113.4
998.932	2073.41
999.227	2056.46
999.523	2031.37
999.818	2041.32
1000.114	2049.9
1000.409	2008.77
1000.704	2012.39
1001	1988.44
1001.295	1946.18
1001.59	1976.01
1001.885	1972.62
1002.18	1956.35
1002.475	1955.44
1002.77	1930.81
1003.065	1941.43
1003.359	1924.26
1003.654	1891.72
1003.949	1903.92
1004.243	1888.78
1004.538	1895.11
1004.832	1860.53
1005.127	1881.77
1005.421	1825.28
1005.715	1811.72
1006.009	1844.71
1006.304	1828.21
1006.598	1784.15
1006.892	1787.54
1007.186	1778.5
1007.48	1786.18
1007.773	1761.1
1008.067	1749.35
1008.361	1688.11
1008.655	1738.05
1008.948	1744.83
1009.242	1729.01
1009.535	1709.8
1009.829	1686.3
1010.122	1691.04
1010.415	1667.31
1010.708	1658.5
1011.001	1646.3
1011.295	1646.07
1011.588	1642.68
1011.881	1619.18
1012.173	1617.6
1012.466	1598.16
1012.759	1566.3
1013.052	1567.43
1013.344	1542.8
1013.637	1541.22
1013.93	1573.98
1014.222	1566.75
1014.514	1536.92
1014.807	1565.62
1015.099	1540.76
1015.391	1508.22
1015.683	1514.78
1015.976	1512.52
1016.268	1470.03
1016.56	1503.25
1016.851	1467.55
1017.143	1479.52
1017.435	1440.43
1017.727	1429.13
1018.018	1445.4
1018.31	1405.63
1018.602	1413.76
1018.893	1437.49
1019.185	1385.74
1019.476	1391.62
1019.767	1380.09
1020.058	1359.3
1020.35	1367.89
1020.641	1345.97
1020.932	1333.09
1021.223	1325.85
1021.514	1301
1021.804	1299.19
1022.095	1333.54
1022.386	1314.1
1022.677	1283.82
1022.967	1288.34
1023.258	1285.63
1023.548	1264.16
1023.839	1271.39
1024.129	1243.37
1024.419	1270.26
1024.709	1224.84
1025	1210.83
1025.29	1229.59
1025.58	1197.72
1025.87	1228.46
1026.16	1205.41
1026.449	1201.11
1026.739	1195.69
1027.029	1216.03
1027.319	1185.97
1027.608	1154.33
1027.898	1159.53
1028.187	1137.61
1028.477	1165.18
1028.766	1142.58
1029.055	1124.05
1029.344	1131.74
1029.634	1107.78
1029.923	1084.51
1030.212	1098.97
1030.501	1115.24
1030.79	1093.09
1031.078	1090.15
1031.367	1068.91
1031.656	1049.48
1031.945	1042.25
1032.233	1034.56
1032.522	1052.87
1032.81	1032.53
1033.099	1051.51
1033.387	1036.6
1033.675	1029.82
1033.963	1008.58
1034.251	1004.73
1034.54	986.65
1034.828	986.65
1035.116	995.47
1035.403	1007.45
1035.691	972.64
1035.979	988.46
1036.267	983.72
1036.554	946.2
1036.842	948.46
1037.129	934.68
1037.417	952.98
1037.704	911.85
1037.992	934.45
1038.279	910.27
1038.566	945.53
1038.853	945.53
1039.14	945.53
