Data from hue_260_FLMS001491_00079.txt Node
Date: Tue Feb 07 15:59:35 GMT 2017
User: dcchb
Spectrometer: FLMS00149
Trigger mode: 0
Integration Time (sec): 2.000000E-2
Scans to average: 10
Electric dark correction enabled: true
Nonlinearity correction enabled: false
Boxcar width: 0
XAxis mode: Wavelengths
Number of Pixels in Spectrum: 2048
>>>>>Begin Spectral Data<<<<<
341.393	-8.02
341.776	-8.02
342.16	-8.02
342.543	-57.06
342.927	-69.04
343.31	-79.43
343.693	-75.37
344.077	-60.45
344.46	-59.55
344.843	-33.56
345.226	-31.75
345.61	-34.69
345.993	-14.35
346.376	-10.96
346.759	-0.79
347.142	38.76
347.525	52.99
347.908	48.25
348.291	74.46
348.674	94.57
349.057	91.86
349.44	130.05
349.823	121.92
350.206	186.32
350.588	186.1
350.971	198.98
351.354	224.51
351.737	239.43
352.119	222.03
352.502	243.5
352.884	266.09
353.267	283.5
353.65	293.89
354.032	287.34
354.414	287.56
354.797	294.57
355.179	307.68
355.562	323.27
355.944	311.52
356.326	329.14
356.709	329.37
357.091	317.17
357.473	328.69
357.855	344.74
358.238	342.7
358.62	346.54
359.002	322.59
359.384	340.89
359.766	350.84
360.148	332.53
360.53	340.22
360.912	324.4
361.294	321.23
361.676	338.41
362.057	299.77
362.439	319.88
362.821	313.1
363.203	314.23
363.584	298.64
363.966	312.65
364.348	338.18
364.729	308.81
365.111	311.07
365.493	330.95
365.874	313.1
366.256	306.77
366.637	319.65
367.019	341.8
367.4	315.36
367.781	308.13
368.163	322.36
368.544	330.73
368.925	308.81
369.306	306.55
369.688	306.32
370.069	311.29
370.45	315.58
370.831	315.36
371.212	295.47
371.593	309.94
371.974	317.17
372.355	301.35
372.736	332.99
373.117	315.58
373.498	311.52
373.879	309.03
374.26	316.49
374.641	310.61
375.021	309.03
375.402	314.23
375.783	315.36
376.163	323.27
376.544	324.4
376.925	330.73
377.305	324.17
377.686	319.43
378.066	323.95
378.447	324.62
378.827	306.32
379.208	332.53
379.588	311.74
379.968	317.39
380.349	325.75
380.729	328.47
381.109	328.47
381.489	339.99
381.87	313.33
382.25	337.05
382.63	351.06
383.01	336.6
383.39	335.7
383.77	337.51
384.15	341.35
384.53	330.95
384.91	357.17
385.29	352.42
385.67	356.04
386.049	344.28
386.429	365.98
386.809	354.23
387.189	361.46
387.568	344.28
387.948	347.67
388.328	360.33
388.707	371.4
389.087	372.31
389.466	361.23
389.846	361.23
390.225	362.14
390.605	368.69
390.984	380.22
391.363	361.69
391.743	369.14
392.122	367.79
392.501	362.59
392.881	385.64
393.26	364.85
393.639	382.93
394.018	392.42
394.397	377.05
394.776	403.49
395.155	400.78
395.534	372.76
395.913	392.65
396.292	386.54
396.671	415.02
397.05	389.48
397.429	384.74
397.808	398.07
398.186	409.14
398.565	410.5
398.944	424.96
399.323	415.24
399.701	389.48
400.08	412.53
400.458	407.79
400.837	393.1
401.215	442.59
401.594	429.48
401.972	435.58
402.351	409.82
402.729	451.85
403.107	441.68
403.486	434
403.864	438.07
404.242	449.14
404.62	451.63
404.999	438.97
405.377	448.69
405.755	451.85
406.133	462.02
406.511	448.91
406.889	469.48
407.267	479.2
407.645	464.73
408.023	466.09
408.401	499.08
408.779	504.96
409.156	489.37
409.534	504.05
409.912	497.5
410.29	511.06
410.667	501.34
411.045	504.05
411.422	551.96
411.8	528.46
412.178	539.76
412.555	553.32
412.933	531.85
413.31	560.78
413.687	586.99
414.065	602.58
414.442	606.88
414.819	604.84
415.197	609.59
415.574	596.48
415.951	632.64
416.328	641.45
416.705	625.41
417.082	600.1
417.46	655.46
417.837	653.43
418.214	648.23
418.591	663.37
418.967	666.99
419.344	656.37
419.721	636.93
420.098	676.48
420.475	677.84
420.852	727.1
421.228	715.57
421.605	729.13
421.982	721
422.358	757.61
422.735	734.78
423.111	756.7
423.488	745.4
423.864	758.29
424.241	794.67
424.617	817.72
424.994	815.23
425.37	801.67
425.746	818.85
426.123	844.61
426.499	833.99
426.875	853.88
427.251	883.93
427.627	873.99
428.003	889.13
428.379	900.2
428.756	920.31
429.132	939.75
429.507	945.62
429.883	937.04
430.259	913.54
430.635	937.72
431.011	953.31
431.387	963.93
431.763	960.31
432.138	1006.87
432.514	1044.83
432.89	1042.57
433.265	1059.29
433.641	1050.48
434.016	1116.92
434.392	1103.59
434.767	1108.33
435.143	1124.6
435.518	1127.54
435.894	1155.34
436.269	1197.6
436.644	1198.5
437.02	1212.74
437.395	1214.77
437.77	1277.82
438.145	1269.91
438.52	1306.07
438.895	1293.19
439.271	1319.17
439.646	1348.78
440.021	1369.79
440.395	1352.85
440.77	1373.86
441.145	1404.14
441.52	1400.98
441.895	1419.74
442.27	1430.58
442.645	1437.59
443.019	1476.91
443.394	1463.8
443.769	1495.44
444.143	1469.68
444.518	1515.55
444.892	1491.37
445.267	1523.46
445.641	1559.62
446.016	1537.7
446.39	1572.5
446.764	1590.35
447.139	1569.11
447.513	1577.25
447.887	1570.69
448.262	1595.55
448.636	1630.8
449.01	1626.74
449.384	1662.67
449.758	1662.89
450.132	1671.93
450.506	1659.73
450.88	1673.06
451.254	1678.71
451.628	1698.6
452.002	1739.5
452.376	1760.29
452.75	1739.73
453.123	1768.88
453.497	1807.3
453.871	1787.18
454.244	1855.43
454.618	1839.16
454.992	1846.62
455.365	1901.08
455.739	1894.3
456.112	1935.43
456.486	1939.5
456.859	1920.51
457.232	2017.01
457.606	1994.18
457.979	1989.89
458.352	2035.09
458.725	2053.84
459.099	2088.65
459.472	2101.53
459.845	2152.6
460.218	2158.02
460.591	2125.25
460.964	2161.19
461.337	2214.97
461.71	2247.96
462.083	2250.68
462.456	2271.24
462.829	2266.27
463.201	2306.49
463.574	2356.89
463.947	2346.94
464.32	2409.54
464.692	2417.45
465.065	2425.13
465.438	2466.49
465.81	2495.19
466.183	2527.96
466.555	2537.22
466.928	2589.2
467.3	2594.85
467.672	2620.84
468.045	2687.05
468.417	2689.76
468.789	2696.99
469.161	2700.83
469.534	2746.93
469.906	2812.69
470.278	2827.38
470.65	2829.42
471.022	2908.51
471.394	2934.73
471.766	2969.53
472.138	3023.76
472.51	3055.17
472.882	3079.13
473.253	3113.93
473.625	3127.94
473.997	3178.56
474.369	3234.38
474.74	3245.23
475.112	3306.01
475.484	3323.19
475.855	3390.53
476.227	3452.68
476.598	3531.09
476.97	3541.26
477.341	3574.26
477.713	3651.54
478.084	3653.12
478.455	3731.31
478.827	3754.14
479.198	3839.33
479.569	3864.42
479.94	3935.15
480.311	3983.06
480.682	4037.52
481.053	4157.74
481.424	4190.29
481.795	4189.61
482.166	4210.4
482.537	4283.84
482.908	4370.17
483.279	4442.71
483.65	4505.76
484.021	4550.95
484.391	4545.08
484.762	4614.91
485.133	4668.01
485.503	4716.6
485.874	4807.67
486.244	4863.26
486.615	4923.83
486.985	4929.47
487.356	5030.72
487.726	5067.55
488.097	5122.24
488.467	5198.39
488.837	5226.87
489.207	5276.36
489.578	5344.15
489.948	5355.9
490.318	5434.09
490.688	5448.33
491.058	5496.92
491.428	5553.19
491.798	5634.54
492.168	5740.75
492.538	5695.78
492.908	5777.59
493.278	5857.36
493.648	5803.35
494.017	5934.87
494.387	5900.3
494.757	5981.88
495.126	6046.06
495.496	5994.08
495.866	6063
496.235	6129.67
496.605	6194.07
496.974	6218.71
497.344	6270
497.713	6267.52
498.082	6291.02
498.452	6362.21
498.821	6389.55
499.19	6407.85
499.559	6445.59
499.928	6476.55
500.298	6461.41
500.667	6540.51
501.036	6559.04
501.405	6527.62
501.774	6550.68
502.143	6575.53
502.512	6613.05
502.88	6650.56
503.249	6666.38
503.618	6751.12
503.987	6723.1
504.356	6778.92
504.724	6775.08
505.093	6828.41
505.462	6845.13
505.83	6855.07
506.199	6941.17
506.567	6932.13
506.936	6898.69
507.304	6955.86
507.672	7035.86
508.041	7009.65
508.409	7015.52
508.777	7105.69
509.145	7123.99
509.514	7079.7
509.882	7138.46
510.25	7146.14
510.618	7112.47
510.986	7203.31
511.354	7193.37
511.722	7255.52
512.09	7278.57
512.458	7242.18
512.826	7278.79
513.193	7267.94
513.561	7325.57
513.929	7364.21
514.297	7403.31
514.664	7357.21
515.032	7355.4
515.4	7413.7
515.767	7477.43
516.135	7449.41
516.502	7385
516.869	7499.58
517.237	7460.03
517.604	7509.29
517.972	7540.25
518.339	7567.15
518.706	7573.25
519.073	7540.71
519.44	7608.95
519.808	7599.46
520.175	7650.99
520.542	7703.19
520.909	7651.44
521.276	7648.73
521.643	7690.76
522.009	7716.29
522.376	7728.27
522.743	7743.41
523.11	7805.11
523.477	7792.68
523.843	7868.15
524.21	7890.75
524.577	7897.31
524.943	7846.91
525.31	7885.1
525.676	7977.98
526.043	7936.4
526.409	8004.2
526.776	8010.75
527.142	7986.57
527.508	8041.94
527.874	8012.33
528.241	7977.53
528.607	8041.94
528.973	8119
529.339	8067.47
529.705	8122.84
530.071	8169.39
530.437	8097.3
530.803	8199.67
531.169	8206
531.535	8151.76
531.901	8153.8
532.267	8191.08
532.632	8198.32
532.998	8137.53
533.364	8159.45
533.73	8181.14
534.095	8211.65
534.461	8182.5
534.826	8246.68
535.192	8268.6
535.557	8211.87
535.923	8234.92
536.288	8221.14
536.653	8217.52
537.019	8200.35
537.384	8157.41
537.749	8220.69
538.114	8183.4
538.479	8192.21
538.845	8190.41
539.21	8209.84
539.575	8130.97
539.94	8166.68
540.305	8214.81
540.67	8222.5
541.034	8132.55
541.399	8154.7
541.764	8142.95
542.129	8174.59
542.494	8183.17
542.858	8116.74
543.223	8156.51
543.587	8189.5
543.952	8065.66
544.316	8114.02
544.681	8079.45
545.045	8125.1
545.41	8161.93
545.774	8157.41
546.138	8060.01
546.503	8141.59
546.867	8074.7
547.231	8180.24
547.595	8090.3
547.959	8050.07
548.324	8058.43
548.688	8084.42
549.052	8104.76
549.416	8025.89
549.779	8061.6
550.143	8044.87
550.507	8062.05
550.871	8022.27
551.235	8030.41
551.599	8111.76
551.962	8044.42
552.326	8047.59
552.689	8083.97
553.053	8055.04
553.417	7996.96
553.78	8096.62
554.143	8039.45
554.507	8063.86
554.87	8017.76
555.234	8038.55
555.597	8052.33
555.96	8114.25
556.323	8054.59
556.686	8054.82
557.05	8075.61
557.413	8109.96
557.776	8074.02
558.139	8127.36
558.502	8065.21
558.865	8098.66
559.228	8137.53
559.59	8153.34
559.953	8190.86
560.316	8220.24
560.679	8184.76
561.041	8226.34
561.404	8221.59
561.767	8280.35
562.129	8258.88
562.492	8324.19
562.854	8261.14
563.217	8278.09
563.579	8278.77
563.941	8347.46
564.304	8380.01
564.666	8384.98
565.028	8373.68
565.39	8350.63
565.753	8433.79
566.115	8452.32
566.477	8490.51
566.839	8464.52
567.201	8487.12
567.563	8610.28
567.925	8597.18
568.287	8558.31
568.648	8532.32
569.01	8644.86
569.372	8692.99
569.734	8587.01
570.095	8685.76
570.457	8671.3
570.819	8685.08
571.18	8668.81
571.542	8714.46
571.903	8726.44
572.265	8801.69
572.626	8808.69
572.987	8828.58
573.349	8828.58
573.71	8896.38
574.071	8815.02
574.432	8941.8
574.794	9007.56
575.155	8874.23
575.516	8946.09
575.877	8995.13
576.238	8986.09
576.599	9028.12
576.96	9059.76
577.32	9030.61
577.681	9116.48
578.042	9139.76
578.403	9118.29
578.763	9137.27
579.124	9154.22
579.485	9225.18
579.845	9219.76
580.206	9209.14
580.566	9185.41
580.927	9219.08
581.287	9320.55
581.648	9218.63
582.008	9297.27
582.368	9309.25
582.728	9284.61
583.089	9325.29
583.449	9332.3
583.809	9401.9
584.169	9368.45
584.529	9438.51
584.889	9456.81
585.249	9435.35
585.609	9415.01
585.969	9503.82
586.329	9404.39
586.688	9465.4
587.048	9455.91
587.408	9489.13
587.768	9523.48
588.127	9487.77
588.487	9544.49
588.846	9573.19
589.206	9556.02
589.565	9590.82
589.925	9639.41
590.284	9653.42
590.643	9569.8
591.003	9623.59
591.362	9689.58
591.721	9711.95
592.08	9769.35
592.44	9702.68
592.799	9812.74
593.158	9736.13
593.517	9709.01
593.876	9763.7
594.235	9761.66
594.593	9758.5
594.952	9807.99
595.311	9736.35
595.67	9751.72
596.029	9833.07
596.387	9847.99
596.746	9906.07
597.104	9808.44
597.463	9838.5
597.822	9881.89
598.18	9877.82
598.538	9847.09
598.897	9925.05
599.255	9788.56
599.613	9984.03
599.972	9900.42
600.33	9986.97
600.688	9881.66
601.046	9929.34
601.404	9930.47
601.762	9915.78
602.12	10038.72
602.478	9958.27
602.836	9988.78
603.194	9892.96
603.552	9975.67
603.91	9914.88
604.268	10029.91
604.625	9955.11
604.983	9962.79
605.341	10006.86
605.698	10028.32
606.056	10093.41
606.413	10069.68
606.771	10013.41
607.128	10024.71
607.485	10012.73
607.843	10044.14
608.2	10131.6
608.557	10188.77
608.914	10085.95
609.272	10100.86
609.629	10153.52
609.986	10225.61
610.343	10145.38
610.7	10177.92
611.057	10197.81
611.414	10158.04
611.771	10198.26
612.127	10189.9
612.484	10149
612.841	10197.13
613.198	10237.36
613.554	10283.01
613.911	10271.71
614.267	10291.14
614.624	10281.65
614.98	10236
615.337	10360.29
615.693	10343.12
616.05	10280.07
616.406	10378.15
616.762	10305.38
617.118	10334.98
617.475	10320.97
617.831	10330.91
618.187	10343.8
618.543	10367.07
618.899	10359.61
619.255	10409.56
619.611	10359.39
619.967	10433.74
620.323	10420.86
620.678	10362.78
621.034	10435.32
621.39	10318.94
621.746	10363.46
622.101	10432.61
622.457	10402.33
622.812	10332.27
623.168	10366.17
623.523	10428.54
623.879	10430.12
624.234	10351.93
624.589	10381.76
624.945	10398.94
625.3	10430.57
625.655	10442.78
626.01	10449.56
626.365	10480.52
626.72	10375.43
627.075	10412.04
627.43	10441.19
627.785	10414.53
628.14	10441.65
628.495	10352.84
628.85	10400.29
629.205	10380.86
629.559	10438.71
629.914	10344.02
630.269	10364.59
630.623	10378.37
630.978	10392.38
631.332	10296.57
631.687	10313.97
632.041	10341.08
632.396	10376.34
632.75	10316.9
633.104	10325.49
633.459	10239.62
633.813	10270.35
634.167	10261.09
634.521	10172.27
634.875	10193.07
635.229	10218.83
635.583	10172.95
635.937	10214.99
636.291	10201.43
636.645	10191.48
636.999	10164.37
637.352	10150.58
637.706	10072.16
638.06	10108.55
638.413	10150.35
638.767	10096.8
639.121	10040.98
639.474	10004.82
639.828	10039.17
640.181	10056.8
640.534	10024.71
640.888	9983.13
641.241	9949.23
641.594	10018.61
641.947	9968.21
642.301	9961.21
642.654	9977.93
643.007	9992.62
643.36	10019.74
643.713	9972.28
644.066	9956.46
644.419	9951.72
644.771	9841.44
645.124	9775.68
645.477	9785.84
645.83	9696.13
646.182	9682.12
646.535	9616.13
646.888	9653.64
647.24	9598.73
647.593	9626.98
647.945	9661.1
648.298	9592.4
648.65	9624.04
649.002	9563.93
649.355	9692.97
649.707	9551.27
650.059	9591.27
650.411	9718.95
650.763	9792.62
651.115	9848.89
651.467	9822.68
651.819	9805.73
652.171	9763.02
652.523	9854.32
652.875	9772.29
653.227	9718.5
653.578	9842.11
653.93	9781.32
654.282	9764.38
654.633	9736.13
654.985	9813.19
655.337	9774.55
655.688	9772.51
656.039	9848.22
656.391	9772.06
656.742	9760.08
657.094	9808.67
657.445	9821.1
657.796	9810.02
658.147	9718.28
658.498	9784.04
658.849	9779.06
659.2	9852.06
659.551	9745.62
659.902	9816.13
660.253	9718.95
660.604	9803.02
660.955	9726.41
661.306	9869.91
661.656	9773.19
662.007	9763.02
662.358	9770.7
662.708	9770.25
663.059	9744.49
663.409	9728.22
663.76	9779.74
664.11	9750.37
664.461	9831.27
664.811	9807.31
665.161	9803.25
665.511	9770.7
665.862	9774.09
666.212	9826.52
666.562	9761.21
666.912	9763.25
667.262	9794.43
667.612	9806.63
667.962	9776.58
668.312	9828.78
668.662	9813.19
669.011	9775.9
669.361	9795.34
669.711	9775.9
670.06	9782
670.41	9749.91
670.76	9668.79
671.109	9721.67
671.459	9805.28
671.808	9695.9
672.157	9740.2
672.507	9680.08
672.856	9667.43
673.205	9715.79
673.554	9713.76
673.904	9672.18
674.253	9753.3
674.602	9676.47
674.951	9542.69
675.3	9612.97
675.649	9687.09
675.998	9670.14
676.346	9653.64
676.695	9709.24
677.044	9604.15
677.393	9593.99
677.741	9612.52
678.09	9625.17
678.438	9547.21
678.787	9583.59
679.135	9576.36
679.484	9546.75
679.832	9529.13
680.181	9449.13
680.529	9505.17
680.877	9490.71
681.225	9431.73
681.573	9501.78
681.922	9410.26
682.27	9447.55
682.618	9400.09
682.966	9357.61
683.314	9415.01
683.661	9313.99
684.009	9296.82
684.357	9267.44
684.705	9282.35
685.053	9286.42
685.4	9199.65
685.748	9226.09
686.095	9227.44
686.443	9121.46
686.79	9158.52
687.138	9176.14
687.485	9168.23
687.832	9172.3
688.18	9074.45
688.527	9051.85
688.874	9065.64
689.221	9052.98
689.568	9062.25
689.915	9009.82
690.262	8997.16
690.609	8928.24
690.956	8920.33
691.303	8884.85
691.65	8797.62
691.997	8834.23
692.344	8768.02
692.69	8776.61
693.037	8723.27
693.383	8665.65
693.73	8712.65
694.077	8608.93
694.423	8623.16
694.769	8600.11
695.116	8595.14
695.462	8548.14
695.808	8495.03
696.155	8542.71
696.501	8491.87
696.847	8447.35
697.193	8373
697.539	8388.14
697.885	8382.72
698.231	8359.22
698.577	8358.09
698.923	8295.94
699.269	8288.48
699.614	8207.35
699.96	8200.12
700.306	8210.97
700.651	8158.09
700.997	8102.5
701.342	8081.71
701.688	8091.88
702.033	8067.02
702.379	8056.62
702.724	7958.77
703.069	8002.84
703.415	7886.46
703.76	7923.75
704.105	7905.89
704.45	7910.87
704.795	7834.48
705.14	7852.56
705.485	7782.73
705.83	7703.41
706.175	7735.05
706.52	7691.44
706.865	7735.05
707.209	7655.96
707.554	7675.17
707.899	7616.18
708.243	7576.18
708.588	7595.17
708.932	7587.48
709.277	7567.82
709.621	7613.02
709.966	7472.91
710.31	7578.22
710.654	7391.33
710.998	7445.34
711.342	7479.24
711.687	7440.82
712.031	7410.77
712.375	7387.94
712.719	7437.43
713.063	7362.63
713.407	7370.09
713.75	7343.87
714.094	7319.92
714.438	7330.32
714.782	7279.7
715.125	7338.45
715.469	7295.06
715.812	7287.6
716.156	7192.92
716.499	7192.24
716.843	7201.73
717.186	7156.53
717.53	7247.38
717.873	7166.7
718.216	7197.66
718.559	7196.99
718.902	7151.34
719.246	7062.98
719.589	7055.75
719.932	7091.68
720.275	7074.28
720.617	7067.5
720.96	7105.01
721.303	7064.56
721.646	7063.43
721.989	7022.08
722.331	7055.07
722.674	7008.06
723.016	7027.5
723.359	7029.08
723.701	7051.9
724.044	6948.63
724.386	6914.96
724.729	6973.94
725.071	6960.16
725.413	6939.59
725.755	6915.41
726.097	6897.11
726.439	6948.4
726.782	6956.99
727.124	6964.9
727.465	6939.82
727.807	6866.15
728.149	6879.71
728.491	6886.26
728.833	6895.3
729.175	6847.16
729.516	6870.89
729.858	6858.92
730.199	6897.11
730.541	6879.71
730.882	6882.64
731.224	6898.69
731.565	6836.54
731.906	6849.65
732.248	6837
732.589	6832.48
732.93	6846.94
733.271	6864.11
733.612	6802.19
733.953	6846.94
734.294	6837.67
734.635	6828.63
734.976	6824.57
735.317	6822.31
735.658	6832.93
735.999	6797.67
736.339	6865.02
736.68	6851.68
737.021	6830.89
737.361	6817.56
737.702	6833.83
738.042	6887.16
738.383	6883.1
738.723	6801.74
739.063	6892.59
739.404	6850.78
739.744	6832.93
740.084	6847.62
740.424	6900.95
740.764	6857.56
741.104	6895.98
741.444	6897.33
741.784	6859.14
742.124	6884
742.464	6936.43
742.804	6966.94
743.143	6940.04
743.483	6945.92
743.823	6940.5
744.162	6993.83
744.502	7004.67
744.841	7009.42
745.181	7021.85
745.52	7024.56
745.86	7128.29
746.199	7049.19
746.538	7124.22
746.877	7177.78
747.216	7180.72
747.556	7272.24
747.895	7196.53
748.234	7272.69
748.573	7339.81
748.911	7349.3
749.25	7363.54
749.589	7420.93
749.928	7500.93
750.267	7498.22
750.605	7605.11
750.944	7615.96
751.283	7668.61
751.621	7783.64
751.96	7794.48
752.298	7892.33
752.636	7937.31
752.975	7996.06
753.313	8036.29
753.651	8174.36
753.989	8239.44
754.327	8314.47
754.666	8310.18
755.004	8464.07
755.342	8613.67
755.679	8701.81
756.017	8742.48
756.355	8829.49
756.693	8936.15
757.031	9040.33
757.368	9150.61
757.706	9246.2
758.044	9375.23
758.381	9531.16
758.719	9612.74
759.056	9745.62
759.394	9876.69
759.731	9897.48
760.068	10008.66
760.405	10088.21
760.743	10297.7
761.08	10464.47
761.417	10533.62
761.754	10631.7
762.091	10802.09
762.428	10906.72
762.765	10899.94
763.102	11159.14
763.438	11221.74
763.775	11369.31
764.112	11501.28
764.449	11628.51
764.785	11805
765.122	11905.11
765.458	11958.44
765.795	12115.27
766.131	12274.37
766.467	12274.59
766.804	12437.75
767.14	12447.02
767.476	12594.81
767.812	12759.33
768.148	12900.56
768.485	12885.2
768.821	12999.09
769.157	12977.62
769.492	13286.77
769.828	13369.25
770.164	13295.58
770.5	13383.04
770.836	13524.96
771.171	13592.07
771.507	13596.37
771.842	13663.26
772.178	13832.74
772.513	13911.16
772.849	13933.08
773.184	13954.55
773.519	14057.37
773.855	14107.31
774.19	14081.1
774.525	14104.83
774.86	14228.89
775.195	14306.18
775.53	14290.81
775.865	14281.77
776.2	14224.82
776.535	14350.02
776.87	14346.4
777.205	14334.43
777.539	14453.07
777.874	14472.27
778.209	14428.21
778.543	14438.83
778.878	14457.36
779.212	14505.72
779.547	14409.23
779.881	14598.15
780.215	14479.05
780.55	14609.45
780.884	14530.8
781.218	14496.91
781.552	14636.79
781.886	14513.86
782.22	14543.23
782.554	14450.58
782.888	14444.48
783.222	14452.84
783.556	14456.46
783.889	14442.45
784.223	14378.27
784.557	14432.73
784.89	14486.74
785.224	14390.24
785.557	14430.92
785.891	14360.41
786.224	14374.2
786.558	14483.35
786.891	14235.22
787.224	14319.74
787.557	14298.72
787.891	14267.08
788.224	14230.02
788.557	14318.83
788.89	14275.9
789.223	14289
789.556	14205.84
789.888	14187.54
790.221	14232.06
790.554	14129.23
790.887	14078.61
791.219	14117.71
791.552	14047.88
791.884	14023.25
792.217	14007.2
792.549	13993.42
792.882	13822.35
793.214	13931.05
793.546	13941.44
793.879	13844.95
794.211	13792.52
794.543	13820.31
794.875	13810.37
795.207	13777.38
795.539	13799.98
795.871	13753.42
796.203	13606.08
796.535	13624.61
796.867	13635.69
797.198	13543.71
797.53	13521.79
797.862	13502.58
798.193	13498.74
798.525	13437.27
798.856	13440.44
799.188	13345.75
799.519	13258.07
799.85	13286.54
800.182	13330.38
800.513	13269.82
800.844	13186.43
801.175	13256.49
801.506	13263.49
801.837	13207.68
802.168	13134.68
802.499	13106.21
802.83	13051.3
803.161	13012.43
803.491	12967.23
803.822	13100.56
804.153	12979.66
804.483	12847.01
804.814	12840
805.145	12846.33
805.475	12791.64
805.805	12808.59
806.136	12775.37
806.466	12832.77
806.796	12759.1
807.126	12675.49
807.457	12627.8
807.787	12609.72
808.117	12604.53
808.447	12563.4
808.777	12592.55
809.107	12515.26
809.436	12521.82
809.766	12470.97
810.096	12493.12
810.426	12415.15
810.755	12481.59
811.085	12336.74
811.414	12341.48
811.744	12244.08
812.073	12253.35
812.403	12264.88
812.732	12269.17
813.061	12168.38
813.39	12132.45
813.719	12095.39
814.049	12203.63
814.378	12212.9
814.707	12085.67
815.036	11993.92
815.365	12070.08
815.693	11915.28
816.022	11957.54
816.351	11871.89
816.68	11827.37
817.008	11871.21
817.337	11826.02
817.665	11803.87
817.994	11786.02
818.322	11802.06
818.651	11729.75
818.979	11698.79
819.307	11725.45
819.636	11661.28
819.964	11636.87
820.292	11723.42
820.62	11713.93
820.948	11636.42
821.276	11742.86
821.604	11659.69
821.932	11617.89
822.259	11667.38
822.587	11591.45
822.915	11607.72
823.243	11637.32
823.57	11610.2
823.898	11658.11
824.225	11609.53
824.553	11631.9
824.88	11675.51
825.207	11684.78
825.535	11689.98
825.862	11654.72
826.189	11672.8
826.516	11682.52
826.843	11702.4
827.17	11692.23
827.497	11719.58
827.824	11700.14
828.151	11724.78
828.478	11710.31
828.805	11764.1
829.131	11687.26
829.458	11706.25
829.785	11621.73
830.111	11682.07
830.438	11767.49
830.764	11723.65
831.09	11725.45
831.417	11644.55
831.743	11651.11
832.069	11577.66
832.395	11614.72
832.722	11622.41
833.048	11595.97
833.374	11543.76
833.7	11619.69
834.026	11583.09
834.351	11610.43
834.677	11572.01
835.003	11543.54
835.329	11554.39
835.654	11592.12
835.98	11530.21
836.306	11527.27
836.631	11545.35
836.956	11497.44
837.282	11546.93
837.607	11503.54
837.932	11401.4
838.258	11395.75
838.583	11432.35
838.908	11360.72
839.233	11442.3
839.558	11375.41
839.883	11382.41
840.208	11308.29
840.533	11317.56
840.858	11251.12
841.182	11257.67
841.507	11302.87
841.832	11155.98
842.156	11189.88
842.481	11219.48
842.805	11148.29
843.13	11132.93
843.454	11083.89
843.778	11095.41
844.103	11043.44
844.427	10980.62
844.751	10984.68
845.075	10971.58
845.399	10990.56
845.723	10861.75
846.047	10871.92
846.371	10718.25
846.695	10805.03
847.019	10741.75
847.343	10657.46
847.666	10617.91
847.99	10610.91
848.313	10620.17
848.637	10523.68
848.96	10496.56
849.284	10459.27
849.607	10459.5
849.931	10390.12
850.254	10272.61
850.577	10190.81
850.9	10156.91
851.223	10184.48
851.546	10101.54
851.869	10127.53
852.192	10120.75
852.515	10105.38
852.838	10018.15
853.161	10055.89
853.483	9903.13
853.806	9911.26
854.129	9916.01
854.451	9885.95
854.774	9809.35
855.096	9847.54
855.419	9733.64
855.741	9740.42
856.063	9676.47
856.385	9648.9
856.708	9619.52
857.03	9612.97
857.352	9596.47
857.674	9616.58
857.996	9461.33
858.318	9487.1
858.64	9506.3
858.961	9499.3
859.283	9385.85
859.605	9367.1
859.926	9467.21
860.248	9335.46
860.57	9341.79
860.891	9342.24
861.212	9286.2
861.534	9298.17
861.855	9220.66
862.176	9207.55
862.498	9192.87
862.819	9242.36
863.14	9196.26
863.461	9168.69
863.782	9158.29
864.103	9140.66
864.424	9125.97
864.745	9164.17
865.065	9013.66
865.386	9045.07
865.707	9044.17
866.027	9055.47
866.348	8979.09
866.668	9026.54
866.989	8993.1
867.309	8934.57
867.63	9016.15
867.95	8930.95
868.27	8929.37
868.59	8882.59
868.91	8851.18
869.23	8876.94
869.55	8888.69
869.87	8903.61
870.19	8882.82
870.51	8853.67
870.83	8871.07
871.15	8798.3
871.469	8789.03
871.789	8814.57
872.109	8801.01
872.428	8721.01
872.748	8701.81
873.067	8755.14
873.386	8738.64
873.706	8693.9
874.025	8667.68
874.344	8665.65
874.663	8674.91
874.982	8636.72
875.301	8556.72
875.62	8599.21
875.939	8582.94
876.258	8588.59
876.577	8598.76
876.896	8549.72
877.214	8555.14
877.533	8569.38
877.852	8523.96
878.17	8529.83
878.489	8503.62
878.807	8448.48
879.125	8471.98
879.444	8455.03
879.762	8422.49
880.08	8439.67
880.398	8421.81
880.716	8429.27
881.034	8389.04
881.352	8379.55
881.67	8349.95
881.988	8356.05
882.306	8293.91
882.624	8307.69
882.941	8304.3
883.259	8243.51
883.577	8237.41
883.894	8213.68
884.212	8152.44
884.529	8247.81
884.846	8195.83
885.164	8170.07
885.481	8064.99
885.798	8133.46
886.115	8092.33
886.432	8043.29
886.75	8036.06
887.067	8036.51
887.383	8007.13
887.7	8037.19
888.017	8007.36
888.334	7958.77
888.651	7920.81
888.967	7880.36
889.284	7873.35
889.6	7863.41
889.917	7775.73
890.233	7752.68
890.55	7809.63
890.866	7749.51
891.182	7747.71
891.498	7659.35
891.815	7688.95
892.131	7685.56
892.447	7633.36
892.763	7651.21
893.079	7620.93
893.395	7617.31
893.71	7580.48
894.026	7554.72
894.342	7488.5
894.657	7421.39
894.973	7446.7
895.289	7412.12
895.604	7454.83
895.92	7347.49
896.235	7314.95
896.55	7305.01
896.865	7362.63
897.181	7351.11
897.496	7263.88
897.811	7302.29
898.126	7204.22
898.441	7216.65
898.756	7163.09
899.071	7092.36
899.386	7182.3
899.7	7087.84
900.015	7008.06
900.33	7038.12
900.644	6980.72
900.959	6978.46
901.273	6943.43
901.588	6951.57
901.902	6880.16
902.216	6872.47
902.531	6844.9
902.845	6859.14
903.159	6764.91
903.473	6804.91
903.787	6761.07
904.101	6744.12
904.415	6757.68
904.729	6714.96
905.042	6657.79
905.356	6621.41
905.67	6639.26
905.984	6592.93
906.297	6588.19
906.611	6523.33
906.924	6559.04
907.237	6521.3
907.551	6474.29
907.864	6467.74
908.177	6413.96
908.491	6425.25
908.804	6375.09
909.117	6313.39
909.43	6283.56
909.743	6340.74
910.056	6268.65
910.368	6246.28
910.681	6241.08
910.994	6218.93
911.307	6174.87
911.619	6116.79
911.932	6119.05
912.244	6097.13
912.557	6128.31
912.869	6031.14
913.181	6020.29
913.494	5966.96
913.806	5968.54
914.118	5932.84
914.43	5914.53
914.742	5901.2
915.054	5889.22
915.366	5868.43
915.678	5832.5
915.99	5759.06
916.302	5816.01
916.613	5752.5
916.925	5745.27
917.236	5764.93
917.548	5701.21
917.859	5706.4
918.171	5628.21
918.482	5651.72
918.794	5582.57
919.105	5613.75
919.416	5523.13
919.727	5561.55
920.038	5574.43
920.349	5457.82
920.66	5456.69
920.971	5494.21
921.282	5474.55
921.593	5403.13
921.903	5389.35
922.214	5346.19
922.525	5386.41
922.835	5333.98
923.146	5260.31
923.456	5282.91
923.767	5312.06
924.077	5228.22
924.387	5243.36
924.697	5153.2
925.008	5146.64
925.318	5161.11
925.628	5163.14
925.938	5105.29
926.248	5068
926.558	5056.7
926.867	5093.99
927.177	5020.09
927.487	5014.9
927.796	4944.62
928.106	4944.39
928.416	4959.98
928.725	4895.13
929.034	4916.82
929.344	4892.87
929.653	4893.54
929.962	4850.83
930.271	4849.03
930.581	4793.66
930.89	4820.55
931.199	4781
931.508	4748.91
931.817	4751.17
932.125	4741.46
932.434	4693.1
932.743	4655.81
933.051	4594.57
933.36	4645.41
933.669	4585.08
933.977	4618.52
934.286	4604.74
934.594	4584.85
934.902	4579.43
935.21	4504.85
935.519	4508.02
935.827	4499.2
936.135	4440.67
936.443	4432.54
936.751	4421.01
937.059	4451.75
937.367	4396.61
937.674	4418.75
937.982	4379.66
938.29	4329.26
938.597	4367.46
938.905	4279.32
939.213	4305.08
939.52	4275.03
939.827	4222.6
940.135	4228.7
940.442	4207.01
940.749	4228.48
941.056	4204.97
941.363	4148.25
941.67	4155.48
941.977	4123.17
942.284	4101.02
942.591	4082.27
942.898	4017.86
943.205	4040.91
943.511	4049.5
943.818	4016.28
944.125	4025.32
944.431	4011.98
944.738	3971.08
945.044	3970.4
945.35	3925.43
945.657	3893.57
945.963	3915.94
946.269	3881.59
946.575	3867.58
946.881	3843.85
947.187	3812.44
947.493	3822.61
947.799	3799.34
948.105	3833.91
948.41	3816.06
948.716	3758.43
949.022	3774.03
949.327	3751.65
949.633	3709.17
949.938	3702.39
950.244	3731.54
950.549	3667.81
950.854	3652.9
951.16	3651.32
951.465	3647.7
951.77	3601.83
952.075	3602.28
952.38	3584.65
952.685	3596.85
952.99	3487.25
953.294	3561.6
953.599	3508.27
953.904	3494.94
954.209	3446.8
954.513	3447.25
954.818	3470.3
955.122	3447.71
955.426	3443.64
955.731	3395.28
956.035	3391.21
956.339	3424.88
956.643	3381.72
956.948	3379.91
957.252	3314.38
957.556	3357.31
957.86	3329.29
958.163	3299.91
958.467	3296.52
958.771	3273.7
959.075	3294.94
959.378	3254.94
959.682	3242.51
959.985	3218.79
960.289	3204.32
960.592	3192.12
960.896	3222.4
961.199	3120.71
961.502	3186.47
961.805	3093.14
962.108	3129.75
962.411	3126.58
962.714	3099.01
963.017	3130.43
963.32	3084.55
963.623	3070.54
963.926	3068.05
964.228	3033.93
964.531	3017.66
964.833	3063.31
965.136	3017.43
965.438	3012.69
965.741	2952.58
966.043	2979.24
966.345	2929.98
966.648	2947.38
966.95	2906.03
967.252	2903.99
967.554	2891.56
967.856	2869.87
968.158	2870.09
968.46	2871.68
968.761	2872.58
969.063	2865.12
969.365	2831.9
969.666	2809.98
969.968	2803.88
970.269	2782.64
970.571	2755.97
970.872	2783.54
971.174	2799.36
971.475	2720.95
971.776	2709.65
972.077	2725.24
972.378	2695.41
972.679	2696.54
972.98	2690.44
973.281	2640.95
973.582	2659.7
973.883	2660.38
974.183	2635.98
974.484	2619.93
974.785	2621.29
975.085	2580.61
975.386	2626.26
975.686	2589.2
975.986	2567.96
976.287	2559.59
976.587	2583.55
976.887	2544.45
977.187	2528.86
977.487	2488.86
977.787	2497.45
978.087	2504.45
978.387	2491.35
978.687	2433.27
978.987	2472.82
979.286	2441.4
979.586	2442.31
979.885	2458.81
980.185	2397.79
980.484	2441.18
980.784	2434.63
981.083	2402.54
981.382	2369.32
981.682	2364.34
981.981	2394.85
982.28	2328.41
982.579	2360.5
982.878	2333.16
983.177	2319.15
983.475	2295.87
983.774	2337.9
984.073	2278.47
984.372	2259.26
984.67	2261.07
984.969	2259.04
985.267	2241.18
985.566	2239.83
985.864	2255.42
986.162	2233.95
986.461	2165.25
986.759	2186.72
987.057	2169.1
987.355	2162.32
987.653	2177.68
987.951	2126.84
988.249	2118.02
988.547	2167.06
988.844	2129.77
989.142	2117.12
989.44	2106.72
989.737	2106.72
990.035	2088.42
990.332	2097.68
990.63	2073.05
990.927	2085.71
991.224	2073.5
991.521	2045.48
991.819	2017.01
992.116	2026.5
992.413	2028.76
992.71	1995.77
993.006	2025.14
993.303	2022.43
993.6	1977.91
993.897	1998.25
994.193	1984.47
994.49	1976.56
994.787	1962.77
995.083	1940.4
995.379	1922.32
995.676	1913.06
995.972	1920.51
996.268	1936.56
996.565	1904.7
996.861	1882.32
997.157	1870.8
997.453	1842.55
997.749	1857.69
998.044	1873.74
998.34	1851.59
998.636	1833.06
998.932	1796.9
999.227	1814.98
999.523	1808.65
999.818	1813.17
1000.114	1785.38
1000.409	1756.9
1000.704	1758.48
1001	1766.62
1001.295	1766.85
1001.59	1752.38
1001.885	1730.91
1002.18	1735.43
1002.475	1731.37
1002.77	1700.41
1003.065	1727.53
1003.359	1681.88
1003.654	1694.98
1003.949	1668.77
1004.243	1671.93
1004.538	1654.76
1004.832	1639.17
1005.127	1610.01
1005.421	1644.59
1005.715	1602.56
1006.009	1598.04
1006.304	1585.83
1006.598	1578.83
1006.892	1556.68
1007.186	1586.29
1007.48	1561.2
1007.773	1565.04
1008.067	1547.64
1008.361	1523.46
1008.655	1517.81
1008.948	1516.01
1009.242	1507.42
1009.535	1508.32
1009.829	1516.01
1010.122	1483.69
1010.415	1508.55
1010.708	1481.88
1011.001	1495.44
1011.295	1459.51
1011.588	1441.21
1011.881	1458.61
1012.173	1443.92
1012.466	1445.95
1012.759	1401.88
1013.052	1421.54
1013.344	1408.89
1013.637	1383.35
1013.93	1372.96
1014.222	1366.4
1014.514	1376.35
1014.807	1385.39
1015.099	1333.41
1015.391	1338.61
1015.683	1340.64
1015.976	1342.22
1016.268	1318.72
1016.56	1313.52
1016.851	1334.77
1017.143	1314.43
1017.435	1278.05
1017.727	1300.42
1018.018	1289.8
1018.31	1285.95
1018.602	1295.45
1018.893	1257.93
1019.185	1286.41
1019.476	1254.32
1019.767	1239.63
1020.058	1207.54
1020.35	1209.57
1020.641	1222
1020.932	1230.82
1021.223	1205.51
1021.514	1195.79
1021.804	1174.32
1022.095	1186.75
1022.386	1160.76
1022.677	1151.5
1022.967	1134.77
1023.258	1131.83
1023.548	1127.77
1023.839	1146.75
1024.129	1127.09
1024.419	1142.68
1024.709	1091.16
1025	1091.84
1025.29	1104.72
1025.58	1091.84
1025.87	1093.19
1026.16	1056.36
1026.449	1078.95
1026.739	1073.31
1027.029	1061.1
1027.319	1034.66
1027.608	1051.16
1027.898	1054.32
1028.187	1043.93
1028.477	1015.68
1028.766	1026.98
1029.055	1025.62
1029.344	1010.48
1029.634	1015.91
1029.923	998.5
1030.212	993.53
1030.501	974.55
1030.79	972.97
1031.078	970.71
1031.367	965.74
1031.656	957.6
1031.945	968.68
1032.233	953.08
1032.522	932.74
1032.81	930.26
1033.099	943.14
1033.387	912.63
1033.675	912.41
1033.963	912.86
1034.251	927.77
1034.54	906.3
1034.828	888.23
1035.116	899.52
1035.403	880.99
1035.691	889.58
1035.979	893.65
1036.267	871.28
1036.554	872.41
1036.842	882.35
1037.129	850.71
1037.417	855.23
1037.704	858.4
1037.992	824.72
1038.279	838.96
1038.566	842.35
1038.853	842.35
1039.14	842.35
