Data from hue_270_FLMS001491_00011.txt Node
Date: Tue Feb 07 15:56:49 GMT 2017
User: dcchb
Spectrometer: FLMS00149
Trigger mode: 0
Integration Time (sec): 2.000000E-2
Scans to average: 10
Electric dark correction enabled: true
Nonlinearity correction enabled: false
Boxcar width: 0
XAxis mode: Wavelengths
Number of Pixels in Spectrum: 2048
>>>>>Begin Spectral Data<<<<<
341.393	-3.45
341.776	-3.45
342.16	-3.45
342.543	-49.32
342.927	-63.33
343.31	-63.33
343.693	-72.14
344.077	-70.56
344.46	-67.63
344.843	-59.49
345.226	-39.38
345.61	-38.25
345.993	-19.94
346.376	-10.23
346.759	7.63
347.142	25.25
347.525	46.27
347.908	51.24
348.291	80.62
348.674	94.86
349.057	135.08
349.44	111.8
349.823	136.21
350.206	143.44
350.588	186.61
350.971	194.51
351.354	186.15
351.737	226.83
352.119	244.68
352.502	249.88
352.884	260.5
353.267	277.45
353.65	268.41
354.032	287.39
354.414	279.03
354.797	314.29
355.179	319.71
355.562	302.31
355.944	306.83
356.326	306.15
356.709	322.87
357.091	328.75
357.473	355.41
357.855	324.91
358.238	344.12
358.62	327.39
359.002	336.88
359.384	330.78
359.766	318.81
360.148	325.36
360.53	341.18
360.912	329.88
361.294	295.75
361.676	318.35
362.057	308.64
362.439	329.65
362.821	331.46
363.203	326.04
363.584	326.49
363.966	325.13
364.348	312.48
364.729	321.29
365.111	312.48
365.493	302.53
365.874	325.36
366.256	310.22
366.637	329.43
367.019	299.6
367.4	312.93
367.781	316.09
368.163	326.26
368.544	291.69
368.925	295.08
369.306	291.24
369.688	321.97
370.069	293.95
370.45	314.06
370.831	302.31
371.212	309.54
371.593	311.57
371.974	313.16
372.355	304.57
372.736	319.94
373.117	294.4
373.498	325.36
373.879	316.77
374.26	316.32
374.641	326.71
375.021	318.35
375.402	318.58
375.783	308.18
376.163	322.42
376.544	307.73
376.925	325.81
377.305	311.57
377.686	317
378.066	310.9
378.447	336.43
378.827	311.57
379.208	314.29
379.588	344.12
379.968	338.69
380.349	325.81
380.729	323.55
381.109	326.49
381.489	328.75
381.87	348.41
382.25	351.12
382.63	320.61
383.01	331.23
383.39	332.36
383.77	322.19
384.15	335.3
384.53	355.64
384.91	333.95
385.29	352.93
385.67	342.08
386.049	360.39
386.429	366.94
386.809	373.72
387.189	361.06
387.568	350.89
387.948	350.22
388.328	358.8
388.707	346.83
389.087	340.95
389.466	364.68
389.846	363.55
390.225	372.82
390.605	358.13
390.984	381.85
391.363	374.17
391.743	373.04
392.122	380.72
392.501	389.99
392.881	371.69
393.26	408.07
393.639	362.42
394.018	400.38
394.397	396.54
394.776	398.58
395.155	376.88
395.534	386.6
395.913	390.67
396.292	384.57
396.671	385.47
397.05	395.87
397.429	411.01
397.808	406.71
398.186	416.2
398.565	382.08
398.944	420.05
399.323	399.26
399.701	410.33
400.08	402.19
400.458	416.43
400.837	416.2
401.215	434.73
401.594	419.59
401.972	428.41
402.351	453.04
402.729	430.44
403.107	443.77
403.486	424.79
403.864	436.54
404.242	426.82
404.62	431.57
404.999	456.2
405.377	461.17
405.755	449.88
406.133	493.04
406.511	464.11
406.889	464.11
407.267	480.16
407.645	505.47
408.023	485.13
408.401	512.25
408.779	478.57
409.156	474.06
409.534	511.57
409.912	509.31
410.29	521.51
410.667	527.61
411.045	524.22
411.422	530.1
411.8	527.61
412.178	568.29
412.555	552.47
412.933	560.83
413.31	563.32
413.687	563.09
414.065	580.49
414.442	570.55
414.819	577.78
415.197	584.56
415.574	596.76
415.951	617.1
416.328	631.11
416.705	607.84
417.082	626.14
417.46	638.8
417.837	638.34
418.214	650.77
418.591	653.49
418.967	675.86
419.344	680.15
419.721	661.62
420.098	693.71
420.475	680.38
420.852	690.32
421.228	700.72
421.605	721.28
421.982	724.22
422.358	721.96
422.735	711.79
423.111	761.73
423.488	759.7
423.864	762.41
424.241	762.41
424.617	798.57
424.994	816.42
425.37	825.68
425.746	827.04
426.123	847.6
426.499	849.41
426.875	851.22
427.251	875.4
427.627	873.59
428.003	889.41
428.379	938
428.756	921.28
429.132	893.25
429.507	923.08
429.883	931.22
430.259	947.72
430.635	935.96
431.011	971.67
431.387	982.97
431.763	994.95
432.138	1019.58
432.514	1025.23
432.89	1057.09
433.265	1078.11
433.641	1085.11
434.016	1049.41
434.392	1090.08
434.767	1138.67
435.143	1124.21
435.518	1146.81
435.894	1142.29
436.269	1189.74
436.644	1169.4
437.02	1215.05
437.395	1235.39
437.77	1245.56
438.145	1264.09
438.52	1271.1
438.895	1261.61
439.271	1311.32
439.646	1341.83
440.021	1314.94
440.395	1340.47
440.77	1340.25
441.145	1355.61
441.52	1426.12
441.895	1390.87
442.27	1422.73
442.645	1399.91
443.019	1439.23
443.394	1427.93
443.769	1478.1
444.143	1426.8
444.518	1469.28
444.892	1500.47
445.267	1517.64
445.641	1503.18
446.016	1516.97
446.39	1525.1
446.764	1543.86
447.139	1536.85
447.513	1535.5
447.887	1540.92
448.262	1560.58
448.636	1576.63
449.01	1585.21
449.384	1603.97
449.758	1601.03
450.132	1662.72
450.506	1635.38
450.88	1647.36
451.254	1645.55
451.628	1668.83
452.002	1701.14
452.376	1684.64
452.75	1723.06
453.123	1722.61
453.497	1740.91
453.871	1762.61
454.244	1757.41
454.618	1766.9
454.992	1818.2
455.365	1816.84
455.739	1829.95
456.112	1850.52
456.486	1884.87
456.859	1862.95
457.232	1922.6
457.606	1909.5
457.979	1931.19
458.352	1966.67
458.725	1995.6
459.099	1980.68
459.472	2043.28
459.845	2052.32
460.218	2044.18
460.591	2067.01
460.964	2055.93
461.337	2096.84
461.71	2191.75
462.083	2167.8
462.456	2151.75
462.829	2160.56
463.201	2210.96
463.574	2243.73
463.947	2227.46
464.32	2288.02
464.692	2264.06
465.065	2309.04
465.438	2328.24
465.81	2333.67
466.183	2417.06
466.555	2410.5
466.928	2455.25
467.3	2406.43
467.672	2464.74
468.045	2499.99
468.417	2516.26
468.789	2566.43
469.161	2558.52
469.534	2573.21
469.906	2640.78
470.278	2672.19
470.65	2648.69
471.022	2690.04
471.394	2758.06
471.766	2797.84
472.138	2793.99
472.51	2877.38
472.882	2879.87
473.253	2869.7
473.625	2925.97
473.997	3024.04
474.369	3002.8
474.74	2992.41
475.112	3044.38
475.484	3068.56
475.855	3186.75
476.227	3187.2
476.598	3241.89
476.97	3266.3
477.341	3323.47
477.713	3323.25
478.084	3346.52
478.455	3453.19
478.827	3442.56
479.198	3550.58
479.569	3536.12
479.94	3628.32
480.311	3639.62
480.682	3701.09
481.053	3746.06
481.424	3824.7
481.795	3825.15
482.166	3872.84
482.537	3912.83
482.908	3984.92
483.279	3997.58
483.65	4081.42
484.021	4120.06
484.391	4208.19
484.762	4177.23
485.133	4225.37
485.503	4290.68
485.874	4346.5
486.244	4362.09
486.615	4454.97
486.985	4481.18
487.356	4557.34
487.726	4570.44
488.097	4661.06
488.467	4607.73
488.837	4727.5
489.207	4739.03
489.578	4848.86
489.948	4856.99
490.318	4943.77
490.688	4922.75
491.058	4999.36
491.428	5033.48
491.798	5066.93
492.168	5160.94
492.538	5191.22
492.908	5196.19
493.278	5227.83
493.648	5250.65
494.017	5337.43
494.387	5307.6
494.757	5372.68
495.126	5398.67
495.496	5373.36
495.866	5447.71
496.235	5497.65
496.605	5521.38
496.974	5583.3
497.344	5554.83
497.713	5615.39
498.082	5648.83
498.452	5719.12
498.821	5679.12
499.19	5680.7
499.559	5758.21
499.928	5796.4
500.298	5826.46
500.667	5843.41
501.036	5787.81
501.405	5858.77
501.774	5875.72
502.143	5885.21
502.512	5893.8
502.88	5957.75
503.249	5943.06
503.618	5943.06
503.987	5995.72
504.356	6012.44
504.724	6113.46
505.093	6043.17
505.462	6099.44
505.83	6065.77
506.199	6064.87
506.567	6192.1
506.936	6202.27
507.304	6198.88
507.672	6199.78
508.041	6249.95
508.409	6291.08
508.777	6312.32
509.145	6347.35
509.514	6342.6
509.882	6367.91
510.25	6354.8
510.618	6389.61
510.986	6382.37
511.354	6459.43
511.722	6489.26
512.09	6519.09
512.458	6443.39
512.826	6479.32
513.193	6512.77
513.561	6503.5
513.929	6556.83
514.297	6554.8
514.664	6581.92
515.032	6537.17
515.4	6637.28
515.767	6626.66
516.135	6636.83
516.502	6565.65
516.869	6658.75
517.237	6682.48
517.604	6689.94
517.972	6701.24
518.339	6712.31
518.706	6712.54
519.073	6725.19
519.44	6716.83
519.808	6801.8
520.175	6786.43
520.542	6838.86
520.909	6859.88
521.276	6810.61
521.643	6864.4
522.009	6894.45
522.376	6906.43
522.743	6917.5
523.11	6986.65
523.477	7009.7
523.843	6937.61
524.21	7007.44
524.577	7049.93
524.943	7066.88
525.31	7073.66
525.676	7102.13
526.043	7133.77
526.409	7171.73
526.776	7176.25
527.142	7183.03
527.508	7215.12
527.874	7217.61
528.241	7255.12
528.607	7291.5
528.973	7333.76
529.339	7270.94
529.705	7337.83
530.071	7374.89
530.437	7362.46
530.803	7411.5
531.169	7432.52
531.535	7386.19
531.901	7373.99
532.267	7461.44
532.632	7508.9
532.998	7533.76
533.364	7522.68
533.73	7524.04
534.095	7536.92
534.461	7516.13
534.826	7573.53
535.192	7591.61
535.557	7546.41
535.923	7587.31
536.288	7622.57
536.653	7621.44
537.019	7538.28
537.384	7553.19
537.749	7607.2
538.114	7647.65
538.479	7638.84
538.845	7587.54
539.21	7606.75
539.575	7644.71
539.94	7644.49
540.305	7649.91
540.67	7641.55
541.034	7718.38
541.399	7681.78
541.764	7685.39
542.129	7669.35
542.494	7652.85
542.858	7679.06
543.223	7741.66
543.587	7738.5
543.952	7676.35
544.316	7732.85
544.681	7728.1
545.045	7769.91
545.41	7748.21
545.774	7748.67
546.138	7738.05
546.503	7735.56
546.867	7750.93
547.231	7766.29
547.595	7798.16
547.959	7813.07
548.324	7817.82
548.688	7791.83
549.052	7787.99
549.416	7806.97
549.779	7860.08
550.143	7838.16
550.507	7833.41
550.871	7896.69
551.235	7853.3
551.599	7879.28
551.962	7860.08
552.326	7927.19
552.689	7918.83
553.053	7852.84
553.417	7947.31
553.78	7973.29
554.143	7950.24
554.507	7996.57
554.87	7930.13
555.234	7985.95
555.597	7961.09
555.96	7987.76
556.323	7996.12
556.686	8004.7
557.05	8050.13
557.413	8029.56
557.776	8077.02
558.139	8125.83
558.502	8061.88
558.865	8141.65
559.228	8124.25
559.59	8236.79
559.953	8189.11
560.316	8196.11
560.679	8165.83
561.041	8267.75
561.404	8284.25
561.767	8324.02
562.129	8257.58
562.492	8364.02
562.854	8386.84
563.217	8336
563.579	8379.16
563.941	8382.77
564.304	8384.13
564.666	8497.57
565.028	8505.93
565.39	8517.69
565.753	8510.91
566.115	8564.01
566.477	8561.3
566.839	8588.64
567.201	8686.95
567.563	8655.54
567.925	8729.21
568.287	8784.35
568.648	8723.33
569.01	8782.09
569.372	8800.16
569.734	8810.56
570.095	8890.33
570.457	8851.46
570.819	8934.4
571.18	8959.48
571.542	8974.85
571.903	9051.91
572.265	9039.48
572.626	9055.07
572.987	9069.76
573.349	9161.96
573.71	9135.3
574.071	9137.56
574.432	9165.58
574.794	9280.6
575.155	9214.62
575.516	9199.02
575.877	9233.15
576.238	9329.64
576.599	9339.81
576.96	9326.25
577.32	9377.78
577.681	9446.47
578.042	9465.68
578.403	9459.81
578.763	9512.46
579.124	9540.03
579.485	9568.05
579.845	9621.84
580.206	9610.99
580.566	9542.97
580.927	9722.4
581.287	9662.51
581.648	9659.12
582.008	9732.12
582.368	9807.14
582.728	9820.93
583.089	9813.24
583.449	9836.07
583.809	9858.22
584.169	9925.78
584.529	9894.15
584.889	9952.68
585.249	9918.55
585.609	9895.73
585.969	10035.61
586.329	9966.46
586.688	10020.92
587.048	10049.62
587.408	10042.84
587.768	10101.37
588.127	10131.65
588.487	10140.47
588.846	10234.48
589.206	10209.84
589.565	10244.19
589.925	10222.27
590.284	10272.67
590.643	10290.75
591.003	10244.87
591.362	10343.63
591.721	10332.55
592.08	10388.37
592.44	10423.4
592.799	10429.95
593.158	10430.4
593.517	10520.57
593.876	10548.14
594.235	10465.21
594.593	10470.18
594.952	10440.35
595.311	10450.74
595.67	10567.35
596.029	10611.42
596.387	10662.26
596.746	10643.05
597.104	10648.25
597.463	10615.48
597.822	10622.04
598.18	10627.46
598.538	10691.64
598.897	10763.95
599.255	10692.09
599.613	10785.42
599.972	10772.32
600.33	10817.06
600.688	10723.5
601.046	10772.09
601.404	10884.63
601.762	10896.15
602.12	10794.69
602.478	10905.65
602.836	10959.88
603.194	10888.24
603.552	10915.81
603.91	10871.3
604.268	10923.05
604.625	10862.26
604.983	10989.71
605.341	10882.6
605.698	10931.86
606.056	11052.31
606.413	10962.59
606.771	10959.2
607.128	10940.22
607.485	10985.64
607.843	11032.65
608.2	11053.89
608.557	11061.35
608.914	11062.48
609.272	11057.05
609.629	11110.61
609.986	11128.69
610.343	11146.54
610.7	11152.19
611.057	11149.93
611.414	11186.32
611.771	11138.63
612.127	11256.14
612.484	11238.74
612.841	11220.44
613.198	11243.72
613.554	11243.04
613.911	11283.49
614.267	11276.94
614.624	11234.68
614.98	11202.36
615.337	11274.68
615.693	11333.66
616.05	11371.17
616.406	11404.16
616.762	11314.45
617.118	11342.02
617.475	11299.99
617.831	11392.86
618.187	11347.44
618.543	11410.26
618.899	11356.93
619.255	11359.64
619.611	11371.4
619.967	11434.22
620.323	11464.05
620.678	11426.54
621.034	11400.1
621.39	11418.63
621.746	11398.74
622.101	11516.7
622.457	11457.5
622.812	11472.41
623.168	11459.53
623.523	11482.58
623.879	11562.35
624.234	11388.8
624.589	11490.94
624.945	11523.93
625.3	11464.27
625.655	11506.31
626.01	11544.05
626.365	11509.7
626.72	11443.48
627.075	11425.63
627.43	11452.75
627.785	11413.43
628.14	11491.17
628.495	11422.92
628.85	11432.19
629.205	11336.82
629.559	11413.65
629.914	11364.62
630.269	11407.1
630.623	11361.9
630.978	11361.68
631.332	11345.86
631.687	11373.66
632.041	11283.94
632.396	11318.74
632.75	11333.43
633.104	11299.53
633.459	11260.66
633.813	11224.73
634.167	11245.52
634.521	11240.78
634.875	11232.19
635.229	11175.24
635.583	11105.87
635.937	11131.4
636.291	11204.17
636.645	11189.93
636.999	11158.29
637.352	11182.7
637.706	11160.1
638.06	11124.85
638.413	11143.38
638.767	11173.66
639.121	11115.36
639.474	11027.9
639.828	11012.99
640.181	11019.31
640.534	11041.01
640.888	11041.69
641.241	11038.98
641.594	11021.35
641.947	11047.11
642.301	10985.87
642.654	11015.47
643.007	11031.29
643.36	10933.67
643.713	10947.45
644.066	10950.62
644.419	10909.94
644.771	10854.12
645.124	10781.81
645.477	10756.72
645.83	10664.52
646.182	10654.58
646.535	10640.57
646.888	10589.5
647.24	10563.06
647.593	10626.33
647.945	10639.89
648.298	10610.29
648.65	10499.78
649.002	10449.61
649.355	10533.23
649.707	10598.99
650.059	10591.98
650.411	10717.4
650.763	10791.98
651.115	10834.69
651.467	10798.08
651.819	10773.22
652.171	10815.7
652.523	10735.71
652.875	10831.52
653.227	10754.91
653.578	10784.52
653.93	10732.09
654.282	10769.83
654.633	10699.32
654.985	10693.67
655.337	10744.29
655.688	10782.71
656.039	10797.63
656.391	10758.98
656.742	10767.57
657.094	10718.98
657.445	10841.47
657.796	10786.55
658.147	10726.22
658.498	10819.55
658.849	10806.44
659.2	10752.88
659.551	10721.24
659.902	10785.65
660.253	10834.46
660.604	10859.77
660.955	10752.43
661.306	10810.05
661.656	10790.17
662.007	10781.58
662.358	10775.48
662.708	10819.09
663.059	10789.94
663.409	10704.52
663.76	10817.74
664.11	10771.86
664.461	10871.75
664.811	10792.88
665.161	10821.13
665.511	10765.76
665.862	10740
666.212	10735.25
666.562	10738.64
666.912	10777.97
667.262	10784.52
667.612	10774.8
667.962	10808.47
668.312	10761.92
668.662	10832.88
669.011	10825.42
669.361	10674.01
669.711	10772.32
670.06	10717.18
670.41	10656.39
670.76	10669.27
671.109	10797.85
671.459	10725.09
671.808	10631.98
672.157	10732.32
672.507	10632.88
672.856	10669.49
673.205	10706.33
673.554	10710.62
673.904	10735.93
674.253	10699.78
674.602	10745.42
674.951	10524.41
675.3	10459.33
675.649	10629.49
675.998	10614.35
676.346	10606.44
676.695	10638.53
677.044	10612.77
677.393	10621.59
677.741	10565.77
678.09	10496.39
678.438	10528.03
678.787	10519.21
679.135	10586.78
679.484	10460.91
679.832	10517.18
680.181	10461.14
680.529	10509.05
680.877	10464.53
681.225	10414.58
681.573	10456.17
681.922	10365.55
682.27	10327.81
682.618	10386.11
682.966	10298.43
683.314	10380.46
683.661	10282.61
684.009	10309.5
684.357	10200.35
684.705	10266.57
685.053	10271.99
685.4	10203.97
685.748	10127.81
686.095	10138.43
686.443	10174.59
686.79	10095.05
687.138	10146.8
687.485	10127.36
687.832	10068.38
688.18	10123.29
688.527	10097.98
688.874	9994.26
689.221	9963.07
689.568	9954.48
689.915	9883.98
690.262	9934.6
690.609	9868.38
690.956	9855.28
691.303	9789.97
691.65	9826.35
691.997	9726.47
692.344	9683.98
692.69	9723.98
693.037	9667.49
693.383	9580.71
693.73	9621.16
694.077	9566.25
694.423	9567.83
694.769	9467.94
695.116	9476.98
695.462	9440.15
695.808	9430.66
696.155	9474.5
696.501	9332.13
696.847	9375.74
697.193	9242.41
697.539	9309.98
697.885	9202.87
698.231	9200.38
698.577	9212.13
698.923	9139.14
699.269	9082.64
699.614	9063.66
699.96	9020.05
700.306	9004.68
700.651	9005.13
700.997	8917.45
701.342	8962.19
701.688	8848.52
702.033	8861.41
702.379	8835.87
702.724	8795.87
703.069	8776.44
703.415	8705.48
703.76	8758.81
704.105	8735.08
704.45	8678.81
704.795	8648.53
705.14	8547.52
705.485	8593.84
705.83	8600.85
706.175	8578.02
706.52	8528.08
706.865	8529.21
707.209	8467.29
707.554	8430.68
707.899	8449.66
708.243	8399.5
708.588	8307.52
708.932	8342.32
709.277	8310.91
709.621	8358.59
709.966	8246.73
710.31	8261.2
710.654	8223.46
710.998	8216.9
711.342	8243.79
711.687	8180.29
712.031	8163.8
712.375	8178.26
712.719	8141.65
713.063	8090.13
713.407	8131.93
713.75	8051.94
714.094	8135.1
714.438	8088.09
714.782	7987.53
715.125	8019.85
715.469	7982.56
715.812	7954.54
716.156	7937.59
716.499	7967.87
716.843	7965.84
717.186	7888.55
717.53	7966.97
717.873	7955.89
718.216	7859.17
718.559	7885.39
718.902	7796.57
719.246	7839.51
719.589	7824.14
719.932	7762.9
720.275	7797.03
720.617	7829.34
720.96	7812.85
721.303	7760.87
721.646	7791.15
721.989	7670.25
722.331	7796.12
722.674	7751.6
723.016	7762.23
723.359	7714.54
723.701	7777.37
724.044	7757.71
724.386	7632.74
724.729	7682.68
725.071	7631.38
725.413	7628.22
725.755	7655.79
726.097	7632.06
726.439	7552.51
726.782	7627.99
727.124	7653.75
727.465	7555.23
727.807	7630.48
728.149	7666.41
728.491	7664.15
728.833	7594.32
729.175	7618.5
729.516	7648.33
729.858	7538.73
730.199	7598.16
730.541	7545.73
730.882	7536.24
731.224	7595.68
731.565	7517.03
731.906	7552.74
732.248	7576.47
732.589	7502.35
732.93	7513.42
733.271	7499.63
733.612	7544.83
733.953	7560.65
734.294	7515.9
734.635	7502.57
734.976	7500.76
735.317	7500.54
735.658	7521.55
735.999	7555
736.339	7524.27
736.68	7523.81
737.021	7540.54
737.361	7507.54
737.702	7543.25
738.042	7565.85
738.383	7587.31
738.723	7566.52
739.063	7531.27
739.404	7600.87
739.744	7596.35
740.084	7535.34
740.424	7606.98
740.764	7577.15
741.104	7616.47
741.444	7589.12
741.784	7634.09
742.124	7657.82
742.464	7629.35
742.804	7649.91
743.143	7695.56
743.483	7678.84
743.823	7697.59
744.162	7730.36
744.502	7738.5
744.841	7790.47
745.181	7829.34
745.52	7819.85
745.86	7872.5
746.199	7887.87
746.538	7930.81
746.877	7938.27
747.216	8020.07
747.556	8020.98
747.895	8051.48
748.234	8077.7
748.573	8076.34
748.911	8226.39
749.25	8171.93
749.589	8263.46
749.928	8355.43
750.267	8431.36
750.605	8423.9
750.944	8460.96
751.283	8539.15
751.621	8630.23
751.96	8727.4
752.298	8784.57
752.636	8886.04
752.975	8942.08
753.313	8964.45
753.651	9146.6
753.989	9204.45
754.327	9324.22
754.666	9403.76
755.004	9532.57
755.342	9687.15
755.679	9700.71
756.017	9823.19
756.355	9959.91
756.693	10080.36
757.031	10210.3
757.368	10327.13
757.706	10427.24
758.044	10499.1
758.381	10815.25
758.719	10925.08
759.056	11085.98
759.394	11164.17
759.731	11248.01
760.068	11344.28
760.405	11559.41
760.743	11587.44
761.08	11844.38
761.417	11990.36
761.754	12112.62
762.091	12282.11
762.428	12429
762.765	12527.07
763.102	12757.12
763.438	12879.15
763.775	13042.09
764.112	13184.23
764.449	13351.68
764.785	13521.17
765.122	13557.33
765.458	13714.84
765.795	13916.87
766.131	14007.94
766.467	14198.21
766.804	14302.84
767.14	14370.41
767.476	14516.4
767.812	14617.19
768.148	14819.44
768.485	15000.45
768.821	14958.42
769.157	15204.97
769.492	15368.35
769.828	15446.99
770.164	15451.74
770.5	15510.95
770.836	15693.99
771.171	15686.08
771.507	15879.3
771.842	15987.55
772.178	16125.17
772.513	16026.41
772.849	16350.93
773.184	16290.81
773.519	16301.89
773.855	16424.6
774.19	16518.38
774.525	16564.93
774.86	16696
775.195	16673.63
775.53	16778.94
775.865	16814.87
776.2	16796.79
776.535	16806.28
776.87	16846.51
777.205	16957.69
777.539	16965.37
777.874	17015.32
778.209	16923.57
778.543	17052.83
778.878	17007.86
779.212	17107.52
779.547	16980.97
779.881	17177.57
780.215	17182.77
780.55	17281.97
780.884	17225.48
781.218	17204.91
781.552	17338.47
781.886	17234.74
782.22	17182.54
782.554	17219.6
782.888	17150.9
783.222	17090.57
783.556	17210.56
783.889	17157.23
784.223	17095.99
784.557	17042.21
784.89	17176.44
785.224	17069.55
785.557	17080.85
785.891	17124.69
786.224	17110.68
786.558	17113.17
786.891	16991.14
787.224	16966.05
787.557	17034.3
787.891	16936.9
788.224	17028.2
788.557	16997.46
788.89	16980.74
789.223	17013.96
789.556	16984.13
789.888	16908.43
790.221	16919.05
790.554	16742.33
790.887	16844.7
791.219	16790.01
791.552	16828.43
791.884	16683.57
792.217	16721.99
792.549	16736
792.882	16572.39
793.214	16555.21
793.546	16597.93
793.879	16523.12
794.211	16370.36
794.543	16462.34
794.875	16398.83
795.207	16425.27
795.539	16521.77
795.871	16430.02
796.203	16211.49
796.535	16229.35
796.867	16227.54
797.198	16247.65
797.53	16226.86
797.862	16210.14
798.193	16114.77
798.525	16114.1
798.856	16213.08
799.188	16017.83
799.519	15964.5
799.85	15896.25
800.182	15865.74
800.513	15976.92
800.844	15783.71
801.175	15927.21
801.506	15817.38
801.837	15807.89
802.168	15809.25
802.499	15743.48
802.83	15656.26
803.161	15577.39
803.491	15634.33
803.822	15507.33
804.153	15518.18
804.483	15460.78
804.814	15420.33
805.145	15434.34
805.475	15406.54
805.805	15339.88
806.136	15238.64
806.466	15368.8
806.796	15276.38
807.126	15174.69
807.457	15200.67
807.787	15183.5
808.117	15069.83
808.447	15016.05
808.777	15068.47
809.107	15073.67
809.436	15031.41
809.766	15029.83
810.096	14969.27
810.426	14931.98
810.755	14923.17
811.085	14915.94
811.414	14800.91
811.744	14680.69
812.073	14700.35
812.403	14711.2
812.732	14656.28
813.061	14638.65
813.39	14628.71
813.719	14569.73
814.049	14592.78
814.378	14526.79
814.707	14545.55
815.036	14460.81
815.365	14411.32
815.693	14283.64
816.022	14294.03
816.351	14286.8
816.68	14212.45
817.008	14372.22
817.337	14211.55
817.665	14094.94
817.994	14224.65
818.322	14224.65
818.651	14097.65
818.979	14106.47
819.307	14157.76
819.636	14089.29
819.964	14040.7
820.292	14009.74
820.62	14072.57
820.948	14003.87
821.276	13984.43
821.604	13942.85
821.932	14009.74
822.259	13976.98
822.587	13983.53
822.915	13868.73
823.243	14028.95
823.57	13983.53
823.898	13972.23
824.225	14019.46
824.553	13929.75
824.88	14023.98
825.207	13979.46
825.535	13982.4
825.862	14092.68
826.189	14014.72
826.516	14028.95
826.843	14055.39
827.17	14102.4
827.497	14079.8
827.824	14058.78
828.151	14059.46
828.478	14066.47
828.805	14087.71
829.131	14062.4
829.458	14062.62
829.785	14018.56
830.111	14073.25
830.438	14096.3
830.764	14051.55
831.09	14190.76
831.417	13996.41
831.743	14096.75
832.069	13943.31
832.395	13975.85
832.722	13993.02
833.048	13962.97
833.374	14046.13
833.7	13926.81
834.026	13932.91
834.351	13987.82
834.677	13929.75
835.003	13858.34
835.329	13855.85
835.654	13897.21
835.98	13853.59
836.306	13847.04
836.631	13773.37
836.956	13812.46
837.282	13887.49
837.607	13754.84
837.932	13717.55
838.258	13805.23
838.583	13665.57
838.908	13587.38
839.233	13702.86
839.558	13650.88
839.883	13593.48
840.208	13494.5
840.533	13595.29
840.858	13575.41
841.182	13501.28
841.507	13565.24
841.832	13468.74
842.156	13498.8
842.481	13433.71
842.805	13390.33
843.13	13408.18
843.454	13348.52
843.778	13257.45
844.103	13222.65
844.427	13253.15
844.751	13248.41
845.075	13189.65
845.399	13139.94
845.723	13103.1
846.047	13106.04
846.371	13001.86
846.695	12999.15
847.019	12840.96
847.343	12864.69
847.666	12702.43
847.99	12697.01
848.313	12739.95
848.637	12675.09
848.96	12676.67
849.284	12551.7
849.607	12495.89
849.931	12519.16
850.254	12389.9
850.577	12298.15
850.9	12233.29
851.223	12227.19
851.546	12189.91
851.869	12074.2
852.192	12104.48
852.515	12002.11
852.838	12009.35
853.161	12057.93
853.483	11979.97
853.806	11911.95
854.129	11868.78
854.451	11775.68
854.774	11774.78
855.096	11654.1
855.419	11798.96
855.741	11697.04
856.063	11642.12
856.385	11612.97
856.708	11567.32
857.03	11514.44
857.352	11558.96
857.674	11501.34
857.996	11438.96
858.318	11403.94
858.64	11388.8
858.961	11361.45
859.283	11275.35
859.605	11304.28
859.926	11272.64
860.248	11249.82
860.57	11176.6
860.891	11220.21
861.212	11091.86
861.534	11117.39
861.855	11098.18
862.176	11113.32
862.498	11025.42
862.819	11121.46
863.14	11057.05
863.461	10932.31
863.782	10991.29
864.103	10982.03
864.424	10892.09
864.745	10907.68
865.065	10811.86
865.386	10820
865.707	10802.37
866.027	10785.42
866.348	10746.55
866.668	10786.1
866.989	10839.66
867.309	10667.46
867.63	10662.04
867.95	10714.69
868.27	10627.69
868.59	10663.62
868.91	10569.61
869.23	10681.02
869.55	10580.68
869.87	10679.66
870.19	10630.85
870.51	10652.32
870.83	10591.3
871.15	10518.99
871.469	10571.42
871.789	10603.51
872.109	10579.33
872.428	10408.48
872.748	10504.07
873.067	10470.4
873.386	10474.02
873.706	10448.03
874.025	10410.07
874.344	10388.37
874.663	10371.87
874.982	10382.27
875.301	10347.24
875.62	10300.46
875.939	10257.75
876.258	10279
876.577	10224.08
876.896	10268.83
877.214	10222.95
877.533	10201.03
877.852	10144.54
878.17	10197.87
878.489	10169.62
878.807	10196.29
879.125	10182.95
879.444	10084.88
879.762	10067.02
880.08	10095.5
880.398	9968.49
880.716	10072.45
881.034	9994.48
881.352	9958.78
881.67	9953.81
881.988	9937.08
882.306	9963.07
882.624	9887.14
882.941	9819.12
883.259	9871.77
883.577	9775.96
883.894	9803.75
884.212	9805.34
884.529	9853.7
884.846	9775.51
885.164	9734.15
885.481	9668.62
885.798	9687.6
886.115	9648.5
886.432	9607.15
886.75	9601.95
887.067	9618.9
887.383	9532.12
887.7	9543.65
888.017	9531.67
888.334	9523.99
888.651	9396.08
888.967	9425.23
889.284	9418.23
889.6	9390.66
889.917	9392.69
890.233	9363.77
890.55	9289.64
890.866	9344.33
891.182	9262.07
891.498	9227.27
891.815	9207.16
892.131	9177.33
892.447	9094.62
892.763	9150.21
893.079	9102.76
893.395	9022.53
893.71	8978.46
894.026	9015.53
894.342	8952.93
894.657	8933.49
894.973	8967.39
895.289	8891.01
895.604	8957.22
895.92	8816.21
896.235	8742.31
896.55	8787.96
896.865	8748.19
897.181	8688.75
897.496	8660.73
897.811	8653.73
898.126	8626.61
898.441	8606.72
898.756	8557.23
899.071	8443.79
899.386	8483.11
899.7	8415.54
900.015	8388.88
900.33	8337.13
900.644	8363.11
900.959	8436.33
901.273	8261.42
901.588	8267.07
901.902	8227.75
902.216	8192.27
902.531	8163.12
902.845	8172.16
903.159	8124.02
903.473	8061.43
903.787	8094.42
904.101	8026.63
904.415	7990.47
904.729	8007.42
905.042	7976.46
905.356	7867.99
905.67	7863.01
905.984	7865.27
906.297	7897.81
906.611	7740.98
906.924	7781.21
907.237	7705.5
907.551	7707.76
907.864	7696.92
908.177	7618.05
908.491	7639.29
908.804	7529.92
909.117	7479.52
909.43	7476.36
909.743	7442.46
910.056	7465.06
910.368	7472.29
910.681	7383.25
910.994	7298.06
911.307	7385.96
911.619	7295.34
911.932	7292.41
912.244	7231.39
912.557	7223.93
912.869	7187.1
913.181	7129.25
913.494	7076.37
913.806	7063.71
914.118	7053.09
914.43	7030.49
914.742	7058.06
915.054	6977.16
915.366	6914.34
915.678	6870.95
915.99	6870.95
916.302	6818.52
916.613	6797.28
916.925	6827.33
917.236	6819.2
917.548	6745.98
917.859	6783.27
918.171	6690.39
918.482	6580.34
918.794	6681.58
919.105	6645.19
919.416	6576.49
919.727	6606.78
920.038	6583.73
920.349	6548.25
920.66	6477.51
920.971	6471.86
921.282	6487.68
921.593	6384.63
921.903	6401.13
922.214	6331.98
922.525	6318.42
922.835	6309.38
923.146	6302.15
923.456	6242.04
923.767	6228.25
924.077	6206.11
924.387	6196.16
924.697	6157.75
925.008	6117.75
925.318	6095.83
925.628	6083.85
925.938	6051.76
926.248	6028.03
926.558	5990.97
926.867	5970.41
927.177	5995.94
927.487	5894.93
927.796	5904.65
928.106	5875.95
928.416	5836.4
928.725	5856.29
929.034	5767.7
929.344	5772.22
929.653	5775.16
929.962	5751.2
930.271	5749.4
930.581	5670.08
930.89	5691.77
931.199	5653.81
931.508	5613.36
931.817	5595.95
932.125	5579.91
932.434	5544.43
932.743	5536.97
933.051	5443.42
933.36	5449.07
933.669	5469.18
933.977	5419.46
934.286	5422.4
934.594	5463.08
934.902	5342.85
935.21	5327.49
935.519	5323.19
935.827	5299.47
936.135	5243.2
936.443	5230.77
936.751	5253.82
937.059	5223.53
937.367	5177.43
937.674	5239.81
937.982	5201.39
938.29	5113.71
938.597	5138.34
938.905	5025.57
939.213	5082.52
939.52	5048.17
939.827	5053.37
940.135	5003.65
940.442	4998.23
940.749	4996.87
941.056	5021.73
941.363	4918.01
941.67	4910.32
941.977	4853.6
942.284	4864.67
942.591	4834.62
942.898	4771.57
943.205	4791.46
943.511	4793.94
943.818	4772.02
944.125	4702.64
944.431	4731.12
944.738	4675.98
945.044	4680.5
945.35	4617.9
945.657	4629.88
945.963	4590.11
946.269	4576.77
946.575	4546.49
946.881	4539.71
947.187	4513.95
947.493	4509.66
947.799	4453.61
948.105	4518.47
948.41	4459.26
948.716	4428.75
949.022	4436.89
949.327	4394.18
949.633	4368.42
949.938	4350.56
950.244	4395.76
950.549	4355.54
950.854	4279.83
951.16	4264.69
951.465	4270.34
951.77	4242.54
952.075	4217.01
952.38	4225.37
952.685	4164.81
952.99	4161.19
953.294	4131.13
953.599	4127.52
953.904	4085.26
954.209	4074.64
954.513	4064.24
954.818	4061.31
955.122	4087.75
955.426	4005.71
955.731	4027.18
956.035	4007.97
956.339	4023.57
956.643	3992.15
956.948	3929.56
957.252	3934.53
957.556	3882.1
957.86	3854.76
958.163	3852.27
958.467	3830.58
958.771	3843.68
959.075	3796.23
959.378	3828.09
959.682	3799.39
959.985	3770.47
960.289	3768.21
960.592	3730.47
960.896	3709.68
961.199	3678.49
961.502	3723.24
961.805	3688.43
962.108	3662.9
962.411	3675.1
962.714	3674.65
963.017	3624.03
963.32	3647.98
963.623	3612.73
963.926	3588.1
964.228	3550.81
964.531	3564.37
964.833	3551.94
965.136	3475.56
965.438	3470.36
965.741	3479.17
966.043	3485.73
966.345	3415.45
966.648	3457.48
966.95	3468.1
967.252	3408.44
967.554	3417.48
967.856	3392.62
968.158	3339.52
968.46	3344.94
968.761	3327.09
969.063	3298.16
969.365	3332.96
969.666	3319.63
969.968	3266.75
970.269	3261.33
970.571	3274.21
970.872	3232.4
971.174	3227.43
971.475	3208.9
971.776	3208.67
972.077	3168.67
972.378	3190.37
972.679	3148.56
972.98	3137.71
973.281	3124.83
973.582	3119.41
973.883	3088
974.183	3089.35
974.484	3072.86
974.785	3069.02
975.085	3041.9
975.386	3051.16
975.686	3008.9
975.986	3016.14
976.287	2992.63
976.587	2927.1
976.887	2964.16
977.187	2988.11
977.487	2903.82
977.787	2915.57
978.087	2893.65
978.387	2910.38
978.687	2888
978.987	2878.51
979.286	2850.49
979.586	2840.77
979.885	2804.39
980.185	2833.54
980.484	2792.64
980.784	2800.1
981.083	2773.66
981.382	2811.17
981.682	2755.13
981.981	2725.3
982.28	2743.37
982.579	2698.18
982.878	2708.8
983.177	2689.59
983.475	2700.44
983.774	2680.55
984.073	2658.18
984.372	2673.09
984.67	2625.41
984.969	2639.65
985.267	2595.58
985.566	2580.44
985.864	2608.01
986.162	2576.37
986.461	2569.82
986.759	2573.21
987.057	2544.74
987.355	2495.92
987.653	2515.81
987.951	2516.04
988.249	2495.02
988.547	2473.1
988.844	2487.56
989.142	2454.12
989.44	2470.16
989.737	2431.52
990.035	2443.72
990.332	2417.28
990.63	2414.57
990.927	2414.57
991.224	2380.45
991.521	2391.29
991.819	2364.4
992.116	2368.02
992.413	2359.66
992.71	2302.48
993.006	2344.06
993.303	2322.14
993.6	2296.38
993.897	2290.73
994.193	2297.28
994.49	2284.4
994.787	2218.64
995.083	2260.9
995.379	2254.35
995.676	2239.66
995.972	2210.28
996.268	2186.1
996.565	2207.8
996.861	2163.05
997.157	2192.2
997.453	2151.98
997.749	2175.93
998.044	2133.45
998.34	2128.25
998.636	2105.88
998.932	2117.4
999.227	2082.15
999.523	2102.04
999.818	2056.39
1000.114	2010.51
1000.409	2025.65
1000.704	2064.52
1001	2019.1
1001.295	2011.42
1001.59	2003.28
1001.885	1998.76
1002.18	1969.38
1002.475	1989.04
1002.77	1946.56
1003.065	1950.4
1003.359	1941.81
1003.654	1937.29
1003.949	1931.87
1004.243	1874.02
1004.538	1870.18
1004.832	1902.49
1005.127	1881.93
1005.421	1890.29
1005.715	1875.15
1006.009	1857.75
1006.304	1834.02
1006.598	1812.1
1006.892	1813.68
1007.186	1805.55
1007.48	1805.55
1007.773	1787.24
1008.067	1768.71
1008.361	1772.55
1008.655	1744.98
1008.948	1745.66
1009.242	1722.16
1009.535	1734.14
1009.829	1719.45
1010.122	1718.99
1010.415	1715.15
1010.708	1695.27
1011.001	1680.58
1011.295	1659.11
1011.588	1652.56
1011.881	1636.74
1012.173	1655.72
1012.466	1633.12
1012.759	1626.79
1013.052	1632.67
1013.344	1595.16
1013.637	1582.73
1013.93	1608.26
1014.222	1591.54
1014.514	1564.42
1014.807	1540.24
1015.099	1522.39
1015.391	1531.2
1015.683	1531.43
1015.976	1506.8
1016.268	1536.63
1016.56	1536.63
1016.851	1496.4
1017.143	1457.76
1017.435	1473.35
1017.727	1461.6
1018.018	1453.69
1018.31	1462.5
1018.602	1455.95
1018.893	1406.01
1019.185	1422.73
1019.476	1415.05
1019.767	1397.87
1020.058	1386.8
1020.35	1395.61
1020.641	1392.9
1020.932	1376.4
1021.223	1352.45
1021.514	1365.33
1021.804	1342.96
1022.095	1328.04
1022.386	1338.44
1022.677	1307.48
1022.967	1293.69
1023.258	1309.74
1023.548	1253.92
1023.839	1279.01
1024.129	1294.37
1024.419	1285.79
1024.709	1239.68
1025	1237.2
1025.29	1257.09
1025.58	1210.76
1025.87	1209.63
1026.16	1227.93
1026.449	1198.78
1026.739	1201.27
1027.029	1198.56
1027.319	1162.4
1027.608	1175.73
1027.898	1160.59
1028.187	1140.25
1028.477	1161.49
1028.766	1157.2
1029.055	1144.55
1029.344	1135.73
1029.634	1117.43
1029.923	1118.78
1030.212	1097.09
1030.501	1105.9
1030.79	1095.28
1031.078	1072.91
1031.367	1068.62
1031.656	1084.89
1031.945	1039.92
1032.233	1067.94
1032.522	1041.05
1032.81	1046.92
1033.099	1043.31
1033.387	1025.91
1033.675	1039.69
1033.963	1031.1
1034.251	1007.37
1034.54	982.52
1034.828	1031.1
1035.116	992.23
1035.403	996.3
1035.691	998.34
1035.979	995.62
1036.267	961.27
1036.554	973.7
1036.842	973.25
1037.129	950.43
1037.417	949.75
1037.704	947.04
1037.992	935.51
1038.279	907.94
1038.566	907.26
1038.853	907.26
1039.14	907.26
