Data from hue_290_FLMS001491_00028.txt Node
Date: Tue Feb 07 15:52:32 GMT 2017
User: dcchb
Spectrometer: FLMS00149
Trigger mode: 0
Integration Time (sec): 2.000000E-2
Scans to average: 10
Electric dark correction enabled: true
Nonlinearity correction enabled: false
Boxcar width: 0
XAxis mode: Wavelengths
Number of Pixels in Spectrum: 2048
>>>>>Begin Spectral Data<<<<<
341.393	11.98
341.776	11.98
342.16	11.98
342.543	-73.67
342.927	-69.38
343.31	-60.34
343.693	-61.92
344.077	-79.09
344.46	-56.27
344.843	-56.5
345.226	-33.9
345.61	-31.41
345.993	-9.94
346.376	-19.21
346.759	0.23
347.142	43.39
347.525	44.29
347.908	61.02
348.291	66.44
348.674	96.95
349.057	96.27
349.44	141.92
349.823	127.91
350.206	179.66
350.588	197.28
350.971	200.22
351.354	200.22
351.737	237.51
352.119	264.17
352.502	248.58
352.884	267.34
353.267	287.22
353.65	286.32
354.032	290.84
354.414	309.37
354.797	315.47
355.179	314.79
355.562	324.74
355.944	333.1
356.326	327.22
356.709	336.04
357.091	314.57
357.473	347.79
357.855	327.45
358.238	330.39
358.62	325.42
359.002	328.58
359.384	307.11
359.766	341.69
360.148	317.51
360.53	348.01
360.912	344.17
361.294	319.31
361.676	321.12
362.057	344.4
362.439	325.64
362.821	319.31
363.203	336.71
363.584	337.39
363.966	320.67
364.348	315.7
364.729	329.03
365.111	323.83
365.493	316.15
365.874	323.16
366.256	338.75
366.637	308.47
367.019	319.09
367.4	315.02
367.781	339.43
368.163	293.55
368.544	320.9
368.925	281.57
369.306	348.01
369.688	325.19
370.069	324.96
370.45	323.16
370.831	281.8
371.212	297.17
371.593	320.67
371.974	319.31
372.355	310.27
372.736	318.64
373.117	320.9
373.498	326.09
373.879	331.52
374.26	310.73
374.641	299.43
375.021	294.91
375.402	316.6
375.783	315.47
376.163	327.67
376.544	310.5
376.925	321.12
377.305	306.21
377.686	333.1
378.066	327.67
378.447	342.36
378.827	340.56
379.208	325.19
379.588	330.39
379.968	307.34
380.349	337.84
380.729	332.42
381.109	358.41
381.489	335.81
381.87	322.93
382.25	346.66
382.63	343.04
383.01	356.37
383.39	369.03
383.77	362.25
384.15	347.11
384.53	331.29
384.91	321.8
385.29	353.44
385.67	326.32
386.049	337.39
386.429	347.11
386.809	340.1
387.189	329.93
387.568	348.01
387.948	357.5
388.328	364.74
388.707	374
389.087	357.5
389.466	349.14
389.846	366.54
390.225	372.65
390.605	384.85
390.984	375.81
391.363	380.78
391.743	372.87
392.122	374.68
392.501	395.02
392.881	392.76
393.26	383.72
393.639	382.59
394.018	369.03
394.397	391.4
394.776	386.2
395.155	408.12
395.534	407.67
395.913	376.71
396.292	388.69
396.671	404.28
397.05	403.15
397.429	383.49
397.808	406.32
398.186	405.41
398.565	404.51
398.944	398.41
399.323	418.07
399.701	408.35
400.08	428.46
400.458	408.12
400.837	422.59
401.215	446.77
401.594	423.72
401.972	419.88
402.351	428.01
402.729	442.7
403.107	438.18
403.486	438.41
403.864	439.08
404.242	439.08
404.62	456.71
404.999	470.95
405.377	452.42
405.755	461.46
406.133	475.92
406.511	451.74
406.889	480.89
407.267	480.44
407.645	489.7
408.023	486.77
408.401	484.06
408.779	484.73
409.156	520.21
409.534	509.37
409.912	508.01
410.29	515.01
410.667	506.65
411.045	532.64
411.422	573.54
411.8	527.22
412.178	550.27
412.555	549.82
412.933	561.34
413.31	574.9
413.687	560.89
414.065	596.14
414.442	608.12
414.819	591.62
415.197	622.58
415.574	627.1
415.951	607.22
416.328	619.87
416.705	650.15
417.082	647.44
417.46	623.49
417.837	649.7
418.214	658.06
418.591	666.65
418.967	673.65
419.344	682.02
419.721	697.38
420.098	682.92
420.475	722.01
420.852	713.2
421.228	734.44
421.605	728.57
421.982	721.79
422.358	742.81
422.735	761.56
423.111	781.22
423.488	790.04
423.864	777.61
424.241	806.76
424.617	807.89
424.994	824.16
425.37	830.49
425.746	840.43
426.123	845.4
426.499	847.44
426.875	860.99
427.251	869.36
427.627	875.23
428.003	896.02
428.379	915.68
428.756	912.97
429.132	942.12
429.507	947.09
429.883	961.33
430.259	966.98
430.635	955.91
431.011	969.69
431.387	990.71
431.763	1004.27
432.138	1014.66
432.514	982.12
432.89	1036.36
433.265	1044.27
433.641	1060.31
434.016	1065.51
434.392	1104.83
434.767	1102.8
435.143	1110.93
435.518	1098.95
435.894	1126.3
436.269	1127.65
436.644	1161.55
437.02	1185.96
437.395	1190.7
437.77	1189.57
438.145	1224.15
438.52	1235.45
438.895	1221.66
439.271	1256.92
439.646	1265.05
440.021	1291.49
440.395	1305.28
440.77	1298.72
441.145	1287.88
441.52	1303.47
441.895	1306.86
442.27	1345.95
442.645	1351.15
443.019	1330.36
443.394	1362.68
443.769	1355.67
444.143	1376.01
444.518	1378.27
444.892	1368.55
445.267	1371.94
445.641	1393.41
446.016	1394.54
446.39	1388.89
446.764	1415.78
447.139	1397.7
447.513	1427.76
447.887	1422.34
448.262	1432.73
448.636	1446.52
449.01	1481.54
449.384	1431.6
449.758	1458.27
450.132	1474.09
450.506	1463.46
450.88	1477.02
451.254	1487.64
451.628	1516.57
452.002	1538.26
452.376	1512.05
452.75	1525.84
453.123	1513.18
453.497	1559.96
453.871	1541.2
454.244	1601.77
454.618	1581.88
454.992	1605.38
455.365	1617.81
455.739	1634.99
456.112	1629.79
456.486	1662.78
456.859	1663.69
457.232	1691.03
457.606	1703.46
457.979	1730.35
458.352	1759.5
458.725	1751.37
459.099	1753.17
459.472	1783.68
459.845	1798.82
460.218	1816
460.591	1812.16
460.964	1807.41
461.337	1860.74
461.71	1877.24
462.083	1898.48
462.456	1884.47
462.829	1882.44
463.201	1907.07
463.574	1938.03
463.947	1943.45
464.32	1988.42
464.692	1944.36
465.065	1974.64
465.438	2012.15
465.81	2023.68
466.183	2036.1
466.555	2081.3
466.928	2091.47
467.3	2089.44
467.672	2093.96
468.045	2139.83
468.417	2180.51
468.789	2175.99
469.161	2179.6
469.534	2213.95
469.906	2258.25
470.278	2248.08
470.65	2277
471.022	2273.84
471.394	2322.88
471.766	2358.36
472.138	2346.38
472.51	2371.69
472.882	2407.39
473.253	2428.18
473.625	2468.18
473.997	2457.34
474.369	2515.41
474.74	2569.65
475.112	2535.3
475.484	2567.39
475.855	2629.76
476.227	2636.09
476.598	2709.53
476.97	2731.68
477.341	2740.94
477.713	2788.4
478.084	2780.72
478.455	2847.83
478.827	2851.45
479.198	2900.71
479.569	2929.19
479.94	3018.45
480.311	3033.59
480.682	3046.47
481.053	3088.28
481.424	3134.61
481.795	3161.5
482.166	3177.32
482.537	3206.02
482.908	3272.23
483.279	3326.47
483.65	3329.86
484.021	3374.15
484.391	3399.01
484.762	3410.53
485.133	3464.32
485.503	3469.06
485.874	3552.9
486.244	3561.49
486.615	3602.17
486.985	3631.54
487.356	3679
487.726	3719.45
488.097	3782.5
488.467	3756.96
488.837	3880.58
489.207	3836.28
489.578	3920.35
489.948	3925.32
490.318	3955.38
490.688	3985.66
491.058	4019.1
491.428	4061.14
491.798	4111.3
492.168	4186.1
492.538	4187.01
492.908	4215.48
493.278	4232.21
493.648	4262.26
494.017	4276.27
494.387	4284.86
494.757	4318.08
495.126	4388.81
495.496	4386.55
495.866	4441.01
496.235	4419.54
496.605	4455.93
496.974	4487.11
497.344	4491.41
497.713	4519.66
498.082	4516.27
498.452	4574.79
498.821	4596.94
499.19	4659.31
499.559	4620.67
499.928	4624.74
500.298	4674.23
500.667	4714.45
501.036	4727.11
501.405	4723.72
501.774	4738.41
502.143	4771.85
502.512	4795.35
502.88	4796.26
503.249	4841.23
503.618	4819.53
503.987	4850.72
504.356	4875.58
504.724	4924.62
505.093	4864.28
505.462	4948.8
505.83	4935.69
506.199	4917.84
506.567	5032.18
506.936	4986.76
507.304	5081.45
507.672	5062.92
508.041	5085.97
508.409	5090.26
508.777	5198.06
509.145	5151.05
509.514	5155.57
509.882	5190.15
510.25	5173.42
510.618	5234.21
510.986	5236.25
511.354	5239.64
511.722	5259.52
512.09	5344.04
512.458	5278.73
512.826	5349.46
513.193	5319.86
513.561	5333.42
513.929	5364.83
514.297	5411.84
514.664	5447.54
515.032	5384.94
515.4	5471.27
515.767	5481.66
516.135	5494.09
516.502	5425.39
516.869	5567.54
517.237	5543.58
517.604	5525.73
517.972	5557.37
518.339	5580.42
518.706	5605.05
519.073	5554.43
519.44	5612.96
519.808	5652.51
520.175	5678.49
520.542	5695.67
520.909	5715.78
521.276	5680.3
521.643	5789
522.009	5786.74
522.376	5782.45
522.743	5793.29
523.11	5827.19
523.477	5907.64
523.843	5946.96
524.21	5972.72
524.577	5972.72
524.943	5989.67
525.31	5979.96
525.676	6047.52
526.043	6038.71
526.409	6102.89
526.776	6140.86
527.142	6155.32
527.508	6167.75
527.874	6197.58
528.241	6233.06
528.607	6246.39
528.973	6276.22
529.339	6280.74
529.705	6379.49
530.071	6390.11
530.437	6377.01
530.803	6421.53
531.169	6438.7
531.535	6426.27
531.901	6450.23
532.267	6519.38
532.632	6524.8
532.998	6489.77
533.364	6541.97
533.73	6544.46
534.095	6629.88
534.461	6607.96
534.826	6689.99
535.192	6657.23
535.557	6703.55
535.923	6619.04
536.288	6720.05
536.653	6779.71
537.019	6750.78
537.384	6818.8
537.749	6807.05
538.114	6838.92
538.479	6806.37
538.845	6853.83
539.21	6798.92
539.575	6852.93
539.94	6870.78
540.305	6955.3
540.67	6926.15
541.034	7012.24
541.399	6980.38
541.764	6992.36
542.129	7081.17
542.494	7031.91
542.858	7040.49
543.223	7051.57
543.587	7089.53
543.952	7103.32
544.316	7144.9
544.681	7140.15
545.045	7114.39
545.41	7216.53
545.774	7207.04
546.138	7242.97
546.503	7232.35
546.867	7248.17
547.231	7269.87
547.595	7239.36
547.959	7309.64
548.324	7300.37
548.688	7299.92
549.052	7369.52
549.416	7393.25
549.779	7419.47
550.143	7401.84
550.507	7499.69
550.871	7448.39
551.235	7433.02
551.599	7443.42
551.962	7535.4
552.326	7536.07
552.689	7599.12
553.053	7517.09
553.417	7587.6
553.78	7665.56
554.143	7500.82
554.507	7643.41
554.87	7651.55
555.234	7711.89
555.597	7705.11
555.96	7714.83
556.323	7760.7
556.686	7704.88
557.05	7765.67
557.413	7806.8
557.776	7819.46
558.139	7838.89
558.502	7845.22
558.865	7827.36
559.228	7837.31
559.59	7848.83
559.953	7940.13
560.316	8008.6
560.679	7945.55
561.041	8017.87
561.404	8018.55
561.767	8111.65
562.129	8065.1
562.492	8116.85
562.854	8154.14
563.217	8095.38
563.579	8195.94
563.941	8190.75
564.304	8198.43
564.666	8300.8
565.028	8247.92
565.39	8283.4
565.753	8320.23
566.115	8370.63
566.477	8329.05
566.839	8440.91
567.201	8486.56
567.563	8465.09
567.925	8559.32
568.287	8503.51
568.648	8532.43
569.01	8631.86
569.372	8671.64
569.734	8613.11
570.095	8677.74
570.457	8768.58
570.819	8707.79
571.18	8726.78
571.542	8766.1
571.903	8828.47
572.265	8884.96
572.626	8887.22
572.987	8908.69
573.349	8923.38
573.71	8974.45
574.071	9091.29
574.432	9123.6
574.794	9176.03
575.155	9175.35
575.516	9161.12
575.877	9270.49
576.238	9225.97
576.599	9352.3
576.96	9405.4
577.32	9392.52
577.681	9529.69
578.042	9553.65
578.403	9554.55
578.763	9579.41
579.124	9648.11
579.485	9760.65
579.845	9851.72
580.206	9853.07
580.566	9930.81
580.927	10022.79
581.287	10086.29
581.648	10149.56
582.008	10288.32
582.368	10384.13
582.728	10472.72
583.089	10471.82
583.449	10551.81
583.809	10627.74
584.169	10790
584.529	10860.51
584.889	10994.97
585.249	11069.09
585.609	11145.47
585.969	11293.94
586.329	11374.16
586.688	11467.95
587.048	11596.76
587.408	11673.14
587.768	11823.87
588.127	11978.89
588.487	12042.62
588.846	12261.37
589.206	12304.99
589.565	12493.91
589.925	12605.32
590.284	12763.73
590.643	12806.67
591.003	13068.36
591.362	13165.53
591.721	13274.91
592.08	13424.05
592.44	13523.49
592.799	13633.09
593.158	13792.63
593.517	13946.75
593.876	14034.43
594.235	14256.12
594.593	14405.5
594.952	14535.44
595.311	14649.11
595.67	14703.79
596.029	14972.26
596.387	15070.34
596.746	15153.27
597.104	15294.06
597.463	15432.81
597.822	15508.97
598.18	15723.65
598.538	15723.65
598.897	15958.45
599.255	15971.78
599.613	16409.29
599.972	16398.89
600.33	16534.48
600.688	16530.64
601.046	16738.54
601.404	16950.97
601.762	16998.65
602.12	17162.94
602.478	17253.11
602.836	17347.34
603.194	17303.05
603.552	17480.9
603.91	17509.6
604.268	17758.86
604.625	17704.39
604.983	17879.08
605.341	17927.89
605.698	18025.51
606.056	18152.29
606.413	18174.89
606.771	18442
607.128	18521.77
607.485	18518.16
607.843	18559.06
608.2	18755.89
608.557	18841.99
608.914	18877.7
609.272	19110.91
609.629	19095.09
609.986	19298.25
610.343	19223
610.7	19472.03
611.057	19367.4
611.414	19518.36
611.771	19524.68
612.127	19756.32
612.484	19676.77
612.841	19843.55
613.198	19877.22
613.554	19933.04
613.911	20042.86
614.267	20014.39
614.624	20121.96
614.98	20242.63
615.337	20340.71
615.693	20389.29
616.05	20415.06
616.406	20549.97
616.762	20467.94
617.118	20641.72
617.475	20651.43
617.831	20728.04
618.187	20830.86
618.543	20832.67
618.899	20949.28
619.255	20864.99
619.611	20926
619.967	21034.93
620.323	21104.98
620.678	20999.67
621.034	21143.4
621.39	21089.39
621.746	21050.52
622.101	21321.93
622.457	21186.56
622.812	21264.3
623.168	21409.38
623.523	21351.75
623.879	21547.91
624.234	21301.81
624.589	21402.6
624.945	21500
625.3	21504.52
625.655	21524.86
626.01	21551.07
626.365	21610.96
626.72	21616.61
627.075	21612.54
627.43	21573.22
627.785	21581.81
628.14	21636.27
628.495	21671.97
628.85	21650.73
629.205	21641.92
629.559	21742.71
629.914	21591.07
630.269	21596.95
630.623	21571.18
630.978	21555.59
631.332	21547
631.687	21655.02
632.041	21552.2
632.396	21647.34
632.75	21585.2
633.104	21607.57
633.459	21546.1
633.813	21538.19
634.167	21580.9
634.521	21608.7
634.875	21605.08
635.229	21606.66
635.583	21422.04
635.937	21576.83
636.291	21475.14
636.645	21558.76
636.999	21576.83
637.352	21634.23
637.706	21403.05
638.06	21510.39
638.413	21434.01
638.767	21383.84
639.121	21515.82
639.474	21307.91
639.828	21329.16
640.181	21463.62
640.534	21441.7
640.888	21278.99
641.241	21318.08
641.594	21311.3
641.947	21334.81
642.301	21342.72
642.654	21204.19
643.007	21365.99
643.36	21220.91
643.713	21222.04
644.066	21286.45
644.419	21121.25
644.771	21055.49
645.124	20853.01
645.477	20851.43
645.83	20761.26
646.182	20650.53
646.535	20654.82
646.888	20716.97
647.24	20565.56
647.593	20645.11
647.945	20654.37
648.298	20582.74
648.65	20546.58
649.002	20519.46
649.355	20562.62
649.707	20627.71
650.059	20739.34
650.411	20986.79
650.763	20913.12
651.115	21227.01
651.467	21110.41
651.819	21094.81
652.171	21087.81
652.523	21081.93
652.875	21107.47
653.227	20986.79
653.578	21241.25
653.93	21147.24
654.282	21044.64
654.633	20945.66
654.985	21095.72
655.337	21113.57
655.688	21086.45
656.039	21170.74
656.391	21061.82
656.742	21020.92
657.094	21058.43
657.445	21143.4
657.796	21033.57
658.147	21089.16
658.498	21009.62
658.849	21102.04
659.2	21199.89
659.551	20923.52
659.902	21130.07
660.253	21012.55
660.604	21098.88
660.955	20997.87
661.306	21065.66
661.656	21051.42
662.007	21158.99
662.358	21182.04
662.708	21164.87
663.059	21156.05
663.409	21021.82
663.76	21207.35
664.11	21249.16
664.461	21157.64
664.811	21269.5
665.161	21157.41
665.511	21122.83
665.862	21074.02
666.212	21060.01
666.562	21230.63
666.912	21158.09
667.262	21129.39
667.612	21111.54
667.962	21175.04
668.312	21103.85
668.662	21262.72
669.011	21092.33
669.361	21161.7
669.711	21148.82
670.06	20956.29
670.41	20999.9
670.76	21085.55
671.109	21122.61
671.459	20949.28
671.808	21070.86
672.157	21107.69
672.507	20964.87
672.856	20932.1
673.205	20983.18
673.554	21079.67
673.904	20882.16
674.253	21025.44
674.602	20938.88
674.951	20687.37
675.3	20512
675.649	20892.11
675.998	20897.98
676.346	20914.7
676.695	20959.67
677.044	20721.94
677.393	20860.24
677.741	20912.67
678.09	20764.43
678.438	20772.11
678.787	20802.39
679.135	20843.97
679.484	20579.35
679.832	20707.03
680.181	20560.36
680.529	20588.61
680.877	20592.45
681.225	20567.37
681.573	20642.17
681.922	20523.75
682.27	20335.28
682.618	20488.73
682.966	20393.81
683.314	20409.86
683.661	20434.49
684.009	20248.28
684.357	20257.09
684.705	20206.02
685.053	20255.29
685.4	20184.55
685.748	20006.48
686.095	20029.08
686.443	19982.53
686.79	19925.58
687.138	20070.88
687.485	19905.24
687.832	19847.16
688.18	19904.56
688.527	19789.31
688.874	19787.5
689.221	19720.16
689.568	19750.22
689.915	19637.45
690.262	19544.8
690.609	19550.22
690.956	19464.12
691.303	19462.77
691.65	19303.67
691.997	19338.02
692.344	19224.81
692.69	19175.99
693.037	19201.3
693.383	18948.2
693.73	19040.86
694.077	18865.72
694.423	19024.81
694.769	18785.49
695.116	18834.08
695.462	18766.51
695.808	18680.86
696.155	18694.65
696.501	18556.57
696.847	18531.26
697.193	18380.08
697.539	18448.55
697.885	18262.8
698.231	18296.02
698.577	18167.66
698.923	18081.78
699.269	17999.53
699.614	17981.67
699.96	17911.39
700.306	17814.22
700.651	17821
700.997	17761.57
701.342	17822.58
701.688	17624.85
702.033	17717.05
702.379	17630.5
702.724	17545.08
703.069	17534.91
703.415	17410.62
703.76	17356.83
704.105	17410.16
704.45	17296.95
704.795	17209.27
705.14	17047.01
705.485	17108.93
705.83	17011.3
706.175	17049.04
706.52	16993.45
706.865	16842.27
707.209	16906.67
707.554	16773.57
707.899	16890.18
708.243	16779.67
708.588	16667.58
708.932	16726.34
709.277	16505.1
709.621	16611.99
709.966	16441.83
710.31	16446.57
710.654	16305.79
710.998	16320.47
711.342	16378.33
711.687	16313.47
712.031	16222.85
712.375	16048.39
712.719	16207.94
713.063	16130.42
713.407	16195.51
713.75	16096.75
714.094	16063.31
714.438	16037.32
714.782	16007.94
715.125	15906.02
715.469	15974.95
715.812	15874.61
716.156	15778.12
716.499	15822.86
716.843	15768.17
717.186	15758.91
717.53	15915.06
717.873	15805.69
718.216	15734.28
718.559	15740.15
718.902	15660.38
719.246	15595.75
719.589	15670.32
719.932	15541.96
720.275	15644.79
720.617	15561.62
720.96	15508.74
721.303	15589.42
721.646	15521.85
721.989	15413.15
722.331	15427.39
722.674	15452.02
723.016	15482.76
723.359	15409.99
723.701	15419.03
724.044	15396.66
724.386	15262.42
724.729	15409.31
725.071	15276.21
725.413	15320.05
725.755	15270.56
726.097	15201.63
726.439	15125.93
726.782	15128.64
727.124	15158.02
727.465	15082.77
727.807	15136.78
728.149	15049.55
728.491	15031.92
728.833	15059.04
729.175	15052.94
729.516	15080.73
729.858	15072.15
730.199	14995.31
730.541	15049.32
730.882	15010.68
731.224	15124.8
731.565	15095.2
731.906	15026.95
732.248	15031.02
732.589	14956.44
732.93	14958.7
733.271	14918.7
733.612	15003.22
733.953	14970.91
734.294	14930.45
734.635	14904.92
734.976	14887.29
735.317	14843.23
735.658	14952.15
735.999	14950.12
736.339	14954.86
736.68	14932.94
737.021	14897.01
737.361	14814.75
737.702	14998.02
738.042	14891.81
738.383	14950.79
738.723	14940.17
739.063	14888.65
739.404	14966.61
739.744	14895.43
740.084	14887.52
740.424	14986.5
740.764	15018.36
741.104	14990.34
741.444	14977.01
741.784	14908.76
742.124	14935.65
742.464	14951.25
742.804	15019.94
743.143	14983.56
743.483	14993.28
743.823	14929.1
744.162	15044.58
744.502	15067.63
744.841	15007.29
745.181	15164.12
745.52	15124.12
745.86	15149.66
746.199	15091.35
746.538	15212.93
746.877	15340.39
747.216	15392.82
747.556	15322.99
747.895	15354.85
748.234	15375.64
748.573	15529.54
748.911	15541.06
749.25	15675.52
749.589	15613.83
749.928	15692.92
750.267	15862.86
750.605	15819.02
750.944	15912.12
751.283	15899.02
751.621	16067.6
751.96	16093.14
752.298	16204.55
752.636	16372.9
752.975	16384.43
753.313	16345.11
753.651	16524.99
753.989	16591.65
754.327	16694.48
754.666	16801.59
755.004	16962.72
755.342	17027.12
755.679	17097.18
756.017	17122.49
756.355	17340.79
756.693	17355.02
757.031	17463.04
757.368	17488.13
757.706	17659.2
758.044	17721.79
758.381	17909.36
758.719	17903.48
759.056	18030.94
759.394	18171.73
759.731	18167.88
760.068	18359.74
760.405	18408.1
760.743	18468.89
761.08	18684.71
761.417	18651.71
761.754	18859.39
762.091	18977.35
762.428	18947.07
762.765	19007.64
763.102	19201.53
763.438	19185.03
763.775	19209.66
764.112	19425.48
764.449	19573.27
764.785	19553.16
765.122	19527.4
765.458	19661.4
765.795	19764.68
766.131	19870.21
766.467	19868.18
766.804	19922.64
767.14	19878.57
767.476	20028.4
767.812	20095.97
768.148	20124.89
768.485	20081.05
768.821	20067.95
769.157	20211.67
769.492	20247.15
769.828	20258.45
770.164	20177.77
770.5	20100.94
770.836	20220.49
771.171	20265
771.507	20280.14
771.842	20305.68
772.178	20350.43
772.513	20293.7
772.849	20295.29
773.184	20261.39
773.519	20309.52
773.855	20278.34
774.19	20187.94
774.525	20182.52
774.86	20255.29
775.195	20248.06
775.53	20197.66
775.865	20120.6
776.2	20020.04
776.535	19988.4
776.87	20064.56
777.205	20013.49
777.539	19908.86
777.874	19992.69
778.209	19855.07
778.543	19904.79
778.878	19826.82
779.212	19905.47
779.547	19740.27
779.881	19865.92
780.215	19757.9
780.55	19797.67
780.884	19668.41
781.218	19693.04
781.552	19656.88
781.886	19566.27
782.22	19508.87
782.554	19483.1
782.888	19219.38
783.222	19356.55
783.556	19240.62
783.889	19244.92
784.223	19222.77
784.557	19097.8
784.89	19157.69
785.224	19112.94
785.557	18989.33
785.891	19023.91
786.224	18957.92
786.558	18888.99
786.891	18844.02
787.224	18734.42
787.557	18652.62
787.891	18737.81
788.224	18694.42
788.557	18665.72
788.89	18569.46
789.223	18586.4
789.556	18453.75
789.888	18385.05
790.221	18361.1
790.554	18208.56
790.887	18275.68
791.219	18234.1
791.552	18100.54
791.884	18080.2
792.217	18035.91
792.549	18031.39
792.882	17856.03
793.214	17801.34
793.546	17932.86
793.879	17696.48
794.211	17701.91
794.543	17666.43
794.875	17654.9
795.207	17649.03
795.539	17599.54
795.871	17510.27
796.203	17414.68
796.535	17323.61
796.867	17258.53
797.198	17287.46
797.53	17312.99
797.862	17192.32
798.193	17117.97
798.525	17043.39
798.856	17035.26
799.188	16928.37
799.519	16857.41
799.85	16860.35
800.182	16863.96
800.513	16751.42
800.844	16601.82
801.175	16848.14
801.506	16683.63
801.837	16590.75
802.168	16498.78
802.499	16427.82
802.83	16397.08
803.161	16410.64
803.491	16365.67
803.822	16397.31
804.153	16286.35
804.483	16101.27
804.814	16122.97
805.145	16113.93
805.475	16143.53
805.805	16085.45
806.136	16054.72
806.466	16004.1
806.796	16009.07
807.126	15819.02
807.457	15851.79
807.787	15825.57
808.117	15715.07
808.447	15687.95
808.777	15666.71
809.107	15614.96
809.436	15607.05
809.766	15574.96
810.096	15555.75
810.426	15451.57
810.755	15464.45
811.085	15427.84
811.414	15338.13
811.744	15276.21
812.073	15316.89
812.403	15288.64
812.732	15202.76
813.061	15180.84
813.39	15094.07
813.719	15121.41
814.049	15054.29
814.378	15017.46
814.707	14943.56
815.036	14984.69
815.365	14922.32
815.693	14752.61
816.022	14746.73
816.351	14773.4
816.68	14680.07
817.008	14734.75
817.337	14641.2
817.665	14580.63
817.994	14683
818.322	14690.01
818.651	14547.19
818.979	14472.39
819.307	14576.34
819.636	14568.66
819.964	14487.75
820.292	14483.91
820.62	14475.55
820.948	14438.26
821.276	14408.43
821.604	14498.6
821.932	14429.9
822.259	14440.52
822.587	14364.37
822.915	14352.62
823.243	14362.11
823.57	14328.21
823.898	14336.35
824.225	14319.17
824.553	14294.77
824.88	14294.99
825.207	14328.21
825.535	14292.28
825.862	14392.16
826.189	14249.34
826.516	14278.49
826.843	14335.89
827.17	14336.57
827.497	14332.73
827.824	14351.49
828.151	14376.57
828.478	14281.88
828.805	14386.29
829.131	14258.61
829.458	14263.81
829.785	14205.5
830.111	14233.52
830.438	14314.2
830.764	14268.78
831.09	14233.52
831.417	14225.39
831.743	14248.89
832.069	14252.73
832.395	14159.4
832.722	14291.15
833.048	14177.48
833.374	14244.15
833.7	14130.7
834.026	14126.18
834.351	14213.64
834.677	14135.45
835.003	14179.51
835.329	14160.53
835.654	14146.07
835.98	14012.96
836.306	14132.28
836.631	14077.14
836.956	14113.3
837.282	14035.79
837.607	13981.1
837.932	13998.05
838.258	13975.45
838.583	14028.11
838.908	13856.13
839.233	13890.26
839.558	13862.91
839.883	13835.57
840.208	13872.18
840.533	13820.65
840.858	13735.91
841.182	13829.24
841.507	13774.55
841.832	13719.41
842.156	13678.51
842.481	13628.12
842.805	13611.39
843.13	13560.77
843.454	13568
843.778	13503.37
844.103	13508.57
844.427	13449.59
844.751	13532.75
845.075	13378.41
845.399	13285.98
845.723	13294.34
846.047	13255.02
846.371	13145.42
846.695	13150.84
847.019	13008.47
847.343	12974.8
847.666	12922.15
847.99	12856.16
848.313	12902.49
848.637	12726.67
848.96	12803.73
849.284	12719.67
849.607	12690.51
849.931	12614.13
850.254	12466.11
850.577	12523.74
850.9	12406.23
851.223	12450.29
851.546	12289.62
851.869	12313.57
852.192	12312.22
852.515	12186.57
852.838	12170.53
853.161	12119.23
853.483	12024.77
853.806	12072.45
854.129	11970.31
854.451	11997.42
854.774	11921.27
855.096	11909.07
855.419	11800.14
855.741	11873.59
856.063	11745.91
856.385	11715.85
856.708	11708.84
857.03	11622.29
857.352	11615.74
857.674	11627.04
857.996	11542.52
858.318	11441.28
858.64	11482.86
858.961	11389.76
859.283	11407.61
859.605	11303.88
859.926	11422.52
860.248	11367.61
860.57	11218.01
860.891	11293.04
861.212	11221.85
861.534	11210.55
861.855	11195.64
862.176	11183.43
862.498	11219.59
862.819	11211.46
863.14	11083.32
863.461	11108.41
863.782	11044.68
864.103	11095.3
864.424	10987.73
864.745	11034.06
865.065	10908.19
865.386	10913.84
865.707	10912.03
866.027	10959.03
866.348	10887.85
866.668	10934.18
866.989	10937.11
867.309	10816.44
867.63	10841.52
867.95	10820.96
868.27	10716.1
868.59	10754.07
868.91	10740.51
869.23	10743.9
869.55	10677.91
869.87	10723.11
870.19	10716.1
870.51	10722.2
870.83	10704.13
871.15	10575.99
871.469	10578.03
871.789	10617.12
872.109	10605.14
872.428	10505.03
872.748	10592.04
873.067	10542.1
873.386	10539.84
873.706	10490.35
874.025	10459.39
874.344	10448.76
874.663	10433.85
874.982	10367.86
875.301	10440.18
875.62	10390.69
875.939	10375.55
876.258	10381.2
876.577	10276.34
876.896	10269.11
877.214	10299.84
877.533	10318.6
877.852	10295.1
878.17	10302.33
878.489	10333.97
878.807	10166.96
879.125	10195.89
879.444	10240.18
879.762	10152.5
880.08	10182.78
880.398	10082.67
880.716	10084.93
881.034	10100.3
881.352	10077.48
881.67	10032.05
881.988	10052.62
882.306	10050.58
882.624	9936.46
882.941	9958.38
883.259	9926.07
883.577	9903.24
883.894	9881.77
884.212	9852.62
884.529	9901.21
884.846	9846.52
885.164	9761.55
885.481	9753.19
885.798	9774.66
886.115	9711.38
886.432	9673.42
886.75	9692.63
887.067	9699.86
887.383	9586.64
887.7	9637.26
888.017	9614.66
888.334	9556.81
888.651	9554.33
888.967	9546.42
889.284	9506.64
889.6	9429.81
889.917	9371.96
890.233	9467.32
890.55	9324.05
890.866	9342.58
891.182	9377.38
891.498	9320.88
891.815	9336.48
892.131	9180.32
892.447	9271.62
892.763	9199.98
893.079	9120.89
893.395	9142.81
893.71	9146.43
894.026	9099.87
894.342	9096.94
894.657	8957.05
894.973	9033.43
895.289	9004.73
895.604	8983.27
895.92	8841.12
896.235	8822.59
896.55	8908.69
896.865	8887.22
897.181	8821.69
897.496	8849.26
897.811	8842.48
898.126	8720
898.441	8681.58
898.756	8620.34
899.071	8659.43
899.386	8633.67
899.7	8589.83
900.015	8543.05
900.33	8419.89
900.644	8437.29
900.959	8430.51
901.273	8412.43
901.588	8408.14
901.902	8352.1
902.216	8341.7
902.531	8254.47
902.845	8257.86
903.159	8198.88
903.473	8195.72
903.787	8152.33
904.101	8089.05
904.415	8074.36
904.729	8042.95
905.042	7979.68
905.356	7962.05
905.67	7970.86
905.984	7996.85
906.297	7911.88
906.611	7878.21
906.924	7906.68
907.237	7838.66
907.551	7739.46
907.864	7783.07
908.177	7713.24
908.491	7728.16
908.804	7656.3
909.117	7602.06
909.43	7624.43
909.743	7608.84
910.056	7518.22
910.368	7505.11
910.681	7468.73
910.994	7498.33
911.307	7301.5
911.619	7412.46
911.932	7387.15
912.244	7288.85
912.557	7337.21
912.869	7263.31
913.181	7247.49
913.494	7233.48
913.806	7135.18
914.118	7119.59
914.43	7143.99
914.742	7044.79
915.054	7048.85
915.366	7033.26
915.678	7004.56
915.99	6967.73
916.302	6912.81
916.613	6932.47
916.925	6931.8
917.236	6873.27
917.548	6833.49
917.859	6850.67
918.171	6724.79
918.482	6775.42
918.794	6683.44
919.105	6695.19
919.416	6672.37
919.727	6650.45
920.038	6607.28
920.349	6580.17
920.66	6519.6
920.971	6534.29
921.282	6468.3
921.593	6412.26
921.903	6467.63
922.214	6424.46
922.525	6417.23
922.835	6334.3
923.146	6337.91
923.456	6322.09
923.767	6271.47
924.077	6279.16
924.387	6243.68
924.697	6169.33
925.008	6154.87
925.318	6141.31
925.628	6139.27
925.938	6083.91
926.248	6084.13
926.558	6057.92
926.867	6046.85
927.177	5964.81
927.487	5972.27
927.796	5889.11
928.106	5963.68
928.416	5914.87
928.725	5890.01
929.034	5870.35
929.344	5861.31
929.653	5788.55
929.962	5751.71
930.271	5825.38
930.581	5720.3
930.89	5724.37
931.199	5692.51
931.508	5697.25
931.817	5638.04
932.125	5537.03
932.434	5650.02
932.743	5539.52
933.051	5517.6
933.36	5468.56
933.669	5470.36
933.977	5471.72
934.286	5445.28
934.594	5434.21
934.902	5421.33
935.21	5357.83
935.519	5405.73
935.827	5352.18
936.135	5324.61
936.443	5293.87
936.751	5233.76
937.059	5247.77
937.367	5250.71
937.674	5179.98
937.982	5218.17
938.29	5186.98
938.597	5094.33
938.905	5080.77
939.213	5116.25
939.52	4999.87
939.827	5075.35
940.135	4999.19
940.442	4993.54
940.749	5015.46
941.056	4987.44
941.363	4973.2
941.67	4920.1
941.977	4912.87
942.284	4850.27
942.591	4798.29
942.898	4798.97
943.205	4836.48
943.511	4770.72
943.818	4768.01
944.125	4750.16
944.431	4717.39
944.738	4741.57
945.044	4669.03
945.35	4632.65
945.657	4653.66
945.963	4619.54
946.269	4608.92
946.575	4578.18
946.881	4551.97
947.187	4581.35
947.493	4517.4
947.799	4434.91
948.105	4498.19
948.41	4432.2
948.716	4475.14
949.022	4401.47
949.327	4395.36
949.633	4366.21
949.938	4382.71
950.244	4382.03
950.549	4308.14
950.854	4337.29
951.16	4299.32
951.465	4253
951.77	4238.53
952.075	4227.23
952.38	4232.21
952.685	4220
952.99	4133.68
953.294	4123.96
953.599	4163.05
953.904	4091.42
954.209	4151.3
954.513	4089.16
954.818	4057.97
955.122	4085.32
955.426	4032.66
955.731	4013.68
956.035	3997.64
956.339	3983.4
956.643	4008.03
956.948	3917.19
957.252	3956.51
957.556	3929.84
957.86	3876.73
958.163	3900.69
958.467	3890.97
958.771	3914.02
959.075	3829.73
959.378	3824.31
959.682	3775.04
959.985	3759.9
960.289	3761.93
960.592	3753.12
960.896	3741.37
961.199	3722.39
961.502	3691.43
961.805	3691.88
962.108	3623.18
962.411	3671.99
962.714	3670.19
963.017	3652.56
963.32	3647.81
963.623	3606.46
963.926	3566.91
964.228	3586.57
964.531	3579.57
964.833	3538.89
965.136	3508.83
965.438	3511.77
965.741	3492.11
966.043	3470.64
966.345	3490.53
966.648	3492.79
966.95	3440.59
967.252	3354.04
967.554	3352.91
967.856	3376.63
968.158	3339.12
968.46	3339.12
968.761	3343.64
969.063	3323.98
969.365	3297.77
969.666	3320.82
969.968	3276.3
970.269	3232.23
970.571	3239.69
970.872	3234.72
971.174	3213.02
971.475	3208.28
971.776	3212.8
972.077	3154.04
972.378	3208.5
972.679	3195.4
972.98	3153.14
973.281	3093.7
973.582	3118.11
973.883	3129.64
974.183	3043.54
974.484	3072.01
974.785	3031.11
975.085	3049.86
975.386	3017.1
975.686	3034.5
975.986	3016.87
976.287	2972.13
976.587	3014.61
976.887	2958.34
977.187	2921.05
977.487	2962.86
977.787	2912.47
978.087	2917.44
978.387	2904.33
978.687	2891.22
978.987	2867.72
979.286	2834.28
979.586	2846.25
979.885	2845.35
980.185	2801.51
980.484	2813.26
980.784	2800.15
981.083	2755.86
981.382	2776.65
981.682	2743.66
981.981	2746.14
982.28	2720.83
982.579	2709.31
982.878	2717.22
983.177	2659.14
983.475	2709.08
983.774	2682.64
984.073	2637.22
984.372	2642.64
984.67	2627.5
984.969	2626.82
985.267	2641.96
985.566	2593.15
985.864	2601.29
986.162	2579.37
986.461	2530.55
986.759	2540.95
987.057	2494.62
987.355	2530.78
987.653	2520.39
987.951	2490.1
988.249	2470.22
988.547	2481.74
988.844	2481.29
989.142	2438.13
989.44	2420.5
989.737	2480.39
990.035	2438.35
990.332	2407.62
990.63	2400.39
990.927	2416.43
991.224	2381.63
991.521	2378.92
991.819	2378.69
992.116	2375.76
992.413	2334.4
992.71	2338.92
993.006	2343.44
993.303	2298.24
993.6	2306.83
993.897	2305.93
994.193	2327.17
994.49	2271.8
994.787	2220.28
995.083	2274.74
995.379	2244.01
995.676	2210.34
995.972	2186.16
996.268	2229.77
996.565	2179.38
996.861	2195.65
997.157	2159.27
997.453	2150.9
997.749	2126.95
998.044	2133.73
998.34	2128.76
998.636	2099.15
998.932	2096.67
999.227	2086.05
999.523	2066.84
999.818	2063.9
1000.114	2051.25
1000.409	2034.52
1000.704	2037.23
1001	2055.09
1001.295	1987.74
1001.59	2001.08
1001.885	2002.66
1002.18	1989.78
1002.475	1977.58
1002.77	1981.87
1003.065	1941.64
1003.359	1940.97
1003.654	1924.7
1003.949	1899.39
1004.243	1936.9
1004.538	1873.85
1004.832	1897.13
1005.127	1900.06
1005.421	1873.62
1005.715	1841.76
1006.009	1862.1
1006.304	1834.53
1006.598	1823
1006.892	1829.1
1007.186	1808.99
1007.48	1802.44
1007.773	1799.27
1008.067	1778.71
1008.361	1755.21
1008.655	1751.37
1008.948	1738.94
1009.242	1743.01
1009.535	1741.88
1009.829	1728.99
1010.122	1724.7
1010.415	1705.27
1010.708	1671.14
1011.001	1672.27
1011.295	1710.92
1011.588	1668.2
1011.881	1662.33
1012.173	1633.4
1012.466	1636.34
1012.759	1627.98
1013.052	1608.55
1013.344	1609.68
1013.637	1605.38
1013.93	1590.01
1014.222	1595.66
1014.514	1573.97
1014.807	1528.55
1015.099	1544.59
1015.391	1524.25
1015.683	1522.45
1015.976	1497.59
1016.268	1525.61
1016.56	1524.93
1016.851	1505.72
1017.143	1469.57
1017.435	1450.58
1017.727	1446.74
1018.018	1437.25
1018.31	1436.57
1018.602	1430.92
1018.893	1436.8
1019.185	1428.89
1019.476	1434.76
1019.767	1377.82
1020.058	1389.12
1020.35	1383.69
1020.641	1367.87
1020.932	1372.62
1021.223	1335.33
1021.514	1330.36
1021.804	1336.69
1022.095	1333.75
1022.386	1333.52
1022.677	1305.5
1022.967	1295.33
1023.258	1306.86
1023.548	1289.68
1023.839	1285.39
1024.129	1270.48
1024.419	1268.22
1024.709	1253.07
1025	1263.02
1025.29	1248.1
1025.58	1229.57
1025.87	1217.14
1026.16	1216.69
1026.449	1218.73
1026.739	1192.06
1027.029	1201.55
1027.319	1166.52
1027.608	1174.43
1027.898	1168.56
1028.187	1149.8
1028.477	1141.21
1028.766	1116.58
1029.055	1163.59
1029.344	1124.26
1029.634	1086.75
1029.923	1135.11
1030.212	1120.65
1030.501	1121.78
1030.79	1113.19
1031.078	1092.85
1031.367	1076.58
1031.656	1042.68
1031.945	1074.55
1032.233	1051.72
1032.522	1054.89
1032.81	1069.58
1033.099	1039.97
1033.387	1037.71
1033.675	1031.39
1033.963	1041.55
1034.251	1020.76
1034.54	1014.89
1034.828	1008.79
1035.116	999.07
1035.403	1003.82
1035.691	1000.65
1035.979	979.64
1036.267	962.46
1036.554	960.2
1036.842	961.78
1037.129	956.36
1037.417	954.55
1037.704	946.64
1037.992	934.44
1038.279	917.04
1038.566	923.59
1038.853	923.59
1039.14	923.59
