Data from hue_230_FLMS001491_00030.txt Node
Date: Tue Feb 07 16:37:01 GMT 2017
User: dcchb
Spectrometer: FLMS00149
Trigger mode: 0
Integration Time (sec): 2.000000E-2
Scans to average: 10
Electric dark correction enabled: true
Nonlinearity correction enabled: false
Boxcar width: 0
XAxis mode: Wavelengths
Number of Pixels in Spectrum: 2048
>>>>>Begin Spectral Data<<<<<
341.393	-21.02
341.776	-21.02
342.16	-21.02
342.543	-72.77
342.927	-64.41
343.31	-66.89
343.693	-70.96
344.077	-60.79
344.46	-64.41
344.843	-34.58
345.226	-52.43
345.61	-5.65
345.993	-32.54
346.376	-3.39
346.759	28.02
347.142	5.2
347.525	37.29
347.908	54.69
348.291	49.26
348.674	97.4
349.057	119.77
349.44	127.23
349.823	147.79
350.206	145.98
350.588	181.92
350.971	228.24
351.354	235.47
351.737	212.65
352.119	253.33
352.502	246.55
352.884	261.69
353.267	270.28
353.65	272.99
354.032	300.78
354.414	296.04
354.797	294.68
355.179	287
355.562	308.69
355.944	313.89
356.326	307.11
356.709	329.03
357.091	344.17
357.473	352.31
357.855	317.73
358.238	327.22
358.62	328.8
359.002	327.45
359.384	335.58
359.766	340.1
360.148	317.05
360.53	331.74
360.912	347.11
361.294	333.55
361.676	340.78
362.057	323.16
362.439	324.51
362.821	312.08
363.203	337.39
363.584	306.88
363.966	325.64
364.348	307.79
364.729	310.5
365.111	312.99
365.493	292.2
365.874	323.38
366.256	299.43
366.637	304.17
367.019	302.14
367.4	307.79
367.781	301.91
368.163	309.82
368.544	312.08
368.925	306.43
369.306	308.24
369.688	297.39
370.069	294.46
370.45	326.55
370.831	297.62
371.212	310.05
371.593	304.62
371.974	303.49
372.355	309.82
372.736	305.98
373.117	327
373.498	294.91
373.879	320.9
374.26	306.88
374.641	312.99
375.021	325.42
375.402	296.26
375.783	321.35
376.163	316.15
376.544	303.04
376.925	324.51
377.305	319.31
377.686	320.44
378.066	313.21
378.447	315.47
378.827	339.88
379.208	340.78
379.588	321.35
379.968	314.57
380.349	314.34
380.729	321.8
381.109	330.16
381.489	325.19
381.87	329.26
382.25	327.9
382.63	335.36
383.01	338.3
383.39	325.64
383.77	334.91
384.15	331.29
384.53	351.18
384.91	332.87
385.29	347.79
385.67	340.56
386.049	314.57
386.429	334.68
386.809	371.52
387.189	347.34
387.568	359.54
387.948	349.6
388.328	351.4
388.707	341.23
389.087	351.86
389.466	365.64
389.846	334.23
390.225	354.79
390.605	339.65
390.984	354.34
391.363	351.86
391.743	350.5
392.122	374.45
392.501	369.26
392.881	357.96
393.26	378.3
393.639	367.45
394.018	376.04
394.397	372.87
394.776	394.34
395.155	385.98
395.534	367.9
395.913	383.94
396.292	390.05
396.671	370.84
397.05	378.75
397.429	373.55
397.808	399.09
398.186	399.09
398.565	389.14
398.944	387.79
399.323	406.77
399.701	395.02
400.08	417.39
400.458	401.35
400.837	429.82
401.215	420.78
401.594	428.01
401.972	411.97
402.351	421.91
402.729	424.62
403.107	443.38
403.486	430.95
403.864	399.31
404.242	423.27
404.62	414.68
404.999	432.98
405.377	432.98
405.755	428.46
406.133	441.57
406.511	452.19
406.889	450.61
407.267	448.58
407.645	447.22
408.023	464.85
408.401	452.42
408.779	463.04
409.156	478.86
409.534	493.55
409.912	470.72
410.29	503.49
410.667	497.61
411.045	509.37
411.422	529.25
411.8	530.83
412.178	522.7
412.555	530.16
412.933	530.38
413.31	534.68
413.687	540.55
414.065	552.3
414.442	555.24
414.819	555.01
415.197	562.92
415.574	583.04
415.951	572.87
416.328	614.22
416.705	600.21
417.082	575.58
417.46	621.23
417.837	623.03
418.214	596.82
418.591	616.03
418.967	605.41
419.344	632.75
419.721	640.66
420.098	656.25
420.475	657.16
420.852	664.62
421.228	681.79
421.605	674.33
421.982	741
422.358	723.6
422.735	713.2
423.111	720.66
423.488	708.68
423.864	733.54
424.241	788.23
424.617	778.74
424.994	773.54
425.37	771.28
425.746	771.05
426.123	810.83
426.499	824.61
426.875	826.19
427.251	818.74
427.627	834.33
428.003	888.11
428.379	851.05
428.756	877.04
429.132	881.56
429.507	891.28
429.883	893.76
430.259	920.43
430.635	893.54
431.011	918.17
431.387	934.89
431.763	966.08
432.138	948
432.514	977.15
432.89	980.09
433.265	984.38
433.641	1031.84
434.016	1016.7
434.392	1067.54
434.767	1068.67
435.143	1088.11
435.518	1068.45
435.894	1101.44
436.269	1117.94
436.644	1141.66
437.02	1154.32
437.395	1161.1
437.77	1174.43
438.145	1190.7
438.52	1226.41
438.895	1232.74
439.271	1231.83
439.646	1276.58
440.021	1293.53
440.395	1296.46
440.77	1312.06
441.145	1291.04
441.52	1363.13
441.895	1357.03
442.27	1390.02
442.645	1369.68
443.019	1401.55
443.394	1427.53
443.769	1427.08
444.143	1398.38
444.518	1463.24
444.892	1425.27
445.267	1447.87
445.641	1458.94
446.016	1459.4
446.39	1477.02
446.764	1515.44
447.139	1469.11
447.513	1501.2
447.887	1521.99
448.262	1525.84
448.636	1506.18
449.01	1570.13
449.384	1612.61
449.758	1572.84
450.132	1615.32
450.506	1587.53
450.88	1594.99
451.254	1601.31
451.628	1630.47
452.002	1671.59
452.376	1649
452.75	1698.71
453.123	1697.81
453.497	1738.71
453.871	1716.57
454.244	1758.15
454.618	1750.01
454.992	1795.43
455.365	1753.63
455.739	1817.81
456.112	1860.74
456.486	1823.68
456.859	1898.03
457.232	1929.44
457.606	1872.27
457.979	1939.84
458.352	1972.15
458.725	1978.25
459.099	2005.6
459.472	2037.23
459.845	2037.23
460.218	2046.05
460.591	2079.04
460.964	2104.13
461.337	2125.82
461.71	2154.07
462.083	2150.9
462.456	2148.19
462.829	2203.56
463.201	2220.51
463.574	2209.89
463.947	2227.51
464.32	2321.29
464.692	2338.24
465.065	2296.89
465.438	2352.25
465.81	2402.2
466.183	2418.47
466.555	2451.01
466.928	2446.04
467.3	2469.09
467.672	2516.32
468.045	2535.98
468.417	2574.85
468.789	2579.82
469.161	2597.22
469.534	2637.67
469.906	2692.58
470.278	2728.52
470.65	2757.89
471.022	2799.47
471.394	2824.56
471.766	2853.71
472.138	2886.03
472.51	2949.75
472.882	2974.61
473.253	2951.79
473.625	3024.55
473.997	3067.49
474.369	3131.9
474.74	3145.68
475.112	3157.21
475.484	3252.12
475.855	3250.54
476.227	3280.59
476.598	3401.27
476.97	3381.61
477.341	3480.59
477.713	3512
478.084	3524.88
478.455	3570.53
478.827	3645.33
479.198	3726.91
479.569	3710.64
479.94	3824.76
480.311	3862.5
480.682	3892.55
481.053	4016.17
481.424	4026.11
481.795	4086.67
482.166	4108.82
482.537	4112.43
482.908	4205.31
483.279	4268.81
483.65	4321.02
484.021	4382.94
484.391	4428.58
484.762	4478.75
485.133	4528.02
485.503	4542.71
485.874	4611.18
486.244	4633.32
486.615	4755.36
486.985	4793.77
487.356	4833.55
487.726	4891.85
488.097	4956.93
488.467	4984.05
488.837	5045.29
489.207	5053.43
489.578	5197.38
489.948	5210.26
490.318	5265.62
490.688	5239.86
491.058	5384.72
491.428	5445.51
491.798	5423.59
492.168	5560.76
492.538	5522.11
492.908	5630.81
493.278	5676.46
493.648	5636.01
494.017	5795.33
494.387	5812.05
494.757	5828.1
495.126	5854.99
495.496	5869.45
495.866	5902.9
496.235	5963.91
496.605	5994.64
496.974	5958.71
497.344	5995.77
497.713	6134.75
498.082	6108.54
498.452	6173.85
498.821	6204.36
499.19	6164.13
499.559	6261.76
499.928	6276.45
500.298	6298.59
500.667	6328.42
501.036	6300.4
501.405	6390.57
501.774	6425.82
502.143	6407.74
502.512	6449.32
502.88	6461.98
503.249	6494.52
503.618	6539.72
503.987	6506.04
504.356	6585.36
504.724	6570.45
505.093	6556.66
505.462	6618.13
505.83	6676.21
506.199	6703.1
506.567	6740.84
506.936	6719.6
507.304	6778.35
507.672	6802.53
508.041	6805.7
508.409	6846.37
508.777	6886.6
509.145	6904
509.514	6868.52
509.882	6883.89
510.25	6920.5
510.618	6926.15
510.986	6979.48
511.354	7018.8
511.722	7073.49
512.09	7018.12
512.458	6988.97
512.826	7054.05
513.193	7058.12
513.561	7099.47
513.929	7136.76
514.297	7172.92
514.664	7171.79
515.032	7208.17
515.4	7238.23
515.767	7247.72
516.135	7223.31
516.502	7160.49
516.869	7303.08
517.237	7293.37
517.604	7249.3
517.972	7286.81
518.339	7334.95
518.706	7299.24
519.073	7309.19
519.44	7277.1
519.808	7328.85
520.175	7311.45
520.542	7423.31
520.909	7377.66
521.276	7373.37
521.643	7424.89
522.009	7441.84
522.376	7511.89
522.743	7476.19
523.11	7516.86
523.477	7578.56
523.843	7588.28
524.21	7593.02
524.577	7627.14
524.943	7591.66
525.31	7557.99
525.676	7702.4
526.043	7661.95
526.409	7618.56
526.776	7756.63
527.142	7715.05
527.508	7737.88
527.874	7774.71
528.241	7736.52
528.607	7722.73
528.973	7779.46
529.339	7729.74
529.705	7794.6
530.071	7856.74
530.437	7830.75
530.803	7814.03
531.169	7841.83
531.535	7777.87
531.901	7835.05
532.267	7809.06
532.632	7835.73
532.998	7839.34
533.364	7828.49
533.73	7828.49
534.095	7791.43
534.461	7841.83
534.826	7857.19
535.192	7866.01
535.557	7855.84
535.923	7814.71
536.288	7875.5
536.653	7837.53
537.019	7784.65
537.384	7858.1
537.749	7854.03
538.114	7850.42
538.479	7790.53
538.845	7766.8
539.21	7742.4
539.575	7749.63
539.94	7800.02
540.305	7726.35
540.67	7760.47
541.034	7733.58
541.399	7716.18
541.764	7710.31
542.129	7720.25
542.494	7743.98
542.858	7740.81
543.223	7708.95
543.587	7749.63
543.952	7678.67
544.316	7706.24
544.681	7716.86
545.045	7662.62
545.41	7683.41
545.774	7691.55
546.138	7626.92
546.503	7616.97
546.867	7633.02
547.231	7622.62
547.595	7630.08
547.959	7606.13
548.324	7535.62
548.688	7551.21
549.052	7610.87
549.416	7541.5
549.779	7565.22
550.143	7574.04
550.507	7571.78
550.871	7590.31
551.235	7563.87
551.599	7542.4
551.962	7572.23
552.326	7550.31
552.689	7554.15
553.053	7539.69
553.417	7510.31
553.78	7570.65
554.143	7481.61
554.507	7488.84
554.87	7471.89
555.234	7581.72
555.597	7474.83
555.96	7537.43
556.323	7553.25
556.686	7554.15
557.05	7561.38
557.413	7513.25
557.776	7567.94
558.139	7549.18
558.502	7562.96
558.865	7578.56
559.228	7571.78
559.59	7601.83
559.953	7533.59
560.316	7602.74
560.679	7597.31
561.041	7601.38
561.404	7712.34
561.767	7724.99
562.129	7682.96
562.492	7704.2
562.854	7669.85
563.217	7663.08
563.579	7715.28
563.941	7773.58
564.304	7725.67
564.666	7781.49
565.028	7750.53
565.39	7757.99
565.753	7755.28
566.115	7840.02
566.477	7863.97
566.839	7840.25
567.201	7870.3
567.563	7849.96
567.925	7888.15
568.287	7924.76
568.648	7852.22
569.01	7955.72
569.372	7974.48
569.734	7956.4
570.095	8050.41
570.457	8000.47
570.819	8053.35
571.18	8060.13
571.542	8032.33
571.903	8088.83
572.265	8094.25
572.626	8139.9
572.987	8115.27
573.349	8172.89
573.71	8169.05
574.071	8207.47
574.432	8210.41
574.794	8256.28
575.155	8302.38
575.516	8211.54
575.877	8287.47
576.238	8263.29
576.599	8304.64
576.96	8289.05
577.32	8353.45
577.681	8364.07
578.042	8409.27
578.403	8394.36
578.763	8364.07
579.124	8374.92
579.485	8430.96
579.845	8461.7
580.206	8487.01
580.566	8479.1
580.927	8454.47
581.287	8488.59
581.648	8460.79
582.008	8569.04
582.368	8464.64
582.728	8608.81
583.089	8543.28
583.449	8572.43
583.809	8586.67
584.169	8615.37
584.529	8651.3
584.889	8669.15
585.249	8639.77
585.609	8630.28
585.969	8705.08
586.329	8631.19
586.688	8681.13
587.048	8666.66
587.408	8719.09
587.768	8667.57
588.127	8712.31
588.487	8744.63
588.846	8758.41
589.206	8721.58
589.565	8699.43
589.925	8780.33
590.284	8783.72
590.643	8812.88
591.003	8803.16
591.362	8787.57
591.721	8852.42
592.08	8867.56
592.44	8788.02
592.799	8878.41
593.158	8927.45
593.517	8928.58
593.876	8874.34
594.235	8842.03
594.593	8892.87
594.952	8883.16
595.311	8910.05
595.67	8918.86
596.029	8978.52
596.387	8938.97
596.746	8982.59
597.104	8890.16
597.463	8941.01
597.822	9042.02
598.18	8933.1
598.538	8935.58
598.897	9036.15
599.255	8940.33
599.613	9041.12
599.972	8995.47
600.33	8986.66
600.688	9011.29
601.046	9063.26
601.404	9027.79
601.762	9075.69
602.12	9067.11
602.478	9058.52
602.836	9080.89
603.194	9028.01
603.552	9081.8
603.91	9109.59
604.268	9051.29
604.625	9008.8
604.983	9131.96
605.341	9075.47
605.698	9116.6
606.056	9161.12
606.413	9115.01
606.771	9144.84
607.128	9176.93
607.485	9089.48
607.843	9101
608.2	9153.66
608.557	9231.62
608.914	9182.36
609.272	9263.26
609.629	9279.76
609.986	9260.32
610.343	9168.8
610.7	9326.76
611.057	9188.91
611.414	9208.8
611.771	9349.36
612.127	9288.8
612.484	9270.72
612.841	9280.21
613.198	9305.52
613.554	9244.95
613.911	9331.73
614.267	9342.13
614.624	9255.35
614.98	9301.22
615.337	9313.65
615.693	9316.59
616.05	9387.32
616.406	9371.51
616.762	9364.95
617.118	9343.03
617.475	9398.17
617.831	9425.29
618.187	9388.91
618.543	9457.15
618.899	9388.91
619.255	9416.25
619.611	9404.72
619.967	9457.15
620.323	9452.18
620.678	9477.94
621.034	9436.81
621.39	9462.58
621.746	9417.83
622.101	9493.31
622.457	9396.14
622.812	9449.7
623.168	9466.64
623.523	9459.19
623.879	9471.39
624.234	9389.81
624.589	9432.75
624.945	9480.65
625.3	9483.37
625.655	9444.27
626.01	9465.51
626.365	9472.29
626.72	9419.87
627.075	9438.85
627.43	9406.53
627.785	9384.39
628.14	9499.86
628.495	9406.53
628.85	9429.13
629.205	9373.09
629.559	9466.19
629.914	9429.13
630.269	9392.97
630.623	9375.57
630.978	9362.24
631.332	9362.47
631.687	9390.71
632.041	9399.75
632.396	9306.87
632.75	9359.75
633.104	9316.14
633.459	9275.24
633.813	9318.63
634.167	9234.11
634.521	9288.12
634.875	9312.98
635.229	9281.56
635.583	9237.72
635.937	9294.9
636.291	9205.41
636.645	9176.03
636.999	9191.17
637.352	9223.03
637.706	9143.94
638.06	9157.95
638.413	9172.64
638.767	9164.73
639.121	9170.83
639.474	9123.83
639.828	9139.87
640.181	9151.17
640.534	9108.01
640.888	9030.5
641.241	9067.11
641.594	9086.99
641.947	9053.32
642.301	9087.22
642.654	9025.75
643.007	9055.36
643.36	9086.31
643.713	8994.34
644.066	9050.16
644.419	8988.69
644.771	8850.84
645.124	8917.96
645.477	8818.53
645.83	8911.4
646.182	8711.64
646.535	8740.34
646.888	8729.71
647.24	8675.7
647.593	8734.01
647.945	8737.4
648.298	8657.63
648.65	8667.12
649.002	8606.1
649.355	8700.34
649.707	8671.41
650.059	8710.28
650.411	8858.98
650.763	8843.61
651.115	8881.8
651.467	8820.11
651.819	8898.3
652.171	8875.47
652.523	8882.03
652.875	8917.73
653.227	8844.06
653.578	8908.92
653.93	8873.44
654.282	8816.72
654.633	8778.75
654.985	8848.13
655.337	8845.19
655.688	8842.48
656.039	8879.54
656.391	8830.28
656.742	8866.21
657.094	8822.37
657.445	8849.48
657.796	8843.61
658.147	8857.85
658.498	8818.98
658.849	8867.11
659.2	8889.48
659.551	8817.62
659.902	8909.37
660.253	8842.93
660.604	8908.47
660.955	8793.44
661.306	8910.05
661.656	8863.72
662.007	8898.75
662.358	8850.16
662.708	8887.68
663.059	8869.6
663.409	8866.43
663.76	8915.47
664.11	8859.2
664.461	8908.69
664.811	8904.17
665.161	8886.09
665.511	8836.15
665.862	8887
666.212	8871.18
666.562	8909.82
666.912	8883.16
667.262	8883.16
667.612	8827.79
667.962	8871.86
668.312	8861.46
668.662	8915.47
669.011	8869.37
669.361	8809.49
669.711	8843.38
670.06	8754.12
670.41	8802.71
670.76	8776.27
671.109	8790.05
671.459	8792.99
671.808	8747.57
672.157	8815.59
672.507	8757.96
672.856	8791.18
673.205	8747.79
673.554	8803.61
673.904	8774.23
674.253	8836.6
674.602	8778.53
674.951	8656.04
675.3	8629.38
675.649	8749.83
675.998	8738.08
676.346	8743.05
676.695	8745.98
677.044	8648.13
677.393	8690.39
677.741	8743.95
678.09	8625.99
678.438	8736.49
678.787	8622.6
679.135	8672.77
679.484	8558.87
679.832	8671.86
680.181	8579.21
680.529	8608.59
680.877	8557.29
681.225	8568.14
681.573	8570.17
681.922	8508.25
682.27	8560.68
682.618	8491.53
682.966	8492.43
683.314	8500.12
683.661	8529.04
684.009	8460.79
684.357	8395.71
684.705	8420.8
685.053	8392.1
685.4	8402.04
685.748	8297.86
686.095	8294.7
686.443	8311.65
686.79	8243.4
687.138	8311.87
687.485	8296.96
687.832	8291.53
688.18	8246.34
688.527	8163.4
688.874	8204.53
689.221	8202.5
689.568	8159.79
689.915	8166.11
690.262	8121.59
690.609	8059.22
690.956	8051.09
691.303	8055.16
691.65	8043.86
691.997	7991.43
692.344	7946.91
692.69	7920.47
693.037	7939.45
693.383	7879.79
693.73	7877.31
694.077	7936.74
694.423	7829.85
694.769	7869.4
695.116	7790.98
695.462	7811.32
695.808	7713.47
696.155	7741.72
696.501	7747.14
696.847	7698.1
697.193	7650.65
697.539	7624.88
697.885	7661.49
698.231	7525.23
698.577	7560.03
698.923	7540.37
699.269	7510.99
699.614	7408.39
699.96	7390.54
700.306	7435.51
700.651	7383.08
700.997	7346.7
701.342	7344.89
701.688	7314.38
702.033	7257.21
702.379	7276.19
702.724	7257.21
703.069	7252.46
703.415	7210.88
703.76	7154.84
704.105	7158.91
704.45	7175.63
704.795	7073.26
705.14	7133.82
705.485	7045.01
705.83	7015.41
706.175	7024
706.52	7003.43
706.865	6969.31
707.209	6948.07
707.554	6953.04
707.899	6926.15
708.243	6858.35
708.588	6872.36
708.932	6824.68
709.277	6823.55
709.621	6856.09
709.966	6796.43
710.31	6871.23
710.654	6761.4
710.998	6788.97
711.342	6750.11
711.687	6740.84
712.031	6662.65
712.375	6708.52
712.719	6704.91
713.063	6686.15
713.407	6757.56
713.75	6620.62
714.094	6716.89
714.438	6660.39
714.782	6625.14
715.125	6584.69
715.469	6629.88
715.812	6567.96
716.156	6579.71
716.499	6515.53
716.843	6583.56
717.186	6510.34
717.53	6534.07
717.873	6560.73
718.216	6504.69
718.559	6466.72
718.902	6473.73
719.246	6516.89
719.589	6485.25
719.932	6429.44
720.275	6432.83
720.617	6427.18
720.96	6459.04
721.303	6415.2
721.646	6438.02
721.989	6422.2
722.331	6400.51
722.674	6387.63
723.016	6385.82
723.359	6358.7
723.701	6401.87
724.044	6336.78
724.386	6323.9
724.729	6365.48
725.071	6395.54
725.413	6388.53
725.755	6363.67
726.097	6314.64
726.439	6285.03
726.782	6321.42
727.124	6332.26
727.465	6332.71
727.807	6310.12
728.149	6235.77
728.491	6309.44
728.833	6305.14
729.175	6250.91
729.516	6283.22
729.858	6247.07
730.199	6273.28
730.541	6258.82
730.882	6271.93
731.224	6235.77
731.565	6261.53
731.906	6282.55
732.248	6247.07
732.589	6217.01
732.93	6235.54
733.271	6258.14
733.612	6217.46
733.953	6277.12
734.294	6254.3
734.635	6221.98
734.976	6248.88
735.317	6217.01
735.658	6211.36
735.999	6254.3
736.339	6219.72
736.68	6269.67
737.021	6224.7
737.361	6217.69
737.702	6313.05
738.042	6246.84
738.383	6231.47
738.723	6239.16
739.063	6270.8
739.404	6299.95
739.744	6266.73
740.084	6278.7
740.424	6264.02
740.764	6311.25
741.104	6332.26
741.444	6248.65
741.784	6285.03
742.124	6341.75
742.464	6318.93
742.804	6284.13
743.143	6362.77
743.483	6348.53
743.823	6359.38
744.162	6407.74
744.502	6403
744.841	6426.05
745.181	6474.63
745.52	6468.3
745.86	6478.93
746.199	6483.9
746.538	6530.22
746.877	6540.84
747.216	6598.47
747.556	6628.53
747.895	6656.55
748.234	6671.01
748.573	6700.84
748.911	6701.52
749.25	6736.77
749.589	6801.86
749.928	6849.54
750.267	6903.55
750.605	6913.26
750.944	6948.52
751.283	6977.9
751.621	7091.79
751.96	7123.88
752.298	7148.74
752.636	7233.48
752.975	7271.22
753.313	7377.21
753.651	7486.36
753.989	7587.37
754.327	7622.17
754.666	7651.78
755.004	7656.75
755.342	7880.24
755.679	7910.3
756.017	8005.89
756.355	8088.83
756.693	8143.06
757.031	8308.93
757.368	8338.31
757.706	8475.03
758.044	8622.15
758.381	8682.94
758.719	8817.85
759.056	8882.25
759.394	9018.29
759.731	9041.34
760.068	9159.99
760.405	9268.68
760.743	9388.23
761.08	9579.41
761.417	9698.73
761.754	9738.73
762.091	9872.96
762.428	9931.04
762.765	10083.12
763.102	10310.46
763.438	10318.37
763.775	10432.27
764.112	10519.72
764.449	10707.97
764.785	10777.8
765.122	10802.88
765.458	10916.1
765.795	11067.73
766.131	11112.02
766.467	11173.94
766.804	11388.4
767.14	11516.99
767.476	11502.52
767.812	11603.99
768.148	11737.09
768.485	11753.14
768.821	11856.86
769.157	11914.26
769.492	12032.68
769.828	12157.65
770.164	12140.92
770.5	12300.47
770.836	12392.22
771.171	12355.83
771.507	12480.8
771.842	12444.64
772.178	12537.07
772.513	12545.66
772.849	12645.09
773.184	12704.3
773.519	12850.06
773.855	12813.67
774.19	12855.71
774.525	12858.19
774.86	12943.16
775.195	12998.3
775.53	13029.94
775.865	12987.23
776.2	12985.42
776.535	12970.73
776.87	13013.9
777.205	13115.59
777.539	13091.18
777.874	13216.38
778.209	13192.2
778.543	13072.65
778.878	13139.77
779.212	13241.46
779.547	13203.04
779.881	13217.28
780.215	13205.08
780.55	13229.26
780.884	13164.85
781.218	13218.86
781.552	13268.13
781.886	13212.08
782.22	13137.73
782.554	13255.7
782.888	13205.3
783.222	13102.93
783.556	13144.06
783.889	13065.65
784.223	13070.62
784.557	13065.65
784.89	13089.37
785.224	13083.72
785.557	13089.83
785.891	13078.75
786.224	13192.87
786.558	13096.38
786.891	13066.32
787.224	13044.18
787.557	12974.12
787.891	12927.8
788.224	13001.01
788.557	13003.5
788.89	12966.21
789.223	12984.07
789.556	12885.54
789.888	12787.91
790.221	12886.67
790.554	12730.74
790.887	12832.88
791.219	12777.74
791.552	12716.05
791.884	12687.58
792.217	12745.88
792.549	12662.04
792.882	12563.74
793.214	12625.66
793.546	12627.46
793.879	12566.45
794.211	12500.91
794.543	12435.15
794.875	12533.91
795.207	12564.19
795.539	12457.07
795.871	12494.81
796.203	12363.29
796.535	12304.76
796.867	12318.55
797.198	12302.95
797.53	12319.68
797.862	12161.94
798.193	12266.34
798.525	12127.82
798.856	12226.57
799.188	12019.57
799.519	12001.94
799.85	11964.88
800.182	11989.06
800.513	12026.12
800.844	11940.03
801.175	11997.65
801.506	11959.23
801.837	11940.03
802.168	11896.41
802.499	11867.48
802.83	11798.56
803.161	11771.44
803.491	11796.3
803.822	11777.54
804.153	11681.73
804.483	11616.87
804.814	11626.59
805.145	11662.52
805.475	11674.04
805.805	11578.9
806.136	11522.18
806.466	11557.89
806.796	11493.94
807.126	11493.71
807.457	11369.64
807.787	11409.87
808.117	11363.09
808.447	11326.48
808.777	11326.93
809.107	11337.33
809.436	11253.26
809.766	11323.32
810.096	11305.69
810.426	11149.54
810.755	11167.16
811.085	11118.35
811.414	11195.19
811.744	11086.94
812.073	11121.74
812.403	11037.9
812.732	10999.48
813.061	11065.92
813.39	10943.89
813.719	10936.89
814.049	11005.13
814.378	10976.66
814.707	10876.55
815.036	10931.01
815.365	10903.89
815.693	10761.75
816.022	10809.21
816.351	10829.77
816.68	10771.02
817.008	10813.5
817.337	10710.9
817.665	10659.15
817.994	10651.92
818.322	10678.14
818.651	10577.12
818.979	10543
819.307	10599.95
819.636	10624.13
819.964	10622.55
820.292	10618.48
820.62	10576.22
820.948	10561.98
821.276	10591.81
821.604	10613.05
821.932	10571.93
822.259	10572.6
822.587	10539.16
822.915	10503
823.243	10535.32
823.57	10625.03
823.898	10551.59
824.225	10540.74
824.553	10473.17
824.88	10447.63
825.207	10542.1
825.535	10570.12
825.862	10567.86
826.189	10512.94
826.516	10547.75
826.843	10560.4
827.17	10594.3
827.497	10622.32
827.824	10583.45
828.151	10614.64
828.478	10527.41
828.805	10560.63
829.131	10592.94
829.458	10531.7
829.785	10514.53
830.111	10509.55
830.438	10575.54
830.764	10514.75
831.09	10576.9
831.417	10505.71
831.743	10546.84
832.069	10614.18
832.395	10498.93
832.722	10522.21
833.048	10487.63
833.374	10502.77
833.7	10467.52
834.026	10442.66
834.351	10479.5
834.677	10439.27
835.003	10461.87
835.329	10483.57
835.654	10425.71
835.98	10413.29
836.306	10416.22
836.631	10364.47
836.956	10476.79
837.282	10399.73
837.607	10308.66
837.932	10354.53
838.258	10381.42
838.583	10329.67
838.908	10282.44
839.233	10280.41
839.558	10257.58
839.883	10260.97
840.208	10187.98
840.533	10260.97
840.858	10234.99
841.182	10205.83
841.507	10201.77
841.832	10149.79
842.156	10177.36
842.481	10104.82
842.805	10041.09
843.13	10133.52
843.454	10002.67
843.778	10033.18
844.103	9960.42
844.427	9927.87
844.751	9995.67
845.075	9911.15
845.399	9875.45
845.723	9832.96
846.047	9785.05
846.371	9784.6
846.695	9778.27
847.019	9733.53
847.343	9683.81
847.666	9620.54
847.99	9577.15
848.313	9511.61
848.637	9504.16
848.96	9495.34
849.284	9469.81
849.607	9482.69
849.931	9363.82
850.254	9335.57
850.577	9272.75
850.9	9310.94
851.223	9214.9
851.546	9145.52
851.869	9177.39
852.192	9184.17
852.515	9016.49
852.838	9005.64
853.161	9063.49
853.483	9043.6
853.806	8957.28
854.129	8987.56
854.451	8905.3
854.774	8836.6
855.096	8829.82
855.419	8868.24
855.741	8818.75
856.063	8777.4
856.385	8791.18
856.708	8742.37
857.03	8696.95
857.352	8726.32
857.674	8717.96
857.996	8638.19
858.318	8624.18
858.64	8640.22
858.961	8560.68
859.283	8478.65
859.605	8485.2
859.926	8556.84
860.248	8471.87
860.57	8459.21
860.891	8460.12
861.212	8377.41
861.534	8380.57
861.855	8312.32
862.176	8352.1
862.498	8318.2
862.819	8343.28
863.14	8290.63
863.461	8354.58
863.782	8274.81
864.103	8280.23
864.424	8303.96
864.745	8237.75
865.065	8193.91
865.386	8176.73
865.707	8191.2
866.027	8185.1
866.348	8148.26
866.668	8115.72
866.989	8179.22
867.309	8116.62
867.63	8100.13
867.95	8102.16
868.27	8088.15
868.59	8064.65
868.91	8039.34
869.23	7942.16
869.55	7975.16
869.87	8087.92
870.19	8039.34
870.51	8023.29
870.83	8000.69
871.15	7970.64
871.469	7964.31
871.789	7990.07
872.109	7929.51
872.428	7939.23
872.748	7934.93
873.067	7931.54
873.386	7890.64
873.706	7882.96
874.025	7821.94
874.344	7793.47
874.663	7861.04
874.982	7840.25
875.301	7844.09
875.62	7775.61
875.939	7757.31
876.258	7802.51
876.577	7689.97
876.896	7751.21
877.214	7656.07
877.533	7674.37
877.852	7710.76
878.17	7700.81
878.489	7736.75
878.807	7729.06
879.125	7717.54
879.444	7621.95
879.762	7675.05
880.08	7677.54
880.398	7596.64
880.716	7594.6
881.034	7567.71
881.352	7581.04
881.67	7582.63
881.988	7503.08
882.306	7527.71
882.624	7449.52
882.941	7447.49
883.259	7455.85
883.577	7399.58
883.894	7410.43
884.212	7397.55
884.529	7438.45
884.846	7325.01
885.164	7372.24
885.481	7343.31
885.798	7342.63
886.115	7256.08
886.432	7272.35
886.75	7292.46
887.067	7268.06
887.383	7234.84
887.7	7261.96
888.017	7147.16
888.334	7169.08
888.651	7234.16
888.967	7188.29
889.284	7125.01
889.6	7093.15
889.917	7107.38
890.233	7052.7
890.55	7064.67
890.866	7056.31
891.182	7031
891.498	7011.12
891.815	6974.96
892.131	6963.66
892.447	6928.63
892.763	6924.79
893.079	6899.03
893.395	6893.15
893.71	6871.91
894.026	6857.22
894.342	6825.81
894.657	6759.14
894.973	6768.18
895.289	6740.61
895.604	6773.61
895.92	6663.1
896.235	6672.82
896.55	6611.58
896.865	6700.16
897.181	6681.18
897.496	6632.82
897.811	6598.02
898.126	6552.82
898.441	6582.43
898.756	6525.7
899.071	6490.45
899.386	6464.01
899.7	6468.3
900.015	6396.89
900.33	6391.24
900.644	6306.05
900.959	6417.91
901.273	6310.57
901.588	6350.12
901.902	6289.78
902.216	6300.85
902.531	6230.12
902.845	6214.98
903.159	6235.54
903.473	6151.7
903.787	6137.47
904.101	6115.55
904.415	6077.81
904.729	6054.76
905.042	6067.41
905.356	6022.44
905.67	6040.75
905.984	6014.08
906.297	5985.61
906.611	5930.92
906.924	5912.39
907.237	5950.35
907.551	5925.04
907.864	5842.11
908.177	5880.52
908.491	5831.26
908.804	5832.61
909.117	5786.06
909.43	5768.89
909.743	5659.96
910.056	5724.14
910.368	5675.33
910.681	5603.92
910.994	5650.92
911.307	5584.03
911.619	5580.64
911.932	5607.08
912.244	5550.59
912.557	5554.88
912.869	5530.93
913.181	5458.39
913.494	5490.7
913.806	5428.33
914.118	5402.12
914.43	5412.06
914.742	5414.09
915.054	5342.68
915.366	5344.94
915.678	5320.76
915.99	5307.21
916.302	5258.84
916.613	5274.21
916.925	5241.67
917.236	5212.29
917.548	5130.49
917.859	5200.09
918.171	5102.92
918.482	5117.15
918.794	5112.86
919.105	5076.7
919.416	5072.18
919.727	5045.74
920.038	5045.07
920.349	5007.1
920.66	4957.84
920.971	4953.54
921.282	4956.93
921.593	4923.71
921.903	4917.84
922.214	4883.94
922.525	4851.4
922.835	4848.69
923.146	4829.25
923.456	4782.47
923.767	4766.2
924.077	4776.6
924.387	4791.06
924.697	4718.29
925.008	4715.58
925.318	4677.39
925.628	4706.09
925.938	4684.4
926.248	4618.64
926.558	4612.76
926.867	4606.66
927.177	4600.78
927.487	4588.35
927.796	4563.5
928.106	4552.42
928.416	4503.38
928.725	4490.5
929.034	4472.65
929.344	4462.03
929.653	4458.87
929.962	4437.17
930.271	4426.1
930.581	4367.34
930.89	4356.95
931.199	4347.23
931.508	4360.34
931.817	4342.71
932.125	4312.65
932.434	4278.98
932.743	4257.29
933.051	4183.62
933.36	4198.31
933.669	4183.62
933.977	4206.9
934.286	4174.13
934.594	4132.77
934.902	4115.82
935.21	4109.5
935.519	4134.58
935.827	4096.16
936.135	4099.78
936.443	4067.01
936.751	4077.63
937.059	4050.97
937.367	4038.76
937.674	4007.58
937.982	4007.58
938.29	3973.68
938.597	3941.59
938.905	3959.67
939.213	3927.81
939.52	3867.24
939.827	3908.6
940.135	3880.58
940.442	3869.95
940.749	3837.19
941.056	3914.93
941.363	3781.14
941.67	3854.81
941.977	3771.88
942.284	3753.8
942.591	3729.62
942.898	3737.3
943.205	3706.57
943.511	3718.09
943.818	3691.88
944.125	3658.66
944.431	3644.42
944.738	3636.74
945.044	3624.09
945.35	3628.15
945.657	3580.7
945.963	3578.66
946.269	3526.69
946.575	3554.03
946.881	3539.79
947.187	3513.35
947.493	3522.39
947.799	3440.14
948.105	3476.97
948.41	3440.14
948.716	3442.17
949.022	3481.94
949.327	3444.2
949.633	3375.28
949.938	3409.18
950.244	3390.19
950.549	3372.57
950.854	3320.36
951.16	3389.97
951.465	3350.65
951.77	3340.03
952.075	3299.12
952.38	3271.55
952.685	3293.02
952.99	3236.98
953.294	3248.05
953.599	3229.07
953.904	3186.81
954.209	3185.68
954.513	3178.67
954.818	3172.35
955.122	3177.54
955.426	3170.99
955.731	3168.96
956.035	3112.91
956.339	3124.66
956.643	3147.71
956.948	3058.45
957.252	3096.19
957.556	3057.09
957.86	3048.96
958.163	3024.55
958.467	3013.71
958.771	3018
959.075	3020.26
959.378	2985.46
959.682	3002.86
959.985	2967.38
960.289	2940.04
960.592	2920.38
960.896	2927.61
961.199	2911.11
961.502	2876.08
961.805	2881.96
962.108	2860.72
962.411	2848.74
962.714	2872.01
963.017	2821.17
963.32	2831.79
963.623	2798.12
963.926	2801.06
964.228	2770.55
964.531	2782.53
964.833	2769.64
965.136	2741.85
965.438	2732.58
965.741	2691.45
966.043	2738.46
966.345	2686.48
966.648	2668.18
966.95	2695.52
967.252	2628.18
967.554	2651.46
967.856	2631.57
968.158	2577.79
968.46	2580.95
968.761	2593.38
969.063	2582.98
969.365	2580.05
969.666	2596.99
969.968	2615.98
970.269	2559.48
970.571	2568.07
970.872	2573.94
971.174	2564.45
971.475	2527.39
971.776	2508.41
972.077	2488.97
972.378	2515.87
972.679	2528.75
972.98	2482.42
973.281	2452.82
973.582	2461.18
973.883	2432.7
974.183	2432.7
974.484	2446.04
974.785	2446.49
975.085	2401.52
975.386	2422.54
975.686	2429.77
975.986	2387.51
976.287	2353.61
976.587	2338.24
976.887	2356.1
977.187	2339.15
977.487	2351.8
977.787	2308.87
978.087	2276.78
978.387	2302.99
978.687	2271.35
978.987	2254.86
979.286	2273.16
979.586	2236.78
979.885	2225.48
980.185	2248.08
980.484	2218.02
980.784	2207.4
981.083	2173.5
981.382	2192.94
981.682	2194.07
981.981	2213.5
982.28	2171.92
982.579	2165.59
982.878	2154.97
983.177	2159.49
983.475	2161.75
983.774	2144.35
984.073	2086.05
984.372	2125.14
984.67	2108.19
984.969	2095.09
985.267	2087.4
985.566	2089.44
985.864	2079.72
986.162	2000.85
986.461	2084.24
986.759	2043.79
987.057	2019.38
987.355	1995.2
987.653	2002.43
987.951	1980.51
988.249	2006.27
988.547	1971.47
988.844	1984.13
989.142	2010.57
989.44	1926.73
989.737	1929.89
990.035	1939.84
990.332	1895.09
990.63	1920.4
990.927	1914.3
991.224	1925.15
991.521	1891.7
991.819	1890.57
992.116	1887.86
992.413	1883.11
992.71	1861.65
993.006	1878.82
993.303	1835.88
993.6	1860.52
993.897	1855.09
994.193	1815.09
994.49	1798.14
994.787	1816.45
995.083	1780.29
995.379	1802.21
995.676	1788.43
995.972	1790.46
996.268	1760.18
996.565	1767.64
996.861	1743.91
997.157	1719.95
997.453	1715.21
997.749	1721.99
998.044	1717.92
998.34	1723.34
998.636	1718.37
998.932	1709.56
999.227	1659.84
999.523	1689.67
999.818	1680.86
1000.114	1642.44
1000.409	1664.14
1000.704	1644.02
1001	1648.09
1001.295	1627.08
1001.59	1625.04
1001.885	1603.8
1002.18	1617.36
1002.475	1632.5
1002.77	1596.57
1003.065	1578.94
1003.359	1557.25
1003.654	1557.7
1003.949	1541.43
1004.243	1531.71
1004.538	1552.5
1004.832	1536
1005.127	1539.17
1005.421	1514.99
1005.715	1502.79
1006.009	1511.82
1006.304	1490.13
1006.598	1491.49
1006.892	1458.04
1007.186	1469.79
1007.48	1450.81
1007.773	1439.74
1008.067	1436.12
1008.361	1428.44
1008.655	1445.39
1008.948	1430.92
1009.242	1423.92
1009.535	1403.58
1009.829	1410.13
1010.122	1375.56
1010.415	1404.48
1010.708	1386.18
1011.001	1371.72
1011.295	1342.11
1011.588	1330.59
1011.881	1342.11
1012.173	1352.28
1012.466	1333.3
1012.759	1317.25
1013.052	1324.94
1013.344	1290.14
1013.637	1288.78
1013.93	1299.63
1014.222	1274.54
1014.514	1289.01
1014.807	1265.5
1015.099	1277.71
1015.391	1271.38
1015.683	1255.33
1015.976	1257.82
1016.268	1254.88
1016.56	1236.35
1016.851	1229.57
1017.143	1214.21
1017.435	1235.22
1017.727	1211.04
1018.018	1198.84
1018.31	1176.47
1018.602	1186.41
1018.893	1176.69
1019.185	1150.93
1019.476	1185.51
1019.767	1136.69
1020.058	1148.22
1020.35	1136.47
1020.641	1129.46
1020.932	1149.35
1021.223	1125.39
1021.514	1126.98
1021.804	1091.72
1022.095	1077.94
1022.386	1122.91
1022.677	1094.21
1022.967	1103.02
1023.258	1099.63
1023.548	1061.44
1023.839	1078.84
1024.129	1043.36
1024.419	1028.9
1024.709	1050.14
1025	1042.23
1025.29	1028.45
1025.58	1027.77
1025.87	1020.31
1026.16	1022.35
1026.449	1019.41
1026.739	1000.2
1027.029	1000.88
1027.319	987.09
1027.608	1016.02
1027.898	992.97
1028.187	961.78
1028.477	973.76
1028.766	973.76
1029.055	949.58
1029.344	960.43
1029.634	931.95
1029.923	961.78
1030.212	930.15
1030.501	925.17
1030.79	914.55
1031.078	930.15
1031.367	920.2
1031.656	929.02
1031.945	886.76
1032.233	913.87
1032.522	917.49
1032.81	891.28
1033.099	894.89
1033.387	889.92
1033.675	888.11
1033.963	871.16
1034.251	859.64
1034.54	859.86
1034.828	863.25
1035.116	829.36
1035.403	855.8
1035.691	835.23
1035.979	842.92
1036.267	845.4
1036.554	829.58
1036.842	837.72
1037.129	796.36
1037.417	814.22
1037.704	788.91
1037.992	800.66
1038.279	813.31
1038.566	779.87
1038.853	779.87
1039.14	779.87
