Data from hue_50_FLMS001491_72.txt Node
Date: Mon Feb 06 15:10:57 GMT 2017
User: dcchb
Spectrometer: FLMS00149
Trigger mode: 0
Integration Time (sec): 2.000000E-2
Scans to average: 10
Electric dark correction enabled: true
Nonlinearity correction enabled: false
Boxcar width: 0
XAxis mode: Wavelengths
Number of Pixels in Spectrum: 2048
>>>>>Begin Spectral Data<<<<<
341.393	-23.5
341.776	-23.5
342.16	-23.5
342.543	-64.63
342.927	-76.16
343.31	-66.66
343.693	-45.87
344.077	-59.89
344.46	-54.69
344.843	-66.66
345.226	-47.91
345.61	-30.51
345.993	-15.14
346.376	-3.16
346.759	-3.39
347.142	21.47
347.525	18.76
347.908	68.25
348.291	85.65
348.674	83.61
349.057	116.16
349.44	128.13
349.823	124.29
350.206	160.9
350.588	214.23
350.971	222.37
351.354	228.47
351.737	237.73
352.119	256.49
352.502	268.47
352.884	276.83
353.267	307.79
353.65	290.39
354.032	308.92
354.414	319.54
354.797	328.13
355.179	329.03
355.562	311.86
355.944	329.26
356.326	321.57
356.709	323.16
357.091	336.49
357.473	354.34
357.855	334.45
358.238	344.85
358.62	353.89
359.002	369.93
359.384	348.92
359.766	355.92
360.148	327.22
360.53	352.31
360.912	337.39
361.294	339.2
361.676	322.48
362.057	328.35
362.439	298.75
362.821	318.64
363.203	330.61
363.584	333.32
363.966	322.25
364.348	339.2
364.729	311.63
365.111	330.39
365.493	306.43
365.874	323.38
366.256	313.66
366.637	307.56
367.019	319.09
367.4	323.38
367.781	300.56
368.163	324.74
368.544	321.12
368.925	333.78
369.306	315.92
369.688	320.22
370.069	338.52
370.45	325.42
370.831	312.53
371.212	303.49
371.593	324.06
371.974	315.7
372.355	331.29
372.736	301.91
373.117	312.76
373.498	319.09
373.879	341.91
374.26	310.95
374.641	325.87
375.021	322.93
375.402	322.48
375.783	302.59
376.163	322.48
376.544	321.12
376.925	325.87
377.305	334.23
377.686	335.58
378.066	311.4
378.447	319.31
378.827	322.7
379.208	316.38
379.588	332.87
379.968	305.53
380.349	320.44
380.729	336.49
381.109	326.77
381.489	341.46
381.87	332.19
382.25	332.87
382.63	339.88
383.01	352.53
383.39	346.21
383.77	344.17
384.15	342.82
384.53	356.15
384.91	340.33
385.29	342.82
385.67	319.09
386.049	341.69
386.429	343.95
386.809	359.31
387.189	345.98
387.568	338.07
387.948	364.74
388.328	338.07
388.707	334
389.087	368.35
389.466	352.08
389.846	343.72
390.225	352.31
390.605	369.93
390.984	358.63
391.363	373.78
391.743	356.83
392.122	362.25
392.501	368.13
392.881	367.9
393.26	387.56
393.639	390.05
394.018	360.67
394.397	354.34
394.776	364.96
395.155	383.72
395.534	370.84
395.913	375.58
396.292	373.78
396.671	377.17
397.05	369.71
397.429	359.76
397.808	356.6
398.186	359.09
398.565	382.14
398.944	359.54
399.323	381.91
399.701	370.39
400.08	388.24
400.458	401.35
400.837	389.37
401.215	386.66
401.594	376.49
401.972	397.96
402.351	395.02
402.729	401.57
403.107	391.63
403.486	389.14
403.864	417.84
404.242	406.09
404.62	399.09
404.999	429.82
405.377	409.03
405.755	409.93
406.133	412.87
406.511	417.39
406.889	399.76
407.267	431.4
407.645	404.74
408.023	433.89
408.401	415.58
408.779	409.03
409.156	419.42
409.534	430.5
409.912	419.42
410.29	423.49
410.667	428.69
411.045	459.42
411.422	446.54
411.8	443.83
412.178	451.97
412.555	467.78
412.933	458.29
413.31	433.21
413.687	417.39
414.065	460.55
414.442	469.37
414.819	468.91
415.197	459.87
415.574	483.6
415.951	470.5
416.328	466.2
416.705	467.33
417.082	466.2
417.46	477.73
417.837	486.31
418.214	498.07
418.591	488.12
418.967	476.82
419.344	479.76
419.721	502.59
420.098	491.06
420.475	515.47
420.852	512.08
421.228	497.61
421.605	491.96
421.982	499.2
422.358	504.39
422.735	509.37
423.111	517.95
423.488	498.74
423.864	535.35
424.241	533.09
424.617	529.25
424.994	516.6
425.37	519.53
425.746	521.34
426.123	536.03
426.499	520.89
426.875	564.5
427.251	556.37
427.627	545.75
428.003	538.29
428.379	554.34
428.756	552.75
429.132	570.38
429.507	556.14
429.883	583.94
430.259	594.11
430.635	592.07
431.011	604.5
431.387	586.88
431.763	597.72
432.138	594.11
432.514	602.24
432.89	580.1
433.265	611.28
433.641	627.33
434.016	614.9
434.392	650.38
434.767	607.89
435.143	626.65
435.518	634.11
435.894	633.66
436.269	650.38
436.644	660.1
437.02	663.26
437.395	652.19
437.77	690.6
438.145	690.15
438.52	677.72
438.895	662.36
439.271	696.25
439.646	699.19
440.021	706.65
440.395	696.03
440.77	712.75
441.145	703.71
441.52	701
441.895	694.9
442.27	720.88
442.645	718.85
443.019	721.34
443.394	748.91
443.769	736.25
444.143	723.14
444.518	740.55
444.892	729.7
445.267	772.64
445.641	748.91
446.016	745.52
446.39	738.29
446.764	745.97
447.139	756.82
447.513	771.28
447.887	778.06
448.262	787.32
448.636	763.14
449.01	775.12
449.384	794.33
449.758	792.75
450.132	794.33
450.506	809.92
450.88	793.88
451.254	808.34
451.628	811.28
452.002	830.94
452.376	826.19
452.75	839.07
453.123	850.37
453.497	854.89
453.871	857.15
454.244	875.46
454.618	884.04
454.992	881.11
455.365	864.61
455.739	886.76
456.112	876.36
456.486	912.74
456.859	930.6
457.232	925.4
457.606	932.63
457.979	934.89
458.352	963.36
458.725	963.82
459.099	971.05
459.472	963.59
459.845	1003.36
460.218	1000.65
460.591	1016.24
460.964	1035.68
461.337	1057.6
461.71	1057.83
462.083	1037.71
462.456	1071.84
462.829	1066.86
463.201	1080.65
463.574	1119.97
463.947	1119.07
464.32	1136.92
464.692	1158.61
465.065	1194.09
465.438	1190.7
465.81	1186.41
466.183	1213.3
466.555	1246.07
466.928	1238.39
467.3	1256.01
467.672	1260.31
468.045	1267.54
468.417	1323.13
468.789	1343.47
469.161	1345.28
469.534	1356.35
469.906	1408.32
470.278	1410.36
470.65	1434.31
471.022	1460.75
471.394	1521.32
471.766	1518.83
472.138	1534.65
472.51	1578.04
472.882	1615.1
473.253	1660.07
473.625	1670.46
473.997	1711.37
474.369	1724.02
474.74	1768.77
475.112	1825.94
475.484	1852.83
475.855	1906.16
476.227	1972.15
476.598	2004.69
476.97	2025.26
477.341	2095.76
477.713	2182.32
478.084	2196.33
478.455	2278.81
478.827	2306.15
479.198	2422.54
479.569	2429.99
479.94	2536.43
480.311	2577.33
480.682	2631.12
481.053	2764.67
481.424	2798.34
481.795	2889.19
482.166	2973.03
482.537	3079.02
482.908	3161.72
483.279	3259.8
483.65	3336.86
484.021	3405.11
484.391	3528.27
484.762	3604.42
485.133	3681.49
485.503	3796.28
485.874	3895.94
486.244	3966.22
486.615	4088.03
486.985	4231.75
487.356	4388.36
487.726	4456.15
488.097	4608.47
488.467	4670.84
488.837	4851.4
489.207	4967.55
489.578	5133.88
489.948	5183.59
490.318	5312.85
490.688	5452.51
491.058	5565.96
491.428	5703.13
491.798	5816.12
492.168	6044.36
492.538	6106.51
492.908	6222.66
493.278	6376.1
493.648	6539.04
494.017	6689.54
494.387	6784
494.757	6867.84
495.126	7057.89
495.496	7114.84
495.866	7252.01
496.235	7406.58
496.605	7568.16
496.974	7700.36
497.344	7837.76
497.713	8040.69
498.082	8122.72
498.452	8251.53
498.821	8364.53
499.19	8430.51
499.559	8585.31
499.928	8709.6
500.298	8840.67
500.667	8995.24
501.036	9015.58
501.405	9184.84
501.774	9254.45
502.143	9490.82
502.512	9468.45
502.88	9651.05
503.249	9714.55
503.618	9848.78
503.987	10033.18
504.356	10048.78
504.724	10224.36
505.093	10346.85
505.462	10469.33
505.83	10546.84
506.199	10643.11
506.567	10848.75
506.936	10861.86
507.304	11109.31
507.672	11114.96
508.041	11294.39
508.409	11316.09
508.777	11454.61
509.145	11586.14
509.514	11669.52
509.882	11768.5
510.25	11857.54
510.618	11937.54
510.986	12116.07
511.354	12268.15
511.722	12287.36
512.09	12482.16
512.458	12547.24
512.826	12603.51
513.193	12729.16
513.561	12754.69
513.929	12982.03
514.297	13081.01
514.664	13208.92
515.032	13333.43
515.4	13380.67
515.767	13502.92
516.135	13624.5
516.502	13528.91
516.869	13846.64
517.237	13900.43
517.604	13863.59
517.972	14118.72
518.339	14151.27
518.706	14242.34
519.073	14274.88
519.44	14379.51
519.808	14615.66
520.175	14649.11
520.542	14812.04
520.909	14940.85
521.276	14922.77
521.643	15068.53
522.009	15109.89
522.376	15344.46
522.743	15440.5
523.11	15601.62
523.477	15736.99
523.843	15846.59
524.21	15980.6
524.577	16109.86
524.943	16151.67
525.31	16270.08
525.676	16440.47
526.043	16602.05
526.409	16657.64
526.776	16906.67
527.142	16840.91
527.508	17051.3
527.874	17119.1
528.241	17254.69
528.607	17260.56
528.973	17399.09
529.339	17407.68
529.705	17591.63
530.071	17744.62
530.437	17876.14
530.803	18035.23
531.169	18034.33
531.535	18036.36
531.901	18124.95
532.267	18293.98
532.632	18330.82
532.998	18470.93
533.364	18528.55
533.73	18663.24
534.095	18852.61
534.461	18803.8
534.826	18960.18
535.192	19039.73
535.557	19162.43
535.923	19051.25
536.288	19232.71
536.653	19388.87
537.019	19284.24
537.384	19435.65
537.749	19531.01
538.114	19521.07
538.479	19574.85
538.845	19741.63
539.21	19658.24
539.575	19779.59
539.94	19816.65
540.305	19956.76
540.67	20022.75
541.034	20168.74
541.399	20191.56
541.764	20307.49
542.129	20269.07
542.494	20417.99
542.858	20444.21
543.223	20564.43
543.587	20688.04
543.952	20605.79
544.316	20771.43
544.681	20805.78
545.045	20924.42
545.41	20945.44
545.774	21078.99
546.138	20999.22
546.503	21189.5
546.867	21187.24
547.231	21399.89
547.595	21417.74
547.959	21429.49
548.324	21466.78
548.688	21554.24
549.052	21647.79
549.416	21708.58
549.779	21783.38
550.143	21918.52
550.507	22012.98
550.871	22040.78
551.235	22043.49
551.599	22138.85
551.962	22241.45
552.326	22407.09
552.689	22499.07
553.053	22375.91
553.417	22456.81
553.78	22844.37
554.143	22652.74
554.507	22787.65
554.87	22866.97
555.234	22967.76
555.597	22910.13
555.96	23102.22
556.323	23142.89
556.686	23290.24
557.05	23450.68
557.413	23438.03
557.776	23423.56
558.139	23652.71
558.502	23813.39
558.865	23759.15
559.228	23981.97
559.59	24094.51
559.953	24114.17
560.316	24335.41
560.679	24289.53
561.041	24520.26
561.404	24409.75
561.767	24658.33
562.129	24646.36
562.492	24963.41
562.854	24893.81
563.217	24882.51
563.579	24966.12
563.941	25138.1
564.304	25311.65
564.666	25565.88
565.028	25540.12
565.39	25509.84
565.753	25607.91
566.115	25788.7
566.477	25930.39
566.839	25877.51
567.201	26245.86
567.563	26172.42
567.925	26475.91
568.287	26333.32
568.648	26501.68
569.01	26545.52
569.372	26843.81
569.734	26642.01
570.095	26858.5
570.457	27109.34
570.819	27026.63
571.18	27230.7
571.542	27333.97
571.903	27293.52
572.265	27428.21
572.626	27572.61
572.987	27615.77
573.349	27729.21
573.71	27876.33
574.071	27888.08
574.432	28174.4
574.794	28088.08
575.155	28233.61
575.516	28253.95
575.877	28380.27
576.238	28400.38
576.599	28473.15
576.96	28557.89
577.32	28639.02
577.681	28863.2
578.042	29011.89
578.403	29028.62
578.763	29129.18
579.124	29115.39
579.485	29306.8
579.845	29435.38
580.206	29409.85
580.566	29345.67
580.927	29545.44
581.287	29802.15
581.648	29737.07
582.008	29978.19
582.368	30053.45
582.728	30184.74
583.089	30134.57
583.449	30285.31
583.809	30369.14
584.169	30567.33
584.529	30588.57
584.889	30800.55
585.249	30690.27
585.609	30709.7
585.969	30956.7
586.329	31046.87
586.688	31206.64
587.048	31283.7
587.408	31167.77
587.768	31380.19
588.127	31403.69
588.487	31501.54
588.846	31796.45
589.206	31781.31
589.565	31804.36
589.925	32010.68
590.284	31989.22
590.643	32174.75
591.003	32255.42
591.362	32457
591.721	32457.45
592.08	32441.41
592.44	32710.55
592.799	32859.93
593.158	32763.43
593.517	32838.91
593.876	32976.99
594.235	33080.26
594.593	33240.93
594.952	33278
595.311	33343.53
595.67	33460.36
596.029	33746.68
596.387	33765.21
596.746	33984.19
597.104	33839.79
597.463	33755.95
597.822	33903.74
598.18	34062.83
598.538	33988.94
598.897	34261.02
599.255	34155.03
599.613	34707.56
599.972	34544.85
600.33	34610.62
600.688	34511.86
601.046	34825.07
601.404	35094.67
601.762	35031.85
602.12	35188.68
602.478	35211.5
602.836	35234.78
603.194	35135.12
603.552	35268.45
603.91	35119.98
604.268	35525.39
604.625	35452.18
604.983	35528.56
605.341	35486.3
605.698	35774.43
606.056	35754.77
606.413	35804.03
606.771	35964.48
607.128	35988.21
607.485	36009.9
607.843	36119.28
608.2	36231.36
608.557	36413.96
608.914	36310.91
609.272	36513.84
609.629	36730.11
609.986	36862.53
610.343	36581.41
610.7	36869.09
611.057	36859.82
611.414	37034.05
611.771	37183.2
612.127	37197.89
612.484	37129.65
612.841	37417.77
613.198	37269.3
613.554	37340.04
613.911	37527.83
614.267	37668.16
614.624	37517.43
614.98	37766.92
615.337	37831.1
615.693	37936.4
616.05	37768.5
616.406	38141.37
616.762	37914.48
617.118	38193.35
617.475	38126.68
617.831	38188.6
618.187	38338.2
618.543	38182.72
618.899	38554.92
619.255	38430.4
619.611	38486.67
619.967	38582.04
620.323	38706.55
620.678	38623.62
621.034	38521.02
621.39	38650.06
621.746	38542.94
622.101	39048.69
622.457	38717.85
622.812	38863.61
623.168	38915.81
623.523	38988.81
623.879	39177.5
624.234	38839.88
624.589	39004.4
624.945	38997.84
625.3	39143.6
625.655	39091.18
626.01	39156.26
626.365	39170.5
626.72	39151.29
627.075	39250.04
627.43	39172.53
627.785	39258.63
628.14	39294.33
628.495	39259.08
628.85	39220.66
629.205	39116.26
629.559	39350.15
629.914	39175.69
630.269	39120.78
630.623	39103.38
630.978	39101.34
631.332	39205.07
631.687	39278.29
632.041	39165.07
632.396	39229.93
632.75	39203.26
633.104	39301.57
633.459	39046.2
633.813	39048.69
634.167	39164.39
634.521	39052.53
634.875	39146.77
635.229	39114.23
635.583	38942.48
635.937	38977.51
636.291	38991.74
636.645	38898.41
636.999	38885.31
637.352	39071.74
637.706	38792.43
638.06	38937.28
638.413	38944.06
638.767	38836.27
639.121	38841.69
639.474	38695.93
639.828	38547.24
640.181	38767.79
640.534	38609.15
640.888	38661.13
641.241	38467.46
641.594	38563.51
641.947	38670.85
642.301	38529.61
642.654	38642.15
643.007	38497.97
643.36	38498.65
643.713	38522.6
644.066	38659.77
644.419	38364.41
644.771	38091.65
645.124	37792.9
645.477	37664.32
645.83	37640.59
646.182	37326.25
646.535	37246.48
646.888	37488.96
647.24	37162.86
647.593	37368.28
647.945	37183.43
648.298	37079.25
648.65	37155.18
649.002	36898.69
649.355	37218.46
649.707	37145.01
650.059	37341.17
650.411	37698.44
650.763	37673.36
651.115	38057.08
651.467	37975.27
651.819	37931.21
652.171	37872
652.523	37784.54
652.875	37702.06
653.227	37720.14
653.578	37994.48
653.93	37727.14
654.282	37634.49
654.633	37608.73
654.985	37844.2
655.337	37754.26
655.688	37732.34
656.039	37764.88
656.391	37519.24
656.742	37552.91
657.094	37559.69
657.445	37670.65
657.796	37538
658.147	37498.22
658.498	37363.09
658.849	37567.83
659.2	37428.85
659.551	37357.89
659.902	37545.91
660.253	37481.95
660.604	37425.91
660.955	37262.3
661.306	37434.27
661.656	37186.59
662.007	37473.14
662.358	37516.98
662.708	37284.44
663.059	37382.52
663.409	37037.9
663.76	37381.39
664.11	37356.31
664.461	37399.69
664.811	37310.66
665.161	37360.37
665.511	37117.67
665.862	37202.19
666.212	37260.26
666.562	37328.74
666.912	37209.64
667.262	37187.95
667.612	37246.25
667.962	37252.58
668.312	37152.24
668.662	37388.17
669.011	37285.12
669.361	37196.54
669.711	37081.28
670.06	37120.83
670.41	37044.22
670.76	37024.79
671.109	37048.52
671.459	37122.87
671.808	37127.61
672.157	37135.07
672.507	36919.48
672.856	36996.54
673.205	36973.94
673.554	36967.16
673.904	36899.14
674.253	37026.82
674.602	36909.99
674.951	36451.47
675.3	36157.92
675.649	36790.45
675.998	36684.69
676.346	36739.37
676.695	37009.2
677.044	36715.87
677.393	36724.46
677.741	36663.67
678.09	36642.2
678.438	36633.61
678.787	36684.69
679.135	36547.74
679.484	36424.13
679.832	36547.97
680.181	36446.95
680.529	36390.46
680.877	36399.27
681.225	36401.08
681.573	36528.53
681.922	36349.33
682.27	36128.09
682.618	36284.02
682.966	36116.34
683.314	36242.44
683.661	35991.82
684.009	35944.59
684.357	35991.82
684.705	35835.44
685.053	35805.16
685.4	35780.98
685.748	35656.46
686.095	35690.81
686.443	35489.01
686.79	35473.42
687.138	35446.98
687.485	35415.34
687.832	35511.38
688.18	35378.73
688.527	35162.92
688.874	35163.6
689.221	35043.82
689.568	35104.84
689.915	35008.35
690.262	34830.27
690.609	34915.92
690.956	34762.02
691.303	34691.29
691.65	34483.61
691.997	34613.55
692.344	34351.64
692.69	34317.52
693.037	34428.25
693.383	34092.66
693.73	34315.48
694.077	33980.12
694.423	34009.05
694.769	33870.52
695.116	33832.33
695.462	33748.27
695.808	33603.18
696.155	33644.99
696.501	33499.46
696.847	33493.36
697.193	33273.02
697.539	33372
697.885	33298.79
698.231	32979.92
698.577	33072.12
698.923	32976.99
699.269	32682.76
699.614	32600.5
699.96	32623.1
700.306	32668.75
700.651	32455.19
700.997	32358.02
701.342	32348.75
701.688	32290
702.033	32219.27
702.379	32104.24
702.724	31995.54
703.069	32117.57
703.415	31764.81
703.76	31753.06
704.105	31818.15
704.45	31685.49
704.795	31578.83
705.14	31544.03
705.485	31435.78
705.83	31368.89
706.175	31400.98
706.52	31196.02
706.865	31130.25
707.209	31137.94
707.554	30955.57
707.899	31050.93
708.243	30902.46
708.588	30825.63
708.932	30606.2
709.277	30620.44
709.621	30779.3
709.966	30551.97
710.31	30467.22
710.654	30254.57
710.998	30415.92
711.342	30260.22
711.687	30254.8
712.031	30153.56
712.375	29957.86
712.719	30092.99
713.063	29910.85
713.407	30044.63
713.75	29957.86
714.094	29828.14
714.438	29806.67
714.782	29709.05
715.125	29682.38
715.469	29806
715.812	29475.84
716.156	29286.69
716.499	29357.87
716.843	29521.94
717.186	29189.06
717.53	29507.02
717.873	29179.8
718.216	29220.02
718.559	29126.01
718.902	28968.73
719.246	28949.07
719.589	28821.16
719.932	28792.92
720.275	28800.6
720.617	28742.75
720.96	28682.18
721.303	28637.89
721.646	28780.71
721.989	28540.94
722.331	28594.28
722.674	28614.61
723.016	28515.63
723.359	28458.91
723.701	28389.99
724.044	28427.5
724.386	28140.73
724.729	28244.23
725.071	28088.75
725.413	28204.91
725.755	28055.08
726.097	27969.89
726.439	27805.82
726.782	27886.05
727.124	27990
727.465	27811.7
727.807	27740.06
728.149	27750.46
728.491	27754.75
728.833	27790
729.175	27626.84
729.516	27646.05
729.858	27496.45
730.199	27581.87
730.541	27388.66
730.882	27354.08
731.224	27456
731.565	27317.7
731.906	27343.91
732.248	27395.21
732.589	27184.14
732.93	27107.08
733.271	27155.67
733.612	27158.61
733.953	27108.89
734.294	27042
734.635	26978.5
734.976	27067.76
735.317	26928.56
735.658	26883.81
735.999	26722.91
736.339	26835.23
736.68	26792.74
737.021	26665.74
737.361	26527.89
737.702	26864.15
738.042	26720.43
738.383	26681.33
738.723	26549.13
739.063	26492.41
739.404	26512.07
739.744	26470.49
740.084	26356.14
740.424	26306.65
740.764	26274.11
741.104	26376.03
741.444	26299.42
741.784	26119.31
742.124	26143.72
742.464	26148.92
742.804	26142.14
743.143	26094.46
743.483	26129.03
743.823	25891.97
744.162	25862.14
744.502	25905.99
744.841	25814.46
745.181	25935.59
745.52	25767.46
745.86	25811.98
746.199	25735.82
746.538	25727.91
746.877	25705.31
747.216	25700.12
747.556	25595.03
747.895	25640.68
748.234	25425.09
748.573	25486.34
748.911	25323.63
749.25	25358.2
749.589	25264.87
749.928	25295.61
750.267	25252.9
750.605	25199.79
750.944	25099
751.283	25063.97
751.621	25130.64
751.96	24928.38
752.298	24944.2
752.636	24947.82
752.975	24759.8
753.313	24680.71
753.651	24995.5
753.989	24626.02
754.327	24665.11
754.666	24659.69
755.004	24599.13
755.342	24542.63
755.679	24445.23
756.017	24420.83
756.355	24381.05
756.693	24292.24
757.031	24352.35
757.368	24170.66
757.706	24265.58
758.044	24060.38
758.381	24131.34
758.719	23973.61
759.056	23951.46
759.394	23849.54
759.731	23630.57
760.068	23635.76
760.405	23655.42
760.743	23539.72
761.08	23610.45
761.417	23475.99
761.754	23452.26
762.091	23411.81
762.428	23303.12
762.765	23218.82
763.102	23215.43
763.438	23065.38
763.775	22979.96
764.112	22898.15
764.449	23084.36
764.785	22913.52
765.122	22740.65
765.458	22560.31
765.795	22568.45
766.131	22577.94
766.467	22470.82
766.804	22367.1
767.14	22270.15
767.476	22302.01
767.812	22169.13
768.148	22183.82
768.485	21947.45
768.821	21890.95
769.157	21890.27
769.492	21787.22
769.828	21713.55
770.164	21689.15
770.5	21668.36
770.836	21539.77
771.171	21455.03
771.507	21441.24
771.842	21280.34
772.178	21260.46
772.513	21156.28
772.849	21145.88
773.184	20955.61
773.519	21014.59
773.855	20873.12
774.19	20756.29
774.525	20735.73
774.86	20711.55
775.195	20598.78
775.53	20471.33
775.865	20388.39
776.2	20329.63
776.535	20127.61
776.87	20209.41
777.205	20177.77
777.539	19967.84
777.874	20112.01
778.209	19864.11
778.543	19782.08
778.878	19733.49
779.212	19770.78
779.547	19606.04
779.881	19646.72
780.215	19515.65
780.55	19408.08
780.884	19428.42
781.218	19284.69
781.552	19232.49
781.886	19208.53
782.22	19171.7
782.554	19008.54
782.888	18813.52
783.222	18844.7
783.556	18764.03
783.889	18691.71
784.223	18631.37
784.557	18498.04
784.89	18665.05
785.224	18514.54
785.557	18411.27
785.891	18379.18
786.224	18350.93
786.558	18335.56
786.891	18056.7
787.224	17976.48
787.557	18039.98
787.891	17937.61
788.224	17889.25
788.557	17850.83
788.89	17837.05
789.223	17761.57
789.556	17603.15
789.888	17523.83
790.221	17467.11
790.554	17347.11
790.887	17453.1
791.219	17384.18
791.552	17301.24
791.884	17234.12
792.217	17136.27
792.549	17008.14
792.882	16962.27
793.214	16868.03
793.546	16870.97
793.879	16774.47
794.211	16717.07
794.543	16835.49
794.875	16747.58
795.207	16782.61
795.539	16518.44
795.871	16610.86
796.203	16389.85
796.535	16461.71
796.867	16294.26
797.198	16250.42
797.53	16264.66
797.862	16149.86
798.193	16218.56
798.525	16159.35
798.856	16000.71
799.188	15955.51
799.519	15965.91
799.85	15850.2
800.182	15915.74
800.513	15779.25
800.844	15663.54
801.175	15805.46
801.506	15706.25
801.837	15617.89
802.168	15565.47
802.499	15531.8
802.83	15415.87
803.161	15391.01
803.491	15410.22
803.822	15262.2
804.153	15304.23
804.483	15222.88
804.814	15095.2
805.145	15093.16
805.475	15171.8
805.805	15067.17
806.136	15054.52
806.466	15073.5
806.796	14984.01
807.126	14849.78
807.457	14839.84
807.787	14858.37
808.117	14711.03
808.447	14716.9
808.777	14655.66
809.107	14602.1
809.436	14606.62
809.766	14624.25
810.096	14580.41
810.426	14492.27
810.755	14451.15
811.085	14448.89
811.414	14454.76
811.744	14354.65
812.073	14247.99
812.403	14247.31
812.732	14240.98
813.061	14158.27
813.39	14140.42
813.719	14084.83
814.049	14142
814.378	14062.46
814.707	13984.27
815.036	13931.39
815.365	13831.5
815.693	13859.97
816.022	13784.72
816.351	13671.96
816.68	13591.06
817.008	13753.08
817.337	13559.87
817.665	13517.84
817.994	13637.61
818.322	13577.5
818.651	13513.32
818.979	13538.4
819.307	13601.68
819.636	13478.06
819.964	13380.21
820.292	13386.54
820.62	13392.42
820.948	13335.92
821.276	13443.71
821.604	13307.9
821.932	13376.6
822.259	13372.3
822.587	13344.73
822.915	13300.89
823.243	13382.02
823.57	13296.83
823.898	13325.3
824.225	13267
824.553	13254.34
824.88	13222.7
825.207	13332.3
825.535	13277.84
825.862	13290.05
826.189	13264.51
826.516	13374.34
826.843	13327.56
827.17	13367.78
827.497	13289.14
827.824	13264.51
828.151	13332.98
828.478	13327.33
828.805	13311.29
829.131	13216.38
829.458	13212.31
829.785	13147.9
830.111	13198.97
830.438	13221.12
830.764	13194.68
831.09	13232.19
831.417	13136.15
831.743	13234.91
832.069	13168.02
832.395	13150.61
832.722	13138.19
833.048	13208.69
833.374	13106.55
833.7	13131.18
834.026	13122.82
834.351	13125.3
834.677	13119.43
835.003	13081.01
835.329	13093.44
835.654	13080.56
835.98	12962.6
836.306	13042.37
836.631	12963.5
836.956	12962.15
837.282	13012.77
837.607	12940
837.932	12927.8
838.258	12891.64
838.583	12865.2
838.908	12828.14
839.233	12869.72
839.558	12720.12
839.883	12801.47
840.208	12681.25
840.533	12702.72
840.858	12630.85
841.182	12736.84
841.507	12669.27
841.832	12655.49
842.156	12613.68
842.481	12619.1
842.805	12529.84
843.13	12565.09
843.454	12518.09
843.778	12444.42
844.103	12440.8
844.427	12420.24
844.751	12388.37
845.075	12407.81
845.399	12373.46
845.723	12278.32
846.047	12270.19
846.371	12168.95
846.695	12174.14
847.019	12015.5
847.343	11987.48
847.666	11995.39
847.99	11939.8
848.313	11891.21
848.637	11809.41
848.96	11731.89
849.284	11716.08
849.607	11691.44
849.931	11665.23
850.254	11571.45
850.577	11494.61
850.9	11463.65
851.223	11403.09
851.546	11385.69
851.869	11328.52
852.192	11305.01
852.515	11186.37
852.838	11232.02
853.161	11243.77
853.483	11108.63
853.806	11109.54
854.129	11117.67
854.451	11011.46
854.774	11011.01
855.096	10936.89
855.419	10913.61
855.741	10867.28
856.063	10884.69
856.385	10811.24
856.708	10760.4
857.03	10726.72
857.352	10712.49
857.674	10687.85
857.996	10712.49
858.318	10640.4
858.64	10634.75
858.961	10620.29
859.283	10537.12
859.605	10549.33
859.926	10496.67
860.248	10470.91
860.57	10514.53
860.891	10487.86
861.212	10347.3
861.534	10338.71
861.855	10358.15
862.176	10331.93
862.498	10325.83
862.819	10234.76
863.14	10251.26
863.461	10287.41
863.782	10188.88
864.103	10175.33
864.424	10126.51
864.745	10107.98
865.065	10131.03
865.386	10044.26
865.707	10143.24
866.027	10066.63
866.348	10039.28
866.668	10057.14
866.989	9997.7
867.309	9905.95
867.63	9927.42
867.95	9934.43
868.27	9920.42
868.59	9961.77
868.91	9881.77
869.23	9884.94
869.55	9873.86
869.87	9968.55
870.19	9874.32
870.51	9868.67
870.83	9817.82
871.15	9725.85
871.469	9755.68
871.789	9729.91
872.109	9752.51
872.428	9711.38
872.748	9712.74
873.067	9688.56
873.386	9691.95
873.706	9689.01
874.025	9635.68
874.344	9672.06
874.663	9637.26
874.982	9586.64
875.301	9569.92
875.62	9564.95
875.939	9510.48
876.258	9535.79
876.577	9568.34
876.896	9420.32
877.214	9523.59
877.533	9570.14
877.852	9389.81
878.17	9401.56
878.489	9426.64
878.807	9397.94
879.125	9376.02
879.444	9465.97
879.762	9403.59
880.08	9370.83
880.398	9305.07
880.716	9310.26
881.034	9253.99
881.352	9322.24
881.67	9241.11
881.988	9312.98
882.306	9227.33
882.624	9203.83
882.941	9160.66
883.259	9142.58
883.577	9109.59
883.894	9146.2
884.212	9102.59
884.529	9057.39
884.846	9042.25
885.164	9020.33
885.481	9022.81
885.798	9014.9
886.115	8945.53
886.432	8996.37
886.75	8946.43
887.067	8889.03
887.383	8876.15
887.7	8933.32
888.017	8852.42
888.334	8836.83
888.651	8815.14
888.967	8779.2
889.284	8771.75
889.6	8762.48
889.917	8699.88
890.233	8644.52
890.55	8679.77
890.866	8677.29
891.182	8606.55
891.498	8589.83
891.815	8545.31
892.131	8522.71
892.447	8496.27
892.763	8494.92
893.079	8465.99
893.395	8348.03
893.71	8388.71
894.026	8371.31
894.342	8348.71
894.657	8287.69
894.973	8315.71
895.289	8339.67
895.604	8236.85
895.92	8232.55
896.235	8149.39
896.55	8229.16
896.865	8086.79
897.181	8150.97
897.496	8141.71
897.811	8049.51
898.126	8050.86
898.441	8024.2
898.756	7930.64
899.071	7907.36
899.386	7934.25
899.7	7886.57
900.015	7879.79
900.33	7731.77
900.644	7781.49
900.959	7778.55
901.273	7806.57
901.588	7727.03
901.902	7659.01
902.216	7635.51
902.531	7615.84
902.845	7606.13
903.159	7583.98
903.473	7574.04
903.787	7523.19
904.101	7506.02
904.415	7489.75
904.729	7459.46
905.042	7379.47
905.356	7375.63
905.67	7315.51
905.984	7340.15
906.297	7273.93
906.611	7282.29
906.924	7281.16
907.237	7217.89
907.551	7173.37
907.864	7156.87
908.177	7111.9
908.491	7157.55
908.804	7034.62
909.117	7068.51
909.43	7072.36
909.743	6992.36
910.056	6981.06
910.368	6896.32
910.681	6902.19
910.994	6839.82
911.307	6857.9
911.619	6766.83
911.932	6779.93
912.244	6737.22
912.557	6736.77
912.869	6713.95
913.181	6707.62
913.494	6676.66
913.806	6598.02
914.118	6609.54
914.43	6577
914.742	6506.95
915.054	6504.46
915.366	6493.84
915.678	6461.07
915.99	6476.67
916.302	6374.75
916.613	6367.97
916.925	6425.82
917.236	6348.08
917.548	6319.61
917.859	6336.33
918.171	6265.15
918.482	6248.2
918.794	6224.7
919.105	6184.7
919.416	6113.06
919.727	6170.23
920.038	6130.69
920.349	6085.72
920.66	6025.38
920.971	6045.49
921.282	5965.27
921.593	5933.18
921.903	5948.54
922.214	5909.45
922.525	5896.12
922.835	5883.46
923.146	5843.69
923.456	5826.29
923.767	5821.99
924.077	5799.17
924.387	5731.37
924.697	5713.75
925.008	5677.36
925.318	5674.43
925.628	5667.65
925.938	5607.08
926.248	5603.47
926.558	5579.29
926.867	5609.12
927.177	5539.52
927.487	5469.46
927.796	5476.24
928.106	5445.05
928.416	5487.31
928.725	5446.86
929.034	5379.07
929.344	5396.02
929.653	5387.43
929.962	5346.07
930.271	5322.12
930.581	5291.61
930.89	5311.72
931.199	5231.95
931.508	5242.57
931.817	5187.89
932.125	5197.15
932.434	5164.16
932.743	5116.48
933.051	5090.49
933.36	5073.09
933.669	5074.44
933.977	5023.37
934.286	5031.73
934.594	4985.18
934.902	4953.99
935.21	4936.59
935.519	4961.23
935.827	4986.08
936.135	4913.77
936.443	4888.69
936.751	4830.61
937.059	4850.27
937.367	4806.2
937.674	4825.64
937.982	4817.73
938.29	4743.6
938.597	4794
938.905	4771.4
939.213	4673.55
939.52	4659.76
939.827	4663.83
940.135	4641.46
940.442	4623.16
940.749	4609.37
941.056	4611.63
941.363	4568.69
941.67	4541.12
941.977	4504.97
942.284	4447.34
942.591	4461.35
942.898	4465.65
943.205	4429.49
943.511	4412.09
943.818	4414.12
944.125	4368.02
944.431	4367.79
944.738	4335.25
945.044	4333.67
945.35	4287.8
945.657	4276.72
945.963	4238.53
946.269	4282.37
946.575	4227.69
946.881	4228.14
947.187	4173.9
947.493	4148.37
947.799	4142.72
948.105	4154.69
948.41	4102.49
948.716	4103.39
949.022	4078.31
949.327	4056.62
949.633	4088.48
949.938	4049.39
950.244	4058.65
950.549	4012.1
950.854	4018.88
951.16	3971.87
951.465	3935.49
951.77	3950.63
952.075	3887.36
952.38	3928.71
952.685	3900.69
952.99	3875.15
953.294	3830.18
953.599	3853.01
953.904	3826.34
954.209	3776.85
954.513	3787.92
954.818	3770.07
955.122	3770.52
955.426	3689.39
955.731	3702.5
956.035	3690.98
956.339	3693.01
956.643	3697.53
956.948	3701.37
957.252	3676.29
957.556	3643.52
957.86	3611.66
958.163	3589.74
958.467	3589.96
958.771	3589.96
959.075	3543.86
959.378	3547.7
959.682	3537.08
959.985	3496.86
960.289	3495.73
960.592	3486.46
960.896	3457.54
961.199	3481.04
961.502	3483.07
961.805	3407.37
962.108	3417.76
962.411	3400.81
962.714	3412.34
963.017	3362.62
963.32	3334.15
963.623	3329.63
963.926	3365.79
964.228	3300.93
964.531	3286.02
964.833	3328.5
965.136	3265.68
965.438	3277.2
965.741	3201.5
966.043	3215.06
966.345	3241.95
966.648	3213.47
966.95	3161.05
967.252	3186.36
967.554	3131.67
967.856	3157.21
968.158	3118.79
968.46	3109.07
968.761	3100.94
969.063	3106.36
969.365	3043.54
969.666	3076.08
969.968	3040.6
970.269	3010.99
970.571	3035.4
970.872	3014.38
971.174	2986.81
971.475	2999.47
971.776	2925.57
972.077	2938.91
972.378	2963.99
972.679	2913.37
972.98	2913.37
973.281	2917.21
973.582	2906.82
973.883	2902.52
974.183	2860.49
974.484	2871.11
974.785	2816.42
975.085	2822.52
975.386	2817.33
975.686	2793.37
975.986	2834.28
976.287	2792.69
976.587	2742.75
976.887	2756.54
977.187	2751.11
977.487	2734.39
977.787	2726.03
978.087	2681.29
978.387	2709.76
978.687	2710.44
978.987	2651.46
979.286	2673.38
979.586	2637.9
979.885	2630.21
980.185	2605.36
980.484	2613.72
980.784	2658.24
981.083	2594.28
981.382	2576.43
981.682	2584.79
981.981	2568.07
982.28	2575.75
982.579	2536.88
982.878	2540.27
983.177	2542.76
983.475	2521.97
983.774	2461.86
984.073	2449.43
984.372	2482.42
984.67	2471.57
984.969	2462.99
985.267	2456.21
985.566	2405.81
985.864	2404.68
986.162	2394.29
986.461	2397.23
986.759	2389.32
987.057	2380.73
987.355	2350.22
987.653	2364.91
987.951	2317.91
988.249	2327.4
988.547	2351.58
988.844	2343.67
989.142	2297.79
989.44	2281.3
989.737	2296.89
990.035	2243.1
990.332	2279.04
990.63	2218.47
990.927	2254.18
991.224	2208.08
991.521	2233.61
991.819	2203.33
992.116	2204.01
992.413	2176.67
992.71	2173.5
993.006	2175.76
993.303	2121.07
993.6	2186.61
993.897	2144.12
994.193	2129.66
994.49	2136.89
994.787	2113.62
995.083	2074.75
995.379	2088.53
995.676	2084.69
995.972	2081.98
996.268	2059.83
996.565	2058.25
996.861	2052.38
997.157	2013.28
997.453	1992.49
997.749	2021.19
998.044	1979.83
998.34	1987.97
998.636	1975.99
998.932	2007.18
999.227	1963.79
999.523	1964.92
999.818	1938.93
1000.114	1933.96
1000.409	1947.52
1000.704	1912.72
1001	1918.59
1001.295	1883.57
1001.59	1875.88
1001.885	1850.8
1002.18	1868.88
1002.475	1820.52
1002.77	1848.76
1003.065	1826.62
1003.359	1799.95
1003.654	1810.12
1003.949	1795.88
1004.243	1796.11
1004.538	1788.43
1004.832	1777.13
1005.127	1775.32
1005.421	1758.82
1005.715	1742.55
1006.009	1744.36
1006.304	1715.66
1006.598	1696.23
1006.892	1718.6
1007.186	1685.83
1007.48	1687.19
1007.773	1663.01
1008.067	1701.42
1008.361	1668.66
1008.655	1628.66
1008.948	1640.41
1009.242	1643.12
1009.535	1612.39
1009.829	1619.17
1010.122	1620.52
1010.415	1607.19
1010.708	1597.02
1011.001	1566.06
1011.295	1602.9
1011.588	1568.77
1011.881	1554.99
1012.173	1544.59
1012.466	1538.72
1012.759	1548.66
1013.052	1545.95
1013.344	1526.74
1013.637	1505.5
1013.93	1511.37
1014.222	1500.07
1014.514	1489.9
1014.807	1482.45
1015.099	1461.66
1015.391	1439.06
1015.683	1436.57
1015.976	1435.44
1016.268	1428.21
1016.56	1401.09
1016.851	1399.51
1017.143	1385.73
1017.435	1379.62
1017.727	1405.39
1018.018	1397.25
1018.31	1393.64
1018.602	1360.87
1018.893	1360.19
1019.185	1351.83
1019.476	1362.68
1019.767	1359.29
1020.058	1345.28
1020.35	1294.66
1020.641	1299.85
1020.932	1281.1
1021.223	1308.89
1021.514	1287.2
1021.804	1288.33
1022.095	1270.25
1022.386	1264.6
1022.677	1259.63
1022.967	1241.32
1023.258	1235.9
1023.548	1232.96
1023.839	1185.73
1024.129	1203.58
1024.419	1227.76
1024.709	1182.79
1025	1192.51
1025.29	1184.6
1025.58	1184.38
1025.87	1176.01
1026.16	1135.34
1026.449	1178.5
1026.739	1134.21
1027.029	1152.74
1027.319	1124.49
1027.608	1121.55
1027.898	1130.37
1028.187	1099.63
1028.477	1115.22
1028.766	1107.32
1029.055	1075.9
1029.344	1096.92
1029.634	1098.05
1029.923	1073.87
1030.212	1050.37
1030.501	1065.51
1030.79	1059.18
1031.078	1019.86
1031.367	1041.1
1031.656	1018.96
1031.945	1010.37
1032.233	1024.83
1032.522	1009.69
1032.81	1012.4
1033.099	995
1033.387	988.67
1033.675	985.51
1033.963	968.11
1034.251	991.39
1034.54	969.47
1034.828	940.99
1035.116	937.38
1035.403	960.65
1035.691	939.86
1035.979	949.81
1036.267	922.69
1036.554	911.16
1036.842	898.96
1037.129	912.74
1037.417	919.52
1037.704	889.47
1037.992	908.45
1038.279	860.09
1038.566	903.48
1038.853	903.48
1039.14	903.48
