Data from hue_32_FLMS001491_00004.txt Node
Date: Tue Feb 07 17:22:49 GMT 2017
User: dcchb
Spectrometer: FLMS00149
Trigger mode: 0
Integration Time (sec): 2.000000E-2
Scans to average: 10
Electric dark correction enabled: true
Nonlinearity correction enabled: false
Boxcar width: 0
XAxis mode: Wavelengths
Number of Pixels in Spectrum: 2048
>>>>>Begin Spectral Data<<<<<
341.393	-13.26
341.776	-13.26
342.16	-13.26
342.543	-64.11
342.927	-79.48
343.31	-70.44
343.693	-60.94
344.077	-50.32
344.46	-60.94
344.843	-55.07
345.226	-44.22
345.61	-40.15
345.993	-23.21
346.376	-3.32
346.759	-0.61
347.142	21.09
347.525	33.29
347.908	73.06
348.291	71.26
348.674	107.41
349.057	103.12
349.44	118.94
349.823	132.72
350.206	167.07
350.588	205.04
350.971	207.97
351.354	209.56
351.737	241.87
352.119	261.98
352.502	240.52
352.884	258.37
353.267	291.36
353.65	283.45
354.032	313.06
354.414	315.99
354.797	318.71
355.179	319.16
355.562	297.24
355.944	322.1
356.326	335.2
356.709	331.14
357.091	324.81
357.473	365.26
357.855	327.75
358.238	355.54
358.62	339.95
359.002	353.51
359.384	342.21
359.766	341.98
360.148	329.55
360.53	358.48
360.912	325.03
361.294	347.18
361.676	338.82
362.057	331.59
362.439	332.04
362.821	331.36
363.203	309.89
363.584	326.84
363.966	316.45
364.348	325.49
364.729	305.15
365.111	325.26
365.493	336.56
365.874	317.35
366.256	323.68
366.637	324.81
367.019	318.03
367.4	327.52
367.781	337.69
368.163	330.46
368.544	325.26
368.925	304.92
369.306	333.62
369.688	306.28
370.069	311.47
370.45	309.67
370.831	325.94
371.212	304.24
371.593	316.22
371.974	309.67
372.355	310.8
372.736	311.47
373.117	329.33
373.498	327.29
373.879	320.97
374.26	313.51
374.641	334.07
375.021	337.46
375.402	330.46
375.783	319.16
376.163	347.18
376.544	336.78
376.925	335.66
377.305	317.8
377.686	308.54
378.066	330.68
378.447	348.99
378.827	343.79
379.208	310.12
379.588	337.91
379.968	315.09
380.349	341.98
380.729	358.93
381.109	350.34
381.489	353.06
381.87	363
382.25	344.24
382.63	346.95
383.01	342.43
383.39	345.37
383.77	346.73
384.15	351.93
384.53	365.26
384.91	344.69
385.29	343.11
385.67	350.12
386.049	347.63
386.429	357.35
386.809	367.29
387.189	353.73
387.568	358.48
387.948	358.93
388.328	353.96
388.707	337.24
389.087	348.54
389.466	360.97
389.846	348.08
390.225	362.77
390.605	364.35
390.984	357.58
391.363	380.17
391.743	380.63
392.122	358.03
392.501	382.21
392.881	379.04
393.26	382.89
393.639	367.52
394.018	361.19
394.397	391.92
394.776	372.94
395.155	396.67
395.534	413.62
395.913	414.52
396.292	392.38
396.671	395.09
397.05	378.14
397.429	390.34
397.808	379.72
398.186	426.5
398.565	391.02
398.944	386.05
399.323	412.94
399.701	400.06
400.08	401.19
400.458	403.45
400.837	414.97
401.215	406.39
401.594	407.07
401.972	412.26
402.351	386.95
402.729	414.75
403.107	426.5
403.486	410.91
403.864	407.07
404.242	425.14
404.62	413.17
404.999	416.56
405.377	425.82
405.755	435.31
406.133	425.14
406.511	427.4
406.889	419.04
407.267	442.77
407.645	436.44
408.023	452.71
408.401	447.97
408.779	452.71
409.156	469.44
409.534	432.6
409.912	453.17
410.29	455.43
410.667	475.31
411.045	459.95
411.422	456.1
411.8	462.21
412.178	455.43
412.555	492.04
412.933	464.47
413.31	477.57
413.687	481.87
414.065	495.65
414.442	470.79
414.819	496.78
415.197	505.59
415.574	492.94
415.951	481.19
416.328	507.18
416.705	504.46
417.082	504.69
417.46	508.31
417.837	512.83
418.214	544.46
418.591	536.78
418.967	521.64
419.344	512.37
419.721	532.03
420.098	538.59
420.475	522.77
420.852	520.28
421.228	542.66
421.605	538.14
421.982	549.21
422.358	563.45
422.735	563.9
423.111	564.8
423.488	577.46
423.864	552.6
424.241	576.78
424.617	569.55
424.994	569.55
425.37	563.9
425.746	572.26
426.123	580.85
426.499	559.83
426.875	600.05
427.251	599.83
427.627	582.43
428.003	603.44
428.379	626.95
428.756	616.33
429.132	632.14
429.507	626.72
429.883	613.61
430.259	632.14
430.635	672.37
431.011	647.06
431.387	663.56
431.763	664.69
432.138	650.22
432.514	664.91
432.89	664.01
433.265	693.39
433.641	670.34
434.016	703.55
434.392	691.35
434.767	691.8
435.143	692.03
435.518	695.42
435.894	708.53
436.269	719.15
436.644	732.03
437.02	738.36
437.395	740.39
437.77	752.14
438.145	753.72
438.52	742.88
438.895	731.12
439.271	742.42
439.646	775.19
440.021	786.72
440.395	786.72
440.77	783.1
441.145	779.26
441.52	793.72
441.895	789.43
442.27	808.18
442.645	791.46
443.019	806.38
443.394	808.18
443.769	812.93
444.143	810.67
444.518	813.83
444.892	820.61
445.267	811.57
445.641	835.08
446.016	862.87
446.39	857.22
446.764	857
447.139	853.83
447.513	839.6
447.887	869.2
448.262	844.12
448.636	867.62
449.01	855.64
449.384	896.32
449.758	906.71
450.132	903.32
450.506	900.61
450.88	924.57
451.254	901.29
451.628	933.15
452.002	932.48
452.376	942.87
452.75	938.35
453.123	938.58
453.497	964.34
453.871	978.8
454.244	983.1
454.618	934.51
454.992	998.46
455.365	984.68
455.739	1026.71
456.112	1018.57
456.486	1013.38
456.859	1030.78
457.232	1049.31
457.606	1043.21
457.979	1045.47
458.352	1103.77
458.725	1093.38
459.099	1091.12
459.472	1105.13
459.845	1092.25
460.218	1174.28
460.591	1143.32
460.964	1143.09
461.337	1150.77
461.71	1178.34
462.083	1197.78
462.456	1214.05
462.829	1226.48
463.201	1260.6
463.574	1233.48
463.947	1257.21
464.32	1283.65
464.692	1275.07
465.065	1301.05
465.438	1301.96
465.81	1317.32
466.183	1346.02
466.555	1397.1
466.928	1379.7
467.3	1403.2
467.672	1398.23
468.045	1443.65
468.417	1470.99
468.789	1453.14
469.161	1500.14
469.534	1489.52
469.906	1538.56
470.278	1546.47
470.65	1584.44
471.022	1609.07
471.394	1630.99
471.766	1657.65
472.138	1652.68
472.51	1726.8
472.882	1734.49
473.253	1744.43
473.625	1767.71
473.997	1839.12
474.369	1843.64
474.74	1873.02
475.112	1889.51
475.484	1943.97
475.855	2020.36
476.227	1999.57
476.598	2117.76
476.97	2100.35
477.341	2117.76
477.713	2200.46
478.084	2229.39
478.455	2308.71
478.827	2333.79
479.198	2407.01
479.569	2386.67
479.94	2553
480.311	2548.25
480.682	2615.82
481.053	2709.83
481.424	2732.88
481.795	2754.8
482.166	2855.14
482.537	2886.77
482.908	2984.62
483.279	3094.68
483.65	3112.98
484.021	3198.4
484.391	3275.01
484.762	3304.39
485.133	3409.47
485.503	3464.39
485.874	3553.65
486.244	3585.51
486.615	3712.06
486.985	3763.36
487.356	3870.48
487.726	3905.96
488.097	4024.6
488.467	4082.22
488.837	4164.71
489.207	4256.46
489.578	4320.86
489.948	4451.03
490.318	4480.86
490.688	4560.4
491.058	4683.79
491.428	4721.98
491.798	4888.08
492.168	4985.02
492.538	5019.37
492.908	5119.48
493.278	5200.61
493.648	5282.42
494.017	5349.99
494.387	5470.21
494.757	5497.1
495.126	5608.74
495.496	5645.57
495.866	5698.23
496.235	5794.95
496.605	5905.9
496.974	5966.47
497.344	6053.92
497.713	6150.19
498.082	6194.71
498.452	6241.26
498.821	6361.71
499.19	6409.62
499.559	6486.23
499.928	6540.69
500.298	6625.89
500.667	6669.5
501.036	6726.9
501.405	6848.93
501.774	6831.3
502.143	6946.1
502.512	7040.34
502.88	7068.13
503.249	7119.88
503.618	7168.02
503.987	7230.84
504.356	7257.96
504.724	7343.38
505.093	7431.74
505.462	7420.21
505.83	7481.46
506.199	7586.99
506.567	7719.19
506.936	7741.11
507.304	7754.44
507.672	7862.69
508.041	7962.12
508.409	7975.91
508.777	8108.33
509.145	8137.48
509.514	8132.29
509.882	8193.98
510.25	8264.94
510.618	8272.4
510.986	8327.31
511.354	8434.65
511.722	8516
512.09	8556.46
512.458	8598.26
512.826	8677.58
513.193	8706.73
513.561	8760.29
513.929	8773.63
514.297	8888.88
514.664	8857.24
515.032	8951.7
515.4	9034.41
515.767	9052.49
516.135	9149.89
516.502	9099.72
516.869	9253.61
517.237	9282.76
517.604	9240.73
517.972	9373.38
518.339	9448.64
518.706	9483.89
519.073	9498.8
519.44	9560.05
519.808	9655.18
520.175	9566.6
520.542	9638.46
520.909	9747.61
521.276	9758.91
521.643	9834.84
522.009	9908.96
522.376	9987.83
522.743	10090.2
523.11	10172.68
523.477	10184.44
523.843	10231.44
524.21	10389.4
524.577	10387.59
524.943	10442.06
525.31	10533.8
525.676	10645.89
526.043	10622.84
526.409	10706.91
526.776	10803.18
527.142	10785.32
527.508	10836.85
527.874	10916.62
528.241	11052.66
528.607	11006.79
528.973	11162.26
529.339	11108.03
529.705	11334.91
530.071	11374.91
530.437	11416.72
530.803	11490.16
531.169	11560.44
531.535	11556.15
531.901	11567.68
532.267	11656.71
532.632	11666.66
532.998	11799.31
533.364	11826.2
533.73	11888.57
534.095	11965.18
534.461	11971.96
534.826	12002.69
535.192	12056.25
535.557	12232.97
535.923	12133.31
536.288	12322.91
536.653	12312.29
537.019	12291.27
537.384	12382.12
537.749	12336.7
538.114	12398.39
538.479	12547.31
538.845	12585.5
539.21	12579.63
539.575	12648.33
539.94	12634.77
540.305	12835.67
540.67	12818.72
541.034	12847.64
541.399	12939.17
541.764	12965.83
542.129	13044.93
542.494	13035.21
542.858	13157.69
543.223	13069.11
543.587	13231.81
543.952	13162.89
544.316	13280.4
544.681	13297.8
545.045	13356.56
545.41	13510.45
545.774	13568.3
546.138	13532.6
546.503	13575.76
546.867	13624.12
547.231	13694.85
547.595	13790.44
547.959	13752.7
548.324	13787.28
548.688	13874.28
549.052	13943.43
549.416	13980.04
549.779	13982.08
550.143	14019.14
550.507	14072.47
550.871	14223.43
551.235	14187.72
551.599	14339.81
551.962	14326.47
552.326	14279.92
552.689	14457.32
553.053	14368.96
553.417	14477.66
553.78	14641.95
554.143	14533.93
554.507	14680.81
554.87	14746.35
555.234	14822.96
555.597	14700.48
555.96	14823.18
556.323	14847.59
556.686	14849.85
557.05	14996.51
557.413	15029.73
557.776	15093.91
558.139	15138.66
558.502	15238.99
558.865	15190.86
559.228	15377.97
559.59	15262.04
559.953	15363.06
560.316	15550.62
560.679	15452.09
561.041	15502.71
561.404	15728.02
561.767	15766.44
562.129	15709.26
562.492	15812.99
562.854	15788.81
563.217	15920.56
563.579	15940.89
563.941	16000.78
564.304	16075.58
564.666	16266.31
565.028	16107.22
565.39	16219.53
565.753	16273.32
566.115	16345.86
566.477	16346.53
566.839	16492.29
567.201	16610.26
567.563	16557.6
567.925	16635.79
568.287	16756.92
568.648	16723.7
569.01	16875.33
569.372	17010.24
569.734	16946.52
570.095	17024.03
570.457	17169.56
570.819	17175.66
571.18	17206.4
571.542	17410.91
571.903	17361.65
572.265	17575.88
572.626	17561.87
572.987	17598.25
573.349	17731.13
573.71	17736.1
574.071	17820.84
574.432	17902.65
574.794	18041.18
575.155	18145.36
575.516	18151.23
575.877	18280.72
576.238	18424.9
576.599	18458.34
576.96	18608.17
577.32	18714.15
577.681	18958.44
578.042	18999.12
578.403	19125.44
578.763	19232.79
579.124	19287.25
579.485	19514.36
579.845	19674.58
580.206	19796.61
580.566	19893.56
580.927	20048.81
581.287	20344.39
581.648	20412.19
582.008	20611.51
582.368	20822.12
582.728	20881.56
583.089	21033.42
583.449	21284.26
583.809	21543.23
584.169	21611.25
584.529	21851.25
584.889	22253.5
585.249	22271.8
585.609	22530.1
585.969	22780.71
586.329	22879.24
586.688	23225.45
587.048	23345.45
587.408	23552.9
587.768	23851.65
588.127	24025.88
588.487	24260.9
588.846	24674
589.206	24678.52
589.565	24928.68
589.925	25329.8
590.284	25497.48
590.643	25818.6
591.003	26070.8
591.362	26452.71
591.721	26622.42
592.08	26884.79
592.44	27152.35
592.799	27383.76
593.158	27645.9
593.517	27949.39
593.876	28195.49
594.235	28361.58
594.593	28653.33
594.952	28913.66
595.311	29117.05
595.67	29484.04
596.029	29832.05
596.387	30023.24
596.746	30340.52
597.104	30594.29
597.463	30618.47
597.822	31097.33
598.18	31171.45
598.538	31421.39
598.897	31984.31
599.255	31864.54
599.613	32543.85
599.972	32516.96
600.33	32792.2
600.688	32884.63
601.046	33163.27
601.404	33429.25
601.762	33648.68
602.12	33964.38
602.478	34156.91
602.836	34373.63
603.194	34476
603.552	34722.55
603.91	34861.75
604.268	35311.01
604.625	35308.29
604.983	35572.02
605.341	35645.01
605.698	35967.03
606.056	36204.09
606.413	36297.42
606.771	36505.33
607.128	36715.04
607.485	36710.07
607.843	36903.96
608.2	37181.01
608.557	37470.95
608.914	37558.63
609.272	37824.61
609.629	38120.65
609.986	38206.52
610.343	38153.87
610.7	38649.22
611.057	38567.87
611.414	38811.71
611.771	38990.46
612.127	39114.52
612.484	39218.7
612.841	39533.04
613.198	39475.42
613.554	39686.71
613.911	40016.65
614.267	40044.67
614.624	40082.41
614.98	40178
615.337	40604.88
615.693	40551.09
616.05	40554.26
616.406	40927.81
616.762	40822.05
617.118	40923.51
617.475	41159.67
617.831	41244.64
618.187	41342.71
618.543	41496.83
618.899	41610.28
619.255	41651.86
619.611	41731.18
619.967	41936.6
620.323	42099.75
620.678	42101.11
621.034	42057.27
621.39	42138.62
621.746	42090.04
622.101	42638.95
622.457	42401.67
622.812	42452.06
623.168	42730.25
623.523	42677.14
623.879	42908.77
624.234	42551.27
624.589	42941.31
624.945	42876.46
625.3	42975.44
625.655	43064.93
626.01	43098.6
626.365	43090.69
626.72	43094.3
627.075	43165.26
627.43	43363
627.785	43257.92
628.14	43304.02
628.495	43441.19
628.85	43237.13
629.205	43306.73
629.559	43537.91
629.914	43282.77
630.269	43426.95
630.623	43560.28
630.978	43505.14
631.332	43493.62
631.687	43707.4
632.041	43600.96
632.396	43537.46
632.75	43585.82
633.104	43510.34
633.459	43436.22
633.813	43447.97
634.167	43581.98
634.521	43614.97
634.875	43538.36
635.229	43486.38
635.583	43408.42
635.937	43431.47
636.291	43454.97
636.645	43567.51
636.999	43329.78
637.352	43504.24
637.706	43313.51
638.06	43404.35
638.413	43353.96
638.767	43313.96
639.121	43307.86
639.474	43049.79
639.828	43141.31
640.181	43164.36
640.534	43234.41
640.888	43049.33
641.241	43047.3
641.594	43128.65
641.947	43098.6
642.301	43161.42
642.654	43090.24
643.007	43124.81
643.36	43164.36
643.713	43090.01
644.066	43163.68
644.419	42915.78
644.771	42739.96
645.124	42241.45
645.477	42358.96
645.83	42078.29
646.182	41922.58
646.535	41842.36
646.888	41961.91
647.24	41617.28
647.593	41911.51
647.945	41829.93
648.298	41674.91
648.65	41592.65
649.002	41499.77
649.355	41752.42
649.707	41678.3
650.059	41817.73
650.411	42362.12
650.763	42405.96
651.115	42823.35
651.467	42630.81
651.819	42555.56
652.171	42461.1
652.523	42537.71
652.875	42495.68
653.227	42277.6
653.578	42631.04
653.93	42444.6
654.282	42390.14
654.633	42194.22
654.985	42310.82
655.337	42296.59
655.688	42561.44
656.039	42457.26
656.391	42271.95
656.742	42247.55
657.094	42277.38
657.445	42450.93
657.796	42185.63
658.147	42101.34
658.498	42151.05
658.849	42280.77
659.2	42198.28
659.551	42135.23
659.902	42258.85
660.253	42179.07
660.604	42201.45
660.955	41982.92
661.306	42197.83
661.656	42024.05
662.007	42118.51
662.358	42073.54
662.708	42231.5
663.059	42112.64
663.409	41870.16
663.76	42205.29
664.11	42005.75
664.461	42117.38
664.811	42290.71
665.161	42040.77
665.511	42058.85
665.862	42070.83
666.212	42057.72
666.562	42083.94
666.912	41967.33
667.262	41976.59
667.612	41930.27
667.962	42041.9
668.312	41794.68
668.662	42079.42
669.011	41991.28
669.361	41961
669.711	41944.05
670.06	41821.12
670.41	41795.36
670.76	41869.48
671.109	41923.26
671.459	41747
671.808	41775.7
672.157	41909.25
672.507	41690.05
672.856	41659.99
673.205	41646.89
673.554	41883.26
673.904	41644.63
674.253	41834.9
674.602	41652.99
674.951	41154.24
675.3	41182.04
675.649	41688.24
675.998	41570.05
676.346	41578.41
676.695	41754.68
677.044	41460.45
677.393	41651.86
677.741	41619.77
678.09	41438.98
678.438	41286.44
678.787	41389.49
679.135	41440.56
679.484	41112.21
679.832	41211.42
680.181	41029.73
680.529	41155.37
680.877	41101.36
681.225	41070.18
681.573	41180.68
681.922	41061.36
682.27	40901.14
682.618	40933.46
682.966	40834.25
683.314	40827.7
683.661	40833.12
684.009	40572.34
684.357	40592.68
684.705	40534.6
685.053	40672
685.4	40469.97
685.748	40238.11
686.095	40343.87
686.443	40308.16
686.79	40162.63
687.138	40364.66
687.485	40196.75
687.832	40015.52
688.18	39913.6
688.527	39954.27
688.874	39833.15
689.221	39752.92
689.568	39594.96
689.915	39589.76
690.262	39629.99
690.609	39457.11
690.956	39287.17
691.303	39257.57
691.65	39140.28
691.997	39115.65
692.344	38973.06
692.69	38820.29
693.037	38813.97
693.383	38619.85
693.73	38810.12
694.077	38444.03
694.423	38618.04
694.769	38392.51
695.116	38285.17
695.462	38208.33
695.808	38110.03
696.155	38221.44
696.501	37938.96
696.847	38009.47
697.193	37679.31
697.539	37847.21
697.885	37688.35
698.231	37487.67
698.577	37474.34
698.923	37292.42
699.269	37215.59
699.614	37089.26
699.96	36913.9
700.306	36948.48
700.651	36761.14
700.997	36717.75
701.342	36655.83
701.688	36465.1
702.033	36402.96
702.379	36478.89
702.724	36201.6
703.069	36415.84
703.415	35965.9
703.76	36077.99
704.105	36077.09
704.45	35973.81
704.795	35833.25
705.14	35706.02
705.485	35701.28
705.83	35426.26
706.175	35526.14
706.52	35390.1
706.865	35416.31
707.209	35283.44
707.554	35137.23
707.899	35256.77
708.243	35103.55
708.588	35107.62
708.932	34822.21
709.277	34718.03
709.621	34875.99
709.966	34618.82
710.31	34777.24
710.654	34354.42
710.998	34489.79
711.342	34441.2
711.687	34340.86
712.031	34221.54
712.375	34057.03
712.719	34232.16
713.063	34091.15
713.407	34117.59
713.75	33931.61
714.094	33979.74
714.438	33762.12
714.782	33798.73
715.125	33651.62
715.469	33737.71
715.812	33517.16
716.156	33215.92
716.499	33390.83
716.843	33344.96
717.186	33182.93
717.53	33442.58
717.873	33431.73
718.216	33224.28
718.559	33049.15
718.902	32853.9
719.246	32927.79
719.589	32836.27
719.932	32550.4
720.275	32678.99
720.617	32718.31
720.96	32649.38
721.303	32516.5
721.646	32683.51
721.989	32401.93
722.331	32470.4
722.674	32385.89
723.016	32402.16
723.359	32283.74
723.701	32410.29
724.044	32110.41
724.386	32027.03
724.729	32079.91
725.071	31996.52
725.413	31963.75
725.755	31971.66
726.097	31749.74
726.439	31661.61
726.782	31741.38
727.124	31846.24
727.465	31717.2
727.807	31622.29
728.149	31509.52
728.491	31539.35
728.833	31398.12
729.175	31360.83
729.516	31391.34
729.858	31390.66
730.199	31376.87
730.541	31201.51
730.882	31267.72
731.224	31286.71
731.565	31088.07
731.906	31132.59
732.248	31070.67
732.589	30925.59
732.93	30853.72
733.271	30733.27
733.612	30915.19
733.953	31004.45
734.294	30900.5
734.635	30675.87
734.976	30750.67
735.317	30643.33
735.658	30639.94
735.999	30508.19
736.339	30470
736.68	30557.23
737.021	30412.83
737.361	30333.74
737.702	30481.08
738.042	30380.06
738.383	30240.41
738.723	30340.97
739.063	30306.39
739.404	30084.03
739.744	30161.76
740.084	30066.17
740.424	30110.24
740.764	29946.85
741.104	30056.91
741.444	29893.07
741.784	29776.24
742.124	29843.81
742.464	29896.69
742.804	29702.57
743.143	29737.59
743.483	29717.71
743.823	29534.66
744.162	29605.39
744.502	29602.23
744.841	29421.22
745.181	29598.39
745.52	29475.45
745.86	29610.14
746.199	29391.61
746.538	29490.59
746.877	29407.88
747.216	29421.22
747.556	29170.38
747.895	29344.16
748.234	29137.84
748.573	29071.85
748.911	29164.5
749.25	29028.01
749.589	28854.91
749.928	28935.58
750.267	28997.5
750.605	28830.27
750.944	28796.83
751.283	28734.23
751.621	28786.21
751.96	28695.81
752.298	28461.47
752.636	28651.52
752.975	28512.32
753.313	28350.74
753.651	28464.41
753.989	28274.58
754.327	28340.12
754.666	28114.13
755.004	28078.43
755.342	28153.23
755.679	28180.8
756.017	27944.87
756.355	28021.03
756.693	27886.12
757.031	27835.04
757.368	27701.49
757.706	27659.46
758.044	27651.32
758.381	27704.43
758.719	27539.23
759.056	27529.74
759.394	27336.75
759.731	27192.12
760.068	27220.37
760.405	27176.53
760.743	27033.26
761.08	27081.17
761.417	27044.11
761.754	26949.87
762.091	26763.43
762.428	26699.26
762.765	26659.71
763.102	26638.01
763.438	26531.35
763.775	26431.01
764.112	26467.4
764.449	26540.16
764.785	26268.08
765.122	26016.56
765.458	26062.21
765.795	26097.01
766.131	26012.72
766.467	25897.47
766.804	25790.58
767.14	25670.58
767.476	25619.74
767.812	25513.52
768.148	25648.66
768.485	25363.7
768.821	25318.5
769.157	25212.06
769.492	25128.22
769.828	25116.02
770.164	24956.48
770.5	24899.75
770.836	24885.74
771.171	24749.93
771.507	24616.37
771.842	24540.44
772.178	24479.88
772.513	24344.74
772.849	24305.42
773.184	24247.12
773.519	24238.53
773.855	24162.15
774.19	23962.6
774.525	23994.24
774.86	23905.43
775.195	23851.42
775.53	23589.05
775.865	23609.85
776.2	23425.9
776.535	23313.13
776.87	23227.26
777.205	23195.62
777.539	23095.96
777.874	22998.79
778.209	22914.27
778.543	22884.67
778.878	22727.38
779.212	22726.93
779.547	22534.62
779.881	22652.36
780.215	22434.51
780.55	22594.96
780.884	22479.25
781.218	22341.86
781.552	22328.07
781.886	22229.09
782.22	22015.99
782.554	21959.49
782.888	21686.28
783.222	21732.61
783.556	21550.24
783.889	21586.85
784.223	21441.77
784.557	21378.04
784.89	21508.66
785.224	21395.67
785.557	21154.32
785.891	21162.45
786.224	21069.8
786.558	21054.88
786.891	20869.58
787.224	20764.5
787.557	20719.3
787.891	20771.5
788.224	20613.09
788.557	20663.26
788.89	20530.6
789.223	20417.16
789.556	20350.95
789.888	20210.16
790.221	20237.5
790.554	20102.82
790.887	20105.76
791.219	19962.26
791.552	19927.68
791.884	19925.2
792.217	19828.48
792.549	19743.96
792.882	19602.49
793.214	19464.19
793.546	19629.16
793.879	19371.99
794.211	19229.17
794.543	19346.91
794.875	19287.25
795.207	19309.17
795.539	19115.73
795.871	19092.22
796.203	19028.04
796.535	18875.51
796.867	18933.58
797.198	18925
797.53	18858.33
797.862	18668.28
798.193	18702.18
798.525	18575.63
798.856	18663.08
799.188	18371.56
799.519	18380.38
799.85	18323.2
800.182	18303.09
800.513	18256.54
800.844	18095.64
801.175	18142.64
801.506	18173.38
801.837	18086.37
802.168	18033.95
802.499	17974.51
802.83	17812.94
803.161	17767.29
803.491	17781.98
803.822	17773.16
804.153	17720.06
804.483	17559.61
804.814	17478.26
805.145	17513.96
805.475	17438.03
805.805	17412.49
806.136	17376.34
806.466	17382.66
806.796	17347.19
807.126	17150.58
807.457	17135.44
807.787	17127.98
808.117	17033.3
808.447	16988.78
808.777	17056.57
809.107	16871.94
809.436	16829.46
809.766	16845.05
810.096	16875.33
810.426	16640.76
810.755	16742
811.085	16631.27
811.414	16606.64
811.744	16569.8
812.073	16455.23
812.403	16492.97
812.732	16351.51
813.061	16424.05
813.39	16283.48
813.719	16238.29
814.049	16318.29
814.378	16232.86
814.707	16144.96
815.036	16115.58
815.365	16066.09
815.693	15905.64
816.022	15977.28
816.351	15893.21
816.68	15814.34
817.008	15918.52
817.337	15653.9
817.665	15687.34
817.994	15702.48
818.322	15684.86
818.651	15613.22
818.979	15535.26
819.307	15618.64
819.636	15571.19
819.964	15419.1
820.292	15531.64
820.62	15465.43
820.948	15401.7
821.276	15502.26
821.604	15431.3
821.932	15415.71
822.259	15443.28
822.587	15427.24
822.915	15380.01
823.243	15409.16
823.57	15329.84
823.898	15385.65
824.225	15352.21
824.553	15310.85
824.88	15317.41
825.207	15408.25
825.535	15331.64
825.862	15391.98
826.189	15280.8
826.516	15371.87
826.843	15365.77
827.17	15313.79
827.497	15393.11
827.824	15297.52
828.151	15401.25
828.478	15230.18
828.805	15291.87
829.131	15298.88
829.458	15289.16
829.785	15285.77
830.111	15250.52
830.438	15313.57
830.764	15306.33
831.09	15304.07
831.417	15211.65
831.743	15303.4
832.069	15194.47
832.395	15192.67
832.722	15213
833.048	15152.89
833.374	15229.27
833.7	15159.67
834.026	15145.21
834.351	15200.35
834.677	15178.2
835.003	15132.1
835.329	15079.9
835.654	15091.65
835.98	15015.27
836.306	15135.94
836.631	14984.08
836.956	15068.15
837.282	15104.53
837.607	14923.75
837.932	15036.51
838.258	14982.73
838.583	14901.83
838.908	14843.07
839.233	14774.82
839.558	14777.31
839.883	14665.22
840.208	14729.85
840.533	14681.04
840.858	14765.11
841.182	14701.83
841.507	14552.68
841.832	14567.15
842.156	14532.34
842.481	14662.74
842.805	14429.52
843.13	14439.46
843.454	14479.01
843.778	14422.97
844.103	14363.31
844.427	14365.79
844.751	14296.19
845.075	14251.67
845.399	14246.02
845.723	14159.7
846.047	14127.83
846.371	14034.73
846.695	14045.35
847.019	13996.99
847.343	13822.53
847.666	13766.71
847.99	13762.19
848.313	13810.55
848.637	13651.46
848.96	13662.31
849.284	13554.29
849.607	13446.5
849.931	13491.69
850.254	13367.85
850.577	13336.22
850.9	13256.22
851.223	13222.77
851.546	13175.32
851.869	13125.6
852.192	13184.58
852.515	12969.9
852.838	12992.5
853.161	12952.27
853.483	12886.96
853.806	12820.75
854.129	12839.96
854.451	12788.89
854.774	12721.09
855.096	12671.83
855.419	12638.83
855.741	12570.36
856.063	12446.97
856.385	12473.19
856.708	12399.29
857.03	12426.86
857.352	12448.56
857.674	12356.13
857.996	12312.29
858.318	12207.43
858.64	12236.36
858.961	12196.13
859.283	12137.6
859.605	12148.9
859.926	12226.19
860.248	12098.96
860.57	12015.57
860.891	12051.96
861.212	11957.72
861.534	11965.18
861.855	11865.52
862.176	11919.53
862.498	11858.52
862.819	11907.55
863.14	11830.27
863.461	11802.7
863.782	11771.06
864.103	11797.73
864.424	11741.68
864.745	11773.32
865.065	11685.19
865.386	11584.4
865.707	11637.05
866.027	11653.32
866.348	11540.56
866.668	11570.84
866.989	11498.07
867.309	11472.31
867.63	11559.31
867.95	11480.45
868.27	11450.62
868.59	11455.59
868.91	11366.55
869.23	11402.71
869.55	11336.04
869.87	11383.95
870.19	11420.34
870.51	11339.43
870.83	11322.03
871.15	11264.18
871.469	11315.25
871.789	11294.91
872.109	11241.58
872.428	11138.08
872.748	11240.45
873.067	11234.13
873.386	11148.48
873.706	11234.58
874.025	11094.47
874.344	11092.43
874.663	11048.37
874.982	11030.97
875.301	11079.33
875.62	10998.2
875.939	10952.78
876.258	10962.72
876.577	10920.46
876.896	10969.27
877.214	10940.12
877.533	11018.54
877.852	10870.52
878.17	10960.69
878.489	10917.3
878.807	10826.68
879.125	10969.05
879.444	10896.73
879.762	10849.95
880.08	10797.07
880.398	10735.38
880.716	10758.43
881.034	10748.04
881.352	10728.6
881.67	10619.68
881.988	10670.52
882.306	10674.37
882.624	10590.75
882.941	10537.87
883.259	10572.67
883.577	10575.39
883.894	10534.48
884.212	10485.44
884.529	10442.51
884.846	10374.49
885.164	10384.43
885.481	10362.51
885.798	10414.94
886.115	10313.02
886.432	10297.2
886.75	10265.56
887.067	10296.75
887.383	10320.93
887.7	10232.57
888.017	10207.71
888.334	10170.88
888.651	10150.09
888.967	10128.17
889.284	10066.92
889.6	10100.82
889.917	9981.73
890.233	10039.81
890.55	9985.12
890.866	9959.13
891.182	9953.48
891.498	9860.83
891.815	9856.76
892.131	9769.76
892.447	9779.47
892.763	9724.56
893.079	9741.96
893.395	9699.7
893.71	9694.28
894.026	9564.34
894.342	9615.64
894.657	9635.3
894.973	9578.8
895.289	9557.56
895.604	9557.79
895.92	9395.3
896.235	9433.27
896.55	9417
896.865	9377.68
897.181	9300.39
897.496	9307.17
897.811	9264.69
898.126	9259.71
898.441	9232.6
898.756	9178.13
899.071	9102.2
899.386	9197.34
899.7	9116.22
900.015	9053.84
900.33	9023.11
900.644	8981.3
900.959	9010.68
901.273	8933.85
901.588	8923.68
901.902	8825.38
902.216	8812.95
902.531	8770.46
902.845	8806.39
903.159	8663.12
903.473	8712.16
903.787	8594.42
904.101	8563.24
904.415	8562.33
904.729	8567.3
905.042	8569.56
905.356	8547.42
905.67	8429.23
905.984	8539.51
906.297	8411.83
906.611	8386.52
906.924	8353.07
907.237	8291.83
907.551	8339.29
907.864	8218.16
908.177	8289.57
908.491	8297.25
908.804	8133.87
909.117	8115.11
909.43	8142.46
909.743	8051.16
910.056	8060.42
910.368	8041.22
910.681	7990.14
910.994	7947.21
911.307	7903.14
911.619	7894.33
911.932	7889.81
912.244	7842.8
912.557	7808.23
912.869	7816.36
913.181	7711.28
913.494	7640.55
913.806	7643.26
914.118	7595.35
914.43	7546.99
914.742	7611.62
915.054	7563.04
915.366	7540.44
915.678	7458.86
915.99	7419.31
916.302	7353.55
916.613	7330.27
916.925	7352.87
917.236	7337.5
917.548	7200.11
917.859	7244.17
918.171	7278.52
918.482	7166.66
918.794	7116.04
919.105	7139.77
919.416	7072.88
919.727	7076.04
920.038	7051.41
920.349	7012.99
920.66	6988.59
920.971	6944.07
921.282	6918.08
921.593	6869.27
921.903	6853.22
922.214	6807.12
922.525	6746.79
922.835	6791.53
923.146	6716.73
923.456	6715.37
923.767	6685.32
924.077	6686.9
924.387	6631.53
924.697	6592.89
925.008	6547.7
925.318	6509.5
925.628	6489.84
925.938	6476.96
926.248	6438.77
926.558	6388.15
926.867	6348.83
927.177	6342.05
927.487	6304.54
927.796	6283.75
928.106	6299.34
928.416	6262.28
928.725	6238.78
929.034	6212.34
929.344	6218.89
929.653	6161.26
929.962	6062.51
930.271	6106.58
930.581	6094.6
930.89	6014.6
931.199	6015.28
931.508	6024.77
931.817	6031.78
932.125	5949.07
932.434	5916.98
932.743	5900.48
933.051	5846.7
933.36	5888.05
933.669	5812.8
933.977	5825.68
934.286	5806.7
934.594	5821.61
934.902	5676.76
935.21	5675.4
935.519	5718.34
935.827	5652.35
936.135	5617.78
936.443	5516.31
936.751	5564.67
937.059	5573.71
937.367	5505.46
937.674	5506.59
937.982	5450.55
938.29	5498.68
938.597	5462.75
938.905	5378.01
939.213	5419.14
939.52	5370.78
939.827	5394.73
940.135	5335.3
940.442	5286.94
940.749	5275.41
941.056	5305.02
941.363	5207.62
941.67	5175.53
941.977	5157.45
942.284	5156.09
942.591	5103.44
942.898	5143.44
943.205	5127.39
943.511	5071.35
943.818	5046.27
944.125	5026.15
944.431	5057.11
944.738	4980.28
945.044	4929.43
945.35	4954.74
945.657	4907.06
945.963	4898.25
946.269	4888.08
946.575	4878.81
946.881	4834.75
947.187	4812.15
947.493	4761.75
947.799	4801.07
948.105	4765.6
948.41	4727.4
948.716	4740.74
949.022	4699.38
949.327	4678.82
949.633	4659.16
949.938	4668.42
950.244	4630.23
950.549	4578.26
950.854	4528.99
951.16	4541.42
951.465	4544.81
951.77	4545.26
952.075	4537.35
952.38	4467.07
952.685	4457.13
952.99	4412.61
953.294	4436.11
953.599	4360.18
953.904	4369
954.209	4346.85
954.513	4357.47
954.818	4316.57
955.122	4304.36
955.426	4284.25
955.731	4265.27
956.035	4253.07
956.339	4198.38
956.643	4239.96
956.948	4211.94
957.252	4097.36
957.556	4177.59
957.86	4165.84
958.163	4120.87
958.467	4100.98
958.771	4110.02
959.075	4053.52
959.378	4053.07
959.682	4039.96
959.985	4024.82
960.289	3994.99
960.592	3981.89
960.896	3930.81
961.199	3933.3
961.502	3924.71
961.805	3905.28
962.108	3926.52
962.411	3877.48
962.714	3844.49
963.017	3848.33
963.32	3835.68
963.623	3806.75
963.926	3802.46
964.228	3800.42
964.531	3766.53
964.833	3769.69
965.136	3716.58
965.438	3691.72
965.741	3689.69
966.043	3660.77
966.345	3677.04
966.648	3640.65
966.95	3627.55
967.252	3630.71
967.554	3597.94
967.856	3585.06
968.158	3566.53
968.46	3526.31
968.761	3548.23
969.063	3509.58
969.365	3491.05
969.666	3499.87
969.968	3449.92
970.269	3467.55
970.571	3421
970.872	3403.14
971.174	3407.66
971.475	3408.79
971.776	3392.07
972.077	3367.21
972.378	3347.1
972.679	3335.58
972.98	3301.23
973.281	3284.5
973.582	3280.44
973.883	3258.74
974.183	3244.28
974.484	3258.52
974.785	3176.71
975.085	3223.94
975.386	3242.47
975.686	3160.89
975.986	3176.71
976.287	3192.98
976.587	3169.93
976.887	3099.42
977.187	3121.34
977.487	3109.59
977.787	3110.05
978.087	3051.06
978.387	3056.26
978.687	3055.36
978.987	3059.43
979.286	3017.62
979.586	3011.74
979.885	2975.81
980.185	2992.31
980.484	2983.27
980.784	2973.33
981.083	2936.04
981.382	2920.22
981.682	2942.59
981.981	2908.02
982.28	2902.37
982.579	2862.82
982.878	2879.54
983.177	2883.38
983.475	2888.81
983.774	2802.26
984.073	2832.54
984.372	2834.8
984.67	2785.99
984.969	2760.45
985.267	2792.99
985.566	2769.72
985.864	2779.66
986.162	2763.84
986.461	2714.35
986.759	2731.07
987.057	2699.89
987.355	2674.35
987.653	2682.03
987.951	2661.7
988.249	2646.55
988.547	2660.11
988.844	2634.13
989.142	2611.53
989.44	2572.88
989.737	2602.71
990.035	2569.04
990.332	2605.88
990.63	2535.6
990.927	2552.77
991.224	2552.55
991.521	2493.56
991.819	2517.07
992.116	2487.46
992.413	2507.58
992.71	2458.76
993.006	2462.83
993.303	2451.53
993.6	2433.9
993.897	2424.41
994.193	2423.96
994.49	2415.83
994.787	2392.32
995.083	2392.32
995.379	2380.35
995.676	2353.91
995.972	2356.84
996.268	2348.48
996.565	2340.57
996.861	2315.72
997.157	2285.21
997.453	2306.22
997.749	2289.5
998.044	2294.47
998.34	2241.14
998.636	2248.83
998.932	2228.94
999.227	2215.38
999.523	2248.15
999.818	2192.78
1000.114	2173.8
1000.409	2184.65
1000.704	2169.28
1001	2148.49
1001.295	2154.36
1001.59	2110.98
1001.885	2125.66
1002.18	2079.79
1002.475	2131.99
1002.77	2099.9
1003.065	2079.56
1003.359	2061.26
1003.654	2077.53
1003.949	2012.45
1004.243	2044.08
1004.538	1998.21
1004.832	1979.91
1005.127	1990.3
1005.421	1983.97
1005.715	1984.88
1006.009	1922.73
1006.304	1960.47
1006.598	1958.66
1006.892	1898.33
1007.186	1902.17
1007.48	1917.99
1007.773	1889.96
1008.067	1908.95
1008.361	1855.84
1008.655	1884.09
1008.948	1890.19
1009.242	1845.22
1009.535	1840.93
1009.829	1849.97
1010.122	1786.69
1010.415	1814.71
1010.708	1786.92
1011.001	1807.03
1011.295	1789.63
1011.588	1799.12
1011.881	1759.57
1012.173	1739.46
1012.466	1709.4
1012.759	1712.34
1013.052	1716.41
1013.344	1707.82
1013.637	1673.92
1013.93	1686.58
1014.222	1699.01
1014.514	1665.79
1014.807	1654.72
1015.099	1656.3
1015.391	1637.54
1015.683	1604.1
1015.976	1609.97
1016.268	1611.55
1016.56	1594.6
1016.851	1586.24
1017.143	1575.62
1017.435	1565.45
1017.727	1551.22
1018.018	1535.62
1018.31	1543.76
1018.602	1541.05
1018.893	1527.71
1019.185	1502.4
1019.476	1513.48
1019.767	1509.64
1020.058	1499.01
1020.35	1482.74
1020.641	1445.91
1020.932	1442.52
1021.223	1441.39
1021.514	1430.09
1021.804	1450.88
1022.095	1402.29
1022.386	1402.52
1022.677	1379.92
1022.967	1384.22
1023.258	1374.5
1023.548	1362.29
1023.839	1346.93
1024.129	1363.2
1024.419	1343.31
1024.709	1325.01
1025	1333.37
1025.29	1298.12
1025.58	1303.99
1025.87	1288.85
1026.16	1305.12
1026.449	1291.34
1026.739	1284.33
1027.029	1265.8
1027.319	1253.15
1027.608	1233.03
1027.898	1242.75
1028.187	1245.24
1028.477	1186.48
1028.766	1214.28
1029.055	1207.95
1029.344	1184.45
1029.634	1190.32
1029.923	1210.21
1030.212	1187.38
1030.501	1169.98
1030.79	1165.92
1031.078	1158.91
1031.367	1121.17
1031.656	1104.9
1031.945	1123.2
1032.233	1131.79
1032.522	1101.51
1032.81	1117.1
1033.099	1135.63
1033.387	1091.79
1033.675	1096.99
1033.963	1097.89
1034.251	1066.03
1034.54	1080.72
1034.828	1077.78
1035.116	1049.76
1035.403	1046.82
1035.691	1050.89
1035.979	1011.8
1036.267	1031.68
1036.554	1038.24
1036.842	1000.95
1037.129	1012.25
1037.417	980.16
1037.704	962.98
1037.992	977.9
1038.279	981.97
1038.566	980.84
1038.853	980.84
1039.14	980.84
