Data from hue_300_FLMS001491_00031.txt Node
Date: Tue Feb 07 15:50:38 GMT 2017
User: dcchb
Spectrometer: FLMS00149
Trigger mode: 0
Integration Time (sec): 2.000000E-2
Scans to average: 10
Electric dark correction enabled: true
Nonlinearity correction enabled: false
Boxcar width: 0
XAxis mode: Wavelengths
Number of Pixels in Spectrum: 2048
>>>>>Begin Spectral Data<<<<<
341.393	3.67
341.776	3.67
342.16	3.67
342.543	-63.44
342.927	-54.86
343.31	-59.38
343.693	-84.01
344.077	-53.05
344.46	-69.55
344.843	-50.34
345.226	-61.18
345.61	-41.52
345.993	-26.16
346.376	10.45
346.759	-2.88
347.142	45.93
347.525	38.7
347.908	63.11
348.291	74.4
348.674	96.1
349.057	119.38
349.44	107.62
349.823	137.23
350.206	141.97
350.588	197.11
350.971	221.52
351.354	229.43
351.737	251.58
352.119	251.8
352.502	252.03
352.884	265.81
353.267	263.1
353.65	294.06
354.032	292.7
354.414	299.26
354.797	328.18
355.179	313.27
355.562	316.43
355.944	325.02
356.326	294.51
356.709	340.61
357.091	337
357.473	346.26
357.855	331.8
358.238	340.61
358.62	331.57
359.002	339.71
359.384	334.51
359.766	314.17
360.148	311.46
360.53	341.52
360.912	327.96
361.294	328.18
361.676	342.87
362.057	320.27
362.439	326.38
362.821	311.69
363.203	320.5
363.584	297.9
363.966	318.47
364.348	315.75
364.729	336.32
365.111	306.49
365.493	301.97
365.874	300.61
366.256	322.76
366.637	299.03
367.019	313.72
367.4	293.38
367.781	325.92
368.163	311.46
368.544	325.92
368.925	313.27
369.306	320.05
369.688	317.11
370.069	318.47
370.45	318.01
370.831	304.46
371.212	312.14
371.593	329.09
371.974	303.55
372.355	304.46
372.736	332.7
373.117	323.44
373.498	316.43
373.879	324.12
374.26	327.96
374.641	319.82
375.021	316.88
375.402	323.89
375.783	316.66
376.163	316.88
376.544	329.77
376.925	334.28
377.305	314.85
377.686	341.06
378.066	313.72
378.447	318.69
378.827	307.39
379.208	348.3
379.588	343.78
379.968	313.27
380.349	302.65
380.729	337.9
381.109	349.2
381.489	331.12
381.87	329.09
382.25	337
382.63	312.14
383.01	339.48
383.39	329.31
383.77	341.52
384.15	343.78
384.53	350.56
384.91	341.52
385.29	367.28
385.67	329.99
386.049	358.69
386.429	330.9
386.809	353.49
387.189	358.47
387.568	359.82
387.948	337.67
388.328	369.54
388.707	362.31
389.087	361.4
389.466	348.97
389.846	359.14
390.225	358.01
390.605	355.08
390.984	352.36
391.363	360.5
391.743	375.41
392.122	380.39
392.501	370.67
392.881	360.5
393.26	371.35
393.639	377.67
394.018	387.39
394.397	385.81
394.776	371.57
395.155	387.16
395.534	406.37
395.913	393.04
396.292	372.7
396.671	376.09
397.05	402.31
397.429	423.1
397.808	396.88
398.186	378.13
398.565	394.62
398.944	390.55
399.323	412.93
399.701	408.18
400.08	393.94
400.458	416.99
400.837	433.04
401.215	420.61
401.594	409.76
401.972	423.1
402.351	420.38
402.729	407.96
403.107	419.93
403.486	433.49
403.864	429.42
404.242	415.86
404.62	421.97
404.999	435.07
405.377	442.08
405.755	439.82
406.133	434.17
406.511	441.17
406.889	440.5
407.267	450.44
407.645	473.04
408.023	460.84
408.401	492.25
408.779	463.1
409.156	504.22
409.534	489.76
409.912	487.05
410.29	496.54
410.667	484.56
411.045	506.03
411.422	515.52
411.8	512.81
412.178	554.17
412.555	534.96
412.933	547.84
413.31	575.86
413.687	583.32
414.065	585.35
414.442	567.5
414.819	582.87
415.197	580.83
415.574	604.11
415.951	597.1
416.328	620.83
416.705	615.63
417.082	605.01
417.46	638.46
417.837	643.2
418.214	668.29
418.591	680.49
418.967	686.59
419.344	693.15
419.721	648.4
420.098	682.52
420.475	716.87
420.852	698.12
421.228	707.83
421.605	732.01
421.982	737.89
422.358	759.58
422.735	750.32
423.111	766.82
423.488	766.36
423.864	778.57
424.241	789.19
424.617	794.16
424.994	788.74
425.37	799.13
425.746	826.48
426.123	829.19
426.499	829.19
426.875	839.13
427.251	837.77
427.627	868.51
428.003	885.23
428.379	878
428.756	877.77
429.132	910.09
429.507	896.53
429.883	921.61
430.259	926.36
430.635	947.38
431.011	965.91
431.387	964.78
431.763	981.05
432.138	997.09
432.514	1004.78
432.89	1001.61
433.265	1049.07
433.641	1052.46
434.016	1050.88
434.392	1037.77
434.767	1070.31
435.143	1064.21
435.518	1114.38
435.894	1114.38
436.269	1115.73
436.644	1143.3
437.02	1124.09
437.395	1161.38
437.77	1148.27
438.145	1165.45
438.52	1173.13
438.895	1174.71
439.271	1179.91
439.646	1232.34
440.021	1209.52
440.395	1221.95
440.77	1204.09
441.145	1223.98
441.52	1245.45
441.895	1238.89
442.27	1251.32
442.645	1254.49
443.019	1270.98
443.394	1253.81
443.769	1304.43
444.143	1280.47
444.518	1306.91
444.892	1276.63
445.267	1267.37
445.641	1321.38
446.016	1301.49
446.39	1330.64
446.764	1340.36
447.139	1329.74
447.513	1302.85
447.887	1317.31
448.262	1316.41
448.636	1319.57
449.01	1344.2
449.384	1349.4
449.758	1355.73
450.132	1336.74
450.506	1394.37
450.88	1378.78
451.254	1390.53
451.628	1397.99
452.002	1398.44
452.376	1433.01
452.75	1422.39
453.123	1419.68
453.497	1407.25
453.871	1423.97
454.244	1452.45
454.618	1470.98
454.992	1507.14
455.365	1479.34
455.739	1481.6
456.112	1495.38
456.486	1534.93
456.859	1547.36
457.232	1551.65
457.606	1522.05
457.979	1577.19
458.352	1572.44
458.725	1590.07
459.099	1574.93
459.472	1610.18
459.845	1623.29
460.218	1646.11
460.591	1630.52
460.964	1657.19
461.337	1649.96
461.71	1682.5
462.083	1699.9
462.456	1710.75
462.829	1700.12
463.201	1740.8
463.574	1695.83
463.947	1723.85
464.32	1746.23
464.692	1794.13
465.065	1758.2
465.438	1772.67
465.81	1799.78
466.183	1800.91
466.555	1809.95
466.928	1855.37
467.3	1843.85
467.672	1896.05
468.045	1914.13
468.417	1896.5
468.789	1909.38
469.161	1911.64
469.534	1961.59
469.906	1981.25
470.278	1968.37
470.65	1976.5
471.022	2042.71
471.394	2061.02
471.766	2059.89
472.138	2098.98
472.51	2115.03
472.882	2104.41
473.253	2127.68
473.625	2127.01
473.997	2184.41
474.369	2188.93
474.74	2212.43
475.112	2215.37
475.484	2262.82
475.855	2275.25
476.227	2297.17
476.598	2330.84
476.97	2332.2
477.341	2395.02
477.713	2405.19
478.084	2406.09
478.455	2472.76
478.827	2469.82
479.198	2511.4
479.569	2511.85
479.94	2541.01
480.311	2549.59
480.682	2611.51
481.053	2654.9
481.424	2668.46
481.795	2713.21
482.166	2667.78
482.537	2724.05
482.908	2778.51
483.279	2820.77
483.65	2826.2
484.021	2837.72
484.391	2863.03
484.762	2859.64
485.133	2870.72
485.503	2948.68
485.874	2962.69
486.244	3001.56
486.615	3059.64
486.985	3046.98
487.356	3116.58
487.726	3104.61
488.097	3138.96
488.467	3152.97
488.837	3172.85
489.207	3211.05
489.578	3277.94
489.948	3278.84
490.318	3281.78
490.688	3301.89
491.058	3317.94
491.428	3381.66
491.798	3382.34
492.168	3407.2
492.538	3439.06
492.908	3440.64
493.278	3487.2
493.648	3482
494.017	3518.38
494.387	3548.44
494.757	3570.13
495.126	3618.49
495.496	3576.01
495.866	3608.55
496.235	3646.06
496.605	3680.86
496.974	3683.35
497.344	3695.78
497.713	3679.51
498.082	3745.95
498.452	3726.96
498.821	3750.24
499.19	3771.71
499.559	3803.57
499.928	3801.76
500.298	3852.16
500.667	3873.17
501.036	3856.9
501.405	3861.42
501.774	3899.39
502.143	3891.71
502.512	3853.06
502.88	3952.27
503.249	3954.3
503.618	3937.35
503.987	3969.44
504.356	3969.9
504.724	3989.78
505.093	4014.41
505.462	4005.15
505.83	4019.61
506.199	4035.2
506.567	4072.04
506.936	4055.54
507.304	4095.09
507.672	4114.3
508.041	4105.03
508.409	4109.1
508.777	4121.76
509.145	4150.23
509.514	4188.42
509.882	4195.88
510.25	4200.85
510.618	4249.89
510.986	4200.85
511.354	4239.49
511.722	4257.12
512.09	4299.83
512.458	4266.16
512.826	4328.3
513.193	4317.23
513.561	4307.51
513.929	4350
514.297	4376.21
514.664	4347.29
515.032	4354.29
515.4	4399.94
515.767	4397.68
516.135	4432.93
516.502	4382.54
516.869	4444.23
517.237	4466.15
517.604	4455.98
517.972	4486.49
518.339	4453.95
518.706	4500.96
519.073	4489.2
519.44	4535.08
519.808	4504.57
520.175	4531.69
520.542	4571.91
520.909	4552.25
521.276	4568.98
521.643	4615.08
522.009	4573.27
522.376	4640.84
522.743	4615.3
523.11	4674.28
523.477	4686.49
523.843	4743.89
524.21	4747.73
524.577	4765.13
524.943	4752.7
525.31	4773.26
525.676	4834.28
526.043	4815.75
526.409	4839.03
526.776	4899.36
527.142	4877.44
527.508	4904.33
527.874	5001.28
528.241	4963.32
528.607	4968.06
528.973	5043.99
529.339	5028.17
529.705	5081.96
530.071	5074.73
530.437	5131.45
530.803	5139.81
531.169	5166.02
531.535	5145.01
531.901	5152.01
532.267	5154.72
532.632	5253.48
532.998	5236.53
533.364	5297.09
533.73	5238.11
534.095	5289.41
534.461	5320.14
534.826	5392.68
535.192	5373.47
535.557	5406.47
535.923	5397.43
536.288	5447.37
536.653	5476.3
537.019	5416.86
537.384	5483.75
537.749	5493.02
538.114	5525.11
538.479	5515.39
538.845	5543.19
539.21	5580.25
539.575	5566.24
539.94	5598.78
540.305	5694.14
540.67	5572.57
541.034	5694.6
541.399	5711.32
541.764	5686.91
542.129	5720.81
542.494	5746.12
542.858	5749.28
543.223	5776.85
543.587	5799
543.952	5828.15
544.316	5891.88
544.681	5792.9
545.045	5899.79
545.41	5933.46
545.774	5909.73
546.138	5962.84
546.503	6031.76
546.867	5946.79
547.231	6055.26
547.595	6039.67
547.959	6096.39
548.324	6089.16
548.688	6045.32
549.052	6116.73
549.416	6115.83
549.779	6129.39
550.143	6206.67
550.507	6209.84
550.871	6221.59
551.235	6203.51
551.599	6297.07
551.962	6308.14
552.326	6324.86
552.689	6359.21
553.053	6318.08
553.417	6369.38
553.78	6375.93
554.143	6376.39
554.507	6429.27
554.87	6447.12
555.234	6466.78
555.597	6470.85
555.96	6491.86
556.323	6536.61
556.686	6549.94
557.05	6578.64
557.413	6585.42
557.776	6548.36
558.139	6665.87
558.502	6594.46
558.865	6607.57
559.228	6664.97
559.59	6696.6
559.953	6772.31
560.316	6695.93
560.679	6704.06
561.041	6758.07
561.404	6780.44
561.767	6835.36
562.129	6810.05
562.492	6860.89
562.854	6915.58
563.217	6820.44
563.579	6877.84
563.941	6973.21
564.304	6971.62
564.666	7005.75
565.028	6989.03
565.39	7057.72
565.753	7072.41
566.115	7117.38
566.477	7047.33
566.839	7151.28
567.201	7171.62
567.563	7198.29
567.925	7203.93
568.287	7238.28
568.648	7291.16
569.01	7315.12
569.372	7363.7
569.734	7329.13
570.095	7373.2
570.457	7442.8
570.819	7445.28
571.18	7419.3
571.542	7499.97
571.903	7533.87
572.265	7610.25
572.626	7633.08
572.987	7682.79
573.349	7692.96
573.71	7747.65
574.071	7804.82
574.432	7883.01
574.794	7970.02
575.155	7897.48
575.516	7982.45
575.877	8083.01
576.238	8129.11
576.599	8134.53
576.96	8231.48
577.32	8324.36
577.681	8433.51
578.042	8496.56
578.403	8602.54
578.763	8672.14
579.124	8738.13
579.485	8819.71
579.845	8931.12
580.206	9047.95
580.566	9188.97
580.927	9339.92
581.287	9429.19
581.648	9553.25
582.008	9704.43
582.368	9819.01
582.728	10000.92
583.089	10099.45
583.449	10229.17
583.809	10394.59
584.169	10687.69
584.529	10777.17
584.889	11102.14
585.249	11173.77
585.609	11266.65
585.969	11592.52
586.329	11743.02
586.688	11982.79
587.048	12176.46
587.408	12361.77
587.768	12550.46
588.127	12895.08
588.487	13054.85
588.846	13459.59
589.206	13543.2
589.565	13844.89
589.925	14111.32
590.284	14363.07
590.643	14581.37
591.003	14888.03
591.362	15121.92
591.721	15454.79
592.08	15693.2
592.44	16003.25
592.799	16361.66
593.158	16527.98
593.517	16941.76
593.876	17139.72
594.235	17445.47
594.593	17699.93
594.952	17977.66
595.311	18246.13
595.67	18606.35
596.029	18968.37
596.387	19237.52
596.746	19537.62
597.104	19784.17
597.463	20076.14
597.822	20480.2
598.18	20552.96
598.538	20859.62
598.897	21302.1
599.255	21339.38
599.613	21977.78
599.972	22036.99
600.33	22368.51
600.688	22587.49
601.046	22971.43
601.404	23344.53
601.762	23597.63
602.12	23926.88
602.478	24185.64
602.836	24419.08
603.194	24503.37
603.552	24806.64
603.91	24929.8
604.268	25397.81
604.625	25558.71
604.983	25796.21
605.341	25983.1
605.698	26355.07
606.056	26502.64
606.413	26785.79
606.771	27079.57
607.128	27290.41
607.485	27360.02
607.843	27623.06
608.2	28047.45
608.557	28249.03
608.914	28324.74
609.272	28755.91
609.629	28842.01
609.986	29184.6
610.343	29153.41
610.7	29557.7
611.057	29732.16
611.414	29843.57
611.771	30035.2
612.127	30286.49
612.484	30465.92
612.841	30595.64
613.198	30673.37
613.554	30938.68
613.911	31254.15
614.267	31305.22
614.624	31550.19
614.98	31708.38
615.337	31969.39
615.693	32058.87
616.05	32132.32
616.406	32492.99
616.762	32496.38
617.118	32589.93
617.475	32717.61
617.831	32912.19
618.187	33017.49
618.543	33141.78
618.899	33468.1
619.255	33447.54
619.611	33538.61
619.967	33720.75
620.323	33950.58
620.678	33961.42
621.034	33924.36
621.39	34115.54
621.746	34116.45
622.101	34562.99
622.457	34459.04
622.812	34634.85
623.168	34748.52
623.523	34783.32
623.879	35056.54
624.234	34874.17
624.589	35028.06
624.945	35140.83
625.3	35235.51
625.655	35302.86
626.01	35310.99
626.365	35460.82
626.72	35488.61
627.075	35558.9
627.43	35656.29
627.785	35557.31
628.14	35625.56
628.495	35649.29
628.85	35815.16
629.205	35693.36
629.559	35930.64
629.914	35834.82
630.269	35932.45
630.623	35946.46
630.978	35827.36
631.332	35993.69
631.687	36131.76
632.041	36029.62
632.396	36204.75
632.75	35864.88
633.104	36050.63
633.459	36115.94
633.813	35993.69
634.167	36023.97
634.521	36026.45
634.875	36163.17
635.229	36253.11
635.583	36002.5
635.937	35990.97
636.291	36026.68
636.645	35967.02
636.999	36070.29
637.352	36315.03
637.706	36005.89
638.06	36263.74
638.413	36186.45
638.767	36052.89
639.121	36030.75
639.474	36007.47
639.828	35944.42
640.181	36032.78
640.534	36169.05
640.888	35983.29
641.241	35955.72
641.594	35955.04
641.947	36100.12
642.301	35990.3
642.654	36002.5
643.007	36122.72
643.36	36127.69
643.713	36031.43
644.066	36146.68
644.419	36006.79
644.771	35774.03
645.124	35452.46
645.477	35284.78
645.83	35101.73
646.182	35076.2
646.535	35020.83
646.888	34945.13
647.24	34925.47
647.593	35021.73
647.945	34988.97
648.298	35003.43
648.65	34791.68
649.002	34847.95
649.355	34946.48
649.707	34848.86
650.059	34993.49
650.411	35493.13
650.763	35617.88
651.115	35815.84
651.467	35702.85
651.819	35645.9
652.171	35675.05
652.523	35689.51
652.875	35670.31
653.227	35490.2
653.578	35795.73
653.93	35748.27
654.282	35572.68
654.633	35560.7
654.985	35412.91
655.337	35554.6
655.688	35478.67
656.039	35708.95
656.391	35411.78
656.742	35507.15
657.094	35431.22
657.445	35504.21
657.796	35705.56
658.147	35306.25
658.498	35478.9
658.849	35557.54
659.2	35438.45
659.551	35376.53
659.902	35523.19
660.253	35422.85
660.604	35565.45
660.955	35441.61
661.306	35418.11
661.656	35541.72
662.007	35423.31
662.358	35532
662.708	35388.73
663.059	35481.84
663.409	35256.53
663.76	35449.29
664.11	35358
664.461	35482.29
664.811	35403.42
665.161	35515.51
665.511	35343.53
665.862	35382.18
666.212	35454.72
666.562	35479.35
666.912	35421.5
667.262	35402.52
667.612	35400.48
667.962	35508.28
668.312	35306.02
668.662	35492
669.011	35401.16
669.361	35449.52
669.711	35249.3
670.06	35316.42
670.41	35227.15
670.76	35120.94
671.109	35382.18
671.459	35273.03
671.808	35136.99
672.157	35303.08
672.507	34934.73
672.856	35053.6
673.205	35155.52
673.554	35270.32
673.904	35009.76
674.253	35274.16
674.602	35109.87
674.951	34664.91
675.3	34384.69
675.649	35078.68
675.998	34901.74
676.346	35029.19
676.695	35120.26
677.044	34842.53
677.393	35024.9
677.741	35057.21
678.09	34919.59
678.438	34841.4
678.787	34853.38
679.135	34852.47
679.484	34664.46
679.832	34687.73
680.181	34560.96
680.529	34786.49
680.877	34537.45
681.225	34555.98
681.573	34754.17
681.922	34429.43
682.27	34448.19
682.618	34478.47
682.966	34323.45
683.314	34391.24
683.661	34316.67
684.009	34164.36
684.357	34124.13
684.705	34018.37
685.053	34050.69
685.4	34152.83
685.748	33848.21
686.095	33804.59
686.443	33743.12
686.79	33742.9
687.138	33815.66
687.485	33832.39
687.832	33591.72
688.18	33598.5
688.527	33443.7
688.874	33426.75
689.221	33416.13
689.568	33302.01
689.915	33274.66
690.262	33201.67
690.609	33103.37
690.956	32959.87
691.303	33060.66
691.65	32870.38
691.997	32986.99
692.344	32679.65
692.69	32602.59
693.037	32645.98
693.383	32325.99
693.73	32627.45
694.077	32315.14
694.423	32489.37
694.769	32123.96
695.116	32100.46
695.462	32105.43
695.808	31969.39
696.155	32131.87
696.501	31827.24
696.847	31783.63
697.193	31595.16
697.539	31846.45
697.885	31476.29
698.231	31402.17
698.577	31376.41
698.923	31319.23
699.269	31224.55
699.614	31043.99
699.96	31034.04
700.306	31064.1
700.651	30964.67
700.997	30806.48
701.342	30728.97
701.688	30822.52
702.033	30559.7
702.379	30501.18
702.724	30543.66
703.069	30485.13
703.415	30138.7
703.76	30190
704.105	30241.97
704.45	30167.17
704.795	29975.77
705.14	29971.7
705.485	29914.07
705.83	29778.93
706.175	29600.86
706.52	29709.11
706.865	29646.96
707.209	29536.46
707.554	29519.51
707.899	29579.62
708.243	29290.59
708.588	29357.93
708.932	29131.49
709.277	29134.21
709.621	29163.36
709.966	28927.88
710.31	28953.19
710.654	28719.08
710.998	28708.23
711.342	28953.87
711.687	28704.61
712.031	28609.25
712.375	28518.85
712.719	28629.59
713.063	28486.77
713.407	28585.07
713.75	28354.11
714.094	28325.64
714.438	28233.66
714.782	28347.79
715.125	28152.54
715.469	28183.5
715.812	28076.38
716.156	27813.11
716.499	27927.46
716.843	27964.74
717.186	27780.57
717.53	28006.55
717.873	27973.11
718.216	27698.54
718.559	27610.4
718.902	27501.71
719.246	27671.42
719.589	27485.21
719.932	27452.89
720.275	27447.7
720.617	27346
720.96	27286.12
721.303	27273.92
721.646	27286.12
721.989	27095.84
722.331	27311.65
722.674	27155.27
723.016	27028.72
723.359	27121.6
723.701	27176.52
724.044	26866.24
724.386	26739.47
724.729	26923.87
725.071	26743.08
725.413	26727.04
725.755	26710.77
726.097	26642.52
726.439	26511.68
726.782	26597.55
727.124	26660.37
727.465	26583.09
727.807	26443.88
728.149	26394.16
728.491	26528.4
728.833	26431.9
729.175	26314.84
729.516	26400.04
729.858	26202.76
730.199	26247.5
730.541	26249.76
730.882	26073.95
731.224	26233.27
731.565	25978.13
731.906	26075.76
732.248	26092.25
732.589	25961.41
732.93	25937
733.271	25986.72
733.612	25908.98
733.953	25859.26
734.294	25846.16
734.635	25807.29
734.976	25807.97
735.317	25563.45
735.658	25701.3
735.999	25694.97
736.339	25647.74
736.68	25647.29
737.021	25558.93
737.361	25381.76
737.702	25485.71
738.042	25372.95
738.383	25317.58
738.723	25482.78
739.063	25211.37
739.404	25397.58
739.744	25352.84
740.084	25149
740.424	25260.64
740.764	25169.11
741.104	25287.75
741.444	25092.05
741.784	24964.15
742.124	25054.54
742.464	25143.8
742.804	24916.01
743.143	24848.67
743.483	25061.32
743.823	24859.97
744.162	24786.75
744.502	24963.24
744.841	24747.88
745.181	24974.77
745.52	24668.79
745.86	24750.82
746.199	24765.51
746.538	24662.46
746.877	24800.08
747.216	24793.08
747.556	24626.08
747.895	24569.13
748.234	24472.63
748.573	24618.84
748.911	24546.98
749.25	24600.54
749.589	24335.01
749.928	24357.83
750.267	24610.93
750.605	24380.43
750.944	24431.5
751.283	24355.35
751.621	24368
751.96	24149.7
752.298	24316.93
752.636	24217.05
752.975	24063.15
753.313	24063.15
753.651	24176.82
753.989	23987.9
754.327	23892.99
754.666	23831.07
755.004	23986.77
755.342	23944.96
755.679	23977.96
756.017	23738.87
756.355	23851.86
756.693	23748.36
757.031	23713.11
757.368	23654.12
757.706	23573.45
758.044	23504.52
758.381	23622.71
758.719	23553.79
759.056	23534.8
759.394	23339.56
759.731	23325.77
760.068	23412.1
760.405	23274.02
760.743	23306.56
761.08	23272.89
761.417	23115.38
761.754	23130.3
762.091	23072.67
762.428	23012.78
762.765	22843.07
763.102	22986.8
763.438	22739.35
763.775	22636.07
764.112	22751.32
764.449	22783.41
764.785	22681.49
765.122	22593.13
765.458	22378.68
765.795	22415.29
766.131	22409.86
766.467	22286.25
766.804	22231.79
767.14	22129.19
767.476	22109.31
767.812	22107.72
768.148	21982.3
768.485	21913.83
768.821	21734.4
769.157	21796.32
769.492	21785.92
769.828	21804
770.164	21462.99
770.5	21493.05
770.836	21456.44
771.171	21379.16
771.507	21280.63
771.842	21148.43
772.178	21170.57
772.513	21144.59
772.849	20989.34
773.184	20933.52
773.519	20857.81
773.855	20768.32
774.19	20690.81
774.525	20665.5
774.86	20625.5
775.195	20588.44
775.53	20543.02
775.865	20352.06
776.2	20233.87
776.535	20107.55
776.87	20040.43
777.205	19982.58
777.539	19970.6
777.874	20094.67
778.209	19776.03
778.543	19758.18
778.878	19720.44
779.212	19731.06
779.547	19642.03
779.881	19654.45
780.215	19509.37
780.55	19561.12
780.884	19405.65
781.218	19310.06
781.552	19254.47
781.886	19233.9
782.22	19053.34
782.554	19101.48
782.888	18920.91
783.222	18721.6
783.556	18804.08
783.889	18710.52
784.223	18624.2
784.557	18600.92
784.89	18604.09
785.224	18469.85
785.557	18332.91
785.891	18327.94
786.224	18242.06
786.558	18216.53
786.891	18050.43
787.224	17979.92
787.557	17940.83
787.891	17936.53
788.224	17912.81
788.557	17901.28
788.89	17850.89
789.223	17771.11
789.556	17652.25
789.888	17639.82
790.221	17455.87
790.554	17360.28
790.887	17355.76
791.219	17384.01
791.552	17337.91
791.884	17231.69
792.217	17200.96
792.549	17244.8
792.882	17019.5
793.214	16875.32
793.546	16980.63
793.879	16784.25
794.211	16714.87
794.543	16739.73
794.875	16748.77
795.207	16683.23
795.539	16666.74
795.871	16611.15
796.203	16477.82
796.535	16318.72
796.867	16357.82
797.198	16284.15
797.53	16297.48
797.862	16224.49
798.193	16270.82
798.525	16111.05
798.856	16019.52
799.188	15986.98
799.519	15932.07
799.85	15911.73
800.182	15886.19
800.513	15911.05
800.844	15724.39
801.175	15764.61
801.506	15776.14
801.837	15599.42
802.168	15588.8
802.499	15547.44
802.83	15560.33
803.161	15525.07
803.491	15427.45
803.822	15382.02
804.153	15336.15
804.483	15127.79
804.814	15170.05
805.145	15110.39
805.475	15130.51
805.805	15065.42
806.136	15068.59
806.466	15002.83
806.796	14993.33
807.126	14928.93
807.457	14817.07
807.787	14852.55
808.117	14812.77
808.447	14795.37
808.777	14812.77
809.107	14718.77
809.436	14675.15
809.766	14689.61
810.096	14570.97
810.426	14521.93
810.755	14436.29
811.085	14415.95
811.414	14440.58
811.744	14377.76
812.073	14318.1
812.403	14296.18
812.732	14236.74
813.061	14293.47
813.39	14113.58
813.719	14101.38
814.049	14143.87
814.378	14016.64
814.707	13956.53
815.036	13972.57
815.365	13862.97
815.693	13843.53
816.022	13810.09
816.351	13753.59
816.68	13658.68
817.008	13821.61
817.337	13789.3
817.665	13552.02
817.994	13666.14
818.322	13641.51
818.651	13491.91
818.979	13453.71
819.307	13483.09
819.636	13475.41
819.964	13496.88
820.292	13436.99
820.62	13470.66
820.948	13430.21
821.276	13422.3
821.604	13432.02
821.932	13479.93
822.259	13370.78
822.587	13387.05
822.915	13371.68
823.243	13320.38
823.57	13316.09
823.898	13357.67
824.225	13274.74
824.553	13335.53
824.88	13322.87
825.207	13327.39
825.535	13275.87
825.862	13412.81
826.189	13361.74
826.516	13364.68
826.843	13368.29
827.17	13295.07
827.497	13428.63
827.824	13372.81
828.151	13408.97
828.478	13247.62
828.805	13418.01
829.131	13224.34
829.458	13235.19
829.785	13221.4
830.111	13155.87
830.438	13295.98
830.764	13334.17
831.09	13241.52
831.417	13241.52
831.743	13284.45
832.069	13233.83
832.395	13168.98
832.722	13268.18
833.048	13138.02
833.374	13254.62
833.7	13127.39
834.026	13133.72
834.351	13134.63
834.677	13101.18
835.003	13098.24
835.329	13142.08
835.654	13080.84
835.98	13052.59
836.306	13047.85
836.631	13034.74
836.956	12962.65
837.282	13020.28
837.607	12958.36
837.932	12931.69
838.258	12998.13
838.583	12971.47
838.908	12832.49
839.233	12892.6
839.558	12825.03
839.883	12735.31
840.208	12759.72
840.533	12750
840.858	12786.16
841.182	12726.5
841.507	12780.74
841.832	12686.5
842.156	12611.7
842.481	12634.3
842.805	12595.66
843.13	12552.27
843.454	12533.51
843.778	12470.46
844.103	12464.14
844.427	12495.32
844.751	12433.4
845.075	12433.63
845.399	12315.89
845.723	12327.64
846.047	12291.71
846.371	12110.92
846.695	12210.58
847.019	12113.86
847.343	12091.72
847.666	12041.1
847.99	11847.88
848.313	11977.59
848.637	11823.7
848.96	11912.51
849.284	11773.53
849.607	11731.95
849.931	11672.74
850.254	11488.57
850.577	11518.62
850.9	11443.15
851.223	11486.99
851.546	11399.98
851.869	11327.89
852.192	11342.58
852.515	11228.01
852.838	11262.81
853.161	11216.71
853.483	11111.63
853.806	11055.36
854.129	11142.81
854.451	11016.72
854.774	10960.9
855.096	10927.23
855.419	10948.02
855.741	10945.98
856.063	10894.91
856.385	10872.09
856.708	10784.18
857.03	10809.72
857.352	10759.55
857.674	10740.34
857.996	10679.78
858.318	10630.29
858.64	10664.18
858.961	10562.26
859.283	10576.05
859.605	10481.59
859.926	10619.21
860.248	10493.79
860.57	10487.92
860.891	10503.06
861.212	10455.83
861.534	10343.06
861.855	10341.71
862.176	10284.76
862.498	10339.45
862.819	10353.46
863.14	10332.89
863.461	10263.97
863.782	10277.07
864.103	10255.61
864.424	10263.06
864.745	10181.71
865.065	10188.26
865.386	10136.97
865.707	10157.53
866.027	10182.16
866.348	10062.39
866.668	10139.68
866.989	10117.53
867.309	10077.31
867.63	10107.14
867.95	9978.78
868.27	9999.12
868.59	10023.75
868.91	10007.25
869.23	9983.52
869.55	9923.19
869.87	9923.19
870.19	9882.73
870.51	9960.7
870.83	9892.45
871.15	9779.01
871.469	9828.72
871.789	9807.03
872.109	9877.54
872.428	9735.62
872.748	9732.23
873.067	9780.59
873.386	9766.81
873.706	9781.95
874.025	9668.73
874.344	9598.22
874.663	9719.8
874.982	9597.32
875.301	9652.46
875.62	9621.5
875.939	9614.94
876.258	9613.82
876.577	9599.8
876.896	9488.39
877.214	9536.3
877.533	9544.89
877.852	9531.33
878.17	9475.06
878.489	9427.38
878.807	9482.07
879.125	9387.15
879.444	9434.61
879.762	9469.64
880.08	9416.31
880.398	9396.65
880.716	9420.6
881.034	9386.02
881.352	9303.54
881.67	9277.55
881.988	9342.86
882.306	9280.04
882.624	9161.85
882.941	9146.71
883.259	9207.05
883.577	9209.98
883.894	9188.74
884.212	9186.26
884.529	9099.93
884.846	9089.76
885.164	9116.65
885.481	9094.73
885.798	9062.64
886.115	9046.15
886.432	8987.62
886.75	9005.47
887.067	8973.83
887.383	8893.61
887.7	8945.81
888.017	8875.53
888.334	8842.08
888.651	8878.47
888.967	8806.15
889.284	8809.09
889.6	8727.74
889.917	8778.81
890.233	8718.02
890.55	8645.7
890.866	8679.83
891.182	8670.34
891.498	8653.84
891.815	8588.98
892.131	8621.07
892.447	8587.85
892.763	8480.51
893.079	8520.74
893.395	8503.56
893.71	8468.53
894.026	8457.46
894.342	8363.45
894.657	8341.31
894.973	8362.32
895.289	8377.46
895.604	8241.87
895.92	8190.58
896.235	8249.11
896.55	8194.64
896.865	8126.4
897.181	8130.46
897.496	8153.06
897.811	8089.11
898.126	8063.57
898.441	8075.1
898.756	8054.31
899.071	7913.75
899.386	7994.2
899.7	7904.71
900.015	7883.92
900.33	7776.12
900.644	7753.52
900.959	7860.41
901.273	7774.99
901.588	7745.39
901.902	7709.68
902.216	7714.88
902.531	7650.7
902.845	7621.78
903.159	7572.96
903.473	7598.5
903.787	7558.95
904.101	7441.67
904.415	7506.98
904.729	7448
905.042	7438.73
905.356	7421.78
905.67	7345.63
905.984	7402.8
906.297	7393.08
906.611	7278.74
906.924	7268.79
907.237	7256.36
907.551	7224.27
907.864	7205.97
908.177	7151.96
908.491	7124.61
908.804	7084.16
909.117	7121.45
909.43	7070.61
909.743	7024.96
910.056	6945.64
910.368	6953.09
910.681	6959.2
910.994	6939.08
911.307	6925.98
911.619	6793.55
911.932	6876.71
912.244	6737.05
912.557	6794.45
912.869	6763.27
913.181	6686.43
913.494	6726.43
913.806	6648.02
914.118	6636.72
914.43	6621.35
914.742	6523.5
915.054	6584.97
915.366	6550.84
915.678	6480.34
915.99	6452.32
916.302	6441.47
916.613	6409.15
916.925	6390.17
917.236	6338.19
917.548	6381.81
917.859	6311.75
918.171	6239.67
918.482	6229.05
918.794	6167.35
919.105	6209.84
919.416	6177.75
919.727	6133
920.038	6126.22
920.349	6041.03
920.66	6115.38
920.971	6100.01
921.282	6061.82
921.593	6011.65
921.903	5941.6
922.214	5959
922.525	5919.9
922.835	5908.15
923.146	5928.71
923.456	5803.75
923.767	5827.25
924.077	5811.88
924.387	5782.5
924.697	5711.09
925.008	5722.17
925.318	5741.15
925.628	5716.52
925.938	5637.65
926.248	5608.95
926.558	5570.31
926.867	5560.81
927.177	5557.42
927.487	5528.27
927.796	5506.13
928.106	5504.32
928.416	5498.22
928.725	5437.65
929.034	5399.69
929.344	5496.64
929.653	5404.43
929.962	5368.73
930.271	5315.85
930.581	5326.24
930.89	5295.74
931.199	5283.31
931.508	5262.97
931.817	5244.66
932.125	5186.81
932.434	5207.83
932.743	5134.61
933.051	5150.66
933.36	5146.14
933.669	5109.3
933.977	5053.71
934.286	5031.11
934.594	5061.84
934.902	4958.12
935.21	4962.19
935.519	4915.18
935.827	4956.31
936.135	4938.68
936.443	4830.21
936.751	4856.43
937.059	4900.04
937.367	4785.24
937.674	4858.69
937.982	4784.34
938.29	4781.63
938.597	4765.35
938.905	4714.96
939.213	4675.87
939.52	4710.44
939.827	4671.35
940.135	4642.19
940.442	4629.31
940.749	4637.67
941.056	4606.04
941.363	4640.16
941.67	4485.81
941.977	4523.33
942.284	4521.52
942.591	4514.97
942.898	4474.29
943.205	4484.68
943.511	4398.81
943.818	4404.91
944.125	4375.53
944.431	4392.48
944.738	4333.73
945.044	4380.28
945.35	4322.65
945.657	4287.4
945.963	4315.2
946.269	4241.3
946.575	4240.85
946.881	4244.01
947.187	4220.06
947.493	4185.26
947.799	4147.07
948.105	4107.75
948.41	4101.87
948.716	4117.69
949.022	4107.97
949.327	4090.34
949.633	4070.91
949.938	4050.57
950.244	4010.57
950.549	4019.84
950.854	4047.41
951.16	3995.21
951.465	3954.3
951.77	3948.43
952.075	3935.77
952.38	3897.36
952.685	3900.74
952.99	3870.46
953.294	3894.87
953.599	3845.38
953.904	3828.88
954.209	3776.91
954.513	3744.14
954.818	3779.39
955.122	3751.82
955.426	3742.56
955.731	3732.84
956.035	3690.81
956.339	3704.37
956.643	3680.19
956.948	3634.76
957.252	3628.21
957.556	3635.44
957.86	3579.4
958.163	3608.78
958.467	3617.36
958.771	3576.01
959.075	3603.8
959.378	3510.02
959.682	3526.29
959.985	3506.4
960.289	3487.87
960.592	3467.76
960.896	3448.78
961.199	3450.14
961.502	3454.43
961.805	3412.4
962.108	3422.79
962.411	3381.44
962.714	3364.26
963.017	3363.13
963.32	3353.64
963.623	3347.54
963.926	3340.08
964.228	3298.73
964.531	3297.6
964.833	3301.89
965.136	3254.89
965.438	3222.57
965.741	3234.1
966.043	3225.73
966.345	3184.38
966.648	3225.28
966.95	3189.8
967.252	3169.69
967.554	3118.62
967.856	3137.6
968.158	3110.03
968.46	3134.89
968.761	3099.64
969.063	3064.83
969.365	3055.8
969.666	3038.39
969.968	3026.87
970.269	3008.56
970.571	3026.64
970.872	3008.34
971.174	2971.73
971.475	2991.62
971.776	2948
972.077	2915.91
972.378	2939.41
972.679	2931.05
972.98	2912.07
973.281	2891.73
973.582	2894.44
973.883	2876.82
974.183	2867.55
974.484	2828.91
974.785	2830.94
975.085	2825.52
975.386	2852.64
975.686	2793.88
975.986	2795.69
976.287	2825.29
976.587	2755.46
976.887	2731.74
977.187	2737.84
977.487	2712.98
977.787	2686.99
978.087	2706.88
978.387	2676.6
978.687	2672.08
978.987	2644.96
979.286	2630.5
979.586	2610.61
979.885	2650.83
980.185	2623.04
980.484	2601.34
980.784	2580.33
981.083	2581.46
981.382	2593.89
981.682	2531.74
981.981	2544.62
982.28	2539.42
982.579	2501.91
982.878	2499.88
983.177	2496.94
983.475	2469.6
983.774	2479.54
984.073	2454.91
984.372	2470.73
984.67	2473.21
984.969	2452.87
985.267	2443.61
985.566	2421.91
985.864	2403.38
986.162	2385.76
986.461	2411.07
986.759	2365.19
987.057	2363.84
987.355	2346.44
987.653	2356.38
987.951	2323.16
988.249	2340.79
988.547	2277.96
988.844	2301.01
989.142	2308.02
989.44	2266.89
989.737	2288.58
990.035	2261.69
990.332	2264.63
990.63	2242.03
990.927	2231.41
991.224	2199.09
991.521	2213.78
991.819	2196.83
992.116	2207
992.413	2187.12
992.71	2182.37
993.006	2165.65
993.303	2169.04
993.6	2115.71
993.897	2128.14
994.193	2119.77
994.49	2133.56
994.787	2106.22
995.083	2101.24
995.379	2110.06
995.676	2097.63
995.972	2080.45
996.268	2032.09
996.565	2034.81
996.861	2051.75
997.157	1974.02
997.453	1989.83
997.749	2019.21
998.044	1989.16
998.34	1971.53
998.636	1954.81
998.932	1956.84
999.227	1938.76
999.523	1934.02
999.818	1930.18
1000.114	1909.61
1000.409	1892.66
1000.704	1906.67
1001	1884.75
1001.295	1890.18
1001.59	1867.35
1001.885	1865.09
1002.18	1844.3
1002.475	1840.23
1002.77	1825.09
1003.065	1821.7
1003.359	1814.25
1003.654	1810.18
1003.949	1799.33
1004.243	1763.4
1004.538	1782.61
1004.832	1772.21
1005.127	1786.68
1005.421	1752.78
1005.715	1747.36
1006.009	1738.99
1006.304	1733.57
1006.598	1703.51
1006.892	1713.46
1007.186	1691.54
1007.48	1684.31
1007.773	1684.53
1008.067	1644.53
1008.361	1644.76
1008.655	1639.79
1008.948	1637.75
1009.242	1655.61
1009.535	1640.01
1009.829	1600.47
1010.122	1566.79
1010.415	1594.59
1010.708	1577.42
1011.001	1523.41
1011.295	1589.39
1011.588	1576.06
1011.881	1538.77
1012.173	1560.47
1012.466	1534.93
1012.759	1539
1013.052	1518.89
1013.344	1477.53
1013.637	1524.76
1013.93	1504.2
1014.222	1490.41
1014.514	1484.99
1014.807	1438.21
1015.099	1470.53
1015.391	1414.48
1015.683	1450.64
1015.976	1443.18
1016.268	1396.63
1016.56	1417.42
1016.851	1387.59
1017.143	1388.27
1017.435	1412.67
1017.727	1374.94
1018.018	1367.03
1018.31	1348.5
1018.602	1381.04
1018.893	1364.77
1019.185	1342.85
1019.476	1300.59
1019.767	1314.15
1020.058	1325.22
1020.35	1300.81
1020.641	1294.49
1020.932	1273.02
1021.223	1282.51
1021.514	1269.85
1021.804	1262.17
1022.095	1251.1
1022.386	1223.08
1022.677	1218.56
1022.967	1220.36
1023.258	1248.16
1023.548	1200.48
1023.839	1220.36
1024.129	1194.38
1024.419	1170.87
1024.709	1177.65
1025	1195.51
1025.29	1157.77
1025.58	1143.98
1025.87	1136.98
1026.16	1166.81
1026.449	1142.85
1026.739	1157.09
1027.029	1142.63
1027.319	1082.06
1027.608	1092.01
1027.898	1111.89
1028.187	1077.32
1028.477	1092.01
1028.766	1085.68
1029.055	1083.42
1029.344	1097.2
1029.634	1060.82
1029.923	1082.74
1030.212	1062.85
1030.501	1033.93
1030.79	1042.74
1031.078	1031.44
1031.367	1025.57
1031.656	1052.01
1031.945	1040.93
1032.233	998
1032.522	1019.46
1032.81	994.83
1033.099	950.99
1033.387	960.48
1033.675	974.04
1033.963	974.72
1034.251	1001.84
1034.54	965
1034.828	959.35
1035.116	934.04
1035.403	939.69
1035.691	937.43
1035.979	923.65
1036.267	922.07
1036.554	915.51
1036.842	905.8
1037.129	910.77
1037.417	897.21
1037.704	896.3
1037.992	883.65
1038.279	892.46
1038.566	894.27
1038.853	894.27
1039.14	894.27
