Data from hue_230_FLMS001491_00015.txt Node
Date: Tue Feb 07 16:36:52 GMT 2017
User: dcchb
Spectrometer: FLMS00149
Trigger mode: 0
Integration Time (sec): 2.000000E-2
Scans to average: 10
Electric dark correction enabled: true
Nonlinearity correction enabled: false
Boxcar width: 0
XAxis mode: Wavelengths
Number of Pixels in Spectrum: 2048
>>>>>Begin Spectral Data<<<<<
341.393	-7.64
341.776	-7.64
342.16	-7.64
342.543	-62.78
342.927	-55.1
343.31	-69.11
343.693	-52.84
344.077	-58.94
344.46	-43.57
344.843	-42.67
345.226	-31.37
345.61	-32.5
345.993	-29.11
346.376	-23.01
346.759	3.21
347.142	-4.03
347.525	41.4
347.908	67.39
348.291	65.8
348.674	100.15
349.057	109.19
349.44	135.63
349.823	152.13
350.206	165.46
350.588	194.39
350.971	188.96
351.354	244.1
351.737	257.66
352.119	264.89
352.502	261.96
352.884	289.07
353.267	276.42
353.65	317.77
354.032	285.46
354.414	306.47
354.797	322.52
355.179	298.79
355.562	332.01
355.944	326.59
356.326	324.1
356.709	326.14
357.091	338.11
357.473	354.16
357.855	325.68
358.238	335.85
358.62	341.5
359.002	326.36
359.384	332.91
359.766	337.66
360.148	328.62
360.53	352.12
360.912	323.42
361.294	360.48
361.676	342.86
362.057	333.37
362.439	316.87
362.821	324.33
363.203	319.36
363.584	339.24
363.966	309.86
364.348	310.99
364.729	314.61
365.111	330.88
365.493	328.4
365.874	329.3
366.256	321.39
366.637	319.58
367.019	309.19
367.4	339.69
367.781	326.59
368.163	319.36
368.544	323.65
368.925	295.4
369.306	333.37
369.688	305.8
370.069	322.07
370.45	311.45
370.831	313.03
371.212	308.28
371.593	314.61
371.974	310.32
372.355	325.46
372.736	325.23
373.117	327.49
373.498	299.92
373.879	315.74
374.26	299.47
374.641	301.5
375.021	318.9
375.402	327.94
375.783	320.71
376.163	314.38
376.544	318.9
376.925	339.24
377.305	319.58
377.686	331.79
378.066	333.37
378.447	329.07
378.827	336.98
379.208	325.01
379.588	319.81
379.968	352.58
380.349	331.79
380.729	325.46
381.109	359.13
381.489	339.02
381.87	346.93
382.25	340.82
382.63	338.56
383.01	349.19
383.39	331.33
383.77	325.01
384.15	332.01
384.53	343.08
384.91	355.74
385.29	340.82
385.67	351.9
386.049	346.93
386.429	346.7
386.809	366.13
387.189	353.25
387.568	349.19
387.948	338.79
388.328	342.86
388.707	363.87
389.087	363.2
389.466	373.59
389.846	364.78
390.225	384.89
390.605	358.23
390.984	346.25
391.363	367.04
391.743	370.2
392.122	378.79
392.501	380.6
392.881	381.95
393.26	368.39
393.639	363.2
394.018	373.14
394.397	374.95
394.776	392.8
395.155	384.44
395.534	386.92
395.913	398.9
396.292	371.78
396.671	392.8
397.05	398
397.429	388.28
397.808	391.44
398.186	378.79
398.565	423.08
398.944	402.74
399.323	405.91
399.701	422.86
400.08	395.29
400.458	421.27
400.837	401.84
401.215	397.32
401.594	427.6
401.972	432.8
402.351	420.6
402.729	432.35
403.107	438.67
403.486	426.7
403.864	417.43
404.242	426.47
404.62	414.95
404.999	434.83
405.377	440.26
405.755	452.69
406.133	459.69
406.511	452.23
406.889	454.27
407.267	483.19
407.645	466.92
408.023	488.84
408.401	471.67
408.779	486.81
409.156	505.11
409.534	491.1
409.912	490.88
410.29	502.85
410.667	494.27
411.045	520.93
411.422	514.38
411.8	530.88
412.178	545.11
412.555	526.58
412.933	572.68
413.31	599.57
413.687	573.36
414.065	544.43
414.442	561.84
414.819	578.33
415.197	596.86
415.574	603.87
415.951	593.25
416.328	621.72
416.705	599.12
417.082	619.24
417.46	644.55
417.837	641.38
418.214	640.03
418.591	651.78
418.967	683.41
419.344	647.93
419.721	680.48
420.098	663.53
420.475	684.09
420.852	700.59
421.228	698.56
421.605	714.83
421.982	695.39
422.358	747.37
422.735	744.66
423.111	750.31
423.488	762.06
423.864	759.8
424.241	801.38
424.617	813.13
424.994	797.99
425.37	812.45
425.746	814.71
426.123	808.83
426.499	841.15
426.875	854.71
427.251	871.88
427.627	874.82
428.003	888.38
428.379	917.98
428.756	898.1
429.132	915.95
429.507	912.33
429.883	945.1
430.259	937.64
430.635	965.44
431.011	956.4
431.387	997.3
431.763	992.78
432.138	987.81
432.514	1016.06
432.89	1020.58
433.265	1030.3
433.641	1059.22
434.016	1042.95
434.392	1101.03
434.767	1117.98
435.143	1151.42
435.518	1120.69
435.894	1178.99
436.269	1130.63
436.644	1217.64
437.02	1213.8
437.395	1210.86
437.77	1258.09
438.145	1264.19
438.52	1270.52
438.895	1291.99
439.271	1296.28
439.646	1327.47
440.021	1343.96
440.395	1365.2
440.77	1360.68
441.145	1392.77
441.52	1411.08
441.895	1407.69
442.27	1430.29
442.645	1424.41
443.019	1457.63
443.394	1461.25
443.769	1481.81
444.143	1467.12
444.518	1496.05
444.892	1486.33
445.267	1520
445.641	1525.65
446.016	1541.92
446.39	1547.35
446.764	1537.18
447.139	1580.57
447.513	1571.07
447.887	1581.47
448.262	1599.1
448.636	1580.79
449.01	1635.03
449.384	1635.71
449.758	1651.3
450.132	1680
450.506	1658.76
450.88	1668.02
451.254	1678.87
451.628	1723.61
452.002	1737.4
452.376	1717.96
452.75	1779.88
453.123	1777.17
453.497	1789.37
453.871	1832.99
454.244	1836.83
454.618	1828.02
454.992	1899.88
455.365	1843.38
455.739	1935.13
456.112	1919.09
456.486	1932.65
456.859	1949.6
457.232	1970.84
457.606	1977.39
457.979	2030.27
458.352	2054.9
458.725	2056.94
459.099	2081.8
459.472	2086.99
459.845	2103.72
460.218	2132.64
460.591	2134
460.964	2198.63
461.337	2244.96
461.71	2251.28
462.083	2266.88
462.456	2272.07
462.829	2297.16
463.201	2333.99
463.574	2320.66
463.947	2365.18
464.32	2442.69
464.692	2416.93
465.065	2424.39
465.438	2485.63
465.81	2480.43
466.183	2552.97
466.555	2571.73
466.928	2574.44
467.3	2599.75
467.672	2617.83
468.045	2721.55
468.417	2707.54
468.789	2691.95
469.161	2773.75
469.534	2798.84
469.906	2872.06
470.278	2844.26
470.65	2881.77
471.022	2974.2
471.394	2990.02
471.766	2988.21
472.138	3021.21
472.51	3103.01
472.882	3086.51
473.253	3143.91
473.625	3177.36
473.997	3258.49
474.369	3271.14
474.74	3281.99
475.112	3350.91
475.484	3415.32
475.855	3444.92
476.227	3439.73
476.598	3530.12
476.97	3567.41
477.341	3665.26
477.713	3648.31
478.084	3677.01
478.455	3833.16
478.827	3811.69
479.198	3915.87
479.569	3950.45
479.94	4024.57
480.311	4069.54
480.682	4123.78
481.053	4186.82
481.424	4271.34
481.795	4269.99
482.166	4343.21
482.537	4412.81
482.908	4491.45
483.279	4518.57
483.65	4601.05
484.021	4620.26
484.391	4705.68
484.762	4750.2
485.133	4762.4
485.503	4806.24
485.874	4947.48
486.244	4961.49
486.615	5021.61
486.985	5059.12
487.356	5151.32
487.726	5178.89
488.097	5255.5
488.467	5307.02
488.837	5401.71
489.207	5444.42
489.578	5502.5
489.948	5549.5
490.318	5642.83
490.688	5632.89
491.058	5710.63
491.428	5772.55
491.798	5851.41
492.168	5880.57
492.538	5968.25
492.908	5974.57
493.278	6077.85
493.648	6038.08
494.017	6132.08
494.387	6161.01
494.757	6181.8
495.126	6230.39
495.496	6323.49
495.866	6325.75
496.235	6333.21
496.605	6394.68
496.974	6429.25
497.344	6509.7
497.713	6494.11
498.082	6540.44
498.452	6568.46
498.821	6559.64
499.19	6600.32
499.559	6685.06
499.928	6680.77
500.298	6742.46
500.667	6860.88
501.036	6761.67
501.405	6838.05
501.774	6814.55
502.143	6904.95
502.512	6923.25
502.88	6952.18
503.249	6944.72
503.618	6977.26
503.987	7010.71
504.356	7067.65
504.724	7001.21
505.093	7105.84
505.462	7019.29
505.83	7118.95
506.199	7099.52
506.567	7273.52
506.936	7151.04
507.304	7278.27
507.672	7298.38
508.041	7269.46
508.409	7340.19
508.777	7325.5
509.145	7396.01
509.514	7374.54
509.882	7439.62
510.25	7482.33
510.618	7427.42
510.986	7441.88
511.354	7540.18
511.722	7617.24
512.09	7558.94
512.458	7584.02
512.826	7596.68
513.193	7605.04
513.561	7637.81
513.929	7727.07
514.297	7687.98
514.664	7740.18
515.032	7751.7
515.4	7797.58
515.767	7830.34
516.135	7811.81
516.502	7730.91
516.869	7833.06
517.237	7878.25
517.604	7837.58
517.972	7884.81
518.339	7894.07
518.706	7881.87
519.073	7935.2
519.44	7957.35
519.808	7946.05
520.175	7935.2
520.542	8035.09
520.909	8011.81
521.276	7907.63
521.643	8045.93
522.009	8053.84
522.376	8051.58
522.743	8135.65
523.11	8111.24
523.477	8216.55
523.843	8221.97
524.21	8284.57
524.577	8287.51
524.943	8293.16
525.31	8301.29
525.676	8367.28
526.043	8328.18
526.409	8392.59
526.776	8452.25
527.142	8399.14
527.508	8406.6
527.874	8412.48
528.241	8415.19
528.607	8405.25
528.973	8424
529.339	8503.77
529.705	8425.13
530.071	8517.33
530.437	8549.2
530.803	8560.95
531.169	8499.25
531.535	8494.73
531.901	8466.71
532.267	8487.28
532.632	8543.55
532.998	8541.96
533.364	8558.46
533.73	8503.1
534.095	8561.4
534.461	8569.76
534.826	8487.5
535.192	8513.26
535.557	8647.95
535.923	8501.06
536.288	8630.1
536.653	8544.45
537.019	8471.46
537.384	8525.92
537.749	8561.63
538.114	8547.39
538.479	8475.53
538.845	8496.77
539.21	8461.74
539.575	8443.89
539.94	8491.8
540.305	8465.13
540.67	8478.01
541.034	8493.6
541.399	8431.23
541.764	8434.4
542.129	8512.36
542.494	8463.1
542.858	8433.94
543.223	8391.01
543.587	8435.07
543.952	8467.62
544.316	8405.92
544.681	8399.82
545.045	8434.4
545.41	8387.39
545.774	8435.53
546.138	8378.58
546.503	8287.96
546.867	8353.04
547.231	8362.99
547.595	8289.54
547.959	8298.58
548.324	8230.11
548.688	8226.94
549.052	8248.87
549.416	8249.32
549.779	8267.17
550.143	8242.31
550.507	8254.51
550.871	8267.4
551.235	8253.16
551.599	8264.68
551.962	8247.28
552.326	8193.73
552.689	8301.74
553.053	8146.04
553.417	8208.64
553.78	8288.64
554.143	8192.14
554.507	8169.77
554.87	8211.58
555.234	8343.55
555.597	8169.55
555.96	8186.27
556.323	8215.87
556.686	8152.82
557.05	8215.87
557.413	8198.47
557.776	8188.3
558.139	8198.92
558.502	8155.08
558.865	8181.75
559.228	8256.1
559.59	8246.83
559.953	8206.61
560.316	8291.12
560.679	8298.13
561.041	8232.59
561.404	8313.5
561.767	8346.49
562.129	8244.35
562.492	8334.29
562.854	8292.03
563.217	8285.02
563.579	8287.51
563.941	8458.13
564.304	8394.17
564.666	8387.62
565.028	8375.19
565.39	8404.12
565.753	8458.8
566.115	8479.14
566.477	8473.49
566.839	8452.93
567.201	8548.74
567.563	8508.75
567.925	8580.16
568.287	8571.34
568.648	8590.32
569.01	8619.7
569.372	8645.01
569.734	8618.57
570.095	8638.01
570.457	8674.16
570.819	8693.37
571.18	8685.46
571.542	8754.84
571.903	8729.08
572.265	8772.47
572.626	8799.13
572.987	8718.68
573.349	8773.15
573.71	8851.11
574.071	8816.53
574.432	8852.92
574.794	8860.83
575.155	8923.2
575.516	8938.56
575.877	8944.67
576.238	8926.36
576.599	8960.94
576.96	8967.26
577.32	9015.4
577.681	9028.28
578.042	9049.97
578.403	9046.81
578.763	9045.91
579.124	8998.68
579.485	9079.8
579.845	9188.95
580.206	9095.17
580.566	9111.22
580.927	9147.82
581.287	9159.8
581.648	9147.37
582.008	9226.24
582.368	9256.52
582.728	9243.42
583.089	9243.64
583.449	9294.94
583.809	9215.39
584.169	9263.53
584.529	9305.79
584.889	9359.8
585.249	9262.62
585.609	9266.24
585.969	9390.53
586.329	9300.36
586.688	9377.42
587.048	9420.13
587.408	9304.2
587.768	9345.56
588.127	9349.63
588.487	9366.35
588.846	9452
589.206	9406.35
589.565	9400.02
589.925	9396.63
590.284	9422.17
590.643	9459.45
591.003	9487.93
591.362	9541.49
591.721	9447.93
592.08	9521.6
592.44	9543.29
592.799	9509.17
593.158	9548.27
593.517	9529.06
593.876	9558.66
594.235	9515.05
594.593	9567.25
594.952	9624.87
595.311	9550.75
595.67	9534.03
596.029	9641.37
596.387	9584.2
596.746	9633.01
597.104	9557.53
597.463	9574.71
597.822	9539.9
598.18	9602.05
598.538	9666
598.897	9671.65
599.255	9599.79
599.613	9741.03
599.972	9697.19
600.33	9671.65
600.688	9680.47
601.046	9693.8
601.404	9747.36
601.762	9680.01
602.12	9770.86
602.478	9689.05
602.836	9701.71
603.194	9712.33
603.552	9724.76
603.91	9654.7
604.268	9777.41
604.625	9765.21
604.983	9774.47
605.341	9666.68
605.698	9742.61
606.056	9785.77
606.413	9760.69
606.771	9800.24
607.128	9853.34
607.485	9757.07
607.843	9830.97
608.2	9871.87
608.557	9916.62
608.914	9823.74
609.272	9864.87
609.629	9902.61
609.986	9911.42
610.343	9875.49
610.7	9941.93
611.057	9959.78
611.414	9977.18
611.771	9898.99
612.127	9952.32
612.484	9979.22
612.841	9955.94
613.198	9917.52
613.554	9884.98
613.911	9944.64
614.267	9939.67
614.624	9997.75
614.98	9933.57
615.337	10012.89
615.693	10046.78
616.05	9959.1
616.406	10096.05
616.762	9969.95
617.118	10078.65
617.475	10011.98
617.831	10110.51
618.187	10087.69
618.543	10104.18
618.899	10084.3
619.255	10110.96
619.611	10181.02
619.967	10154.58
620.323	10157.74
620.678	10114.13
621.034	10047.69
621.39	10090.85
621.746	10092.43
622.101	10275.93
622.457	10127.91
622.812	10128.82
623.168	10125.43
623.523	10155.48
623.879	10157.74
624.234	10081.13
624.589	10122.26
624.945	10116.16
625.3	10131.3
625.655	10091.53
626.01	10204.97
626.365	10115.93
626.72	10092.88
627.075	10144.18
627.43	10105.99
627.785	10042.94
628.14	10082.72
628.495	10097.86
628.85	10122.94
629.205	10172.88
629.559	10096.95
629.914	10025.99
630.269	10002.49
630.623	10078.2
630.978	10069.38
631.332	10106.9
631.687	10040
632.041	9996.16
632.396	10065.54
632.75	9979.89
633.104	9967.69
633.459	9939.67
633.813	9946.67
634.167	9974.02
634.521	9954.13
634.875	9925.43
635.229	9894.02
635.583	9836.39
635.937	9902.15
636.291	9914.81
636.645	9917.07
636.999	9829.61
637.352	9876.39
637.706	9792.55
638.06	9871.42
638.413	9838.2
638.767	9699.22
639.121	9865.09
639.474	9732.89
639.828	9811.76
640.181	9710.3
640.534	9761.14
640.888	9687.92
641.241	9677.3
641.594	9702.61
641.947	9719.56
642.301	9726.79
642.654	9639.56
643.007	9720.46
643.36	9685.89
643.713	9701.71
644.066	9714.59
644.419	9675.49
644.771	9600.02
645.124	9486.35
645.477	9499.23
645.83	9451.32
646.182	9348.72
646.535	9312.57
646.888	9358.44
647.24	9302.85
647.593	9400.47
647.945	9339.23
648.298	9276.86
648.65	9276.63
649.002	9287.03
649.355	9296.3
649.707	9329.51
650.059	9348.72
650.411	9447.7
650.763	9468.27
651.115	9540.36
651.467	9508.72
651.819	9455.16
652.171	9518.44
652.523	9496.74
652.875	9537.42
653.227	9419.46
653.578	9520.7
653.93	9547.14
654.282	9506.23
654.633	9488.38
654.985	9440.92
655.337	9501.49
655.688	9532.22
656.039	9541.71
656.391	9496.29
656.742	9540.36
657.094	9521.15
657.445	9539.23
657.796	9516.4
658.147	9496.74
658.498	9429.4
658.849	9551.88
659.2	9486.8
659.551	9446.12
659.902	9456.29
660.253	9443.18
660.604	9488.15
660.955	9487.25
661.306	9459.68
661.656	9462.62
662.007	9461.94
662.358	9461.71
662.708	9496.29
663.059	9496.06
663.409	9436.18
663.76	9466.91
664.11	9524.99
664.461	9482.73
664.811	9504.65
665.161	9500.36
665.511	9407.7
665.862	9497.19
666.212	9481.37
666.562	9421.94
666.912	9482.73
667.262	9475.05
667.612	9457.65
667.962	9509.17
668.312	9435.73
668.662	9594.59
669.011	9472.56
669.361	9502.84
669.711	9428.95
670.06	9482.96
670.41	9510.53
670.76	9435.5
671.109	9408.38
671.459	9459.23
671.808	9447.48
672.157	9426.69
672.507	9349.63
672.856	9397.99
673.205	9406.35
673.554	9383.98
673.904	9343.07
674.253	9444.09
674.602	9387.82
674.951	9261.27
675.3	9277.09
675.649	9300.36
675.998	9367.03
676.346	9319.57
676.695	9370.19
677.044	9354.15
677.393	9326.58
677.741	9332.23
678.09	9343.53
678.438	9315.28
678.787	9303.3
679.135	9267.37
679.484	9246.58
679.832	9264.66
680.181	9211.78
680.529	9183.76
680.877	9178.11
681.225	9234.6
681.573	9261.95
681.922	9137.66
682.27	9083.87
682.618	9124.77
682.966	9152.12
683.314	9098.79
683.661	9066.47
684.009	9066.47
684.357	8999.81
684.705	9054.04
685.053	8973.14
685.4	9021.27
685.748	8898.57
686.095	8901.96
686.443	8881.16
686.79	8907.6
687.138	8930.43
687.485	8875.97
687.832	8847.72
688.18	8873.93
688.527	8784.22
688.874	8774.73
689.221	8742.41
689.568	8758
689.915	8751.68
690.262	8706.93
690.609	8678.23
690.956	8676.42
691.303	8583.77
691.65	8575.86
691.997	8624.9
692.344	8551.91
692.69	8562.3
693.037	8562.3
693.383	8454.06
693.73	8483.66
694.077	8449.09
694.423	8465.36
694.769	8384.45
695.116	8367.96
695.462	8337.68
695.808	8282.76
696.155	8291.35
696.501	8163.67
696.847	8235.76
697.193	8189.21
697.539	8209.54
697.885	8137.91
698.231	8138.36
698.577	8077.34
698.923	8059.27
699.269	8071.47
699.614	8011.13
699.96	7964.8
700.306	7985.37
700.651	7958.03
700.997	7903.34
701.342	7891.81
701.688	7878.93
702.033	7852.49
702.379	7840.06
702.724	7780.4
703.069	7831.02
703.415	7696.56
703.76	7689.11
704.105	7692.5
704.45	7718.71
704.795	7632.38
705.14	7582.89
705.485	7575.66
705.83	7515.1
706.175	7573.4
706.52	7565.49
706.865	7486.85
707.209	7485.72
707.554	7427.64
707.899	7401.2
708.243	7473.07
708.588	7363.46
708.932	7302.9
709.277	7353.52
709.621	7357.82
709.966	7253.41
710.31	7358.94
710.654	7242.56
710.998	7298.61
711.342	7218.84
711.687	7191.94
712.031	7183.58
712.375	7172.51
712.719	7176.58
713.063	7145.39
713.407	7184.26
713.75	7162.34
714.094	7037.37
714.438	7103.36
714.782	7110.82
715.125	7057.48
715.469	7140.87
715.812	7010.93
716.156	6996.47
716.499	7058.16
716.843	7024.72
717.186	6942.46
717.53	6994.43
717.873	6998.28
718.216	6975.23
718.559	6949.46
718.902	6855.91
719.246	6910.6
719.589	6899.97
719.932	6924.83
720.275	6870.37
720.617	6854.33
720.96	6870.37
721.303	6857.49
721.646	6892.52
721.989	6798.96
722.331	6841.44
722.674	6823.14
723.016	6825.63
723.359	6878.96
723.701	6863.59
724.044	6801.67
724.386	6724.16
724.729	6805.51
725.071	6801.22
725.413	6744.05
725.755	6755.8
726.097	6696.14
726.439	6681
726.782	6707.21
727.124	6777.94
727.465	6724.61
727.807	6761.9
728.149	6708.57
728.491	6726.87
728.833	6692.52
729.175	6696.59
729.516	6725.29
729.858	6741.79
730.199	6635.12
730.541	6672.41
730.882	6740.2
731.224	6669.92
731.565	6674.22
731.906	6633.31
732.248	6680.32
732.589	6671.96
732.93	6656.14
733.271	6682.35
733.612	6697.49
733.953	6655.01
734.294	6702.92
734.635	6658.4
734.976	6683.93
735.317	6708.57
735.658	6687.1
735.999	6712.18
736.339	6679.41
736.68	6747.21
737.021	6617.04
737.361	6681.9
737.702	6659.3
738.042	6657.04
738.383	6715.12
738.723	6737.49
739.063	6675.57
739.404	6656.82
739.744	6693.65
740.084	6681.45
740.424	6753.99
740.764	6740.88
741.104	6773.88
741.444	6705.18
741.784	6711.5
742.124	6752.63
742.464	6754.67
742.804	6736.36
743.143	6743.14
743.483	6748.11
743.823	6845.29
744.162	6803.03
744.502	6840.31
744.841	6862.91
745.181	6890.93
745.52	6879.64
745.86	6918.05
746.199	6860.43
746.538	6974.32
746.877	7041.21
747.216	7037.15
747.556	7043.92
747.895	7064.72
748.234	7058.61
748.573	7180.19
748.911	7201.21
749.25	7257.25
749.589	7273.52
749.928	7374.09
750.267	7408.66
750.605	7440.3
750.944	7451.37
751.283	7485.95
751.621	7597.81
751.96	7585.83
752.298	7706.96
752.636	7741.53
752.975	7806.84
753.313	7876.45
753.651	7986.5
753.989	8016.33
754.327	8088.19
754.666	8127.74
755.004	8318.92
755.342	8340.61
755.679	8479.59
756.017	8476.88
756.355	8637.1
756.693	8712.81
757.031	8842.07
757.368	8851.11
757.706	8981.5
758.044	9088.16
758.381	9174.04
758.719	9271.21
759.056	9401.6
759.394	9548.94
759.731	9583.07
760.068	9771.08
760.405	9820.35
760.743	9933.34
761.08	10106.9
761.417	10233.22
761.754	10317.74
762.091	10449.26
762.428	10578.07
762.765	10658.97
763.102	10882.69
763.438	10927.44
763.775	10948.46
764.112	11177.6
764.449	11225.06
764.785	11337.82
765.122	11346.86
765.458	11493.3
765.795	11648.32
766.131	11760.19
766.467	11851.26
766.804	11958.37
767.14	11964.02
767.476	12132.38
767.812	12151.81
768.148	12246.05
768.485	12326.95
768.821	12354.75
769.157	12483.1
769.492	12519.26
769.828	12675.87
770.164	12621.18
770.5	12748.63
770.836	12894.62
771.171	12934.17
771.507	12996.08
771.842	12985.69
772.178	12928.74
772.513	13070.21
772.849	13066.14
773.184	13140.49
773.519	13259.58
773.855	13336.19
774.19	13194.72
774.525	13318.11
774.86	13489.41
775.195	13494.83
775.53	13435.17
775.865	13490.54
776.2	13477.65
776.535	13469.29
776.87	13516.75
777.205	13514.04
777.539	13509.52
777.874	13634.26
778.209	13513.81
778.543	13573.24
778.878	13587.26
779.212	13566.47
779.547	13572.11
779.881	13693.69
780.215	13680.59
780.55	13702.51
780.884	13609.18
781.218	13682.62
781.552	13667.48
781.886	13725.11
782.22	13676.07
782.554	13649.85
782.888	13525.11
783.222	13563.3
783.556	13512.91
783.889	13569.63
784.223	13512.91
784.557	13519.01
784.89	13513.81
785.224	13413.93
785.557	13427.71
785.891	13401.27
786.224	13465
786.558	13445.79
786.891	13395.62
787.224	13417.77
787.557	13359.92
787.891	13388.84
788.224	13356.98
788.557	13364.89
788.89	13401.5
789.223	13357.66
789.556	13271.33
789.888	13243.54
790.221	13208.06
790.554	13153.37
790.887	13158.11
791.219	13076.08
791.552	13070.21
791.884	13024.56
792.217	12984.33
792.549	12971
792.882	12966.93
793.214	12923.09
793.546	12926.71
793.879	12905.01
794.211	12835.64
794.543	12918.35
794.875	12796.99
795.207	12858.91
795.539	12789.54
795.871	12786.15
796.203	12630.67
796.535	12623.21
796.867	12623.89
797.198	12589.77
797.53	12610.33
797.862	12548.86
798.193	12556.55
798.525	12499.15
798.856	12454.4
799.188	12419.83
799.519	12356.78
799.85	12312.71
800.182	12432.94
800.513	12351.13
800.844	12265.03
801.175	12293.96
801.506	12243.11
801.837	12164.92
802.168	12196.33
802.499	12190.68
802.83	12081.53
803.161	12031.36
803.491	12100.52
803.822	12094.64
804.153	12050.8
804.483	11870.24
804.814	11852.61
805.145	11949.56
805.475	11914.08
805.805	11821.65
806.136	11807.64
806.466	11824.59
806.796	11828.88
807.126	11694.88
807.457	11710.02
807.787	11674.99
808.117	11721.99
808.447	11635.22
808.777	11633.63
809.107	11670.02
809.436	11644.03
809.766	11531.49
810.096	11494.66
810.426	11434.77
810.755	11487.42
811.085	11462.34
811.414	11472.74
811.744	11391.61
812.073	11377.6
812.403	11322.23
812.732	11354.77
813.061	11323.81
813.39	11279.75
813.719	11222.35
814.049	11285.17
814.378	11225.74
814.707	11195
815.036	11239.75
815.365	11165.4
815.693	10980.77
816.022	11072.52
816.351	11035.23
816.68	10986.65
817.008	11047.44
817.337	10896.93
817.665	10919.08
817.994	10981.22
818.322	10884.05
818.651	10849.93
818.979	10861.23
819.307	10875.91
819.636	10868.91
819.964	10847.89
820.292	10848.12
820.62	10795.69
820.948	10772.19
821.276	10850.6
821.604	10782.81
821.932	10841.11
822.259	10809.02
822.587	10776.93
822.915	10764.51
823.243	10846.76
823.57	10722.02
823.898	10744.62
824.225	10776.03
824.553	10743.71
824.88	10761.57
825.207	10800.44
825.535	10716.82
825.862	10771.28
826.189	10721.34
826.516	10877.5
826.843	10816.48
827.17	10810.38
827.497	10817.61
827.824	10782.13
828.151	10788.69
828.478	10793.66
828.805	10742.58
829.131	10788.69
829.458	10783.49
829.785	10792.07
830.111	10807.22
830.438	10863.71
830.764	10822.58
831.09	10873.88
831.417	10761.57
831.743	10828.68
832.069	10737.61
832.395	10742.81
832.722	10715.47
833.048	10790.95
833.374	10773.09
833.7	10633.21
834.026	10707.11
834.351	10730.16
834.677	10689.25
835.003	10674.56
835.329	10665.07
835.654	10644.28
835.98	10660.33
836.306	10630.27
836.631	10667.11
836.956	10597.96
837.282	10646.09
837.607	10560.89
837.932	10568.58
838.258	10578.97
838.583	10576.94
838.908	10474.12
839.233	10577.17
839.558	10467.34
839.883	10480.9
840.208	10411.97
840.533	10427.34
840.858	10484.74
841.182	10447
841.507	10371.3
841.832	10364.97
842.156	10287.68
842.481	10343.73
842.805	10311.86
843.13	10305.53
843.454	10310.73
843.778	10252.65
844.103	10279.09
844.427	10219.89
844.751	10278.19
845.075	10146.67
845.399	10112.09
845.723	10036.61
846.047	10050.85
846.371	9991.64
846.695	10046.11
847.019	9984.41
847.343	9910.97
847.666	9851.31
847.99	9839.11
848.313	9769.05
848.637	9784.19
848.96	9755.27
849.284	9714.82
849.607	9614.25
849.931	9632.11
850.254	9568.38
850.577	9575.38
850.9	9425.78
851.223	9435.95
851.546	9444.31
851.869	9359.57
852.192	9390.53
852.515	9319.35
852.838	9294.49
853.161	9248.16
853.483	9219.46
853.806	9171.33
854.129	9118.45
854.451	9166.13
854.774	9076.41
855.096	9072.12
855.419	9046.13
855.741	8984.89
856.063	8923.42
856.385	8955.74
856.708	8933.14
857.03	8849.75
857.352	8880.26
857.674	8864.44
857.996	8782.86
858.318	8815.18
858.64	8753.71
858.961	8762.98
859.283	8737.67
859.605	8636.88
859.926	8676.42
860.248	8674.16
860.57	8613.15
860.891	8666.26
861.212	8562.08
861.534	8586.94
861.855	8531.34
862.176	8550.55
862.498	8521.63
862.819	8593.04
863.14	8449.09
863.461	8502.87
863.782	8424.45
864.103	8486.15
864.424	8421.52
864.745	8411.57
865.065	8386.26
865.386	8341.52
865.707	8394.85
866.027	8388.97
866.348	8337.22
866.668	8359.82
866.989	8274.85
867.309	8252.71
867.63	8287.06
867.95	8313.72
868.27	8262.42
868.59	8264.68
868.91	8241.41
869.23	8229.66
869.55	8179.94
869.87	8202.09
870.19	8235.08
870.51	8173.16
870.83	8205.02
871.15	8167.51
871.469	8108.76
871.789	8193.95
872.109	8057.23
872.428	8042.32
872.748	8056.33
873.067	8047.74
873.386	8084.58
873.706	8122.09
874.025	8011.81
874.344	7973.17
874.663	7995.76
874.982	8011.13
875.301	7998.25
875.62	8036.67
875.939	7940.62
876.258	7902.43
876.577	7887.07
876.896	7926.16
877.214	7880.06
877.533	7918.48
877.852	7904.24
878.17	7883
878.489	7851.81
878.807	7802.1
879.125	7810.01
879.444	7828.99
879.762	7824.7
880.08	7859.72
880.398	7761.42
880.716	7707.18
881.034	7757.8
881.352	7712.61
881.67	7751.93
881.988	7719.84
882.306	7660.18
882.624	7655.21
882.941	7671.25
883.259	7655.43
883.577	7561.88
883.894	7506.74
884.212	7614.98
884.529	7611.82
884.846	7537.7
885.164	7550.35
885.481	7492.5
885.798	7502.22
886.115	7426.97
886.432	7515.55
886.75	7409.57
887.067	7397.81
887.383	7438.26
887.7	7405.5
888.017	7377.7
888.334	7397.81
888.651	7301.09
888.967	7349
889.284	7325.5
889.6	7245.5
889.917	7227.2
890.233	7206.41
890.55	7196.01
890.866	7208.44
891.182	7160.31
891.498	7141.78
891.815	7092.06
892.131	7062.91
892.447	7081.89
892.763	7077.6
893.079	7042.12
893.395	7033.98
893.71	7013.64
894.026	6990.37
894.342	6982.91
894.657	6916.02
894.973	6960.54
895.289	6912.63
895.604	6870.37
895.92	6836.7
896.235	6827.89
896.55	6838.73
896.865	6775.23
897.181	6740.88
897.496	6761.67
897.811	6732.75
898.126	6715.8
898.441	6695.46
898.756	6630.15
899.071	6680.32
899.386	6595.8
899.7	6568.01
900.015	6557.61
900.33	6555.8
900.644	6494.11
900.959	6456.6
901.273	6480.32
901.588	6460.44
901.902	6426.99
902.216	6484.62
902.531	6391.74
902.845	6392.19
903.159	6333.21
903.473	6291.85
903.787	6294.11
904.101	6241.01
904.415	6259.99
904.729	6156.26
905.042	6212.99
905.356	6159.2
905.67	6119.2
905.984	6182.7
906.297	6089.15
906.611	6115.36
906.924	6064.74
907.237	6082.37
907.551	5991.07
907.864	6032.2
908.177	5945.65
908.491	5985.65
908.804	5936.38
909.117	5841.92
909.43	5871.53
909.743	5814.58
910.056	5858.87
910.368	5847.57
910.681	5783.85
910.994	5728.25
911.307	5754.24
911.619	5706.56
911.932	5705.2
912.244	5677.18
912.557	5629.27
912.869	5657.75
913.181	5599.9
913.494	5606.45
913.806	5609.39
914.118	5541.59
914.43	5550.63
914.742	5474.7
915.054	5516.06
915.366	5420.01
915.678	5454.36
915.99	5435.61
916.302	5372.78
916.613	5372.78
916.925	5375.04
917.236	5364.87
917.548	5310.64
917.859	5331.43
918.171	5248.04
918.482	5235.61
918.794	5193.58
919.105	5212.33
919.416	5183.63
919.727	5179.57
920.038	5114.94
920.349	5094.37
920.66	5121.26
920.971	5050.31
921.282	5085.78
921.593	5065.67
921.903	5010.31
922.214	4997.88
922.525	5014.15
922.835	4935.51
923.146	4941.61
923.456	4916.3
923.767	4874.94
924.077	4915.39
924.387	4884.21
924.697	4852.57
925.008	4829.97
925.318	4817.99
925.628	4803.98
925.938	4757.43
926.248	4746.58
926.558	4726.25
926.867	4716.08
927.177	4688.51
927.487	4665.23
927.796	4659.81
928.106	4690.99
928.416	4647.6
928.725	4607.15
929.034	4558.79
929.344	4568.51
929.653	4522.18
929.962	4525.35
930.271	4519.02
930.581	4463.65
930.89	4478.12
931.199	4428.4
931.508	4421.4
931.817	4404.9
932.125	4381.62
932.434	4423.65
932.743	4323.77
933.051	4338.01
933.36	4287.84
933.669	4283.55
933.977	4300.27
934.286	4234.06
934.594	4259.14
934.902	4248.74
935.21	4202.42
935.519	4237.9
935.827	4183.66
936.135	4132.82
936.443	4143.66
936.751	4134.17
937.059	4107.28
937.367	4097.79
937.674	4113.15
937.982	4081.97
938.29	4071.57
938.597	4074.96
938.905	4017.79
939.213	3944.8
939.52	3982.54
939.827	3999.26
940.135	3950.9
940.442	3960.16
940.749	3940.05
941.056	3926.72
941.363	3908.19
941.67	3846.72
941.977	3887.85
942.284	3826.83
942.591	3865.7
942.898	3800.17
943.205	3815.76
943.511	3779.6
943.818	3735.31
944.125	3736.67
944.431	3761.07
944.738	3776.21
945.044	3724.69
945.35	3697.35
945.657	3654.64
945.963	3699.15
946.269	3641.3
946.575	3641.53
946.881	3607.86
947.187	3605.15
947.493	3579.61
947.799	3589.33
948.105	3531.7
948.41	3567.63
948.716	3550.23
949.022	3491.02
949.327	3478.37
949.633	3494.64
949.938	3444.7
950.244	3469.56
950.549	3400.4
950.854	3445.38
951.16	3429.56
951.465	3394.53
951.77	3377.81
952.075	3354.08
952.38	3333.74
952.685	3363.34
952.99	3321.08
953.294	3284.48
953.599	3310.24
953.904	3300.29
954.209	3257.81
954.513	3248.32
954.818	3231.37
955.122	3213.29
955.426	3191.6
955.731	3240.18
956.035	3195.21
956.339	3161.99
956.643	3162.22
956.948	3132.39
957.252	3118.38
957.556	3120.64
957.86	3074.09
958.163	3102.79
958.467	3102.11
958.771	3087.42
959.075	3039.28
959.378	2999.74
959.682	3006.52
959.985	3033.63
960.289	3033.41
960.592	2992.05
960.896	3013.75
961.199	3000.19
961.502	2992.28
961.805	2944.37
962.108	2930.36
962.411	2933.98
962.714	2903.92
963.017	2901.44
963.32	2915.45
963.623	2874.09
963.926	2877.48
964.228	2851.49
964.531	2833.87
964.833	2829.12
965.136	2833.41
965.438	2756.81
965.741	2781.21
966.043	2757.71
966.345	2749.8
966.648	2767.65
966.95	2770.82
967.252	2747.09
967.554	2715.45
967.856	2683.59
968.158	2690.82
968.46	2701.67
968.761	2698.95
969.063	2683.36
969.365	2624.38
969.666	2639.97
969.968	2617.37
970.269	2612.4
970.571	2593.87
970.872	2647.88
971.174	2622.8
971.475	2622.8
971.776	2546.87
972.077	2558.85
972.378	2507.1
972.679	2552.07
972.98	2523.59
973.281	2519.75
973.582	2508.45
973.883	2501.67
974.183	2505.97
974.484	2460.09
974.785	2492.86
975.085	2439.07
975.386	2453.76
975.686	2399.75
975.986	2448.79
976.287	2444.05
976.587	2397.72
976.887	2386.19
977.187	2406.31
977.487	2366.76
977.787	2356.14
978.087	2340.77
978.387	2345.07
978.687	2365.86
978.987	2310.94
979.286	2319.3
979.586	2325.4
979.885	2265.29
980.185	2278.17
980.484	2250.6
980.784	2264.16
981.083	2280.66
981.382	2244.28
981.682	2245.86
981.981	2231.85
982.28	2214.67
982.579	2187.33
982.878	2217.16
983.177	2195.01
983.475	2166.99
983.774	2171.06
984.073	2156.14
984.372	2133.09
984.67	2122.02
984.969	2122.47
985.267	2095.58
985.566	2128.8
985.864	2098.52
986.162	2112.3
986.461	2089.48
986.759	2100.33
987.057	2052.19
987.355	2103.72
987.653	2035.47
987.951	2048.8
988.249	2044.06
988.547	1992.76
988.844	1994.34
989.142	1998.41
989.44	2011.51
989.737	1983.04
990.035	1967.9
990.332	1983.72
990.63	1967.45
990.927	1960.67
991.224	1944.17
991.521	1955.92
991.819	1942.59
992.116	1904.63
992.413	1917.73
992.71	1905.53
993.006	1904.17
993.303	1878.41
993.6	1887.9
993.897	1864.17
994.193	1884.51
994.49	1846.55
994.787	1866.21
995.083	1826.66
995.379	1827.11
995.676	1835.93
995.972	1811.75
996.268	1791.18
996.565	1797.74
996.861	1769.71
997.157	1779.2
997.453	1757.74
997.749	1750.28
998.044	1743.5
998.34	1741.01
998.636	1733.56
998.932	1720
999.227	1704.4
999.523	1695.82
999.818	1689.94
1000.114	1694.46
1000.409	1682.94
1000.704	1687.91
1001	1680.22
1001.295	1655.37
1001.59	1652.43
1001.885	1667.34
1002.18	1650.17
1002.475	1609.94
1002.77	1602.03
1003.065	1612.43
1003.359	1602.26
1003.654	1602.03
1003.949	1601.13
1004.243	1580.11
1004.538	1584.18
1004.832	1564.75
1005.127	1552.09
1005.421	1544.86
1005.715	1559.32
1006.009	1529.72
1006.304	1541.92
1006.598	1480.23
1006.892	1485.43
1007.186	1493.11
1007.48	1514.35
1007.773	1481.13
1008.067	1472.32
1008.361	1472.77
1008.655	1458.31
1008.948	1454.92
1009.242	1439.78
1009.535	1428.03
1009.829	1446.78
1010.122	1417.41
1010.415	1413.34
1010.708	1416.05
1011.001	1399.1
1011.295	1380.57
1011.588	1388.48
1011.881	1356.39
1012.173	1365.88
1012.466	1342.15
1012.759	1341.25
1013.052	1350.97
1013.344	1339.22
1013.637	1330.18
1013.93	1345.32
1014.222	1327.24
1014.514	1320.69
1014.807	1326.11
1015.099	1311.87
1015.391	1275.72
1015.683	1315.71
1015.976	1305.32
1016.268	1256.05
1016.56	1289.27
1016.851	1260.8
1017.143	1245.21
1017.435	1210.63
1017.727	1250.4
1018.018	1218.99
1018.31	1199.78
1018.602	1212.89
1018.893	1197.53
1019.185	1207.92
1019.476	1204.53
1019.767	1180.35
1020.058	1185.32
1020.35	1177.19
1020.641	1194.36
1020.932	1172.89
1021.223	1135.15
1021.514	1161.14
1021.804	1113.01
1022.095	1144.42
1022.386	1128.37
1022.677	1120.24
1022.967	1085.89
1023.258	1117.53
1023.548	1104.65
1023.839	1111.43
1024.129	1113.23
1024.419	1074.36
1024.709	1060.81
1025	1045.89
1025.29	1040.69
1025.58	1064.87
1025.87	1030.3
1026.16	1040.47
1026.449	1016.06
1026.739	1021.71
1027.029	1024.2
1027.319	1025.33
1027.608	1024.2
1027.898	990.52
1028.187	1011.32
1028.477	985.1
1028.766	982.84
1029.055	970.86
1029.344	973.35
1029.634	962.73
1029.923	978.32
1030.212	957.98
1030.501	979.68
1030.79	961.37
1031.078	925.22
1031.367	915.72
1031.656	932.67
1031.945	922.05
1032.233	931.32
1032.522	913.69
1032.81	909.85
1033.099	879.57
1033.387	898.1
1033.675	897.87
1033.963	882.96
1034.251	876.63
1034.54	852
1034.828	886.57
1035.116	877.31
1035.403	864.88
1035.691	844.77
1035.979	818.78
1036.267	834.6
1036.554	817.65
1036.842	827.82
1037.129	827.82
1037.417	838.21
1037.704	815.61
1037.992	808.38
1038.279	781.49
1038.566	803.41
1038.853	803.41
1039.14	803.41
