Data from hue_50_FLMS001491_9.txt Node
Date: Mon Feb 06 15:09:30 GMT 2017
User: dcchb
Spectrometer: FLMS00149
Trigger mode: 0
Integration Time (sec): 2.000000E-2
Scans to average: 10
Electric dark correction enabled: true
Nonlinearity correction enabled: false
Boxcar width: 0
XAxis mode: Wavelengths
Number of Pixels in Spectrum: 2048
>>>>>Begin Spectral Data<<<<<
341.393	-5.32
341.776	-5.32
342.16	-5.32
342.543	-61.14
342.927	-74.02
343.31	-76.74
343.693	-71.09
344.077	-55.04
344.46	-53.23
344.843	-57.07
345.226	-44.65
345.61	-35.83
345.993	-15.04
346.376	2.36
346.759	13.66
347.142	5.52
347.525	58.18
347.908	48.01
348.291	81.23
348.674	88.46
349.057	111.28
349.44	109.7
349.823	133.2
350.206	158.96
350.588	196.48
350.971	217.95
351.354	237.15
351.737	231.51
352.119	255.69
352.502	256.14
352.884	285.06
353.267	280.09
353.65	297.72
354.032	303.37
354.414	288.68
354.797	348.79
355.179	328.23
355.562	331.84
355.944	331.39
356.326	347.43
356.709	348.56
357.091	323.48
357.473	336.14
357.855	337.94
358.238	337.04
358.62	354.89
359.002	337.04
359.384	339.52
359.766	342.46
360.148	333.65
360.53	353.54
360.912	322.12
361.294	334.1
361.676	336.59
362.057	347.89
362.439	335.01
362.821	340.2
363.203	320.32
363.584	318.06
363.966	323.25
364.348	329.13
364.729	324.16
365.111	305.85
365.493	320.54
365.874	309.92
366.256	316.93
366.637	318.51
367.019	322.8
367.4	309.47
367.781	315.12
368.163	318.73
368.544	319.19
368.925	299.98
369.306	320.32
369.688	327.1
370.069	314.21
370.45	311.28
370.831	322.58
371.212	300.88
371.593	312.18
371.974	328.68
372.355	344.5
372.736	308.34
373.117	325.51
373.498	320.09
373.879	306.76
374.26	325.97
374.641	316.47
375.021	322.8
375.402	318.73
375.783	318.73
376.163	327.32
376.544	337.49
376.925	339.07
377.305	310.6
377.686	321.45
378.066	334.1
378.447	344.5
378.827	318.96
379.208	324.84
379.588	321.9
379.968	330.71
380.349	351.28
380.729	325.51
381.109	342.24
381.489	328.45
381.87	330.26
382.25	330.03
382.63	350.15
383.01	341.56
383.39	338.62
383.77	351.05
384.15	339.75
384.53	338.85
384.91	347.66
385.29	337.04
385.67	335.23
386.049	346.3
386.429	328.45
386.809	343.82
387.189	361.67
387.568	354.44
387.948	337.49
388.328	344.27
388.707	345.4
389.087	360.99
389.466	366.19
389.846	348.11
390.225	354.44
390.605	351.95
390.984	375.46
391.363	345.63
391.743	369.58
392.122	355.12
392.501	351.95
392.881	353.99
393.26	363.93
393.639	360.99
394.018	364.16
394.397	362.35
394.776	369.13
395.155	362.35
395.534	374.55
395.913	345.4
396.292	389.47
396.671	359.86
397.05	385.4
397.429	352.86
397.808	367.55
398.186	389.02
398.565	380.2
398.944	386.98
399.323	357.15
399.701	380.65
400.08	386.76
400.458	401.22
400.837	394.89
401.215	397.83
401.594	385.17
401.972	374.1
402.351	409.13
402.729	396.92
403.107	396.25
403.486	402.12
403.864	386.76
404.242	390.15
404.62	412.07
404.999	405.06
405.377	409.58
405.755	401.22
406.133	412.07
406.511	387.66
406.889	405.51
407.267	379.52
407.645	404.16
408.023	400.77
408.401	417.26
408.779	424.04
409.156	410.94
409.534	433.53
409.912	405.51
410.29	443.25
410.667	424.27
411.045	426.53
411.422	411.16
411.8	444.83
412.178	425.4
412.555	436.25
412.933	429.69
413.31	429.92
413.687	455.45
414.065	433.76
414.442	443.03
414.819	452.06
415.197	433.53
415.574	475.34
415.951	472.85
416.328	450.26
416.705	464.27
417.082	466.75
417.46	499.97
417.837	478.96
418.214	469.01
418.591	487.32
418.967	486.87
419.344	483.7
419.721	504.72
420.098	494.55
420.475	485.51
420.852	499.07
421.228	494.55
421.605	481.22
421.982	505.4
422.358	485.74
422.735	499.29
423.111	506.75
423.488	503.14
423.864	486.87
424.241	510.14
424.617	518.73
424.994	499.52
425.37	512.18
425.746	520.99
426.123	528.9
426.499	536.36
426.875	545.4
427.251	523.47
427.627	545.62
428.003	534.32
428.379	555.34
428.756	559.41
429.132	543.81
429.507	569.35
429.883	544.27
430.259	580.65
430.635	582.68
431.011	579.29
431.387	602.79
431.763	591.72
432.138	587.65
432.514	582.68
432.89	601.66
433.265	588.78
433.641	592.63
434.016	605.05
434.392	602.34
434.767	608.9
435.143	620.87
435.518	618.61
435.894	619.29
436.269	621.1
436.644	630.14
437.02	657.71
437.395	643.47
437.77	662.91
438.145	655.45
438.52	667.2
438.895	663.58
439.271	648.22
439.646	661.1
440.021	684.15
440.395	678.05
440.77	673.53
441.145	655.67
441.52	708.33
441.895	696.8
442.27	693.41
442.645	689.57
443.019	712.17
443.394	719.85
443.769	710.81
444.143	707.2
444.518	700.19
444.892	722.79
445.267	715.79
445.641	730.93
446.016	717.37
446.39	727.99
446.764	741.32
447.139	736.35
447.513	744.71
447.887	735.9
448.262	754.43
448.636	747.88
449.01	762.56
449.384	743.81
449.758	776.35
450.132	786.52
450.506	752.62
450.88	788.78
451.254	777.71
451.628	772.51
452.002	808.44
452.376	782.68
452.75	803.69
453.123	789.23
453.497	783.13
453.871	807.08
454.244	827.87
454.618	837.36
454.992	834.2
455.365	864.48
455.739	860.87
456.112	885.73
456.486	886.63
456.859	873.52
457.232	903.8
457.606	923.46
457.979	900.19
458.352	913.3
458.725	917.14
459.099	945.61
459.472	952.84
459.845	961.2
460.218	961.43
460.591	981.54
460.964	978.38
461.337	994.87
461.71	1022.22
462.083	1047.75
462.456	1001.65
462.829	1015.44
463.201	1048.43
463.574	1043.01
463.947	1086.85
464.32	1103.12
464.692	1088.21
465.065	1100.86
465.438	1139.73
465.81	1152.16
466.183	1165.04
466.555	1178.15
466.928	1156
467.3	1192.38
467.672	1196
468.045	1240.29
468.417	1260.86
468.789	1272.83
469.161	1253.17
469.534	1308.77
469.906	1353.96
470.278	1342.89
470.65	1377.46
471.022	1415.43
471.394	1409.78
471.766	1458.59
472.138	1499.04
472.51	1510.34
472.882	1513.05
473.253	1566.39
473.625	1567.74
473.997	1627.63
474.369	1620.17
474.74	1687.51
475.112	1699.94
475.484	1770.9
475.855	1810.22
476.227	1859.03
476.598	1877.56
476.97	1904.46
477.341	2009.99
477.713	1998.46
478.084	2072.81
478.455	2162.75
478.827	2183.77
479.198	2253.82
479.569	2284.11
479.94	2399.58
480.311	2435.06
480.682	2508.06
481.053	2583.99
481.424	2673.25
481.795	2707.15
482.166	2803.19
482.537	2891.1
482.908	2967.03
483.279	3057.42
483.65	3101.03
484.021	3207.7
484.391	3306.9
484.762	3381.93
485.133	3426.45
485.503	3554.58
485.874	3659.66
486.244	3723.39
486.615	3895.82
486.985	3930.17
487.356	4072.31
487.726	4183.04
488.097	4329.02
488.467	4358.63
488.837	4541.45
489.207	4638.39
489.578	4757.26
489.948	4941.89
490.318	5024.37
490.688	5075.9
491.058	5234.99
491.428	5326.96
491.798	5498.71
492.168	5618.03
492.538	5736.22
492.908	5866.61
493.278	6038.58
493.648	6084.68
494.017	6217.79
494.387	6349.08
494.757	6500.94
495.126	6568.97
495.496	6714.27
495.866	6799.47
496.235	6920.14
496.605	7090.08
496.974	7177.09
497.344	7326.01
497.713	7443.74
498.082	7527.81
498.452	7655.26
498.821	7812.1
499.19	7910.85
499.559	7995.37
499.928	8149.94
500.298	8238.98
500.667	8356.49
501.036	8475.58
501.405	8589.7
501.774	8687.1
502.143	8869.24
502.512	8911.73
502.88	9066.3
503.249	9137.71
503.618	9257.03
503.987	9390.13
504.356	9454.09
504.724	9557.81
505.093	9670.35
505.462	9693.63
505.83	9943.79
506.199	10011.36
506.567	10135.88
506.936	10172.26
507.304	10375.87
507.672	10445.47
508.041	10589.2
508.409	10685.24
508.777	10764.79
509.145	10878.46
509.514	10934.73
509.882	11093.59
510.25	11108.73
510.618	11283.87
510.986	11222.18
511.354	11505.11
511.722	11611.77
512.09	11703.75
512.458	11811.09
512.826	11900.8
513.193	12007.24
513.561	12077.75
513.929	12160.01
514.297	12286.33
514.664	12454.91
515.032	12510.96
515.4	12609.48
515.767	12644.06
516.135	12830.04
516.502	12762.7
516.869	13014.9
517.237	13006.08
517.604	13077.04
517.972	13268.9
518.339	13328.56
518.706	13405.4
519.073	13543.25
519.44	13690.81
519.808	13872.28
520.175	13805.84
520.542	13947.53
520.909	13980.3
521.276	14093.29
521.643	14265.26
522.009	14333.28
522.376	14424.58
522.743	14544.35
523.11	14643.33
523.477	14793.16
523.843	14862.98
524.21	15034.51
524.577	15207.16
524.943	15187.04
525.31	15335.74
525.676	15452.35
526.043	15562.4
526.409	15665.22
526.776	15840.59
527.142	15950.64
527.508	15951.32
527.874	16127.36
528.241	16137.3
528.607	16331.19
528.973	16370.52
529.339	16501.13
529.705	16657.51
530.071	16715.37
530.437	16855.47
530.803	16904.06
531.169	16986.54
531.535	17121
531.901	17112.64
532.267	17269.7
532.632	17331.85
532.998	17456.14
533.364	17495.23
533.73	17590.6
534.095	17761.89
534.461	17884.15
534.826	17908.1
535.192	17960.98
535.557	18110.58
535.923	18071.94
536.288	18119.17
536.653	18208.89
537.019	18212.73
537.384	18308.09
537.749	18375.89
538.114	18474.87
538.479	18485.26
538.845	18657.69
539.21	18561.64
539.575	18712.83
539.94	18774.75
540.305	18908.53
540.67	18904.91
541.034	18971.13
541.399	19077.34
541.764	19129.99
542.129	19209.09
542.494	19241.63
542.858	19323.88
543.223	19374.5
543.587	19439.36
543.952	19500.15
544.316	19537.44
544.681	19570.66
545.045	19726.59
545.41	19785.57
545.774	19816.08
546.138	19856.53
546.503	19964.55
546.867	20060.59
547.231	20106.91
547.595	20177.2
547.959	20342.84
548.324	20303.75
548.688	20434.14
549.052	20449.28
549.416	20491.76
549.779	20472.1
550.143	20596.62
550.507	20769.27
550.871	20877.97
551.235	20821.02
551.599	20948.7
551.962	20969.72
552.326	21010.17
552.689	21119.54
553.053	21082.26
553.417	21172.2
553.78	21477.27
554.143	21379.42
554.507	21409.03
554.87	21543.26
555.234	21697.83
555.597	21682.69
555.96	21794.33
556.323	21901.44
556.686	21919.97
557.05	22061.89
557.413	22113.19
557.776	22307.99
558.139	22350.02
558.502	22376.23
558.865	22388.44
559.228	22623.23
559.59	22575.55
559.953	22684.93
560.316	22900.74
560.679	22932.15
561.041	23090.34
561.404	23240.62
561.767	23241.52
562.129	23163.33
562.492	23524.68
562.854	23540.04
563.217	23490.1
563.579	23500.95
563.941	23649.19
564.304	23853.03
564.666	23930.54
565.028	24023.65
565.39	24135.96
565.753	24228.16
566.115	24228.16
566.477	24455.28
566.839	24629.28
567.201	24604.65
567.563	24596.29
567.925	24820.46
568.287	24923.96
568.648	24914.92
569.01	24967.8
569.372	25140
569.734	25153.34
570.095	25407.34
570.457	25504.06
570.819	25583.16
571.18	25599.2
571.542	25688.46
571.903	25749.03
572.265	25802.58
572.626	25895.01
572.987	25919.42
573.349	26064.27
573.71	26135
574.071	26246.64
574.432	26336.58
574.794	26536.35
575.155	26565.05
575.516	26560.08
575.877	26716.46
576.238	26801.2
576.599	26926.17
576.96	26921.2
577.32	27009.78
577.681	27192.15
578.042	27211.13
578.403	27323.22
578.763	27389.89
579.124	27490
579.485	27680.95
579.845	27861.29
580.206	27721.63
580.566	27861.29
580.927	27910.55
581.287	28120.72
581.648	28051.11
582.008	28310.54
582.368	28391.67
582.728	28516.19
583.089	28414.27
583.449	28603.64
583.809	28655.62
584.169	28797.53
584.529	28814.48
584.889	29108.26
585.249	29066
585.609	29168.15
585.969	29399.55
586.329	29302.83
586.688	29546.89
587.048	29440.45
587.408	29625.99
587.768	29587.8
588.127	29759.77
588.487	29819.2
588.846	30049.7
589.206	29953.89
589.565	30186.65
589.925	30273.43
590.284	30434.55
590.643	30537.38
591.003	30656.47
591.362	30724.04
591.721	30791.61
592.08	30981.66
592.44	31009
592.799	31190.24
593.158	31235.66
593.517	31348.88
593.876	31353.4
594.235	31408.31
594.593	31629.32
594.952	31712.26
595.311	31637.91
595.67	31935.98
596.029	32057.11
596.387	32072.02
596.746	32228.63
597.104	32191.34
597.463	32195.64
597.822	32395.86
598.18	32434.5
598.538	32499.81
598.897	32626.13
599.255	32494.61
599.613	33037.87
599.972	33013.02
600.33	32977.76
600.688	32900.25
601.046	33020.02
601.404	33308.38
601.762	33197.64
602.12	33560.57
602.478	33570.74
602.836	33566
603.194	33504.98
603.552	33648.48
603.91	33581.36
604.268	33902.48
604.625	33768.7
604.983	33924.4
605.341	33950.84
605.698	34204.17
606.056	34226.77
606.413	34278.29
606.771	34433.09
607.128	34615.01
607.485	34362.59
607.843	34429.7
608.2	34695.91
608.557	34920.76
608.914	34869.24
609.272	34974.09
609.629	35139.74
609.986	35293.41
610.343	35068.1
610.7	35509
611.057	35432.61
611.414	35477.36
611.771	35476.45
612.127	35624.02
612.484	35723.23
612.841	35803.23
613.198	35694.75
613.554	35758.71
613.911	36112.37
614.267	35981.07
614.624	36098.13
614.98	36079.83
615.337	36278.92
615.693	36267.62
616.05	36193.72
616.406	36523.21
616.762	36374.28
617.118	36507.16
617.475	36478.69
617.831	36645.01
618.187	36611.79
618.543	36713.03
618.899	37013.59
619.255	36994.83
619.611	36879.81
619.967	37006.58
620.323	37122.96
620.678	37110.31
621.034	37045.45
621.39	37085.23
621.746	37100.82
622.101	37518.21
622.457	37290.19
622.812	37392.79
623.168	37407.25
623.523	37350.3
623.879	37630.52
624.234	37261.94
624.589	37470.07
624.945	37448.15
625.3	37696.73
625.655	37550.98
626.01	37601.82
626.365	37769.5
626.72	37594.59
627.075	37572.44
627.43	37622.84
627.785	37554.37
628.14	37612.67
628.495	37873.23
628.85	37763.4
629.205	37543.52
629.559	37747.58
629.914	37584.87
630.269	37611.77
630.623	37624.19
630.978	37683.18
631.332	37743.51
631.687	37781.93
632.041	37636.62
632.396	37804.53
632.75	37658.32
633.104	37661.26
633.459	37512.56
633.813	37520.24
634.167	37549.17
634.521	37570.18
634.875	37682.05
635.229	37496.97
635.583	37340.36
635.937	37400.02
636.291	37443.86
636.645	37454.93
636.999	37363.86
637.352	37489.51
637.706	37297.88
638.06	37453.35
638.413	37434.37
638.767	37331.09
639.121	37450.87
639.474	37113.47
639.828	37240.93
640.181	37235.96
640.534	37309.4
640.888	37185.56
641.241	37057.43
641.594	37188.27
641.947	37218.78
642.301	36979.92
642.654	37169.07
643.007	37111.44
643.36	37041.38
643.713	36944.89
644.066	37157.54
644.419	36913.48
644.771	36736.99
645.124	36305.81
645.477	36257.68
645.83	35997.57
646.182	35992.6
646.535	35834.64
646.888	35937.23
647.24	35642.78
647.593	35976.1
647.945	35798.48
648.298	35613.17
648.65	35644.36
649.002	35614.3
649.355	35724.13
649.707	35579.28
650.059	35713.06
650.411	36250.9
650.763	36233.72
651.115	36654.73
651.467	36453.6
651.819	36426.03
652.171	36365.92
652.523	36331.57
652.875	36234.63
653.227	36174.29
653.578	36572.92
653.93	36304.91
654.282	36284.57
654.633	36156.89
654.985	36333.83
655.337	36174.29
655.688	36177
656.039	36248.64
656.391	36089.77
656.742	36086.83
657.094	36205.7
657.445	36229.88
657.796	36207.96
658.147	36043.44
658.498	35966.84
658.849	36025.37
659.2	36108.08
659.551	35948.08
659.902	36157.57
660.253	36010.68
660.604	36147.4
660.955	35955.99
661.306	36131.35
661.656	35950.34
662.007	36014.75
662.358	35893.39
662.708	36064.46
663.059	35832.15
663.409	35713.96
663.76	36096.78
664.11	36013.84
664.461	35986.05
664.811	35975.42
665.161	36000.28
665.511	35887.29
665.862	35981.3
666.212	35923.45
666.562	35950.11
666.912	35836.67
667.262	35732.94
667.612	35908.31
667.962	35928.65
668.312	35812.26
668.662	35987.63
669.011	35857.46
669.361	35791.02
669.711	35716.45
670.06	35687.3
670.41	35624.02
670.76	35594.87
671.109	35812.72
671.459	35661.99
671.808	35571.37
672.157	35691.59
672.507	35507.41
672.856	35497.24
673.205	35553.97
673.554	35761.19
673.904	35426.29
674.253	35683.91
674.602	35530.69
674.951	35008.9
675.3	34869.69
675.649	35430.58
675.998	35533.63
676.346	35358.27
676.695	35440.07
677.044	35207.53
677.393	35310.13
677.741	35473.97
678.09	35336.12
678.438	35314.2
678.787	35292.73
679.135	35175.45
679.484	35064.26
679.832	35118.05
680.181	34996.47
680.529	35128.44
680.877	34963.7
681.225	34940.2
681.573	35093.64
681.922	34868.79
682.27	34849.58
682.618	34794.21
682.966	34753.08
683.314	34786.98
683.661	34710.37
684.009	34589.7
684.357	34630.37
684.705	34518.97
685.053	34510.38
685.4	34379.99
685.748	34255.47
686.095	34346.09
686.443	34197.84
686.79	34110.39
687.138	34212.76
687.485	34194.45
687.832	34048.7
688.18	34099.77
688.527	33939.09
688.874	33915.14
689.221	33857.06
689.568	33714.69
689.915	33682.38
690.262	33638.08
690.609	33515.38
690.956	33389.5
691.303	33321.71
691.65	33374.14
691.997	33295.95
692.344	33125.1
692.69	32999.46
693.037	33138.44
693.383	32652.57
693.73	32878.78
694.077	32686.02
694.423	32788.16
694.769	32527.38
695.116	32608.06
695.462	32495.06
695.808	32326.71
696.155	32545.46
696.501	32289.87
696.847	32226.37
697.193	31950.9
697.539	31947.51
697.885	31770.56
698.231	31646.5
698.577	31725.14
698.923	31782.09
699.269	31455.99
699.614	31541.64
699.96	31411.02
700.306	31425.49
700.651	31292.38
700.997	31217.81
701.342	31172.84
701.688	31099.62
702.033	30860.08
702.379	30960.64
702.724	30844.94
703.069	30913.64
703.415	30674.32
703.76	30618.95
704.105	30543.25
704.45	30443.37
704.795	30450.37
705.14	30199.08
705.485	30257.38
705.83	30048.12
706.175	30228.23
706.52	30115.92
706.865	29962.7
707.209	29964.28
707.554	29802.48
707.899	29867.79
708.243	29775.14
708.588	29676.15
708.932	29409.27
709.277	29440.68
709.621	29561.36
709.966	29439.78
710.31	29472.77
710.654	29043.85
710.998	29134.7
711.342	29285.43
711.687	29070.97
712.031	29006.12
712.375	28836.63
712.719	28987.36
713.063	28845.89
713.407	28956.85
713.75	28752.34
714.094	28702.85
714.438	28615.17
714.782	28552.34
715.125	28567.48
715.469	28530.2
715.812	28223.09
716.156	28210.43
716.499	28251.56
716.843	28208.4
717.186	28137.89
717.53	28266.02
717.873	28155.52
718.216	28132.01
718.559	27989.19
718.902	27775.19
719.246	27903.77
719.589	27806.37
719.932	27745.58
720.275	27653.84
720.617	27647.73
720.96	27629.43
721.303	27605.02
721.646	27635.98
721.989	27397.12
722.331	27481.41
722.674	27377.46
723.016	27435.99
723.359	27393.73
723.701	27410.68
724.044	27155.09
724.386	27190.34
724.729	27131.59
725.071	27023.8
725.413	27116
725.755	26998.49
726.097	26998.26
726.439	26765.95
726.782	26843.91
727.124	26824.25
727.465	26745.61
727.807	26747.19
728.149	26643.69
728.491	26597.59
728.833	26635.1
729.175	26563.69
729.516	26621.55
729.858	26495.22
730.199	26553.3
730.541	26379.29
730.882	26339.52
731.224	26459.06
731.565	26217.26
731.906	26309.69
732.248	26351.5
732.589	26284.61
732.93	26120.09
733.271	26147.66
733.612	26130.94
733.953	26090.26
734.294	25992.86
734.635	25865.41
734.976	26023.6
735.317	25951.28
735.658	25844.84
735.999	25926.65
736.339	25806.65
736.68	25797.61
737.021	25670.16
737.361	25674.45
737.702	25723.94
738.042	25593.32
738.383	25579.54
738.723	25506.77
739.063	25418.64
739.404	25486.21
739.744	25403.95
740.084	25370.51
740.424	25475.59
740.764	25267.01
741.104	25432.42
741.444	25165.76
741.784	25070.17
742.124	25260
742.464	25233.33
742.804	25032.44
743.143	25052.1
743.483	25032.66
743.823	25007.12
744.162	25015.94
744.502	24959.89
744.841	24885.77
745.181	24915.83
745.52	24735.49
745.86	24843.97
746.199	24742.95
746.538	24700.92
746.877	24659.79
747.216	24764.65
747.556	24718.54
747.895	24701.37
748.234	24678.55
748.573	24529.4
748.911	24472.68
749.25	24416.63
749.589	24219.12
749.928	24356.97
750.267	24390.87
750.605	24294.83
750.944	24145.68
751.283	24168.73
751.621	24289.86
751.96	24019.58
752.298	24005.34
752.636	24128.28
752.975	23832.24
753.313	23881.96
753.651	24070.88
753.989	23786.14
754.327	23696.2
754.666	23750.66
755.004	23697.78
755.342	23667.5
755.679	23663.66
756.017	23525.36
756.355	23409.43
756.693	23372.59
757.031	23461.18
757.368	23301.41
757.706	23306.38
758.044	23200.39
758.381	23174.63
758.719	23172.82
759.056	23127.4
759.394	23030.68
759.731	22875.43
760.068	22770.12
760.405	22802.21
760.743	22658.71
761.08	22667.3
761.417	22528.55
761.754	22668.2
762.091	22563.57
762.428	22367.42
762.765	22237.71
763.102	22308.66
763.438	22216.01
763.775	22116.35
764.112	22034.55
764.449	22120.42
764.785	22030.93
765.122	21877.04
765.458	21789.13
765.795	21705.29
766.131	21852.18
766.467	21631.17
766.804	21636.59
767.14	21426.2
767.476	21452.19
767.812	21342.81
768.148	21438.18
768.485	21267.79
768.821	21027.34
769.157	21120.67
769.492	21078.87
769.828	20942.83
770.164	20843.39
770.5	20760
770.836	20932.66
771.171	20682.04
771.507	20658.54
771.842	20548.71
772.178	20510.97
772.513	20477.3
772.849	20427.36
773.184	20329.96
773.519	20147.14
773.855	20223.3
774.19	20086.58
774.525	19998.67
774.86	20058.1
775.195	19941.95
775.53	19833.7
775.865	19715.96
776.2	19602.97
776.535	19492.92
776.87	19412.24
777.205	19417.22
777.539	19321.17
777.874	19386.71
778.209	19145.36
778.543	19177.22
778.878	18951.92
779.212	19008.41
779.547	19040.05
779.881	18995.98
780.215	18811.36
780.55	18899.49
780.884	18621.53
781.218	18654.52
781.552	18702.88
781.886	18564.58
782.22	18363.91
782.554	18368.66
782.888	18254.31
783.222	18190.13
783.556	18095.22
783.889	18089.79
784.223	17960.53
784.557	17887.31
784.89	17910.81
785.224	17863.58
785.557	17685.06
785.891	17677.37
786.224	17704.72
786.558	17598.05
786.891	17440.09
787.224	17329.81
787.557	17310.15
787.891	17282.58
788.224	17265.18
788.557	17314.67
788.89	17235.58
789.223	17257.72
789.556	17070.61
789.888	17130.04
790.221	16932.54
790.554	16764.4
790.887	16787.23
791.219	16809.83
791.552	16692.32
791.884	16549.49
792.217	16629.49
792.549	16493.22
792.882	16404.64
793.214	16347.69
793.546	16315.15
793.879	16279.9
794.211	16187.92
794.543	16231.54
794.875	16086.23
795.207	16066.12
795.539	16041.48
795.871	15950.19
796.203	15833.13
796.535	15790.42
796.867	15689.86
797.198	15619.12
797.53	15751.1
797.862	15523.31
798.193	15644.89
798.525	15554.04
798.856	15527.83
799.188	15383.88
799.519	15258.68
799.85	15251.22
800.182	15226.37
800.513	15301.39
800.844	15140.27
801.175	15247.38
801.506	15092.13
801.837	14987.05
802.168	15067.73
802.499	15008.52
802.83	14910.89
803.161	14898.01
803.491	14820.5
803.822	14814.62
804.153	14710.9
804.483	14718.81
804.814	14658.47
805.145	14568.3
805.475	14532.37
805.805	14488.53
806.136	14489.44
806.466	14481.98
806.796	14453.96
807.126	14371.02
807.457	14262.77
807.787	14311.14
808.117	14171.03
808.447	14188.2
808.777	14158.6
809.107	14160.4
809.436	14137.58
809.766	14076.34
810.096	14053.51
810.426	14025.49
810.755	13945.72
811.085	13976.91
811.414	13823.24
811.744	13770.36
812.073	13780.08
812.403	13753.41
812.732	13698.72
813.061	13689.91
813.39	13567.2
813.719	13568.1
814.049	13691.49
814.378	13524.04
814.707	13444.04
815.036	13417.37
815.365	13423.47
815.693	13288.11
816.022	13315.45
816.351	13208.34
816.68	13148.91
817.008	13235.68
817.337	13156.36
817.665	13082.47
817.994	13182.35
818.322	13143.26
818.651	13075.91
818.979	12950.04
819.307	13122.01
819.636	12964.73
819.964	12877.5
820.292	13008.57
820.62	12934.67
820.948	12859.2
821.276	12939.42
821.604	12894.68
821.932	12896.48
822.259	12823.72
822.587	12854
822.915	12837.05
823.243	12914.56
823.57	12818.97
823.898	12854.22
824.225	12766.77
824.553	12800.89
824.88	12795.92
825.207	12854.22
825.535	12780.55
825.862	12835.02
826.189	12743.04
826.516	12894.9
826.843	12828.01
827.17	12810.61
827.497	12817.61
827.824	12875.24
828.151	12835.47
828.478	12721.8
828.805	12828.69
829.131	12779.42
829.458	12712.31
829.785	12635.47
830.111	12827.78
830.438	12813.1
830.764	12774
831.09	12787.33
831.417	12734.45
831.743	12704.62
832.069	12773.77
832.395	12607.68
832.722	12673.89
833.048	12770.38
833.374	12728.13
833.7	12663.95
834.026	12716.15
834.351	12773.1
834.677	12626.43
835.003	12697.17
835.329	12691.97
835.654	12577.62
835.98	12579.43
836.306	12559.99
836.631	12494.91
836.956	12559.32
837.282	12555.02
837.607	12440.68
837.932	12369.04
838.258	12402.03
838.583	12435.25
838.908	12431.86
839.233	12397.74
839.558	12350.06
839.883	12282.04
840.208	12255.6
840.533	12264.64
840.858	12222.38
841.182	12263.96
841.507	12134.47
841.832	12089.5
842.156	12181.25
842.481	12108.71
842.805	12115.26
843.13	12035.94
843.454	12020.35
843.778	12025.77
844.103	11917.53
844.427	12000.01
844.751	11918.66
845.075	11898.77
845.399	11908.03
845.723	11793.01
846.047	11821.48
846.371	11780.13
846.695	11774.25
847.019	11561.38
847.343	11566.8
847.666	11516.41
847.99	11548.04
848.313	11470.98
848.637	11414.26
848.96	11400.7
849.284	11339.69
849.607	11332.46
849.931	11213.59
850.254	11153.7
850.577	11120.26
850.9	11022.86
851.223	11005.23
851.546	11011.11
851.869	10899.47
852.192	10902.41
852.515	10838.23
852.838	10769.76
853.161	10816.76
853.483	10711.46
853.806	10701.74
854.129	10708.52
854.451	10664.9
854.774	10588.3
855.096	10550.33
855.419	10574.96
855.741	10491.8
856.063	10483.21
856.385	10471.69
856.708	10413.16
857.03	10319.15
857.352	10388.53
857.674	10350.11
857.996	10317.34
858.318	10199.6
858.64	10231.24
858.961	10190.79
859.283	10111.02
859.605	10120.96
859.926	10174.97
860.248	10109.66
860.57	10001.19
860.891	10044.58
861.212	10016.11
861.534	10026.73
861.855	9953.96
862.176	9998.25
862.498	10032.15
862.819	9959.61
863.14	9879.61
863.461	9885.04
863.782	9833.29
864.103	9850.46
864.424	9803.46
864.745	9788.77
865.065	9742.89
865.386	9792.61
865.707	9783.12
866.027	9758.71
866.348	9707.64
866.668	9655.21
866.989	9636.68
867.309	9567.08
867.63	9684.14
867.95	9586.29
868.27	9651.6
868.59	9641.43
868.91	9570.92
869.23	9614.76
869.55	9531.37
869.87	9592.62
870.19	9502.22
870.51	9564.59
870.83	9535.22
871.15	9403.24
871.469	9483.24
871.789	9467.42
872.109	9455.9
872.428	9440.08
872.748	9403.24
873.067	9437.82
873.386	9350.59
873.706	9363.24
874.025	9304.49
874.344	9323.92
874.663	9317.59
874.982	9227.43
875.301	9311.72
875.62	9267.65
875.939	9205.96
876.258	9189.46
876.577	9135.68
876.896	9144.49
877.214	9110.14
877.533	9137.03
877.852	9128.67
878.17	9164.83
878.489	9085.28
878.807	9066.75
879.125	9116.7
879.444	9089.58
879.762	8992.18
880.08	9012.52
880.398	8989.92
880.716	8963.03
881.034	9005.74
881.352	8965.96
881.67	8891.39
881.988	8969.81
882.306	8919.41
882.624	8880.77
882.941	8868.57
883.259	8810.26
883.577	8796.48
883.894	8738.63
884.212	8846.42
884.529	8720.1
884.846	8705.63
885.164	8674.9
885.481	8668.35
885.798	8650.04
886.115	8576.14
886.432	8614.56
886.75	8531.63
887.067	8624.05
887.383	8624.5
887.7	8580.21
888.017	8545.18
888.334	8479.65
888.651	8458.63
888.967	8459.54
889.284	8404.17
889.6	8439.2
889.917	8333.67
890.233	8374.12
890.55	8326.66
890.866	8334.79
891.182	8301.12
891.498	8300.22
891.815	8270.39
892.131	8218.19
892.447	8262.93
892.763	8150.17
893.079	8226.78
893.395	8105.42
893.71	8132.54
894.026	8096.38
894.342	8066.55
894.657	8013.45
894.973	8031.98
895.289	7998.53
895.604	7981.58
895.92	7968.7
896.235	7883.96
896.55	7921.92
896.865	7825.43
897.181	7885.99
897.496	7874.92
897.811	7804.19
898.126	7819.1
898.441	7669.05
898.756	7790.18
899.071	7640.58
899.386	7674.47
899.7	7606
900.015	7605.55
900.33	7498.21
900.644	7525.55
900.959	7557.41
901.273	7491.65
901.588	7454.37
901.902	7404.2
902.216	7408.27
902.531	7397.87
902.845	7344.76
903.159	7288.95
903.473	7238.1
903.787	7235.84
904.101	7233.81
904.415	7191.55
904.729	7167.14
905.042	7140.02
905.356	7117.65
905.67	7081.27
905.984	7107.48
906.297	7031.1
906.611	7007.37
906.924	6983.87
907.237	7014.38
907.551	7021.61
907.864	6943.65
908.177	6862.29
908.491	6918.34
908.804	6850.31
909.117	6812.58
909.43	6731.9
909.743	6772.8
910.056	6729.19
910.368	6676.53
910.681	6610.77
910.994	6640.6
911.307	6631.56
911.619	6561.51
911.932	6551.34
912.244	6537.78
912.557	6533.49
912.869	6510.89
913.181	6489.87
913.494	6437.44
913.806	6413.49
914.118	6388.41
914.43	6382.76
914.742	6366.71
915.054	6272.93
915.366	6285.58
915.678	6200.16
915.99	6230.22
916.302	6178.02
916.613	6133.27
916.925	6181.63
917.236	6115.19
917.548	6046.49
917.859	6081.97
918.171	6043.78
918.482	6030.45
918.794	5990.45
919.105	5964.69
919.416	5944.12
919.727	5900.06
920.038	5905.71
920.349	5883.33
920.66	5864.8
920.971	5820.06
921.282	5836.1
921.593	5748.65
921.903	5742.32
922.214	5731.7
922.525	5697.58
922.835	5669.1
923.146	5644.02
923.456	5647.63
923.767	5606.28
924.077	5623.68
924.387	5575.32
924.697	5535.77
925.008	5549.11
925.318	5504.59
925.628	5507.75
925.938	5478.6
926.248	5399.5
926.558	5409.9
926.867	5411.48
927.177	5352.27
927.487	5322.67
927.796	5290.81
928.106	5293.97
928.416	5276.12
928.725	5263.92
929.034	5230.92
929.344	5260.3
929.653	5162.22
929.962	5206.06
930.271	5160.64
930.581	5137.36
930.89	5075.45
931.199	5105.28
931.508	5077.71
931.817	5029.35
932.125	5017.37
932.434	5016.24
932.743	4921.33
933.051	4977.6
933.36	4892.63
933.669	4863.7
933.977	4837.03
934.286	4810.14
934.594	4860.76
934.902	4857.15
935.21	4811.95
935.519	4752.97
935.827	4772.85
936.135	4781.22
936.443	4750.93
936.751	4718.39
937.059	4711.39
937.367	4640.2
937.674	4635.68
937.982	4603.82
938.29	4609.47
938.597	4602.69
938.905	4540.09
939.213	4535.8
939.52	4506.87
939.827	4552.97
940.135	4511.17
940.442	4461.45
940.749	4458.06
941.056	4466.42
941.363	4385.97
941.67	4399.98
941.977	4356.37
942.284	4375.13
942.591	4359.76
942.898	4330.61
943.205	4305.97
943.511	4268.91
943.818	4223.26
944.125	4207.22
944.431	4217.62
944.738	4227.11
945.044	4225.3
945.35	4167.9
945.657	4110.95
945.963	4174.23
946.269	4112.31
946.575	4098.97
946.881	4058.75
947.187	4016.72
947.493	4029.6
947.799	4037.73
948.105	3993.89
948.41	3969.26
948.716	4018.07
949.022	3928.36
949.327	3939.2
949.633	3916.61
949.938	3889.49
950.244	3931.52
950.549	3867.57
950.854	3818.76
951.16	3870.73
951.465	3847.23
951.77	3778.76
952.075	3797.74
952.38	3791.41
952.685	3740.34
952.99	3724.97
953.294	3709.38
953.599	3736.5
953.904	3714.8
954.209	3703.5
954.513	3654.24
954.818	3636.61
955.122	3665.99
955.426	3654.69
955.731	3589.83
956.035	3595.94
956.339	3557.07
956.643	3558.2
956.948	3545.09
957.252	3489.72
957.556	3482.04
957.86	3558.42
958.163	3531.08
958.467	3472.55
958.771	3463.06
959.075	3411.99
959.378	3415.83
959.682	3445.66
959.985	3437.3
960.289	3385.32
960.592	3394.36
960.896	3382.38
961.199	3325.89
961.502	3311.42
961.805	3318.66
962.108	3301.03
962.411	3273.23
962.714	3246.34
963.017	3247.7
963.32	3261.26
963.623	3264.65
963.926	3257.64
964.228	3176.96
964.531	3194.14
964.833	3174.7
965.136	3147.36
965.438	3134.71
965.741	3141.26
966.043	3141.26
966.345	3093.35
966.648	3124.76
966.95	3108.27
967.252	3059.91
967.554	3067.14
967.856	3051.77
968.158	3026.01
968.46	2985.56
968.761	2977.42
969.063	3002.96
969.365	2991.43
969.666	2959.34
969.968	2935.16
970.269	2934.26
970.571	2932.23
970.872	2935.16
971.174	2909.63
971.475	2864.66
971.776	2880.93
972.077	2856.07
972.378	2842.28
972.679	2838.89
972.98	2811.32
973.281	2833.92
973.582	2838.67
973.883	2781.72
974.183	2773.81
974.484	2757.31
974.785	2750.54
975.085	2734.94
975.386	2757.09
975.686	2727.94
975.986	2719.8
976.287	2692.23
976.587	2692.68
976.887	2654.94
977.187	2676.41
977.487	2667.83
977.787	2646.81
978.087	2613.36
978.387	2598.22
978.687	2628.28
978.987	2583.08
979.286	2600.93
979.586	2602.74
979.885	2560.48
980.185	2537.89
980.484	2544.66
980.784	2510.54
981.083	2525.91
981.382	2521.84
981.682	2461.73
981.981	2488.62
982.28	2483.42
982.579	2464.21
982.878	2456.98
983.177	2399.36
983.475	2442.07
983.774	2416.53
984.073	2402.52
984.372	2381.73
984.67	2413.59
984.969	2373.14
985.267	2329.3
985.566	2342.86
985.864	2310.77
986.162	2339.47
986.461	2331.56
986.759	2326.37
987.057	2296.08
987.355	2325.91
987.653	2280.26
987.951	2254.05
988.249	2233.49
988.547	2256.76
988.844	2240.27
989.142	2235.97
989.44	2218.12
989.737	2202.3
990.035	2184.67
990.332	2181.28
990.63	2197.33
990.927	2164.56
991.224	2147.39
991.521	2158.91
991.819	2147.61
992.116	2140.61
992.413	2105.58
992.71	2102.19
993.006	2102.42
993.303	2111.23
993.6	2060.84
993.897	2072.36
994.193	2065.81
994.49	2053.6
994.787	2048.41
995.083	2035.98
995.379	2055.64
995.676	2042.08
995.972	1997.79
996.268	2005.24
996.565	2017.67
996.861	1957.56
997.157	1947.84
997.453	1965.7
997.749	1964.12
998.044	1941.52
998.34	1946.26
998.636	1945.58
998.932	1930.67
999.227	1905.59
999.523	1884.34
999.818	1894.74
1000.114	1835.53
1000.409	1871.69
1000.704	1863.55
1001	1867.85
1001.295	1820.39
1001.59	1826.27
1001.885	1840.05
1002.18	1773.84
1002.475	1806.61
1002.77	1793.95
1003.065	1786.94
1003.359	1777
1003.654	1792.82
1003.949	1769.32
1004.243	1756.44
1004.538	1738.13
1004.832	1737.68
1005.127	1703.33
1005.421	1701.07
1005.715	1727.29
1006.009	1703.1
1006.304	1691.35
1006.598	1671.69
1006.892	1682.09
1007.186	1646.38
1007.48	1666.5
1007.773	1631.69
1008.067	1603.67
1008.361	1605.03
1008.655	1593.05
1008.948	1599.6
1009.242	1585.82
1009.535	1608.87
1009.829	1572.03
1010.122	1576.55
1010.415	1560.51
1010.708	1549.89
1011.001	1542.43
1011.295	1512.15
1011.588	1556.67
1011.881	1496.78
1012.173	1529.32
1012.466	1502.43
1012.759	1488.42
1013.052	1463.34
1013.344	1506.5
1013.637	1446.39
1013.93	1445.03
1014.222	1460.4
1014.514	1444.13
1014.807	1432.6
1015.099	1412.49
1015.391	1404.58
1015.683	1389.89
1015.976	1395.54
1016.268	1387.41
1016.56	1393.96
1016.851	1367.52
1017.143	1353.96
1017.435	1361.42
1017.727	1357.58
1018.018	1341.76
1018.31	1332.27
1018.602	1320.06
1018.893	1333.17
1019.185	1307.64
1019.476	1325.49
1019.767	1300.63
1020.058	1297.92
1020.35	1282.78
1020.641	1287.97
1020.932	1267.18
1021.223	1267.86
1021.514	1259.05
1021.804	1224.02
1022.095	1239.39
1022.386	1219.95
1022.677	1206.17
1022.967	1244.13
1023.258	1196.23
1023.548	1206.62
1023.839	1187.19
1024.129	1170.92
1024.419	1178.6
1024.709	1147.64
1025	1160.52
1025.29	1163.23
1025.58	1131.37
1025.87	1127.07
1026.16	1127.53
1026.449	1146.28
1026.739	1106.96
1027.029	1105.83
1027.319	1113.06
1027.608	1091.82
1027.898	1076
1028.187	1075.78
1028.477	1105.83
1028.766	1059.51
1029.055	1049.11
1029.344	1040.52
1029.634	1027.87
1029.923	1046.63
1030.212	1017.25
1030.501	1019.51
1030.79	1022.67
1031.078	1056.79
1031.367	1020.41
1031.656	1015.44
1031.945	988.77
1032.233	994.2
1032.522	995.55
1032.81	979.28
1033.099	1003.46
1033.387	955.78
1033.675	942.9
1033.963	957.36
1034.251	961.66
1034.54	938.83
1034.828	966.63
1035.116	953.29
1035.403	926.4
1035.691	903.13
1035.979	905.16
1036.267	897.25
1036.554	917.14
1036.842	885.5
1037.129	902.45
1037.417	898.61
1037.704	897.02
1037.992	887.53
1038.279	877.82
1038.566	857.7
1038.853	857.7
1039.14	857.7
