Data from hue_160_FLMS001491_00047.txt Node
Date: Tue Feb 07 16:51:14 GMT 2017
User: dcchb
Spectrometer: FLMS00149
Trigger mode: 0
Integration Time (sec): 2.000000E-2
Scans to average: 10
Electric dark correction enabled: true
Nonlinearity correction enabled: false
Boxcar width: 0
XAxis mode: Wavelengths
Number of Pixels in Spectrum: 2048
>>>>>Begin Spectral Data<<<<<
341.393	-13.04
341.776	-13.04
342.16	-13.04
342.543	-69.98
342.927	-82.64
343.31	-62.75
343.693	-64.56
344.077	-78.57
344.46	-62.98
344.843	-55.52
345.226	-34.96
345.61	-26.14
345.993	-14.62
346.376	-3.77
346.759	10.47
347.142	31.03
347.525	34.87
347.908	41.43
348.291	85.49
348.674	71.48
349.057	129.11
349.44	133.85
349.823	130.69
350.206	172.04
350.588	210.01
350.971	187.41
351.354	218.6
351.737	238.71
352.119	251.59
352.502	280.06
352.884	255.43
353.267	270.12
353.65	292.49
354.032	312.83
354.414	289.78
354.797	313.51
355.179	303.11
355.562	324.36
355.944	333.62
356.326	333.17
356.709	358.03
357.091	329.33
357.473	343.79
357.855	346.05
358.238	345.15
358.62	330.68
359.002	348.54
359.384	330.91
359.766	346.5
360.148	323.23
360.53	312.6
360.912	329.33
361.294	351.02
361.676	330.68
362.057	326.39
362.439	336.11
362.821	317.35
363.203	324.58
363.584	331.36
363.966	315.99
364.348	304.7
364.729	329.1
365.111	321.87
365.493	312.38
365.874	306.96
366.256	308.31
366.637	323
367.019	295.88
367.4	295.66
367.781	309.22
368.163	309.44
368.544	299.5
368.925	302.89
369.306	320.29
369.688	319.61
370.069	315.77
370.45	321.87
370.831	317.58
371.212	316.9
371.593	327.07
371.974	317.35
372.355	309.89
372.736	303.57
373.117	310.34
373.498	325.26
373.879	317.58
374.26	328.42
374.641	319.84
375.021	303.79
375.402	306.96
375.783	304.02
376.163	332.27
376.544	321.64
376.925	326.84
377.305	327.97
377.686	336.11
378.066	319.61
378.447	309.22
378.827	323.23
379.208	331.81
379.588	320.06
379.968	337.69
380.349	330.91
380.729	336.33
381.109	335.2
381.489	324.13
381.87	349.67
382.25	337.91
382.63	332.94
383.01	349.67
383.39	341.3
383.77	340.85
384.15	346.95
384.53	345.6
384.91	334.53
385.29	338.59
385.67	344.47
386.049	344.69
386.429	355.99
386.809	339.95
387.189	350.8
387.568	347.41
387.948	343.79
388.328	343.34
388.707	358.71
389.087	361.42
389.466	367.07
389.846	363.68
390.225	364.35
390.605	358.25
390.984	371.13
391.363	365.94
391.743	346.73
392.122	382.43
392.501	366.39
392.881	367.97
393.26	374.07
393.639	361.64
394.018	365.26
394.397	359.84
394.776	376.56
395.155	365.03
395.534	377.91
395.913	391.25
396.292	373.85
396.671	390.57
397.05	378.59
397.429	396.22
397.808	389.21
398.186	384.02
398.565	375.65
398.944	386.5
399.323	392.38
399.701	394.18
400.08	406.39
400.458	406.61
400.837	393.51
401.215	379.95
401.594	408.65
401.972	388.76
402.351	410.68
402.729	400.51
403.107	399.38
403.486	416.78
403.864	404.35
404.242	430.34
404.62	425.82
404.999	439.61
405.377	414.3
405.755	430.79
406.133	432.83
406.511	421.08
406.889	432.15
407.267	438.7
407.645	432.15
408.023	428.31
408.401	430.12
408.779	429.44
409.156	464.24
409.534	457.46
409.912	461.98
410.29	457.91
410.667	459.49
411.045	437.35
411.422	443.45
411.8	467.85
412.178	470.11
412.555	487.29
412.933	465.82
413.31	459.95
413.687	507.63
414.065	499.72
414.442	481.19
414.819	501.53
415.197	496.55
415.574	497.01
415.951	483.22
416.328	479.61
416.705	506.5
417.082	515.99
417.46	513.96
417.837	513.5
418.214	492.49
418.591	539.49
418.967	498.14
419.344	526.61
419.721	529.1
420.098	520.28
420.475	520.28
420.852	515.09
421.228	537.01
421.605	539.72
421.982	558.93
422.358	550.79
422.735	543.11
423.111	561.41
423.488	551.24
423.864	570.23
424.241	590.79
424.617	566.38
424.994	577.91
425.37	565.93
425.746	591.02
426.123	588.98
426.499	577.91
426.875	582.65
427.251	583.33
427.627	604.8
428.003	600.96
428.379	618.13
428.756	604.12
429.132	628.53
429.507	619.04
429.883	623.56
430.259	641.18
430.635	631.47
431.011	637.34
431.387	676.21
431.763	671.01
432.138	682.31
432.514	685.93
432.89	661.3
433.265	694.06
433.641	683.22
434.016	677.11
434.392	691.13
434.767	720.05
435.143	697.91
435.518	721.41
435.894	710.56
436.269	714.18
436.644	754.18
437.02	753.95
437.395	749.2
437.77	720.73
438.145	746.49
438.52	769.99
438.895	773.38
439.271	759.82
439.646	777
440.021	793.72
440.395	801.41
440.77	774.29
441.145	801.41
441.52	820.61
441.895	804.34
442.27	842.76
442.645	837.56
443.019	829.43
443.394	845.92
443.769	839.6
444.143	828.3
444.518	858.58
444.892	865.13
445.267	878.92
445.641	852.93
446.016	859.94
446.39	908.97
446.764	900.16
447.139	919.37
447.513	889.99
447.887	893.61
448.262	936.32
448.636	930.89
449.01	934.96
449.384	946.71
449.758	965.47
450.132	950.1
450.506	948.29
450.88	970.44
451.254	965.47
451.628	992.36
452.002	984.45
452.376	989.88
452.75	993.72
453.123	995.75
453.497	1058.35
453.871	1029.65
454.244	1031.91
454.618	1054.96
454.992	1068.07
455.365	1069.87
455.739	1096.76
456.112	1119.59
456.486	1089.31
456.859	1115.52
457.232	1135.86
457.606	1143.32
457.979	1141.74
458.352	1150.77
458.725	1182.86
459.099	1207.04
459.472	1222.41
459.845	1204.11
460.218	1255.4
460.591	1243.65
460.964	1261.73
461.337	1279.36
461.71	1304.9
462.083	1317.1
462.456	1343.99
462.829	1330.21
463.201	1359.36
463.574	1347.61
463.947	1391.67
464.32	1409.53
464.692	1445.23
465.065	1435.97
465.438	1464.21
465.81	1485.68
466.183	1499.47
466.555	1553.7
466.928	1569.29
467.3	1578.79
467.672	1591.89
468.045	1623.3
468.417	1653.59
468.789	1659.91
469.161	1661.5
469.534	1762.06
469.906	1766.35
470.278	1745.11
470.65	1816.29
471.022	1832.11
471.394	1910.98
471.766	1953.69
472.138	1944.65
472.51	1995.72
472.882	2039.57
473.253	2074.37
473.625	2111.43
473.997	2204.76
474.369	2205.21
474.74	2239.79
475.112	2299.45
475.484	2339.9
475.855	2404.08
476.227	2451.08
476.598	2509.84
476.97	2591.64
477.341	2636.84
477.713	2709.38
478.084	2771.98
478.455	2825.99
478.827	2887.9
479.198	3006.55
479.569	2984.17
479.94	3153.66
480.311	3193.43
480.682	3279.08
481.053	3373.32
481.424	3502.13
481.795	3531.96
482.166	3658.28
482.537	3759.97
482.908	3857.82
483.279	3917.26
483.65	4023.24
484.021	4141.43
484.391	4238.15
484.762	4298.49
485.133	4454.42
485.503	4536.22
485.874	4656.67
486.244	4755.43
486.615	4864.12
486.985	4965.14
487.356	5144.57
487.726	5227.73
488.097	5412.58
488.467	5440.38
488.837	5538.91
489.207	5712.69
489.578	5857.77
489.948	5950.65
490.318	6057.76
490.688	6177.54
491.058	6349.96
491.428	6474.25
491.798	6554.47
492.168	6730.29
492.538	6856.61
492.908	6961.92
493.278	7119.43
493.648	7198.53
494.017	7387.9
494.387	7417.05
494.757	7574.11
495.126	7735.01
495.496	7778.62
495.866	7906.3
496.235	8052.97
496.605	8111.04
496.974	8232.62
497.344	8353.98
497.713	8472.16
498.082	8538.83
498.452	8644.36
498.821	8775.89
499.19	8800.74
499.559	8951.25
499.928	9047.29
500.298	9080.96
500.667	9232.14
501.036	9214.29
501.405	9402.54
501.774	9473.27
502.143	9494.96
502.512	9625.13
502.88	9692.7
503.249	9703.09
503.618	9793.03
503.987	9854.05
504.356	9988.06
504.724	10029.19
505.093	10093.14
505.462	10169.97
505.83	10184.44
506.199	10267.37
506.567	10453.58
506.936	10391.44
507.304	10509.62
507.672	10574.48
508.041	10632.56
508.409	10723.18
508.777	10771.31
509.145	10795.72
509.514	10868.49
509.882	10905.09
510.25	11022.83
510.618	11036.16
510.986	11018.09
511.354	11082.27
511.722	11204.75
512.09	11258.31
512.458	11216.95
512.826	11320.9
513.193	11391.18
513.561	11379.66
513.929	11416.27
514.297	11567.22
514.664	11632.76
515.032	11608.58
515.4	11622.59
515.767	11646.32
516.135	11645.87
516.502	11629.14
516.869	11765.18
517.237	11724.28
517.604	11725.41
517.972	11844.96
518.339	11947.78
518.706	11896.03
519.073	11928.57
519.44	11935.12
519.808	12044.73
520.175	11961.34
520.542	12101.22
520.909	12109.36
521.276	12118.85
521.643	12056.93
522.009	12157.27
522.376	12199.98
522.743	12262.12
523.11	12253.76
523.477	12324.72
523.843	12292.85
524.21	12496.01
524.577	12430.93
524.943	12417.15
525.31	12430.93
525.676	12522
526.043	12501.44
526.409	12521.32
526.776	12564.71
527.142	12580.76
527.508	12544.6
527.874	12592.96
528.241	12565.16
528.607	12528.1
528.973	12658.49
529.339	12554.77
529.705	12655.33
530.071	12640.87
530.437	12594.09
530.803	12705.05
531.169	12764.03
531.535	12641.77
531.901	12623.24
532.267	12715.89
532.632	12606.97
532.998	12631.83
533.364	12578.5
533.73	12589.12
534.095	12581.43
534.461	12630.47
534.826	12601.32
535.192	12540.31
535.557	12631.15
535.923	12538.95
536.288	12501.89
536.653	12489.23
537.019	12350.25
537.384	12384.15
537.749	12351.84
538.114	12436.58
538.479	12311.84
538.845	12328.11
539.21	12171.95
539.575	12194.1
539.94	12160.43
540.305	12201.78
540.67	12199.75
541.034	12161.78
541.399	12132.41
541.764	12087.44
542.129	12034.1
542.494	11995.91
542.858	11949.81
543.223	11918.63
543.587	11910.72
543.952	11874.33
544.316	11848.12
544.681	11923.6
545.045	11859.65
545.41	11823.94
545.774	11717.5
546.138	11674.11
546.503	11673.21
546.867	11630.5
547.231	11699.2
547.595	11633.21
547.959	11585.53
548.324	11518.64
548.688	11578.52
549.052	11456.72
549.416	11475.02
549.779	11472.76
550.143	11409.04
550.507	11430.5
550.871	11340.34
551.235	11324.52
551.599	11320.9
551.962	11272.32
552.326	11252.43
552.689	11310.51
553.053	11123.39
553.417	11169.04
553.78	11217.63
554.143	11130.17
554.507	11101.7
554.87	11152.32
555.234	11151.42
555.597	11070.51
555.96	11089.04
556.323	11028.48
556.686	10981.7
557.05	11071.19
557.413	11053.34
557.776	10983.06
558.139	11011.76
558.502	11008.59
558.865	10988.03
559.228	10980.8
559.59	10960.23
559.953	10903.29
560.316	10986.9
560.679	10986.67
561.041	11056.5
561.404	10992.32
561.767	11019.44
562.129	10974.02
562.492	10983.51
562.854	10920.46
563.217	10952.33
563.579	10986.22
563.941	10990.29
564.304	11032.77
564.666	11069.16
565.028	11009.05
565.39	11065.77
565.753	11066.22
566.115	11100.8
566.477	11020.12
566.839	11084.75
567.201	11112.09
567.563	11055.37
567.925	11064.64
568.287	11056.05
568.648	11091.76
569.01	11179.21
569.372	11237.52
569.734	11114.35
570.095	11130.63
570.457	11191.19
570.819	11194.13
571.18	11216.72
571.542	11247.46
571.903	11154.13
572.265	11227.57
572.626	11253.11
572.987	11225.99
573.349	11312.09
573.71	11251.3
574.071	11282.26
574.432	11305.76
574.794	11322.03
575.155	11290.4
575.516	11272.77
575.877	11288.81
576.238	11299.43
576.599	11322.26
576.96	11251.3
577.32	11344.86
577.681	11333.78
578.042	11279.32
578.403	11350.28
578.763	11245.88
579.124	11380.11
579.485	11378.75
579.845	11379.66
580.206	11376.72
580.566	11259.44
580.927	11352.77
581.287	11360.45
581.648	11353.22
582.008	11345.31
582.368	11378.53
582.728	11373.78
583.089	11332.88
583.449	11307.57
583.809	11315.03
584.169	11253.33
584.529	11263.5
584.889	11372.2
585.249	11291.07
585.609	11275.71
585.969	11284.07
586.329	11209.04
586.688	11275.25
587.048	11234.35
587.408	11191.41
587.768	11242.03
588.127	11214.69
588.487	11153.9
588.846	11265.31
589.206	11209.95
589.565	11127.01
589.925	11186.67
590.284	11166.56
590.643	11126.56
591.003	11116.61
591.362	11232.54
591.721	11163.84
592.08	11132.21
592.44	11144.64
592.799	11208.82
593.158	11062.83
593.517	11156.61
593.876	11126.78
594.235	11109.38
594.593	11088.82
594.952	11044.98
595.311	11043.17
595.67	11010.85
596.029	11157.74
596.387	11087.91
596.746	11107.58
597.104	11067.8
597.463	11044.75
597.822	11048.14
598.18	11072.1
598.538	10993
598.897	11087.01
599.255	11044.98
599.613	11095.82
599.972	11095.82
600.33	11072.77
600.688	11057.41
601.046	11023.06
601.404	11156.39
601.762	11151.87
602.12	11079.33
602.478	11082.94
602.836	11063.51
603.194	11083.62
603.552	11071.42
603.91	11004.53
604.268	11091.98
604.625	11011.08
604.983	11197.74
605.341	11012.66
605.698	11077.75
606.056	11106.67
606.413	11087.69
606.771	11087.91
607.128	11103.28
607.485	11070.51
607.843	11073.23
608.2	11091.3
608.557	11106.9
608.914	11091.08
609.272	11062.15
609.629	11159.33
609.986	11200.68
610.343	11117.97
610.7	11244.07
611.057	11204.3
611.414	11232.77
611.771	11158.2
612.127	11216.05
612.484	11167.69
612.841	11244.97
613.198	11234.58
613.554	11185.77
613.911	11288.81
614.267	11312.09
614.624	11234.13
614.98	11227.8
615.337	11282.71
615.693	11315.03
616.05	11244.97
616.406	11304.18
616.762	11284.29
617.118	11285.65
617.475	11285.88
617.831	11318.64
618.187	11302.82
618.543	11307.34
618.899	11359.09
619.255	11338.3
619.611	11339.21
619.967	11314.35
620.323	11408.81
620.678	11397.06
621.034	11355.48
621.39	11333.78
621.746	11298.98
622.101	11448.81
622.457	11374.01
622.812	11387.57
623.168	11423.73
623.523	11362.71
623.879	11452.65
624.234	11345.31
624.589	11461.24
624.945	11388.02
625.3	11440.22
625.655	11386.21
626.01	11429.6
626.365	11463.27
626.72	11308.7
627.075	11309.15
627.43	11385.08
627.785	11361.81
628.14	11407
628.495	11366.33
628.85	11363.16
629.205	11294.01
629.559	11406.55
629.914	11353.44
630.269	11322.94
630.623	11298.08
630.978	11254.92
631.332	11319.32
631.687	11342.37
632.041	11246.78
632.396	11320.68
632.75	11204.52
633.104	11210.85
633.459	11133.11
633.813	11204.97
634.167	11157.97
634.521	11172.21
634.875	11177.18
635.229	11073.45
635.583	11232.77
635.937	11173.56
636.291	11111.64
636.645	11133.56
636.999	11061.25
637.352	11075.26
637.706	11024.41
638.06	11039.55
638.413	11123.17
638.767	10942.38
639.121	11044.07
639.474	10899.45
639.828	11045.43
640.181	10955.49
640.534	10970.86
640.888	10924.53
641.241	10954.13
641.594	10917.07
641.947	10882.72
642.301	10938.54
642.654	10915.94
643.007	10951.87
643.36	10929.73
643.713	10882.72
644.066	10944.42
644.419	10830.52
644.771	10792.1
645.124	10707.59
645.477	10724.76
645.83	10579.45
646.182	10586.23
646.535	10574.71
646.888	10556.86
647.24	10521.15
647.593	10571.77
647.945	10602.05
648.298	10486.35
648.65	10527.25
649.002	10450.64
649.355	10491.32
649.707	10509.62
650.059	10514.6
650.411	10676.4
650.763	10679.79
651.115	10847.24
651.467	10745.1
651.819	10736.96
652.171	10730.64
652.523	10711.2
652.875	10730.41
653.227	10631.43
653.578	10747.81
653.93	10723.86
654.282	10758.88
654.633	10666.23
654.985	10703.29
655.337	10763.63
655.688	10756.62
656.039	10769.28
656.391	10730.18
656.742	10706.91
657.094	10763.4
657.445	10768.83
657.796	10730.18
658.147	10692.22
658.498	10755.49
658.849	10711.88
659.2	10724.99
659.551	10698.09
659.902	10729.05
660.253	10759.34
660.604	10719.34
660.955	10731.99
661.306	10760.69
661.656	10793.46
662.007	10751.2
662.358	10798.88
662.708	10736.51
663.059	10779
663.409	10720.47
663.76	10768.83
664.11	10824.87
664.461	10857.41
664.811	10781.48
665.161	10811.54
665.511	10784.42
665.862	10841.37
666.212	10815.15
666.562	10858.09
666.912	10797.07
667.262	10803.63
667.612	10793.69
667.962	10878.65
668.312	10818.54
668.662	10808.37
669.011	10812.22
669.361	10815.83
669.711	10813.35
670.06	10751.43
670.41	10682.95
670.76	10809.28
671.109	10708.04
671.459	10852.21
671.808	10778.54
672.157	10786.91
672.507	10730.41
672.856	10703.07
673.205	10699.9
673.554	10756.85
673.904	10666.23
674.253	10673.91
674.602	10709.62
674.951	10529.06
675.3	10485.67
675.649	10696.74
675.998	10704.2
676.346	10623.07
676.695	10668.04
677.044	10556.4
677.393	10622.84
677.741	10632.11
678.09	10593.92
678.438	10588.04
678.787	10548.72
679.135	10604.54
679.484	10535.61
679.832	10500.13
680.181	10419.23
680.529	10465.56
680.877	10423.3
681.225	10472.11
681.573	10459
681.922	10393.92
682.27	10381.27
682.618	10315.28
682.966	10309.86
683.314	10342.4
683.661	10335.62
684.009	10268.5
684.357	10224.43
684.705	10209.29
685.053	10201.38
685.4	10260.59
685.748	10136.08
686.095	10152.8
686.443	10098.79
686.79	10065.34
687.138	10072.8
687.485	10133.59
687.832	10126.58
688.18	10088.17
688.527	10027.15
688.874	9982.41
689.221	9953.26
689.568	9903.31
689.915	9955.29
690.262	9899.25
690.609	9896.99
690.956	9832.35
691.303	9783.99
691.65	9765.69
691.997	9805.24
692.344	9684.79
692.69	9674.39
693.037	9671.91
693.383	9599.59
693.73	9664.9
694.077	9541.74
694.423	9549.65
694.769	9506.49
695.116	9530.89
695.462	9421.74
695.808	9388.98
696.155	9428.98
696.501	9339.26
696.847	9396.43
697.193	9280.05
697.539	9307.62
697.885	9175.87
698.231	9175.65
698.577	9174.74
698.923	9167.06
699.269	9138.81
699.614	9101.98
699.96	9080.51
700.306	9003.9
700.651	8955.09
700.997	8952.6
701.342	8852.95
701.688	8837.58
702.033	8829.67
702.379	8770.91
702.724	8823.12
703.069	8788.77
703.415	8643.69
703.76	8713.51
704.105	8677.36
704.45	8727.52
704.795	8615.44
705.14	8653.63
705.485	8616.12
705.83	8603.01
706.175	8589
706.52	8489.79
706.865	8465.84
707.209	8429
707.554	8450.92
707.899	8449.11
708.243	8354.43
708.588	8274.43
708.932	8243.24
709.277	8374.77
709.621	8290.7
709.966	8285.05
710.31	8315.56
710.654	8215.45
710.998	8209.12
711.342	8193.3
711.687	8185.17
712.031	8127.77
712.375	8078.28
712.719	8112.85
713.063	8135.9
713.407	8147.2
713.75	8047.09
714.094	8016.13
714.438	8014.32
714.782	8070.59
715.125	7974.32
715.469	8010.48
715.812	7978.84
716.156	7932.52
716.499	7937.49
716.843	7957.6
717.186	7807.1
717.53	7911.28
717.873	7924.16
718.216	7913.08
718.559	7883.03
718.902	7805.06
719.246	7832.41
719.589	7806.19
719.932	7844.84
720.275	7807.55
720.617	7831.05
720.96	7750.83
721.303	7790.6
721.646	7779.08
721.989	7728.45
722.331	7728.91
722.674	7737.27
723.016	7722.81
723.359	7726.2
723.701	7709.25
724.044	7722.81
724.386	7652.07
724.729	7716.03
725.071	7736.14
725.413	7682.35
725.755	7700.21
726.097	7650.49
726.439	7672.64
726.782	7702.01
727.124	7673.32
727.465	7687.33
727.807	7662.92
728.149	7709.47
728.491	7660.66
728.833	7680.77
729.175	7612.3
729.516	7636.93
729.858	7636.48
730.199	7668.12
730.541	7565.52
730.882	7623.6
731.224	7624.05
731.565	7540.44
731.906	7556.26
732.248	7582.47
732.589	7535.69
732.93	7549.48
733.271	7516.94
733.612	7532.98
733.953	7540.21
734.294	7586.54
734.635	7533.88
734.976	7541.57
735.317	7523.04
735.658	7535.92
735.999	7529.59
736.339	7543.38
736.68	7656.14
737.021	7579.98
737.361	7499.76
737.702	7626.54
738.042	7572.07
738.383	7586.76
738.723	7610.72
739.063	7585.86
739.404	7646.65
739.744	7561.23
740.084	7606.2
740.424	7611.4
740.764	7638.51
741.104	7675.58
741.444	7712.41
741.784	7706.31
742.124	7668.34
742.464	7682.81
742.804	7769.81
743.143	7699.3
743.483	7768.45
743.823	7743.37
744.162	7840.09
744.502	7891.84
744.841	7883.71
745.181	7931.16
745.52	7918.51
745.86	7929.81
746.199	7939.07
746.538	8000.76
746.877	8036.47
747.216	8082.57
747.556	8105.39
747.895	8211.61
748.234	8169.12
748.573	8166.18
748.911	8301.77
749.25	8250.02
749.589	8406.86
749.928	8443.69
750.267	8508.32
750.605	8650.24
750.944	8650.24
751.283	8746.51
751.621	8815.66
751.96	8850.69
752.298	8914.64
752.636	9041.64
752.975	9034.64
753.313	9164.8
753.651	9293.84
753.989	9424.23
754.327	9551.23
754.666	9540.16
755.004	9715.52
755.342	9865.12
755.679	9923.88
756.017	9988.51
756.355	10197.32
756.693	10280.7
757.031	10476.18
757.368	10513.92
757.706	10689.06
758.044	10792.56
758.381	10923.85
758.719	11075.71
759.056	11260.57
759.394	11444.29
759.731	11500.56
760.068	11636.6
760.405	11825.07
760.743	11918.4
761.08	12140.54
761.417	12203.37
761.754	12431.61
762.091	12604.26
762.428	12690.81
762.765	12785.27
763.102	12983.01
763.438	13188.65
763.775	13285.82
764.112	13526.95
764.449	13658.69
764.785	13734.4
765.122	13872.25
765.458	14013.94
765.795	14125.12
766.131	14279.02
766.467	14517.2
766.804	14591.33
767.14	14695.05
767.476	14852.34
767.812	14885.55
768.148	15065.44
768.485	15204.87
768.821	15294.81
769.157	15316.73
769.492	15574.58
769.828	15725.76
770.164	15729.83
770.5	15853.44
770.836	16047.56
771.171	15990.61
771.507	16197.61
771.842	16182.47
772.178	16344.5
772.513	16373.65
772.849	16459.98
773.184	16493.2
773.519	16681.44
773.855	16604.38
774.19	16786.97
774.525	16730.03
774.86	16935.22
775.195	16967.08
775.53	16973.64
775.865	17038.94
776.2	17068.1
776.535	17058.38
776.87	17127.98
777.205	17148.55
777.539	17179.96
777.874	17261.31
778.209	17212.5
778.543	17231.48
778.878	17302.67
779.212	17365.49
779.547	17314.64
779.881	17402.1
780.215	17413.62
780.55	17454.3
780.884	17443.45
781.218	17457.24
781.552	17491.81
781.886	17417.92
782.22	17462.44
782.554	17372.27
782.888	17322.78
783.222	17374.98
783.556	17316.23
783.889	17386.28
784.223	17299.28
784.557	17240.97
784.89	17430.35
785.224	17325.49
785.557	17215.89
785.891	17260.41
786.224	17306.73
786.558	17338.37
786.891	17277.58
787.224	17212.95
787.557	17153.07
787.891	17155.55
788.224	17181.99
788.557	17112.84
788.89	17138.38
789.223	17093.86
789.556	16999.85
789.888	17015.22
790.221	17033.3
790.554	16901.77
790.887	16946.29
791.219	16939.29
791.552	16822.23
791.884	16802.34
792.217	16867.88
792.549	16765.96
792.882	16752.62
793.214	16690.93
793.546	16750.36
793.879	16607.77
794.211	16552.18
794.543	16553.31
794.875	16572.52
795.207	16652.97
795.539	16553.76
795.871	16539.52
796.203	16459.07
796.535	16358.28
796.867	16354.67
797.198	16253.65
797.53	16379.53
797.862	16185.63
798.193	16217.05
798.525	16083.49
798.856	16184.28
799.188	16043.94
799.519	16025.19
799.85	15954.45
800.182	15965.07
800.513	16050.27
800.844	15921.46
801.175	15922.36
801.506	15871.97
801.837	15859.77
802.168	15792.42
802.499	15765.31
802.83	15715.14
803.161	15631.07
803.491	15715.59
803.822	15713.1
804.153	15557.85
804.483	15444.64
804.814	15462.49
805.145	15462.49
805.475	15397.41
805.805	15329.61
806.136	15303.85
806.466	15343.62
806.796	15236.05
807.126	15193.34
807.457	15197.41
807.787	15194.7
808.117	15127.13
808.447	15088.04
808.777	15101.59
809.107	15111.54
809.436	15054.14
809.766	15046.68
810.096	14991.09
810.426	14897.98
810.755	14920.58
811.085	14921.26
811.414	14914.25
811.744	14814.6
812.073	14810.98
812.403	14718.55
812.732	14678.1
813.061	14716.75
813.39	14626.8
813.719	14628.61
814.049	14640.82
814.378	14646.92
814.707	14646.01
815.036	14607.6
815.365	14453.93
815.693	14367.38
816.022	14386.36
816.351	14319.69
816.68	14292.35
817.008	14372.12
817.337	14109.98
817.665	14116.76
817.994	14227.72
818.322	14251.45
818.651	14129.19
818.979	14091.9
819.307	14219.13
819.636	14178.45
819.964	14027.05
820.292	14124.9
820.62	14120.15
820.948	14041.74
821.276	14120.6
821.604	14063.43
821.932	14057.55
822.259	14108.17
822.587	14001.74
822.915	14012.36
823.243	14066.14
823.57	14012.13
823.898	14049.64
824.225	13968.97
824.553	13964.22
824.88	13951.79
825.207	14003.32
825.535	14043.32
825.862	14082.41
826.189	14015.07
826.516	14085.58
826.843	14096.2
827.17	14041.28
827.497	14184.1
827.824	14095.75
828.151	14131.68
828.478	14048.51
828.805	14058.01
829.131	14037.89
829.458	14017.33
829.785	14072.47
830.111	14027.5
830.438	14061.85
830.764	14168.06
831.09	14125.35
831.417	14022.98
831.743	14135.52
832.069	14072.02
832.395	14117.89
832.722	14105.24
833.048	13973.26
833.374	14033.83
833.7	13926.03
834.026	13948.18
834.351	13971
834.677	13936.65
835.003	13965.13
835.329	13936.2
835.654	13874.28
835.98	13794.06
836.306	13896.65
836.631	13805.58
836.956	13876.09
837.282	13896.88
837.607	13777.79
837.932	13829.76
838.258	13848.29
838.583	13708.86
838.908	13635.64
839.233	13660.05
839.558	13645.14
839.883	13669.09
840.208	13613.72
840.533	13510
840.858	13624.57
841.182	13575.31
841.507	13500.51
841.832	13400.85
842.156	13460.06
842.481	13461.19
842.805	13409.66
843.13	13417.12
843.454	13386.84
843.778	13309.78
844.103	13230.91
844.427	13181.64
844.751	13257.12
845.075	13232.27
845.399	13161.31
845.723	13067.75
846.047	13118.82
846.371	13048.77
846.695	13053.96
847.019	12854.2
847.343	12860.3
847.666	12837.47
847.99	12807.87
848.313	12802.22
848.637	12697.36
848.96	12683.8
849.284	12664.82
849.607	12526.52
849.931	12485.17
850.254	12421.66
850.577	12354.55
850.9	12284.27
851.223	12294.21
851.546	12250.82
851.869	12145.29
852.192	12226.42
852.515	12061.45
852.838	12061.45
853.161	12011.73
853.483	11952.07
853.806	11912.07
854.129	11900.77
854.451	11835.92
854.774	11827.78
855.096	11782.36
855.419	11705.98
855.741	11713.43
856.063	11667.11
856.385	11659.2
856.708	11607.68
857.03	11544.17
857.352	11562.93
857.674	11516.15
857.996	11463.27
858.318	11409.71
858.64	11395.93
858.961	11269.83
859.283	11325.65
859.605	11268.25
859.926	11280.23
860.248	11235.71
860.57	11221.24
860.891	11221.47
861.212	11168.59
861.534	11083.4
861.855	11054.24
862.176	11079.78
862.498	11092.66
862.819	11040.91
863.14	11002.04
863.461	11016.73
863.782	10983.96
864.103	11035.94
864.424	10992.1
864.745	10970.63
865.065	10865.55
865.386	10828.03
865.707	10818.54
866.027	10916.17
866.348	10757.53
866.668	10829.62
866.989	10815.83
867.309	10649.96
867.63	10752.56
867.95	10704.65
868.27	10661.94
868.59	10618.77
868.91	10642.73
869.23	10661.49
869.55	10640.69
869.87	10682.73
870.19	10607.02
870.51	10560.47
870.83	10695.61
871.15	10506.24
871.469	10486.12
871.789	10556.18
872.109	10466.91
872.428	10500.36
872.748	10517.31
873.067	10473.24
873.386	10464.65
873.706	10345.56
874.025	10393.7
874.344	10339.01
874.663	10337.88
874.982	10300.14
875.301	10312.57
875.62	10257.2
875.939	10318.67
876.258	10276.18
876.577	10267.82
876.896	10259.24
877.214	10176.53
877.533	10227.6
877.852	10205
878.17	10191.67
878.489	10200.93
878.807	10149.86
879.125	10215.62
879.444	10102.86
879.762	10116.19
880.08	10016.3
880.398	9996.42
880.716	10063.76
881.034	10052.91
881.352	10042.07
881.67	9972.92
881.988	9984.21
882.306	9909.87
882.624	9916.65
882.941	9895.18
883.259	9833.94
883.577	9863.31
883.894	9762.07
884.212	9806.37
884.529	9789.42
884.846	9736.54
885.164	9721.85
885.481	9668.29
885.798	9737.89
886.115	9648.4
886.432	9613.6
886.75	9572.7
887.067	9583.77
887.383	9621.96
887.7	9631.23
888.017	9552.14
888.334	9576.99
888.651	9507.84
888.967	9542.19
889.284	9460.61
889.6	9433.95
889.917	9327.06
890.233	9350.11
890.55	9362.31
890.866	9333.61
891.182	9308.07
891.498	9307.85
891.815	9171.81
892.131	9210.9
892.447	9210.45
892.763	9121.86
893.079	9105.82
893.395	9078.48
893.71	9084.58
894.026	8964.13
894.342	9000.06
894.657	9004.58
894.973	8913.06
895.289	8886.16
895.604	8871.02
895.92	8860.18
896.235	8772.72
896.55	8789.44
896.865	8780.63
897.181	8706.73
897.496	8768.2
897.811	8663.8
898.126	8621.99
898.441	8631.26
898.756	8536.57
899.071	8505.84
899.386	8544.93
899.7	8434.65
900.015	8372.28
900.33	8447.53
900.644	8418.83
900.959	8370.02
901.273	8304.94
901.588	8322.79
901.902	8222
902.216	8188.56
902.531	8193.75
902.845	8196.24
903.159	8063.81
903.473	8097.03
903.787	8121.66
904.101	8052.97
904.415	8020.88
904.729	7946.98
905.042	7939.75
905.356	7887.09
905.67	7946.98
905.984	7908.34
906.297	7896.13
906.611	7787.44
906.924	7817.72
907.237	7733.65
907.551	7736.14
907.864	7732.07
908.177	7661.79
908.491	7659.53
908.804	7582.24
909.117	7540.66
909.43	7529.82
909.743	7490.72
910.056	7465.41
910.368	7432.87
910.681	7454.11
910.994	7326.21
911.307	7331.86
911.619	7307.9
911.932	7277.17
912.244	7165.76
912.557	7158.53
912.869	7141.13
913.181	7191.52
913.494	7116.04
913.806	7099.54
914.118	7084.18
914.43	7032.2
914.742	7057.51
915.054	7039.21
915.366	6973.9
915.678	6882.15
915.99	6859.33
916.302	6829.5
916.613	6844.64
916.925	6856.84
917.236	6819.78
917.548	6755.37
917.859	6777.07
918.171	6723.06
918.482	6681.48
918.794	6663.4
919.105	6673.79
919.416	6639.44
919.727	6609.84
920.038	6554.7
920.349	6511.76
920.66	6523.51
920.971	6488.49
921.282	6481.71
921.593	6405.1
921.903	6349.28
922.214	6370.75
922.525	6322.84
922.835	6325.55
923.146	6257.99
923.456	6274.03
923.767	6245.33
924.077	6199.23
924.387	6192.9
924.697	6114.26
925.008	6072.91
925.318	6094.83
925.628	6105.67
925.938	6036.3
926.248	6053.92
926.558	6006.24
926.867	5992.23
927.177	6014.38
927.487	5949.97
927.796	5886.92
928.106	5930.31
928.416	5861.84
928.725	5850.99
929.034	5805.12
929.344	5818.45
929.653	5823.65
929.962	5712.91
930.271	5665.68
930.581	5633.82
930.89	5625.46
931.199	5649.19
931.508	5604.67
931.817	5642.41
932.125	5573.94
932.434	5568.51
932.743	5544.56
933.051	5540.72
933.36	5461.85
933.669	5466.59
933.977	5420.04
934.286	5463.43
934.594	5441.51
934.902	5375.97
935.21	5373.71
935.519	5335.52
935.827	5306.37
936.135	5326.26
936.443	5263.21
936.751	5267.95
937.059	5273.38
937.367	5206.04
937.674	5246.94
937.982	5219.37
938.29	5156.55
938.597	5142.99
938.905	5070.22
939.213	5082.2
939.52	5058.92
939.827	5082.87
940.135	4995.42
940.442	4982.99
940.749	4964.69
941.056	4961.3
941.363	4891.24
941.67	4874.52
941.977	4887.17
942.284	4858.7
942.591	4867.51
942.898	4842.2
943.205	4855.31
943.511	4764.01
943.818	4773.5
944.125	4756.1
944.431	4753.84
944.738	4682.43
945.044	4693.28
945.35	4677.69
945.657	4639.27
945.963	4634.07
946.269	4599.95
946.575	4594.07
946.881	4554.3
947.187	4573.74
947.493	4559.95
947.799	4521.53
948.105	4467.98
948.41	4451.03
948.716	4436.79
949.022	4453.96
949.327	4426.17
949.633	4396.79
949.938	4328.54
950.244	4364.93
950.549	4330.13
950.854	4314.53
951.16	4273.86
951.465	4269.79
951.77	4236.57
952.075	4215.55
952.38	4214.65
952.685	4205.84
952.99	4153.41
953.294	4189.56
953.599	4168.1
953.904	4157.02
954.209	4105.27
954.513	4097.14
954.818	4101.43
955.122	4030.47
955.426	4072.73
955.731	4014.65
956.035	4032.28
956.339	4017.59
956.643	3986.86
956.948	3926.3
957.252	3917.71
957.556	3929.23
957.86	3922.23
958.163	3923.13
958.467	3878.39
958.771	3864.15
959.075	3869.12
959.378	3824.83
959.682	3825.96
959.985	3792.06
960.289	3779.86
960.592	3761.55
960.896	3742.35
961.199	3740.76
961.502	3739.86
961.805	3686.3
962.108	3663.93
962.411	3671.16
962.714	3665.74
963.017	3642.23
963.32	3628.45
963.623	3601.78
963.926	3626.42
964.228	3604.5
964.531	3569.47
964.833	3553.2
965.136	3515.91
965.438	3507.77
965.741	3477.95
966.043	3450.38
966.345	3478.4
966.648	3460.77
966.95	3447.21
967.252	3423.71
967.554	3436.14
967.856	3371.28
968.158	3374.67
968.46	3341.23
968.761	3357.04
969.063	3331.28
969.365	3331.96
969.666	3288.8
969.968	3278.18
970.269	3261.91
970.571	3257.16
970.872	3265.3
971.174	3204.51
971.475	3247.67
971.776	3233.21
972.077	3189.59
972.378	3187.33
972.679	3194.79
972.98	3160.89
973.281	3147.78
973.582	3133.32
973.883	3098.97
974.183	3105.07
974.484	3098.52
974.785	3088.35
975.085	3075.47
975.386	3027.79
975.686	3003.16
975.986	3011.06
976.287	3029.82
976.587	2994.34
976.887	3028.01
977.187	2981.46
977.487	2948.69
977.787	2914.57
978.087	2938.07
978.387	2894.23
978.687	2921.35
978.987	2903.5
979.286	2864.85
979.586	2864.63
979.885	2864.63
980.185	2865.31
980.484	2822.37
980.784	2781.92
981.083	2800.67
981.382	2762.03
981.682	2771.98
981.981	2783.27
982.28	2741.69
982.579	2747.12
982.878	2765.2
983.177	2731.75
983.475	2705.54
983.774	2691.75
984.073	2680
984.372	2672.77
984.67	2719.32
984.969	2643.62
985.267	2629.38
985.566	2621.92
985.864	2585.99
986.162	2605.65
986.461	2600.45
986.759	2570.62
987.057	2588.48
987.355	2544.41
987.653	2552.09
987.951	2516.61
988.249	2523.17
988.547	2480.46
988.844	2506.45
989.142	2495.15
989.44	2486.56
989.737	2459.44
990.035	2495.6
990.332	2452.89
990.63	2439.33
990.927	2381.02
991.224	2379.9
991.521	2423.51
991.819	2385.77
992.116	2361.14
992.413	2339.44
992.71	2346.22
993.006	2301.03
993.303	2332.44
993.6	2322.5
993.897	2338.31
994.193	2310.29
994.49	2281.37
994.787	2234.81
995.083	2264.42
995.379	2244.53
995.676	2255.15
995.972	2235.04
996.268	2235.27
996.565	2169.28
996.861	2233.23
997.157	2186.68
997.453	2188.94
997.749	2164.99
998.044	2151.65
998.34	2176.28
998.636	2164.99
998.932	2118.66
999.227	2088.15
999.523	2120.01
999.818	2069.62
1000.114	2099.9
1000.409	2062.39
1000.704	2040.92
1001	2035.95
1001.295	2054.03
1001.59	2014.48
1001.885	2023.52
1002.18	1998.89
1002.475	1969.06
1002.77	1974.26
1003.065	1957.31
1003.359	1954.6
1003.654	1944.88
1003.949	1938.55
1004.243	1903.98
1004.538	1938.1
1004.832	1905.33
1005.127	1928.83
1005.421	1895.84
1005.715	1898.55
1006.009	1873.02
1006.304	1860.36
1006.598	1834.82
1006.892	1829.63
1007.186	1845.45
1007.48	1839.12
1007.773	1811.55
1008.067	1801.15
1008.361	1789.4
1008.655	1777.43
1008.948	1753.24
1009.242	1768.84
1009.535	1747.6
1009.829	1731.78
1010.122	1742.17
1010.415	1714.38
1010.708	1711.44
1011.001	1703.3
1011.295	1674.6
1011.588	1685.22
1011.881	1656.98
1012.173	1659.01
1012.466	1646.58
1012.759	1653.81
1013.052	1640.93
1013.344	1605.68
1013.637	1622.4
1013.93	1576.98
1014.222	1595.28
1014.514	1597.99
1014.807	1573.59
1015.099	1567.49
1015.391	1558.22
1015.683	1540.82
1015.976	1542.4
1016.268	1529.07
1016.56	1499.47
1016.851	1511.9
1017.143	1517.09
1017.435	1471.44
1017.727	1466.47
1018.018	1457.89
1018.31	1452.24
1018.602	1452.69
1018.893	1426.47
1019.185	1442.52
1019.476	1428.06
1019.767	1432.35
1020.058	1416.53
1020.35	1393.93
1020.641	1372.92
1020.932	1355.29
1021.223	1365.01
1021.514	1346.02
1021.804	1359.36
1022.095	1328.85
1022.386	1338.34
1022.677	1327.04
1022.967	1320.71
1023.258	1318
1023.548	1295.4
1023.839	1312.8
1024.129	1282.75
1024.419	1273.03
1024.709	1286.36
1025	1248.85
1025.29	1261.51
1025.58	1220.38
1025.87	1252.92
1026.16	1216.54
1026.449	1228.51
1026.739	1213.15
1027.029	1216.31
1027.319	1200.94
1027.608	1211.56
1027.898	1177.44
1028.187	1198.91
1028.477	1164.11
1028.766	1182.19
1029.055	1180.15
1029.344	1145.58
1029.634	1123.43
1029.923	1141.96
1030.212	1127.72
1030.501	1127.5
1030.79	1109.19
1031.078	1082.53
1031.367	1103.09
1031.656	1103.32
1031.945	1080.95
1032.233	1079.14
1032.522	1079.82
1032.81	1048.86
1033.099	1060.16
1033.387	1041.85
1033.675	1050.66
1033.963	1042.76
1034.251	1026.26
1034.54	1006.6
1034.828	1008.18
1035.116	1025.13
1035.403	1006.15
1035.691	997.78
1035.979	1004.11
1036.267	969.08
1036.554	974.51
1036.842	944.9
1037.129	973.6
1037.417	967.05
1037.704	948.97
1037.992	950.33
1038.279	937.9
1038.566	927.28
1038.853	927.28
1039.14	927.28
