Data from hue_220_FLMS001491_00057.txt Node
Date: Tue Feb 07 16:39:39 GMT 2017
User: dcchb
Spectrometer: FLMS00149
Trigger mode: 0
Integration Time (sec): 2.000000E-2
Scans to average: 10
Electric dark correction enabled: true
Nonlinearity correction enabled: false
Boxcar width: 0
XAxis mode: Wavelengths
Number of Pixels in Spectrum: 2048
>>>>>Begin Spectral Data<<<<<
341.393	-11.92
341.776	-11.92
342.16	-11.92
342.543	-43.78
342.927	-77.91
343.31	-80.85
343.693	-78.81
344.077	-67.74
344.46	-56.21
344.843	-56.44
345.226	-50.11
345.61	-34.97
345.993	-24.35
346.376	12.71
346.759	16.55
347.142	37.57
347.525	42.77
347.908	63.11
348.291	94.29
348.674	78.7
349.057	103.78
349.44	122.77
349.823	155.08
350.206	177.68
350.588	187.17
350.971	204.8
351.354	238.02
351.737	222.2
352.119	252.71
352.502	239.6
352.884	268.07
353.267	274.4
353.65	289.99
354.032	301.74
354.414	321.63
354.797	326.15
355.179	310.78
355.562	332.03
355.944	320.95
356.326	340.16
356.709	340.39
357.091	322.31
357.473	338.35
357.855	330.22
358.238	333.83
358.62	331.35
359.002	339.93
359.384	325.25
359.766	336.77
360.148	327.73
360.53	324.79
360.912	336.77
361.294	334.51
361.676	341.52
362.057	338.58
362.439	344.45
362.821	344.45
363.203	334.28
363.584	313.49
363.966	333.83
364.348	322.31
364.729	351.01
365.111	307.39
365.493	318.47
365.874	307.62
366.256	311.91
366.637	308.75
367.019	294.74
367.4	307.39
367.781	302.65
368.163	318.47
368.544	301.29
368.925	314.85
369.306	316.21
369.688	312.14
370.069	301.74
370.45	302.2
370.831	319.82
371.212	306.49
371.593	317.34
371.974	326.83
372.355	296.55
372.736	300.61
373.117	311.23
373.498	307.39
373.879	309.65
374.26	329.31
374.641	327.51
375.021	306.49
375.402	302.42
375.783	321.18
376.163	330.44
376.544	335.41
376.925	308.3
377.305	316.66
377.686	314.4
378.066	324.79
378.447	319.82
378.827	344.68
379.208	309.88
379.588	311.46
379.968	304.68
380.349	315.98
380.729	323.44
381.109	331.12
381.489	326.83
381.87	346.94
382.25	332.03
382.63	327.05
383.01	326.38
383.39	350.1
383.77	357.56
384.15	335.19
384.53	346.49
384.91	337.9
385.29	355.3
385.67	348.52
386.049	333.16
386.429	358.47
386.809	354.17
387.189	369.54
387.568	361.4
387.948	326.83
388.328	347.17
388.707	357.56
389.087	359.37
389.466	366.6
389.846	367.73
390.225	356.88
390.605	352.82
390.984	345.36
391.363	374.74
391.743	356.88
392.122	369.31
392.501	373.83
392.881	388.52
393.26	357.56
393.639	374.74
394.018	370.67
394.397	371.12
394.776	377.22
395.155	365.24
395.534	384.68
395.913	366.15
396.292	401.85
396.671	378.35
397.05	383.32
397.429	403.89
397.808	391.68
398.186	393.72
398.565	398.24
398.944	380.16
399.323	422.64
399.701	388.75
400.08	405.24
400.458	418.35
400.837	426.49
401.215	398.01
401.594	408.86
401.972	403.44
402.351	433.49
402.729	414.73
403.107	433.49
403.486	432.81
403.864	435.98
404.242	449.76
404.62	441.4
404.999	433.72
405.377	431.46
405.755	454.28
406.133	453.83
406.511	431.91
406.889	471
407.267	457.45
407.645	468.07
408.023	472.13
408.401	475.52
408.779	484.11
409.156	488.63
409.534	517.78
409.912	502.87
410.29	507.39
410.667	509.87
411.045	523.21
411.422	537.9
411.8	546.93
412.178	546.26
412.555	535.41
412.933	545.8
413.31	551.23
413.687	568.63
414.065	576.76
414.442	571.34
414.819	601.85
415.197	585.13
415.574	595.07
415.951	615.41
416.328	620.61
416.705	634.84
417.082	648.18
417.46	629.19
417.837	655.86
418.214	660.38
418.591	661.73
418.967	675.74
419.344	666.03
419.721	688.85
420.098	694.95
420.475	700.38
420.852	707.83
421.228	710.55
421.605	747.38
421.982	753.48
422.358	765.69
422.735	752.58
423.111	770.21
423.488	770.21
423.864	801.39
424.241	815.63
424.617	820.83
424.994	801.62
425.37	815.4
425.746	856.76
426.123	880.94
426.499	892.91
426.875	880.71
427.251	910.54
427.627	932.91
428.003	902.41
428.379	941.05
428.756	966.13
429.132	948.96
429.507	967.71
429.883	986.47
430.259	981.95
430.635	966.58
431.011	1002.06
431.387	1009.07
431.763	1057.88
432.138	1066.02
432.514	1076.19
432.89	1085
433.265	1079.8
433.641	1120.93
434.016	1153.47
434.392	1146.69
434.767	1168.84
435.143	1204.77
435.518	1202.74
435.894	1230.76
436.269	1241.83
436.644	1272.79
437.02	1274.15
437.395	1310.53
437.77	1362.05
438.145	1354.82
438.52	1379.68
438.895	1396.18
439.271	1414.71
439.646	1467.81
440.021	1461.94
440.395	1452.67
440.77	1477.53
441.145	1514.37
441.52	1521.37
441.895	1546.46
442.27	1557.08
442.645	1544.2
443.019	1566.79
443.394	1585.1
443.769	1605.66
444.143	1610.18
444.518	1648.15
444.892	1629.62
445.267	1657.19
445.641	1662.16
446.016	1660.13
446.39	1698.54
446.764	1699.22
447.139	1696.28
447.513	1727.92
447.887	1733.12
448.262	1749.62
448.636	1791.87
449.01	1755.49
449.384	1807.69
449.758	1811.31
450.132	1854.02
450.506	1825.55
450.88	1856.73
451.254	1861.93
451.628	1903.06
452.002	1914.36
452.376	1918.88
452.75	1945.32
453.123	1936.05
453.497	1980.34
453.871	1991.19
454.244	2015.37
454.618	2045.2
454.992	2078.87
455.365	2067.12
455.739	2126.78
456.112	2116.39
456.486	2139.44
456.859	2182.6
457.232	2206.1
457.606	2194.35
457.979	2233.9
458.352	2276.83
458.725	2278.41
459.099	2272.09
459.472	2323.16
459.845	2326.77
460.218	2381.01
460.591	2390.73
460.964	2381.46
461.337	2427.79
461.71	2474.34
462.083	2494.45
462.456	2511.18
462.829	2495.81
463.201	2581.46
463.574	2547.79
463.947	2594.79
464.32	2624.85
464.692	2674.11
465.065	2718.63
465.438	2702.36
465.81	2792.3
466.183	2804.05
466.555	2820.77
466.928	2887.44
467.3	2853.77
467.672	2883.14
468.045	2985.06
468.417	2974.67
468.789	2976.25
469.161	3010.82
469.534	3080.65
469.906	3104.83
470.278	3158.17
470.65	3173.76
471.022	3187.32
471.394	3294.89
471.766	3282.91
472.138	3282
472.51	3382.79
472.882	3394.77
473.253	3406.75
473.625	3527.65
473.997	3534.43
474.369	3553.64
474.74	3631.83
475.112	3683.12
475.484	3687.42
475.855	3750.69
476.227	3764.25
476.598	3855.77
476.97	3862.33
477.341	3978.93
477.713	4026.17
478.084	4017.13
478.455	4141.64
478.827	4171.02
479.198	4293.73
479.569	4255.76
479.94	4333.95
480.311	4362.43
480.682	4476.32
481.053	4522.42
481.424	4629.77
481.795	4674.28
482.166	4704.79
482.537	4775.75
482.908	4822.08
483.279	4839.93
483.65	4901.4
484.021	4996.31
484.391	5089.64
484.762	5087.83
485.133	5147.27
485.503	5206.47
485.874	5327.6
486.244	5318.79
486.615	5388.62
486.985	5455.73
487.356	5543.64
487.726	5557.42
488.097	5654.6
488.467	5678.33
488.837	5794.48
489.207	5827.47
489.578	5926.23
489.948	5879.45
490.318	6017.07
490.688	6006.9
491.058	6079.67
491.428	6137.07
491.798	6222.04
492.168	6314.92
492.538	6319.89
492.908	6342.49
493.278	6421.81
493.648	6430.17
494.017	6525.08
494.387	6530.96
494.757	6572.31
495.126	6624.06
495.496	6596.04
495.866	6695.47
496.235	6762.14
496.605	6777.05
496.974	6783.61
497.344	6834.68
497.713	6855.02
498.082	6924.85
498.452	6939.99
498.821	6992.87
499.19	6965.98
499.559	7043.94
499.928	7061.79
500.298	7077.38
500.667	7103.6
501.036	7135.24
501.405	7183.6
501.774	7233.99
502.143	7215.91
502.512	7193.09
502.88	7266.31
503.249	7281.45
503.618	7303.59
503.987	7304.27
504.356	7343.14
504.724	7334.1
505.093	7417.49
505.462	7392.86
505.83	7457.49
506.199	7432.63
506.567	7525.51
506.936	7472.18
507.304	7501.55
507.672	7551.27
508.041	7597.6
508.409	7604.83
508.777	7631.27
509.145	7674.43
509.514	7656.58
509.882	7626.97
510.25	7671.72
510.618	7714.43
510.986	7673.98
511.354	7711.72
511.722	7749.01
512.09	7830.13
512.458	7824.48
512.826	7786.97
513.193	7786.07
513.561	7832.84
513.929	7841.88
514.297	7878.27
514.664	7886.85
515.032	7893.18
515.4	7936.57
515.767	7914.2
516.135	7934.31
516.502	7808.66
516.869	8012.28
517.237	7939.51
517.604	7928.89
517.972	7979.06
518.339	7961.66
518.706	7940.86
519.073	7951.26
519.44	7925.27
519.808	7980.86
520.175	7954.2
520.542	8063.57
520.909	8050.69
521.276	8036
521.643	7999.85
522.009	8064.93
522.376	8056.12
522.743	8080.75
523.11	8163.46
523.477	8165.04
523.843	8129.11
524.21	8137.02
524.577	8216.56
524.943	8193.97
525.31	8116.45
525.676	8251.36
526.043	8172.05
526.409	8181.76
526.776	8258.37
527.142	8243.91
527.508	8198.71
527.874	8229.44
528.241	8310.35
528.607	8224.7
528.973	8253.4
529.339	8264.02
529.705	8247.3
530.071	8299.95
530.437	8252.95
530.803	8296.11
531.169	8205.26
531.535	8142.44
531.901	8189.45
532.267	8187.41
532.632	8172.27
532.998	8216.34
533.364	8252.95
533.73	8230.12
534.095	8240.29
534.461	8203.23
534.826	8204.59
535.192	8175.89
535.557	8238.03
535.923	8133.4
536.288	8157.81
536.653	8163.46
537.019	8138.83
537.384	8123.68
537.749	8039.85
538.114	8076
538.479	8080.3
538.845	8106.28
539.21	7981.32
539.575	8003.91
539.94	7944.48
540.305	7925.72
540.67	7977.47
541.034	7913.97
541.399	7927.76
541.764	7895.22
542.129	7923.24
542.494	7896.12
542.858	7923.46
543.223	7904.03
543.587	7857.25
543.952	7843.92
544.316	7748.78
544.681	7730.25
545.045	7671.04
545.41	7763.47
545.774	7705.16
546.138	7739.29
546.503	7663.36
546.867	7677.82
547.231	7660.87
547.595	7621.33
547.959	7633.08
548.324	7575.68
548.688	7568.67
549.052	7551.04
549.416	7559.18
549.779	7536.81
550.143	7450.26
550.507	7531.84
550.871	7524.38
551.235	7448.9
551.599	7505.62
551.962	7392.63
552.326	7440.76
552.689	7435.57
553.053	7360.77
553.417	7344.95
553.78	7425.85
554.143	7407.09
554.507	7333.65
554.87	7374.78
555.234	7341.78
555.597	7328
555.96	7321.67
556.323	7349.92
556.686	7335
557.05	7287.55
557.413	7286.19
557.776	7274.89
558.139	7334.78
558.502	7316.47
558.865	7267.21
559.228	7291.84
559.59	7310.82
559.953	7316.47
560.316	7301.33
560.679	7294.55
561.041	7300.66
561.404	7319.86
561.767	7331.39
562.129	7280.32
562.492	7317.6
562.854	7314.89
563.217	7264.5
563.579	7356.7
563.941	7331.39
564.304	7352.86
564.666	7378.85
565.028	7390.14
565.39	7359.64
565.753	7405.74
566.115	7398.28
566.477	7458.62
566.839	7386.75
567.201	7453.19
567.563	7491.84
567.925	7528.67
568.287	7501.1
568.648	7499.29
569.01	7518.73
569.372	7537.26
569.734	7488.22
570.095	7546.3
570.457	7571.61
570.819	7570.93
571.18	7507.88
571.542	7595.34
571.903	7581.33
572.265	7575.45
572.626	7619.97
572.987	7617.26
573.349	7749.23
573.71	7711.49
574.071	7610.48
574.432	7699.97
574.794	7783.13
575.155	7700.64
575.516	7760.3
575.877	7789.91
576.238	7757.82
576.599	7840.75
576.96	7825.61
577.32	7798.95
577.681	7881.88
578.042	7852.28
578.403	7840.98
578.763	7861.32
579.124	7899.74
579.485	8002.56
579.845	7954.42
580.206	7956.46
580.566	7907.65
580.927	7940.64
581.287	8070.35
581.648	8002.56
582.008	8016.34
582.368	8077.36
582.728	8050.01
583.089	8044.59
583.449	8059.51
583.809	8028.55
584.169	8058.15
584.529	8081.88
584.889	8184.93
585.249	8098.15
585.609	8137.47
585.969	8185.38
586.329	8179.95
586.688	8139.96
587.048	8181.76
587.408	8167.98
587.768	8130.69
588.127	8145.83
588.487	8203
588.846	8297.24
589.206	8211.59
589.565	8296.56
589.925	8279.16
590.284	8257.47
590.643	8274.87
591.003	8343.79
591.362	8393.51
591.721	8328.88
592.08	8315.54
592.44	8372.27
592.799	8389.67
593.158	8311.7
593.517	8392.38
593.876	8407.29
594.235	8377.46
594.593	8365.49
594.952	8484.58
595.311	8398.48
595.67	8397.58
596.029	8496.56
596.387	8439.16
596.746	8442.32
597.104	8437.35
597.463	8489.1
597.822	8452.94
598.18	8453.62
598.538	8496.33
598.897	8562.77
599.255	8441.64
599.613	8586.95
599.972	8567.51
600.33	8540.62
600.688	8558.02
601.046	8579.72
601.404	8602.77
601.762	8513.96
602.12	8609.1
602.478	8613.62
602.836	8576.78
603.194	8565.71
603.552	8532.04
603.91	8572.49
604.268	8571.81
604.625	8584.01
604.983	8618.36
605.341	8563.9
605.698	8626.27
606.056	8609.32
606.413	8674.86
606.771	8638.7
607.128	8649.77
607.485	8681.41
607.843	8618.59
608.2	8662.2
608.557	8642.32
608.914	8646.83
609.272	8700.39
609.629	8742.88
609.986	8755.76
610.343	8706.95
610.7	8807.73
611.057	8725.93
611.414	8717.12
611.771	8760.5
612.127	8701.3
612.484	8770.67
612.841	8820.62
613.198	8745.59
613.554	8796.21
613.911	8832.14
614.267	8770.45
614.624	8772.71
614.98	8741.97
615.337	8873.04
615.693	8795.31
616.05	8831.01
616.406	8811.12
616.762	8805.25
617.118	8837.79
617.475	8897.45
617.831	8892.7
618.187	8915.53
618.543	8896.09
618.899	8931.57
619.255	8916.88
619.611	8941.29
619.967	8898.81
620.323	8961.63
620.678	8899.03
621.034	8828.07
621.39	8920.5
621.746	8845.02
622.101	8992.59
622.457	8861.52
622.812	8949.88
623.168	8979.03
623.523	8937.9
623.879	8910.78
624.234	8881.86
624.589	8964.57
624.945	8921.63
625.3	8890.9
625.655	8947.62
626.01	8973.15
626.365	8965.47
626.72	8922.99
627.075	8875.98
627.43	8927.51
627.785	8926.38
628.14	8946.49
628.495	8916.43
628.85	8886.6
629.205	8865.59
629.559	8986.94
629.914	8826.27
630.269	8887.96
630.623	8878.69
630.978	8841.18
631.332	8917.56
631.687	8897.45
632.041	8812.71
632.396	8839.37
632.75	8832.59
633.104	8824.91
633.459	8723.89
633.813	8728.64
634.167	8791.46
634.521	8743.33
634.875	8773.84
635.229	8720.05
635.583	8728.87
635.937	8698.36
636.291	8731.58
636.645	8721.86
636.999	8718.7
637.352	8680.73
637.706	8701.75
638.06	8738.36
638.413	8690
638.767	8635.08
639.121	8650.22
639.474	8652.03
639.828	8555.54
640.181	8662.65
640.534	8622.65
640.888	8610.68
641.241	8535.43
641.594	8585.37
641.947	8595.76
642.301	8567.29
642.654	8535.2
643.007	8574.97
643.36	8568.19
643.713	8504.01
644.066	8582.43
644.419	8530.45
644.771	8457.91
645.124	8352.38
645.477	8361.87
645.83	8370.91
646.182	8323
646.535	8299.05
646.888	8272.16
647.24	8245.49
647.593	8245.94
647.945	8254.3
648.298	8217.92
648.65	8203.91
649.002	8204.13
649.355	8247.98
649.707	8224.25
650.059	8294.53
650.411	8322.78
650.763	8353.51
651.115	8508.08
651.467	8494.07
651.819	8445.03
652.171	8384.47
652.523	8396.9
652.875	8457.91
653.227	8382.89
653.578	8478.03
653.93	8454.75
654.282	8380.63
654.633	8417.91
654.985	8437.35
655.337	8412.49
655.688	8408.42
656.039	8467.4
656.391	8333.62
656.742	8341.76
657.094	8407.97
657.445	8463.79
657.796	8442.09
658.147	8381.76
658.498	8412.72
658.849	8412.49
659.2	8414.07
659.551	8420.17
659.902	8435.09
660.253	8432.6
660.604	8506.95
660.955	8400.29
661.306	8464.92
661.656	8445.71
662.007	8464.69
662.358	8471.02
662.708	8440.06
663.059	8428.76
663.409	8382.43
663.76	8443.68
664.11	8432.38
664.461	8426.95
664.811	8477.57
665.161	8463.34
665.511	8478.7
665.862	8518.02
666.212	8460.17
666.562	8478.03
666.912	8464.92
667.262	8401.64
667.612	8462.88
667.962	8483.22
668.312	8460.17
668.662	8466.5
669.011	8482.55
669.361	8472.15
669.711	8417.01
670.06	8476.67
670.41	8395.77
670.76	8420.17
671.109	8414.52
671.459	8413.17
671.808	8443.45
672.157	8445.94
672.507	8388.31
672.856	8415.65
673.205	8374.98
673.554	8459.95
673.904	8376.56
674.253	8418.82
674.602	8388.99
674.951	8269.67
675.3	8210.91
675.649	8350.12
675.998	8348.31
676.346	8355.77
676.695	8391.7
677.044	8300.86
677.393	8318.93
677.741	8374.3
678.09	8245.49
678.438	8265.38
678.787	8252.04
679.135	8311.7
679.484	8239.39
679.832	8233.51
680.181	8214.3
680.529	8221.76
680.877	8186.73
681.225	8210.91
681.573	8264.7
681.922	8183.12
682.27	8085.04
682.618	8075.32
682.966	8141.09
683.314	8131.14
683.661	8084.59
684.009	8085.27
684.357	8018.15
684.705	8024.48
685.053	8035.55
685.4	8040.98
685.748	8038.72
686.095	7987.19
686.443	7933.41
686.79	7942.45
687.138	7981.32
687.485	7905.16
687.832	7885.05
688.18	7898.83
688.527	7890.47
688.874	7837.59
689.221	7816.12
689.568	7812.51
689.915	7719.18
690.262	7790.81
690.609	7738.38
690.956	7700.87
691.303	7726.41
691.65	7554.21
691.997	7661.55
692.344	7595.56
692.69	7525.51
693.037	7575
693.383	7525.73
693.73	7526.86
694.077	7432.4
694.423	7477.15
694.769	7449.13
695.116	7477.83
695.462	7403.03
695.808	7368.45
696.155	7362.12
696.501	7303.59
696.847	7291.39
697.193	7159.19
697.539	7282.35
697.885	7208.23
698.231	7157.16
698.577	7180.88
698.923	7201.22
699.269	7109.47
699.614	7086.65
699.96	6979.31
700.306	7043.49
700.651	7010.04
700.997	6963.49
701.342	6923.49
701.688	6967.1
702.033	6956.26
702.379	6908.58
702.724	6876.71
703.069	6887.33
703.415	6785.41
703.76	6819.54
704.105	6823.61
704.45	6747.45
704.795	6721.46
705.14	6685.76
705.485	6688.02
705.83	6699.99
706.175	6692.31
706.52	6670.62
706.865	6600.56
707.209	6624.97
707.554	6594.91
707.899	6522.6
708.243	6513.78
708.588	6528.47
708.932	6509.72
709.277	6489.15
709.621	6458.87
709.966	6469.26
710.31	6458.87
710.654	6430.17
710.998	6464.52
711.342	6448.7
711.687	6406.89
712.031	6372.54
712.375	6332.77
712.719	6369.83
713.063	6315.82
713.407	6334.81
713.75	6315.37
714.094	6302.72
714.438	6300.23
714.782	6315.14
715.125	6258.42
715.469	6289.16
715.812	6222.49
716.156	6229.72
716.499	6202.83
716.843	6221.36
717.186	6175.49
717.53	6199.67
717.873	6189.95
718.216	6195.15
718.559	6202.38
718.902	6104.75
719.246	6089.84
719.589	6175.71
719.932	6073.12
720.275	6072.89
720.617	6121.03
720.96	6115.6
721.303	6088.48
721.646	6078.77
721.989	6027.47
722.331	6146.79
722.674	6084.64
723.016	6038.77
723.359	6079.67
723.701	6099.78
724.044	6040.35
724.386	6017.98
724.729	6054.36
725.071	6012.33
725.413	6023.85
725.755	6044.64
726.097	6003.29
726.439	5971.42
726.782	6026.79
727.124	5997.86
727.465	5967.13
727.807	6023.85
728.149	5995.61
728.491	6013.23
728.833	5959.67
729.175	5970.07
729.516	5961.26
729.858	6048.49
730.199	6038.09
730.541	5938.66
730.882	5990.86
731.224	6023.85
731.565	5960.58
731.906	5947.47
732.248	6007.13
732.589	5939.56
732.93	5923.29
733.271	5989.96
733.612	5988.83
733.953	6021.82
734.294	5920.8
734.635	5932.78
734.976	6019.79
735.317	5922.16
735.658	5957.64
735.999	5916.96
736.339	5971.2
736.68	5956.96
737.021	6029.95
737.361	5962.39
737.702	6030.18
738.042	6001.93
738.383	5956.51
738.723	6010.29
739.063	5955.15
739.404	6041.25
739.744	6026.79
740.084	6031.08
740.424	6046
740.764	6037.64
741.104	6091.87
741.444	6057.07
741.784	6063.85
742.124	6106.79
742.464	6075.83
742.804	6130.74
743.143	6118.09
743.483	6182.49
743.823	6153.12
744.162	6210.06
744.502	6177.75
744.841	6184.75
745.181	6260.46
745.52	6290.74
745.86	6311.08
746.199	6346.33
746.538	6394.92
746.877	6457.74
747.216	6460
747.556	6445.31
747.895	6536.38
748.234	6576.38
748.573	6577.96
748.911	6644.85
749.25	6706.55
749.589	6721.01
749.928	6789.03
750.267	6847.11
750.605	6914
750.944	6990.83
751.283	6979.31
751.621	7093.66
751.96	7179.98
752.298	7310.37
752.636	7413.19
752.975	7502.91
753.313	7486.41
753.651	7662
753.989	7697.03
754.327	7861.54
754.666	7930.7
755.004	8011.6
755.342	8139.28
755.679	8280.06
756.017	8326.62
756.355	8546.5
756.693	8646.38
757.031	8732.48
757.368	8865.13
757.706	9030.55
758.044	9092.92
758.381	9320.94
758.719	9450.66
759.056	9656.75
759.394	9706.47
759.731	9816.3
760.068	9971.55
760.405	10144.87
760.743	10303.06
761.08	10460.35
761.417	10628.48
761.754	10784.18
762.091	10920
762.428	11138.52
762.765	11240.89
763.102	11471.17
763.438	11599.98
763.775	11717.49
764.112	11929.69
764.449	12214.2
764.785	12324.48
765.122	12392.27
765.458	12582.78
765.795	12680.85
766.131	12912.71
766.467	12994.97
766.804	13135.76
767.14	13334.62
767.476	13442.41
767.812	13617.1
768.148	13812.35
768.485	13835.17
768.821	14026.58
769.157	14153.81
769.492	14229.96
769.828	14428.6
770.164	14475.16
770.5	14538.88
770.836	14718.54
771.171	14808.71
771.507	14967.8
771.842	15023.62
772.178	15121.69
772.513	15263.38
772.849	15381.35
773.184	15340.67
773.519	15597.84
773.855	15521.68
774.19	15697.72
774.525	15803.03
774.86	15865.18
775.195	15930.71
775.53	15884.61
775.865	16035.12
776.2	16041.89
776.535	16086.87
776.87	16129.35
777.205	16259.06
777.539	16372.28
777.874	16316.46
778.209	16304.26
778.543	16376.8
778.878	16335.67
779.212	16478.04
779.547	16431.71
779.881	16479.85
780.215	16475.1
780.55	16649.11
780.884	16544.93
781.218	16662.67
781.552	16727.07
781.886	16649.79
782.22	16718.03
782.554	16643.69
782.888	16620.18
783.222	16576.57
783.556	16578.38
783.889	16616.12
784.223	16558.27
784.557	16599.85
784.89	16601.65
785.224	16602.33
785.557	16632.16
785.891	16586.96
786.224	16645.95
786.558	16632.39
786.891	16489.11
787.224	16508.32
787.557	16471.49
787.891	16639.39
788.224	16555.33
788.557	16448.21
788.89	16582.22
789.223	16682.33
789.556	16464.26
789.888	16501.77
790.221	16455.22
790.554	16337.03
790.887	16414.09
791.219	16279.63
791.552	16418.16
791.884	16351.26
792.217	16308.1
792.549	16309.23
792.882	16249.12
793.214	16186.75
793.546	16221.1
793.879	16138.84
794.211	16049.35
794.543	16214.32
794.875	16122.34
795.207	16291.15
795.539	16124.6
795.871	16174.55
796.203	15965.74
796.535	15909.92
796.867	15930.03
797.198	15860.66
797.53	15883.93
797.862	15831.5
798.193	15901.33
798.525	15787.21
798.856	15803.03
799.188	15700.21
799.519	15596.71
799.85	15516.26
800.182	15580.44
800.513	15579.31
800.844	15477.84
801.175	15613.43
801.506	15535.24
801.837	15512.19
802.168	15464.96
802.499	15406.43
802.83	15270.16
803.161	15157.17
803.491	15233.33
803.822	15368.92
804.153	15225.19
804.483	15126.44
804.814	15110.17
805.145	15120.79
805.475	15041.69
805.805	14976.61
806.136	15039.89
806.466	15056.61
806.796	15050.51
807.126	14976.39
807.457	14832.89
807.787	14846.67
808.117	14761.02
808.447	14739.78
808.777	14861.59
809.107	14705.88
809.436	14707.47
809.766	14722.61
810.096	14620.24
810.426	14641.71
810.755	14677.41
811.085	14606.23
811.414	14608.94
811.744	14472.44
812.073	14440.81
812.403	14490.3
812.732	14433.12
813.061	14456.63
813.39	14294.14
813.719	14282.39
814.049	14421.82
814.378	14351.77
814.707	14290.98
815.036	14271.09
815.365	14219.8
815.693	14053.7
816.022	14154.03
816.351	14136.86
816.68	14118.1
817.008	14080.14
817.337	14021.83
817.665	13971.67
817.994	13996.75
818.322	13967.37
818.651	13935.06
818.979	13806.25
819.307	13952.01
819.636	13887.6
819.964	13795.17
820.292	13954.72
820.62	13836.3
820.948	13787.72
821.276	13880.6
821.604	13846.02
821.932	13890.99
822.259	13820.26
822.587	13806.02
822.915	13782.52
823.243	13866.13
823.57	13766.47
823.898	13792.24
824.225	13774.61
824.553	13744.33
824.88	13788.85
825.207	13865
825.535	13733.93
825.862	13857.55
826.189	13740.71
826.516	13821.39
826.843	13750.88
827.17	13946.36
827.497	13977.77
827.824	13859.13
828.151	13868.17
828.478	13843.53
828.805	13941.38
829.131	13750.2
829.458	13834.72
829.785	13733.03
830.111	13815.96
830.438	13836.98
830.764	13900.26
831.09	13902.06
831.417	13711.79
831.743	13930.31
832.069	13840.6
832.395	13740.03
832.722	13802.86
833.048	13714.72
833.374	13846.25
833.7	13733.03
834.026	13763.08
834.351	13715.18
834.677	13774.84
835.003	13720.37
835.329	13751.33
835.654	13700.26
835.98	13698
836.306	13635.18
836.631	13721.28
836.956	13684.89
837.282	13649.87
837.607	13591.79
837.932	13544.79
838.258	13578.91
838.583	13638.34
838.908	13534.16
839.233	13504.11
839.558	13506.14
839.883	13475.18
840.208	13427.05
840.533	13348.63
840.858	13423.43
841.182	13415.52
841.507	13450.32
841.832	13362.42
842.156	13300.95
842.481	13295.3
842.805	13230.22
843.13	13206.49
843.454	13222.99
843.778	13226.83
844.103	13136.66
844.427	13084.91
844.751	13090.79
845.075	13044.91
845.399	12973.5
845.723	12905.25
846.047	12885.14
846.371	12864.8
846.695	12912.71
847.019	12697.58
847.343	12697.12
847.666	12661.42
847.99	12562.89
848.313	12575.55
848.637	12520.63
848.96	12479.5
849.284	12473.85
849.607	12338.04
849.931	12318.38
850.254	12277.02
850.577	12245.84
850.9	12110.92
851.223	12097.82
851.546	12080.64
851.869	11950.25
852.192	12064.15
852.515	11865.06
852.838	11849.69
853.161	11782.8
853.483	11811.72
853.806	11770.59
854.129	11725.62
854.451	11674.1
854.774	11628
855.096	11587.32
855.419	11584.16
855.741	11624.61
856.063	11455.57
856.385	11461.22
856.708	11423.71
857.03	11428.46
857.352	11390.49
857.674	11348.68
857.996	11338.29
858.318	11196.6
858.64	11270.27
858.961	11197.05
859.283	11145.53
859.605	11091.52
859.926	11083.15
860.248	11134.68
860.57	11085.64
860.891	11045.87
861.212	11035.7
861.534	10963.38
861.855	11017.17
862.176	11032.31
862.498	10999.77
862.819	10961.58
863.14	10909.6
863.461	10882.71
863.782	10825.08
864.103	10842.94
864.424	10807
864.745	10762.49
865.065	10722.03
865.386	10769.72
865.707	10716.16
866.027	10671.87
866.348	10637.74
866.668	10641.13
866.989	10612.88
867.309	10578.99
867.63	10649.04
867.95	10602.72
868.27	10482.27
868.59	10614.01
868.91	10514.13
869.23	10507.35
869.55	10438.65
869.87	10544.64
870.19	10490.18
870.51	10483.17
870.83	10544.64
871.15	10382.16
871.469	10377.64
871.789	10416.05
872.109	10348.26
872.428	10384.42
872.748	10335.15
873.067	10368.37
873.386	10362.95
873.706	10301.03
874.025	10250.63
874.344	10166.34
874.663	10211.31
874.982	10225.78
875.301	10203.4
875.62	10149.85
875.939	10154.59
876.258	10125.89
876.577	10137.42
876.896	10116.4
877.214	10070.07
877.533	10080.24
877.852	10107.14
878.17	10067.36
878.489	10054.93
878.807	10038.66
879.125	10024.43
879.444	10001.38
879.762	9894.71
880.08	9995.73
880.398	9844.77
880.716	9935.61
881.034	9933.35
881.352	9915.95
881.67	9850.19
881.988	9928.61
882.306	9792.12
882.624	9750.99
882.941	9710.08
883.259	9704.66
883.577	9740.82
883.894	9747.14
884.212	9648.62
884.529	9708.73
884.846	9614.27
885.164	9593.7
885.481	9517.77
885.798	9555.06
886.115	9469.86
886.432	9534.72
886.75	9471.45
887.067	9456.98
887.383	9462.86
887.7	9451.11
888.017	9374.5
888.334	9435.29
888.651	9382.63
888.967	9293.82
889.284	9313.94
889.6	9330.43
889.917	9231.9
890.233	9246.37
890.55	9196.2
890.866	9198.23
891.182	9183.32
891.498	9099.25
891.815	9054.51
892.131	9064.68
892.447	9014.51
892.763	9029.65
893.079	8920.27
893.395	8984.68
893.71	8936.09
894.026	8896.09
894.342	8924.34
894.657	8888.18
894.973	8807.96
895.289	8831.69
895.604	8736.1
895.92	8669.66
896.235	8707.17
896.55	8741.52
896.865	8682.09
897.181	8654.29
897.496	8570.9
897.811	8560.74
898.126	8542.66
898.441	8531.81
898.756	8491.36
899.071	8430.57
899.386	8467.18
899.7	8340.85
900.015	8332.94
900.33	8257.24
900.644	8244.13
900.959	8327.07
901.273	8233.51
901.588	8178.15
901.902	8146.51
902.216	8135.21
902.531	8097.02
902.845	8104.02
903.159	8011.15
903.473	8024.93
903.787	7973.63
904.101	7979.28
904.415	7899.51
904.729	7866.97
905.042	7889.79
905.356	7842.56
905.67	7789.68
905.984	7710.36
906.297	7718.95
906.611	7729.34
906.924	7655.67
907.237	7611.16
907.551	7626.3
907.864	7590.59
908.177	7581.33
908.491	7594.21
908.804	7501.78
909.117	7476.47
909.43	7384.72
909.743	7339.75
910.056	7386.98
910.368	7294.78
910.681	7310.15
910.994	7252.3
911.307	7200.77
911.619	7215.01
911.932	7195.57
912.244	7103.82
912.557	7131.39
912.869	7064.96
913.181	7116.25
913.494	7043.94
913.806	6980.44
914.118	6911.97
914.43	6967.78
914.742	6904.06
915.054	6895.02
915.366	6844.85
915.678	6837.84
915.99	6831.74
916.302	6784.51
916.613	6753.33
916.925	6768.92
917.236	6732.76
917.548	6650.28
917.859	6711.07
918.171	6647.34
918.482	6598.3
918.794	6571.18
919.105	6594.23
919.416	6472.88
919.727	6479.66
920.038	6506.55
920.349	6425.2
920.66	6417.29
920.971	6435.37
921.282	6383.17
921.593	6344.52
921.903	6316.27
922.214	6307.46
922.525	6261.59
922.835	6261.81
923.146	6235.37
923.456	6197.18
923.767	6123.96
924.077	6168.48
924.387	6138.88
924.697	6116.28
925.008	6068.37
925.318	6069.73
925.628	6031.54
925.938	6015.27
926.248	5969.17
926.558	5983.63
926.867	5929.17
927.177	5897.75
927.487	5904.76
927.796	5808.27
928.106	5837.87
928.416	5799.45
928.725	5744.99
929.034	5741.37
929.344	5762.62
929.653	5700.7
929.962	5666.35
930.271	5632
930.581	5630.42
930.89	5600.14
931.199	5596.97
931.508	5571.21
931.817	5559.23
932.125	5505.22
932.434	5512.23
932.743	5446.24
933.051	5443.98
933.36	5377.77
933.669	5376.64
933.977	5346.58
934.286	5307.04
934.594	5371.67
934.902	5297.54
935.21	5321.27
935.519	5261.61
935.827	5322.85
936.135	5229.75
936.443	5243.08
936.751	5182.07
937.059	5213.7
937.367	5124.89
937.674	5105.91
937.982	5082.41
938.29	5116.53
938.597	5088.74
938.905	5042.86
939.213	5013.26
939.52	4934.84
939.827	4993.37
940.135	4926.93
940.442	4894.62
940.749	4943.2
941.056	4927.84
941.363	4870.21
941.67	4858.23
941.977	4829.31
942.284	4815.3
942.591	4739.59
942.898	4736.66
943.205	4802.87
943.511	4744.79
943.818	4705.92
944.125	4747.95
944.431	4675.64
944.738	4649.43
945.044	4622.76
945.35	4585.47
945.657	4547.73
945.963	4560.39
946.269	4559.48
946.575	4515.64
946.881	4507.28
947.187	4507.28
947.493	4484.68
947.799	4484.68
948.105	4480.62
948.41	4400.62
948.716	4403.33
949.022	4421.18
949.327	4374.18
949.633	4386.16
949.938	4333.5
950.244	4353.84
950.549	4315.65
950.854	4293.73
951.16	4284.01
951.465	4261.87
951.77	4226.61
952.075	4221.87
952.38	4227.06
952.685	4167.4
952.99	4167.63
953.294	4108.65
953.599	4088.99
953.904	4106.62
954.209	4056
954.513	4038.14
954.818	4025.04
955.122	4035.43
955.426	3997.47
955.731	4014.87
956.035	3963.34
956.339	3983
956.643	3897.58
956.948	3937.35
957.252	3867.3
957.556	3875.43
957.86	3866.62
958.163	3847.86
958.467	3868.43
958.771	3835.89
959.075	3803.57
959.378	3748.88
959.682	3772.84
959.985	3760.18
960.289	3763.57
960.592	3694.65
960.896	3703.46
961.199	3752.73
961.502	3717.47
961.805	3648.32
962.108	3664.37
962.411	3636.57
962.714	3601.77
963.017	3591.6
963.32	3622.11
963.623	3573.3
963.926	3600.64
964.228	3554.99
964.531	3538.49
964.833	3522.45
965.136	3510.47
965.438	3457.82
965.741	3469.57
966.043	3463.47
966.345	3417.82
966.648	3433.86
966.95	3397.93
967.252	3413.53
967.554	3360.87
967.856	3399.97
968.158	3338.73
968.46	3363.36
968.761	3338.27
969.063	3305.51
969.365	3294.21
969.666	3282
969.968	3247.65
970.269	3249.91
970.571	3247.2
970.872	3257.37
971.174	3219.18
971.475	3181.67
971.776	3215.34
972.077	3142.57
972.378	3154.1
972.679	3149.58
972.98	3137.15
973.281	3096.7
973.582	3093.53
973.883	3082.91
974.183	3064.83
974.484	3048.11
974.785	3063.93
975.085	3017.38
975.386	3033.2
975.686	2990.71
975.986	2982.8
976.287	3015.57
976.587	2963.37
976.887	2948.45
977.187	2945.74
977.487	2917.04
977.787	2898.29
978.087	2914.56
978.387	2909.58
978.687	2876.82
978.987	2877.95
979.286	2819.87
979.586	2835.91
979.885	2827.33
980.185	2825.97
980.484	2807.44
980.784	2771.51
981.083	2782.36
981.382	2775.35
981.682	2743.71
981.981	2744.17
982.28	2768.57
982.579	2698.29
982.878	2716.14
983.177	2710.49
983.475	2707.1
983.774	2672.53
984.073	2633.66
984.372	2636.15
984.67	2607.22
984.969	2664.39
985.267	2625.52
985.566	2613.1
985.864	2590.27
986.162	2583.94
986.461	2594.11
986.759	2551.4
987.057	2534.45
987.355	2508.92
987.653	2488.58
987.951	2485.64
988.249	2497.62
988.547	2471.4
988.844	2459.88
989.142	2474.57
989.44	2441.8
989.737	2471.4
990.035	2418.07
990.332	2477.73
990.63	2397.96
990.927	2339.66
991.224	2372.42
991.521	2371.75
991.819	2336.72
992.116	2344.18
992.413	2364.51
992.71	2320.22
993.006	2315.25
993.303	2293.1
993.6	2264.86
993.897	2291.52
994.193	2289.04
994.49	2260.56
994.787	2250.17
995.083	2235.25
995.379	2223.05
995.676	2216.72
995.972	2180.79
996.268	2193.9
996.565	2176.04
996.861	2187.57
997.157	2160.9
997.453	2153.22
997.749	2132.2
998.044	2128.59
998.34	2130.62
998.636	2111.64
998.932	2121.81
999.227	2093.56
999.523	2049.95
999.818	2056.27
1000.114	2072.32
1000.409	2041.58
1000.704	2049.04
1001	2037.07
1001.295	2010.85
1001.59	2016.95
1001.885	2009.27
1002.18	1991.64
1002.475	1978.31
1002.77	1963.39
1003.065	1949.61
1003.359	1948.25
1003.654	1946.9
1003.949	1929.05
1004.243	1900.12
1004.538	1900.57
1004.832	1871.87
1005.127	1907.35
1005.421	1875.04
1005.715	1880.46
1006.009	1883.4
1006.304	1848.37
1006.598	1809.5
1006.892	1811.08
1007.186	1809.5
1007.48	1817.64
1007.773	1764.3
1008.067	1741.25
1008.361	1764.53
1008.655	1759.56
1008.948	1736.06
1009.242	1732.44
1009.535	1725.89
1009.829	1748.71
1010.122	1677.3
1010.415	1689.96
1010.708	1679.11
1011.001	1649.28
1011.295	1683.63
1011.588	1651.76
1011.881	1637.08
1012.173	1633.23
1012.466	1634.59
1012.759	1640.92
1013.052	1623.74
1013.344	1619.22
1013.637	1610.64
1013.93	1570.41
1014.222	1551.2
1014.514	1566.34
1014.807	1559.79
1015.099	1534.03
1015.391	1531.77
1015.683	1532.9
1015.976	1534.93
1016.268	1484.54
1016.56	1512.56
1016.851	1508.72
1017.143	1488.15
1017.435	1482.73
1017.727	1473.69
1018.018	1459.91
1018.31	1427.14
1018.602	1435.5
1018.893	1442.05
1019.185	1407.03
1019.476	1411.32
1019.767	1409.51
1020.058	1371.55
1020.35	1377.42
1020.641	1379.91
1020.932	1356.63
1021.223	1353.24
1021.514	1333.13
1021.804	1316.18
1022.095	1324.32
1022.386	1355.28
1022.677	1309.85
1022.967	1296.52
1023.258	1302.4
1023.548	1281.15
1023.839	1286.58
1024.129	1271.89
1024.419	1260.14
1024.709	1260.81
1025	1252
1025.29	1242.51
1025.58	1201.83
1025.87	1228.95
1026.16	1237.31
1026.449	1212.23
1026.739	1221.95
1027.029	1200.02
1027.319	1190.76
1027.608	1180.14
1027.898	1195.51
1028.187	1180.14
1028.477	1159.12
1028.766	1161.83
1029.055	1138.33
1029.344	1157.54
1029.634	1135.17
1029.923	1115.51
1030.212	1107.6
1030.501	1124.09
1030.79	1087.49
1031.078	1099.46
1031.367	1086.81
1031.656	1065.57
1031.945	1066.24
1032.233	1068.73
1032.522	1073.47
1032.81	1023.08
1033.099	1070.76
1033.387	1050.88
1033.675	1037.32
1033.963	1029.63
1034.251	1035.74
1034.54	1019.24
1034.828	1018.79
1035.116	996.64
1035.403	1013.82
1035.691	971.33
1035.979	980.6
1036.267	972.69
1036.554	969.97
1036.842	973.14
1037.129	957.09
1037.417	941.73
1037.704	977.21
1037.992	928.39
1038.279	956.42
1038.566	929.52
1038.853	929.52
1039.14	929.52
