Data from hue_36_FLMS001491_00097.txt Node
Date: Tue Feb 07 17:30:33 GMT 2017
User: dcchb
Spectrometer: FLMS00149
Trigger mode: 0
Integration Time (sec): 2.000000E-2
Scans to average: 10
Electric dark correction enabled: true
Nonlinearity correction enabled: false
Boxcar width: 0
XAxis mode: Wavelengths
Number of Pixels in Spectrum: 2048
>>>>>Begin Spectral Data<<<<<
341.393	-11.02
341.776	-11.02
342.16	-11.02
342.543	-77.91
342.927	-53.73
343.31	-74.52
343.693	-72.26
344.077	-84.91
344.46	-63.67
344.843	-46.95
345.226	-39.26
345.61	-35.65
345.993	-11.69
346.376	-15.31
346.759	9.55
347.142	33.05
347.525	32.37
347.908	64.91
348.291	99.49
348.674	92.03
349.057	112.82
349.44	115.53
349.823	152.82
350.206	159.15
350.588	186.72
350.971	213.61
351.354	198.24
351.737	243.44
352.119	250.45
352.502	263.33
352.884	278.24
353.267	282.76
353.65	279.15
354.032	300.39
354.414	310.78
354.797	324.34
355.179	322.53
355.562	341.97
355.944	329.54
356.326	324.12
356.709	348.3
357.091	339.71
357.473	352.82
357.855	362.08
358.238	337.22
358.62	349.43
359.002	327.28
359.384	342.65
359.766	331.35
360.148	325.92
360.53	345.36
360.912	336.09
361.294	345.13
361.676	323.66
362.057	347.84
362.439	319.82
362.821	346.94
363.203	342.42
363.584	333.38
363.966	315.3
364.348	317.34
364.729	326.38
365.111	333.38
365.493	321.86
365.874	304.68
366.256	306.04
366.637	311.46
367.019	313.27
367.4	314.85
367.781	332.03
368.163	310.33
368.544	313.04
368.925	318.92
369.306	323.21
369.688	322.31
370.069	324.79
370.45	339.71
370.831	328.41
371.212	305.59
371.593	310.78
371.974	318.92
372.355	334.28
372.736	336.32
373.117	319.14
373.498	312.14
373.879	311.69
374.26	313.95
374.641	316.88
375.021	332.03
375.402	315.3
375.783	340.84
376.163	310.1
376.544	320.95
376.925	345.13
377.305	316.21
377.686	319.14
378.066	331.8
378.447	320.27
378.827	320.5
379.208	335.41
379.588	319.6
379.968	335.19
380.349	343.78
380.729	356.66
381.109	337.22
381.489	342.19
381.87	332.48
382.25	335.41
382.63	318.69
383.01	340.39
383.39	358.24
383.77	346.94
384.15	332.48
384.53	338.58
384.91	346.71
385.29	353.95
385.67	360.27
386.049	374.96
386.429	353.95
386.809	352.82
387.189	378.13
387.568	360.95
387.948	355.75
388.328	326.83
388.707	359.82
389.087	361.4
389.466	358.92
389.846	358.01
390.225	366.6
390.605	351.46
390.984	347.39
391.363	358.47
391.743	349.43
392.122	363.44
392.501	366.6
392.881	356.21
393.26	357.11
393.639	377
394.018	370.89
394.397	382.87
394.776	376.77
395.155	377
395.534	386.26
395.913	375.64
396.292	379.71
396.671	384.68
397.05	380.16
397.429	375.64
397.808	398.92
398.186	373.61
398.565	386.04
398.944	393.72
399.323	383.32
399.701	388.07
400.08	380.16
400.458	411.8
400.837	408.41
401.215	425.13
401.594	413.38
401.972	386.71
402.351	387.84
402.729	398.01
403.107	409.99
403.486	404.57
403.864	390.55
404.242	413.15
404.62	403.44
404.999	411.8
405.377	399.82
405.755	399.37
406.133	408.63
406.511	437.11
406.889	420.16
407.267	428.52
407.645	452.02
408.023	406.37
408.401	429.2
408.779	435.98
409.156	453.15
409.534	447.95
409.912	432.14
410.29	444.56
410.667	454.28
411.045	469.87
411.422	444.79
411.8	459.93
412.178	466.94
412.555	461.29
412.933	491.79
413.31	471.68
413.687	479.59
414.065	460.38
414.442	469.42
414.819	487.73
415.197	467.16
415.574	492.47
415.951	469.87
416.328	478.69
416.705	482.76
417.082	478.69
417.46	496.31
417.837	472.36
418.214	494.05
418.591	525.47
418.967	511.91
419.344	504
419.721	501.29
420.098	516.65
420.475	531.57
420.852	511.68
421.228	534.28
421.605	538.35
421.982	527.95
422.358	521.17
422.735	529.53
423.111	534.96
423.488	526.82
423.864	541.29
424.241	552.81
424.617	533.83
424.994	540.16
425.37	559.59
425.746	555.75
426.123	558.46
426.499	562.08
426.875	560.49
427.251	556.88
427.627	595.07
428.003	585.8
428.379	591.23
428.756	583.32
429.132	580.15
429.507	584.22
429.883	604.56
430.259	590.1
430.635	617.67
431.011	613.37
431.387	612.02
431.763	622.86
432.138	622.64
432.514	641.4
432.89	635.52
433.265	643.2
433.641	615.41
434.016	661.28
434.392	651.34
434.767	657.21
435.143	654.05
435.518	710.09
435.894	681.85
436.269	684.56
436.644	677.33
437.02	685.46
437.395	696.99
437.77	706.03
438.145	712.58
438.52	711.22
438.895	699.02
439.271	712.35
439.646	731.79
440.021	743.09
440.395	719.59
440.77	750.09
441.145	717.1
441.52	726.82
441.895	748.51
442.27	749.19
442.645	764.56
443.019	772.47
443.394	771.34
443.769	796.65
444.143	740.83
444.518	788.28
444.892	768.4
445.267	783.99
445.641	785.12
446.016	793.26
446.39	779.02
446.764	773.37
447.139	795.52
447.513	819.92
447.887	785.12
448.262	828.96
448.636	815.63
449.01	803.2
449.384	812.69
449.758	826.48
450.132	855.18
450.506	837.77
450.88	834.38
451.254	845.46
451.628	861.28
452.002	877.55
452.376	866.7
452.75	863.31
453.123	866.47
453.497	908.96
453.871	873.03
454.244	913.7
454.618	929.98
454.992	938.56
455.365	939.47
455.739	941.95
456.112	966.13
456.486	976.08
456.859	951.44
457.232	988.28
457.606	966.13
457.979	1020.37
458.352	1056.07
458.725	1006.13
459.099	1015.62
459.472	1060.37
459.845	1035.74
460.218	1096.52
460.591	1077.32
460.964	1092.91
461.337	1088.39
461.71	1105.11
462.083	1087.94
462.456	1129.97
462.829	1123.19
463.201	1157.77
463.574	1141.95
463.947	1172
464.32	1192.57
464.692	1214.71
465.065	1215.62
465.438	1229.18
465.81	1264.43
466.183	1273.7
466.555	1284.77
466.928	1303.07
467.3	1302.62
467.672	1325.22
468.045	1343.3
468.417	1354.82
468.789	1336.97
469.161	1387.59
469.534	1424.88
469.906	1447.7
470.278	1471.88
470.65	1499
471.022	1522.95
471.394	1560.69
471.766	1566.12
472.138	1592.56
472.51	1604.76
472.882	1649.5
473.253	1661.48
473.625	1728.6
473.997	1722.72
474.369	1773.57
474.74	1795.94
475.112	1832.78
475.484	1882.72
475.855	1929.5
476.227	1957.75
476.598	2013.56
476.97	2044.97
477.341	2075.26
477.713	2164.75
478.084	2179.21
478.455	2212.43
478.827	2249.26
479.198	2354.34
479.569	2366.1
479.94	2469.6
480.311	2448.58
480.682	2565.41
481.053	2635.92
481.424	2713.21
481.795	2787.1
482.166	2824.61
482.537	2881.56
482.908	2966.98
483.279	3035.91
483.65	3097.83
484.021	3201.33
484.391	3298.5
484.762	3330.59
485.133	3395.67
485.503	3494.43
485.874	3520.87
486.244	3667.08
486.615	3780.3
486.985	3823.01
487.356	3972.83
487.726	4010.57
488.097	4116.56
488.467	4204.69
488.837	4294.86
489.207	4426.38
489.578	4479.94
489.948	4603.78
490.318	4680.61
490.688	4733.49
491.058	4846.26
491.428	4981.62
491.798	5068.4
492.168	5180.03
492.538	5242.18
492.908	5328.96
493.278	5419.35
493.648	5492.79
494.017	5597.42
494.387	5678.55
494.757	5765.78
495.126	5895.49
495.496	5910.86
495.866	6050.97
496.235	6110.63
496.605	6274.92
496.974	6255.49
497.344	6397.63
497.713	6510.85
498.082	6580.22
498.452	6656.6
498.821	6677.17
499.19	6823.38
499.559	6929.82
499.928	6979.99
500.298	6997.84
500.667	7165.07
501.036	7146.08
501.405	7246.42
501.774	7320.54
502.143	7451.39
502.512	7474.66
502.88	7584.72
503.249	7619.29
503.618	7732.96
503.987	7733.41
504.356	7862.22
504.724	7900.87
505.093	7946.51
505.462	8053.4
505.83	8124.36
506.199	8182.44
506.567	8310.12
506.936	8270.8
507.304	8401.42
507.672	8505.6
508.041	8468.31
508.409	8652.26
508.777	8644.35
509.145	8742.88
509.514	8707.4
509.882	8890.44
510.25	8870.33
510.618	8926.15
510.986	8993.72
511.354	9136.54
511.722	9147.39
512.09	9224.9
512.458	9238.68
512.826	9355.74
513.193	9412.69
513.561	9456.31
513.929	9520.71
514.297	9614.94
514.664	9745.56
515.032	9760.48
515.4	9766.13
515.767	9875.96
516.135	9887.48
516.502	9861.27
516.869	10023.07
517.237	10101.94
517.604	10050.19
517.972	10167.92
518.339	10227.81
518.706	10202.5
519.073	10299.9
519.44	10330.41
519.808	10397.52
520.175	10448.6
520.542	10602.04
520.909	10610.17
521.276	10558.87
521.643	10751.41
522.009	10810.39
522.376	10890.17
522.743	10988.02
523.11	11060.1
523.477	11091.29
523.843	11185.75
524.21	11246.54
524.577	11256.26
524.943	11402.69
525.31	11440.21
525.676	11579.19
526.043	11628.68
526.409	11663.48
526.776	11758.17
527.142	11838.62
527.508	11883.81
527.874	11952.28
528.241	12030.25
528.607	12002.23
528.973	12149.34
529.339	12167.19
529.705	12309.79
530.071	12431.14
530.437	12491.71
530.803	12555.66
531.169	12605.37
531.535	12566.28
531.901	12620.29
532.267	12730.57
532.632	12802.21
532.998	12820.74
533.364	12864.35
533.73	12957.46
534.095	13069.77
534.461	13156.55
534.826	13091.46
535.192	13205.58
535.557	13315.86
535.923	13303.21
536.288	13335.53
536.653	13438.57
537.019	13474.28
537.384	13483.77
537.749	13657.55
538.114	13599.25
538.479	13570.1
538.845	13754.05
539.21	13666.14
539.575	13756.3
539.94	13786.59
540.305	13922.63
540.67	13831.33
541.034	13939.58
541.399	14004.89
541.764	14007.82
542.129	14130.53
542.494	14190.42
542.858	14293.92
543.223	14311.09
543.587	14424.99
543.952	14392.9
544.316	14426.8
544.681	14426.8
545.045	14577.75
545.41	14669.73
545.774	14648.71
546.138	14689.39
546.503	14748.37
546.867	14761.25
547.231	14902.04
547.595	14873.11
547.959	14896.16
548.324	14994.92
548.688	14986.56
549.052	15124.18
549.416	15161.92
549.779	15238.07
550.143	15198.75
550.507	15346.09
550.871	15417.28
551.235	15361.46
551.599	15555.58
551.962	15485.98
552.326	15627.44
552.689	15768
553.053	15603.94
553.417	15634.45
553.78	15898.62
554.143	15845.74
554.507	15983.59
554.87	15981.78
555.234	16071.05
555.597	16029.69
555.96	16179.07
556.323	16228.78
556.686	16194.66
557.05	16279.85
557.413	16309.23
557.776	16325.5
558.139	16509.68
558.502	16560.53
558.865	16507.19
559.228	16621.77
559.59	16725.94
559.953	16750.12
560.316	16892.27
560.679	16879.84
561.041	16958.93
561.404	17075.31
561.767	17163.67
562.129	17152.37
562.492	17281.86
562.854	17324.12
563.217	17290.45
563.579	17321.41
563.941	17506.49
564.304	17522.08
564.666	17673.04
565.028	17598.01
565.39	17674.39
565.753	17711.68
566.115	17758.23
566.477	17922.07
566.839	17934.27
567.201	18178.79
567.563	18068.06
567.925	18257.2
568.287	18115.29
568.648	18235.51
569.01	18356.86
569.372	18401.61
569.734	18471.66
570.095	18624.88
570.457	18667.36
570.819	18761.37
571.18	18756.63
571.542	18955.49
571.903	18923.4
572.265	19097.41
572.626	19064.19
572.987	19148.48
573.349	19324.97
573.71	19283.17
574.071	19488.36
574.432	19602.03
574.794	19702.59
575.155	19707.56
575.516	19730.84
575.877	19913.21
576.238	19959.31
576.599	20090.38
576.96	20164.5
577.32	20296.47
577.681	20428.9
578.042	20626.63
578.403	20565.62
578.763	20843.58
579.124	20932.39
579.485	21159.73
579.845	21226.17
580.206	21417.57
580.566	21574.18
580.927	21673.38
581.287	21801.52
581.648	21855.3
582.008	22113.6
582.368	22408.73
582.728	22452.12
583.089	22674.94
583.449	22795.62
583.809	22923.52
584.169	23110.18
584.529	23356.28
584.889	23609.15
585.249	23652.54
585.609	23841.01
585.969	24234.9
586.329	24306.76
586.688	24526.42
587.048	24751.5
587.408	24826.97
587.768	25083.24
588.127	25242.78
588.487	25487.52
588.846	25926.15
589.206	25913.5
589.565	26123.89
589.925	26514.84
590.284	26640.71
590.643	26845.9
591.003	27197.76
591.362	27610.4
591.721	27536.28
592.08	27832.77
592.44	28261.01
592.799	28273.89
593.158	28525.63
593.517	28744.61
593.876	29014.89
594.235	29188.44
594.593	29411.71
594.952	29644.25
595.311	29755.88
595.67	30007.63
596.029	30275.19
596.387	30617.56
596.746	30869.53
597.104	30880.83
597.463	31261.83
597.822	31438.33
598.18	31584.54
598.538	31867.24
598.897	32157.63
599.255	32080.57
599.613	32640.55
599.972	32667.9
600.33	32900.89
600.688	32967.55
601.046	33323.25
601.404	33548.78
601.762	33733.86
602.12	33906.06
602.478	34143.57
602.836	34304.69
603.194	34444.35
603.552	34598.92
603.91	34642.08
604.268	34972.7
604.625	34964.79
604.983	35314.16
605.341	35234.38
605.698	35494.72
606.056	35801.83
606.413	35744.2
606.771	36073.23
607.128	36178.99
607.485	36309.84
607.843	36475.71
608.2	36621.24
608.557	36972.64
608.914	36964.28
609.272	37191.39
609.629	37430.03
609.986	37724.26
610.343	37608.33
610.7	38001.54
611.057	37920.64
611.414	38226.4
611.771	38194.76
612.127	38425.94
612.484	38617.8
612.841	38646.95
613.198	38694.41
613.554	38868.64
613.911	39160.38
614.267	39313.15
614.624	39206.94
614.98	39515.85
615.337	39712.91
615.693	39606.7
616.05	39663.65
616.406	40046.01
616.762	40015.05
617.118	39957.88
617.475	40022.28
617.831	40238.55
618.187	40183.41
618.543	40436.96
618.899	40630.4
619.255	40549.5
619.611	40666.56
619.967	40913.11
620.323	40890.96
620.678	40915.59
621.034	40881.47
621.39	40953.33
621.746	41009.37
622.101	41515.58
622.457	41196.26
622.812	41386.09
623.168	41477.84
623.523	41529.81
623.879	41715.8
624.234	41530.04
624.589	41736.36
624.945	41678.73
625.3	41810.48
625.655	41821.78
626.01	41851.84
626.365	42056.35
626.72	42023.58
627.075	41986.52
627.43	41977.48
627.785	42000.76
628.14	42233.52
628.495	42181.77
628.85	42026.75
629.205	41973.42
629.559	42385.38
629.914	42161.43
630.269	42205.5
630.623	42275.56
630.978	42180.64
631.332	42416.34
631.687	42365.5
632.041	42210.47
632.396	42437.13
632.75	42206.63
633.104	42342.9
633.459	42281.66
633.813	42237.82
634.167	42178.16
634.521	42209.12
634.875	42290.7
635.229	42249.79
635.583	42146.29
635.937	42052.74
636.291	42089.57
636.645	42288.66
636.999	42179.74
637.352	42389.45
637.706	41977.48
638.06	42308.55
638.413	42138.84
638.767	41993.53
639.121	42232.62
639.474	41882.12
639.828	42064.71
640.181	42033.53
640.534	41999.86
640.888	41958.95
641.241	41863.14
641.594	42043.02
641.947	41891.38
642.301	41852.97
642.654	41902.91
643.007	41985.39
643.36	41704.04
643.713	41875.57
644.066	41913.53
644.419	41726.19
644.771	41538.17
645.124	41179.54
645.477	41073.78
645.83	40887.79
646.182	40697.29
646.535	40640.34
646.888	40842.15
647.24	40490.52
647.593	40782.71
647.945	40839.21
648.298	40437.86
648.65	40353.57
649.002	40327.81
649.355	40510.63
649.707	40397.64
650.059	40732.09
650.411	41128.24
650.763	41088.02
651.115	41539.76
651.467	41357.61
651.819	41378.18
652.171	41265.64
652.523	41266.77
652.875	41338.86
653.227	40991.52
653.578	41423.83
653.93	41331.17
654.282	41219.99
654.633	41052.76
654.985	41079.65
655.337	41022.03
655.688	41005.08
656.039	41155.58
656.391	40919.66
656.742	41033.55
657.094	40968.24
657.445	41090.5
657.796	41151.97
658.147	41082.82
658.498	41005.53
658.849	40965.98
659.2	41075.13
659.551	40946.55
659.902	41197.17
660.253	41028.36
660.604	41026.55
660.955	40861.35
661.306	40999.66
661.656	40904.07
662.007	41074.23
662.358	40981.8
662.708	40837.4
663.059	40887.79
663.409	40682.38
663.76	40943.39
664.11	40950.84
664.461	40938.42
664.811	40927.34
665.161	40916.27
665.511	40778.87
665.862	40877.63
666.212	40943.84
666.562	41029.49
666.912	40822.26
667.262	40800.79
667.612	40716.73
667.962	40833.33
668.312	40739.55
668.662	40967.79
669.011	40700.46
669.361	40637.41
669.711	40688.93
670.06	40677.86
670.41	40643.96
670.76	40700
671.109	40698.65
671.459	40597.86
671.808	40521.93
672.157	40748.36
672.507	40412.55
672.856	40571.19
673.205	40598.09
673.554	40606.22
673.904	40451.65
674.253	40765.54
674.602	40593.79
674.951	39979.12
675.3	39840.14
675.649	40456.85
675.998	40301.82
676.346	40387.7
676.695	40497.3
677.044	40244.65
677.393	40334.14
677.741	40291.2
678.09	40131.43
678.438	40170.3
678.787	40216.63
679.135	40213.01
679.484	40034.94
679.832	40233.35
680.181	39978.89
680.529	40104.09
680.877	39959.23
681.225	39890.08
681.573	40264.76
681.922	39870.19
682.27	39720.59
682.618	39739.12
682.966	39740.48
683.314	39738.9
683.661	39676.98
684.009	39510.88
684.357	39406.03
684.705	39342.3
685.053	39505.91
685.4	39203.77
685.748	39077
686.095	39219.36
686.443	39126.49
686.79	39064.79
687.138	39103.21
687.485	39103.89
687.832	38973.27
688.18	38949.77
688.527	38774.63
688.874	38729.43
689.221	38744.8
689.568	38592.26
689.915	38416.9
690.262	38463.9
690.609	38391.59
690.956	38320.4
691.303	38296.9
691.65	38151.14
691.997	38004.93
692.344	37946.18
692.69	37819.4
693.037	37774.43
693.383	37540.99
693.73	37650.82
694.077	37308.68
694.423	37463.7
694.769	37256.25
695.116	37236.82
695.462	37232.52
695.808	37216.25
696.155	37116.37
696.501	36775.13
696.847	36955.02
697.193	36606.1
697.539	36810.84
697.885	36443.84
698.231	36351.42
698.577	36455.6
698.923	36437.97
699.269	36237.07
699.614	35988.94
699.96	36021.03
700.306	36059.9
700.651	35812.22
700.997	35815.61
701.342	35649.51
701.688	35624.88
702.033	35582.17
702.379	35453.81
702.724	35503.08
703.069	35477.09
703.415	35013.37
703.76	35157.55
704.105	35096.76
704.45	35036.65
704.795	34871.68
705.14	34807.05
705.485	34710.78
705.83	34551.92
706.175	34399.83
706.52	34458.59
706.865	34275.99
707.209	34463.33
707.554	34279.83
707.899	34306.73
708.243	34116
708.588	34139.27
708.932	33914.87
709.277	33852.73
709.621	33932.72
709.966	33582.68
710.31	33657.48
710.654	33505.16
710.998	33621.32
711.342	33486.18
711.687	33316.69
712.031	33353.76
712.375	33201.44
712.719	33324.15
713.063	33102.24
713.407	33286.41
713.75	32888.91
714.094	32946.31
714.438	32909.93
714.782	32949.7
715.125	32616.15
715.469	32738.4
715.812	32631.06
716.156	32552.19
716.499	32498.86
716.843	32598.07
717.186	32289.6
717.53	32449.15
717.873	32355.14
718.216	32347.91
718.559	32196.27
718.902	31941.59
719.246	32105.65
719.589	31976.84
719.932	31950.63
720.275	31899.33
720.617	31824.3
720.96	31880.57
721.303	31847.13
721.646	31730.52
721.989	31532.56
722.331	31585.21
722.674	31549.51
723.016	31605.55
723.359	31505.89
723.701	31464.99
724.044	31266.8
724.386	31273.58
724.729	31274.94
725.071	31062.06
725.413	31272.91
725.755	31177.32
726.097	31052.8
726.439	30770.09
726.782	30841.05
727.124	30964.67
727.465	30802.64
727.807	30868.4
728.149	30687.16
728.491	30738.46
728.833	30747.72
729.175	30585.02
729.516	30532.36
729.858	30439.03
730.199	30519.48
730.541	30391.12
730.882	30392.03
731.224	30494.85
731.565	30266.83
731.906	30333.95
732.248	30306.6
732.589	30110.68
732.93	29993.84
733.271	30180.73
733.612	30188.19
733.953	30092.37
734.294	29887.86
734.635	29891.02
734.976	29918.59
735.317	29693.74
735.658	29788.43
735.999	29891.93
736.339	29690.35
736.68	29884.24
737.021	29712.5
737.361	29512.73
737.702	29768.09
738.042	29559.96
738.383	29438.6
738.723	29507.08
739.063	29335.1
739.404	29537.81
739.744	29338.49
740.084	29310.02
740.424	29229.12
740.764	29174.88
741.104	29394.54
741.444	29047.2
741.784	29034.55
742.124	29097.14
742.464	29055.11
742.804	28952.97
743.143	28873.65
743.483	28906.64
743.823	28645.63
744.162	28811.73
744.502	28737.61
744.841	28667.1
745.181	28728.57
745.52	28606.31
745.86	28708.68
746.199	28486.99
746.538	28565.18
746.877	28547.1
747.216	28545.97
747.556	28315.7
747.895	28453.77
748.234	28312.31
748.573	28289.26
748.911	28206.32
749.25	28238.41
749.589	28167.23
749.928	28150.73
750.267	28120.45
750.605	28012.88
750.944	28011.52
751.283	27829.16
751.621	27935.82
751.96	27781.25
752.298	27729.04
752.636	27700.8
752.975	27669.84
753.313	27496.96
753.651	27520.24
753.989	27496.96
754.327	27523.4
754.666	27322.28
755.004	27379.45
755.342	27296.97
755.679	27235.27
756.017	27198.89
756.355	27308.72
756.693	27028.5
757.031	27142.62
757.368	26890.87
757.706	26977.65
758.044	26727.49
758.381	26917.09
758.719	26703.54
759.056	26677.77
759.394	26569.75
759.731	26434.62
760.068	26416.31
760.405	26148.97
760.743	26178.35
761.08	26201.85
761.417	26095.64
761.754	26057.68
762.091	25915.08
762.428	25971.58
762.765	25755.99
763.102	25857
763.438	25695.2
763.775	25492.95
764.112	25646.39
764.449	25562.32
764.785	25537.92
765.122	25389.22
765.458	25311.48
765.795	25243.01
766.131	25165.5
766.467	25128.21
766.804	24930.47
767.14	24873.3
767.476	24806.64
767.812	24669.01
768.148	24629.69
768.485	24564.83
768.821	24514.89
769.157	24426.76
769.492	24383.6
769.828	24293.66
770.164	24150.83
770.5	24026.54
770.836	24155.81
771.171	23963.04
771.507	23860.9
771.842	23691.86
772.178	23589.49
772.513	23570.28
772.849	23533.67
773.184	23492.77
773.519	23459.1
773.855	23176.4
774.19	23236.96
774.525	23060.69
774.86	23135.72
775.195	23049.39
775.53	22987.7
775.865	22845.78
776.2	22643.3
776.535	22526.7
776.87	22458.45
777.205	22334.84
777.539	22296.87
777.874	22406.92
778.209	22210.77
778.543	22204.22
778.878	22074.05
779.212	22067.27
779.547	21887.39
779.881	21895.75
780.215	21809.43
780.55	21736.21
780.884	21657.57
781.218	21617.12
781.552	21563.56
781.886	21407.86
782.22	21390.91
782.554	21140.97
782.888	21079.73
783.222	21032.72
783.556	20864.59
783.889	20863.91
784.223	20717.48
784.557	20673.41
784.89	20666.18
785.224	20507.31
785.557	20563.13
785.891	20379.41
786.224	20412.18
786.558	20449.24
786.891	20184.16
787.224	20118.85
787.557	20025.29
787.891	20049.25
788.224	19922.02
788.557	19981
788.89	19901.68
789.223	19904.62
789.556	19712.08
789.888	19554.57
790.221	19663.95
790.554	19337.85
790.887	19501.01
791.219	19330.17
791.552	19246.56
791.884	19206.11
792.217	19182.38
792.549	19117.52
792.882	18949.39
793.214	18921.59
793.546	18890.41
793.879	18741.94
794.211	18717.98
794.543	18786.68
794.875	18674.14
795.207	18810.41
795.539	18549.63
795.871	18592.79
796.203	18399.12
796.535	18275.28
796.867	18246.13
797.198	18214.49
797.53	18228.28
797.862	18082.52
798.193	18081.84
798.525	18002.3
798.856	18012.01
799.188	17852.24
799.519	17714.17
799.85	17640.27
800.182	17696.09
800.513	17654.51
800.844	17507.84
801.175	17540.16
801.506	17423.33
801.837	17400.73
802.168	17336.78
802.499	17379.03
802.83	17274.63
803.161	17188.53
803.491	17219.72
803.822	17103.56
804.153	17118.02
804.483	16987.18
804.814	16864.92
805.145	16905.6
805.475	16853.85
805.805	16758.26
806.136	16860.4
806.466	16724.81
806.796	16791.03
807.126	16648.66
807.457	16570.02
807.787	16594.65
808.117	16474.88
808.447	16483.92
808.777	16501.32
809.107	16355.56
809.436	16327.54
809.766	16367.31
810.096	16224.04
810.426	16196.47
810.755	16198.05
811.085	16132.51
811.414	16136.81
811.744	15995.57
812.073	15976.36
812.403	15911.28
812.732	15870.6
813.061	15866.08
813.39	15767.1
813.719	15840.54
814.049	15750.6
814.378	15727.55
814.707	15571.17
815.036	15592.41
815.365	15458.18
815.693	15356.04
816.022	15412.98
816.351	15345.87
816.68	15275.36
817.008	15345.64
817.337	15212.54
817.665	15087.34
817.994	15158.08
818.322	15173.44
818.651	15155.59
818.979	15004.63
819.307	15131.41
819.636	15005.54
819.964	14916.27
820.292	14974.35
820.62	15003.73
820.948	14943.84
821.276	14946.56
821.604	14850.74
821.932	14930.51
822.259	14984.75
822.587	14948.14
822.915	14772.78
823.243	14846.9
823.57	14854.81
823.898	14890.96
824.225	14816.62
824.553	14735.71
824.88	14849.16
825.207	14752.89
825.535	14743.62
825.862	14867.24
826.189	14768.48
826.516	14855.03
826.843	14854.13
827.17	14869.27
827.497	14935.71
827.824	14869.95
828.151	14812.55
828.478	14838.99
828.805	14886.44
829.131	14768.93
829.458	14819.1
829.785	14773
830.111	14774.13
830.438	14822.04
830.764	14789.72
831.09	14834.92
831.417	14790.85
831.743	14806.45
832.069	14769.84
832.395	14648.94
832.722	14742.72
833.048	14691.42
833.374	14735.04
833.7	14641.03
834.026	14683.74
834.351	14678.31
834.677	14627.02
835.003	14708.14
835.329	14702.95
835.654	14591.99
835.98	14634.7
836.306	14534.36
836.631	14443.74
836.956	14526.45
837.282	14494.59
837.607	14467.02
837.932	14442.84
838.258	14427.25
838.583	14398.1
838.908	14354.26
839.233	14328.49
839.558	14317.65
839.883	14259.79
840.208	14159.23
840.533	14201.27
840.858	14181.6
841.182	14239.46
841.507	14131.66
841.832	14003.98
842.156	14077.2
842.481	14052.12
842.805	14075.17
843.13	13983.87
843.454	13874.27
843.778	13860.26
844.103	13949.52
844.427	13810.09
844.751	13920.14
845.075	13816.87
845.399	13752.69
845.723	13671.11
846.047	13671.34
846.371	13616.87
846.695	13508.18
847.019	13483.32
847.343	13380.95
847.666	13343.89
847.99	13295.75
848.313	13353.38
848.637	13240.61
848.96	13152.03
849.284	13138.02
849.607	13105.02
849.931	13057.34
850.254	12853.5
850.577	12776.67
850.9	12797.01
851.223	12834.75
851.546	12698.25
851.869	12630.68
852.192	12637.46
852.515	12561.31
852.838	12501.65
853.161	12495.32
853.483	12426.4
853.806	12351.37
854.129	12309.56
854.451	12269.79
854.774	12222.11
855.096	12216.91
855.419	12171.26
855.741	12138.49
856.063	12086.74
856.385	12056.69
856.708	12029.8
857.03	11941.44
857.352	11957.26
857.674	11945.05
857.996	11838.62
858.318	11805.85
858.64	11806.75
858.961	11736.02
859.283	11715.91
859.605	11684.04
859.926	11767.88
860.248	11773.76
860.57	11555.01
860.891	11655.34
861.212	11553.43
861.534	11482.24
861.855	11468
862.176	11530.37
862.498	11491.05
862.819	11472.98
863.14	11437.27
863.461	11413.54
863.782	11404.05
864.103	11365.63
864.424	11349.14
864.745	11342.58
865.065	11294.67
865.386	11185.53
865.707	11170.16
866.027	11299.87
866.348	11194.56
866.668	11268.46
866.989	11183.94
867.309	11157.96
867.63	11143.27
867.95	11061.69
868.27	11051.97
868.59	11062.59
868.91	11065.08
869.23	11076.6
869.55	10919.09
869.87	11014.23
870.19	11032.31
870.51	11038.86
870.83	11002.71
871.15	10889.26
871.469	10892.43
871.789	10930.62
872.109	10904.4
872.428	10892.2
872.748	10852.65
873.067	10869.38
873.386	10860.56
873.706	10789.83
874.025	10722.94
874.344	10760.23
874.663	10738.53
874.982	10686.78
875.301	10758.64
875.62	10778.98
875.939	10623.51
876.258	10649.72
876.577	10526.79
876.896	10557.52
877.214	10608.37
877.533	10635.48
877.852	10612.66
878.17	10601.81
878.489	10576.28
878.807	10527.69
879.125	10477.07
879.444	10499.67
879.762	10438.65
880.08	10424.19
880.398	10401.36
880.716	10432.55
881.034	10335.83
881.352	10404.08
881.67	10363.17
881.988	10352.55
882.306	10358.65
882.624	10265.55
882.941	10218.77
883.259	10080.92
883.577	10219.67
883.894	10220.13
884.212	10168.83
884.529	10133.58
884.846	10123.86
885.164	10091.09
885.481	10011.77
885.798	10066.01
886.115	9946.24
886.432	10018.78
886.75	9947.59
887.067	9993.69
887.383	9946.91
887.7	9905.33
888.017	9844.77
888.334	9933.58
888.651	9822.17
888.967	9865.79
889.284	9746.24
889.6	9763.19
889.917	9700.37
890.233	9633.7
890.55	9592.12
890.866	9690.42
891.182	9721.83
891.498	9604.78
891.815	9514.16
892.131	9511.9
892.447	9578.56
892.763	9445.46
893.079	9392.35
893.395	9390.09
893.71	9379.02
894.026	9324.78
894.342	9288.17
894.657	9297.89
894.973	9231.45
895.289	9226.48
895.604	9191.91
895.92	9213.37
896.235	9084.11
896.55	9142.41
896.865	9072.59
897.181	9040.04
897.496	8997.79
897.811	8890.9
898.126	8998.92
898.441	8912.59
898.756	8904.91
899.071	8918.24
899.386	8918.92
899.7	8722.76
900.015	8784.91
900.33	8713.27
900.644	8723.67
900.959	8737
901.273	8645.25
901.588	8567.51
901.902	8567.97
902.216	8577.46
902.531	8473.96
902.845	8576.78
903.159	8469.66
903.473	8447.74
903.787	8365.49
904.101	8296.79
904.415	8363
904.729	8361.19
905.042	8286.62
905.356	8249.33
905.67	8281.65
905.984	8245.72
906.297	8143.8
906.611	8117.58
906.924	8072.39
907.237	8096.79
907.551	8090.01
907.864	8026.74
908.177	8045.04
908.491	8026.51
908.804	7970.24
909.117	7860.41
909.43	7859.06
909.743	7807.76
910.056	7801.43
910.368	7764.6
910.681	7719.63
910.994	7710.59
911.307	7670.36
911.619	7560.54
911.932	7600.76
912.244	7546.52
912.557	7516.92
912.869	7519.41
913.181	7457.04
913.494	7490.71
913.806	7422.69
914.118	7389.47
914.43	7321.22
914.742	7350.15
915.054	7249.13
915.366	7275.35
915.678	7242.13
915.99	7224.73
916.302	7130.26
916.613	7124.39
916.925	7153.31
917.236	7103.37
917.548	7092.98
917.859	7044.62
918.171	7002.81
918.482	6945.64
918.794	6938.86
919.105	6946.54
919.416	6803.95
919.727	6815.47
920.038	6851.18
920.349	6767.56
920.66	6780.22
920.971	6758.3
921.282	6750.39
921.593	6678.3
921.903	6577.51
922.214	6563.05
922.525	6601.24
922.835	6487.8
923.146	6542.94
923.456	6538.19
923.767	6462.03
924.077	6486.67
924.387	6401.24
924.697	6381.36
925.008	6394.46
925.318	6301.59
925.628	6316.05
925.938	6290.06
926.248	6169.84
926.558	6179.1
926.867	6227.46
927.177	6179.78
927.487	6128.48
927.796	6060.01
928.106	6099.56
928.416	6042.84
928.725	6080.12
929.034	6026.56
929.344	6036.96
929.653	6008.49
929.962	5936.62
930.271	5960.13
930.581	5898.88
930.89	5863.86
931.199	5816.17
931.508	5868.83
931.817	5857.76
932.125	5759.91
932.434	5815.95
932.743	5726.23
933.051	5713.35
933.36	5677.87
933.669	5603.52
933.977	5617.31
934.286	5651.21
934.594	5641.04
934.902	5511.32
935.21	5560.14
935.519	5550.19
935.827	5479.23
936.135	5487.14
936.443	5448.5
936.751	5409.41
937.059	5388.16
937.367	5360.37
937.674	5370.99
937.982	5310.2
938.29	5325.57
938.597	5258.68
938.905	5222.07
939.213	5219.13
939.52	5215.51
939.827	5192.46
940.135	5168.73
940.442	5134.84
940.749	5117.21
941.056	5094.84
941.363	5055.52
941.67	5024.11
941.977	5003.77
942.284	4966.93
942.591	4941.17
942.898	5013.71
943.205	4940.72
943.511	4893.94
943.818	4904.56
944.125	4857.56
944.431	4862.53
944.738	4866.37
945.044	4838.12
945.35	4763.77
945.657	4786.15
945.963	4754.73
946.269	4709.54
946.575	4719.03
946.881	4731.23
947.187	4668.41
947.493	4686.03
947.799	4673.83
948.105	4564
948.41	4612.59
948.716	4616.88
949.022	4552.48
949.327	4519.71
949.633	4505.47
949.938	4514.97
950.244	4538.24
950.549	4454.63
950.854	4432.71
951.16	4422.99
951.465	4415.31
951.77	4374.86
952.075	4375.99
952.38	4345.25
952.685	4333.95
952.99	4299.38
953.294	4293.73
953.599	4274.52
953.904	4248.31
954.209	4207.63
954.513	4232.49
954.818	4186.39
955.122	4142.77
955.426	4167.4
955.731	4118.37
956.035	4107.52
956.339	4090.8
956.643	4089.21
956.948	4062.1
957.252	4032.94
957.556	4048.09
957.86	4042.21
958.163	4014.64
958.467	4012.38
958.771	3972.61
959.075	3965.38
959.378	3919.5
959.682	3922.21
959.985	3924.7
960.289	3872.95
960.592	3867.75
960.896	3865.27
961.199	3831.59
961.502	3799.96
961.805	3767.19
962.108	3788.21
962.411	3743.69
962.714	3743.91
963.017	3731.03
963.32	3745.49
963.623	3712.95
963.926	3697.36
964.228	3663.46
964.531	3653.97
964.833	3630.24
965.136	3585.72
965.438	3614.65
965.741	3601.54
966.043	3560.64
966.345	3553.41
966.648	3542.79
966.95	3525.16
967.252	3514.54
967.554	3518.61
967.856	3514.09
968.158	3497.59
968.46	3458.72
968.761	3422.11
969.063	3393.41
969.365	3373.53
969.666	3373.98
969.968	3363.81
970.269	3347.31
970.571	3337.37
970.872	3348.22
971.174	3346.41
971.475	3351.83
971.776	3315
972.077	3292.85
972.378	3235.68
972.679	3243.81
972.98	3249.24
973.281	3219.18
973.582	3203.14
973.883	3190.71
974.183	3176.47
974.484	3218.05
974.785	3098.28
975.085	3135.34
975.386	3119.97
975.686	3101.44
975.986	3106.42
976.287	3063.93
976.587	3053.08
976.887	3061.9
977.187	3063.25
977.487	3018.73
977.787	3040.2
978.087	2994.1
978.387	2976.25
978.687	2976.7
978.987	2912.75
979.286	2941.9
979.586	2900.77
979.885	2930.6
980.185	2901
980.484	2886.31
980.784	2885.4
981.083	2854.9
981.382	2858.29
981.682	2838.17
981.981	2814.67
982.28	2802.47
982.579	2788.01
982.878	2809.7
983.177	2764.05
983.475	2752.53
983.774	2770.61
984.073	2761.34
984.372	2737.39
984.67	2723.83
984.969	2698.52
985.267	2713.21
985.566	2689.93
985.864	2686.77
986.162	2668.69
986.461	2601.12
986.759	2659.42
987.057	2625.3
987.355	2586.43
987.653	2633.89
987.951	2548.46
988.249	2588.91
988.547	2561.57
988.844	2543.72
989.142	2537.62
989.44	2518.18
989.737	2535.81
990.035	2523.38
990.332	2530.61
990.63	2487.9
990.927	2446.55
991.224	2489.48
991.521	2504.17
991.819	2460.1
992.116	2416.04
992.413	2412.42
992.71	2409.48
993.006	2454.23
993.303	2378.75
993.6	2371.75
993.897	2378.3
994.193	2364.74
994.49	2352.76
994.787	2357.96
995.083	2322.93
995.379	2326.32
995.676	2312.76
995.972	2314.35
996.268	2284.29
996.565	2257.62
996.861	2262.14
997.157	2225.31
997.453	2235.7
997.749	2214.01
998.044	2225.76
998.34	2181.92
998.636	2174.01
998.932	2169.26
999.227	2140.79
999.523	2177.63
999.818	2183.95
1000.114	2122.94
1000.409	2125.88
1000.704	2100.57
1001	2082.04
1001.295	2063.05
1001.59	2090.4
1001.885	2080.45
1002.18	2053.56
1002.475	2084.75
1002.77	2022.83
1003.065	1972.21
1003.359	2010.4
1003.654	1963.85
1003.949	1955.71
1004.243	1964.3
1004.538	1978.54
1004.832	1969.95
1005.127	1943.96
1005.421	1937.41
1005.715	1933.79
1006.009	1917.97
1006.304	1910.51
1006.598	1899.67
1006.892	1885.2
1007.186	1878.43
1007.48	1888.82
1007.773	1857.41
1008.067	1845.88
1008.361	1820.57
1008.655	1833
1008.948	1811.53
1009.242	1797.07
1009.535	1784.19
1009.829	1801.14
1010.122	1764.98
1010.415	1774.47
1010.708	1763.85
1011.001	1741.93
1011.295	1733.8
1011.588	1663.97
1011.881	1683.4
1012.173	1677.98
1012.466	1674.59
1012.759	1649.73
1013.052	1658.32
1013.344	1693.57
1013.637	1659.9
1013.93	1655.83
1014.222	1608.6
1014.514	1626.91
1014.807	1632.33
1015.099	1607.92
1015.391	1578.09
1015.683	1561.37
1015.976	1558.21
1016.268	1557.76
1016.56	1579
1016.851	1543.07
1017.143	1546.23
1017.435	1545.1
1017.727	1500.81
1018.018	1516.17
1018.31	1501.03
1018.602	1518.66
1018.893	1478.89
1019.185	1449.06
1019.476	1474.37
1019.767	1456.97
1020.058	1471.66
1020.35	1422.39
1020.641	1414.03
1020.932	1415.84
1021.223	1392.34
1021.514	1385.78
1021.804	1372.45
1022.095	1367.93
1022.386	1363.86
1022.677	1384.65
1022.967	1365.67
1023.258	1332
1023.548	1343.3
1023.839	1342.62
1024.129	1310.3
1024.419	1308.95
1024.709	1308.95
1025	1293.58
1025.29	1273.24
1025.58	1266.69
1025.87	1304.2
1026.16	1247.93
1026.449	1244.09
1026.739	1232.79
1027.029	1235.05
1027.319	1244.77
1027.608	1228.05
1027.898	1195.96
1028.187	1209.29
1028.477	1184.43
1028.766	1184.66
1029.055	1202.51
1029.344	1178.1
1029.634	1154.38
1029.923	1139.46
1030.212	1180.36
1030.501	1142.4
1030.79	1146.02
1031.078	1098.78
1031.367	1107.15
1031.656	1095.39
1031.945	1111.89
1032.233	1093.36
1032.522	1117.09
1032.81	1078.22
1033.099	1095.85
1033.387	1062.18
1033.675	1080.71
1033.963	1059.01
1034.251	1034.61
1034.54	1021.95
1034.828	1032.35
1035.116	1056.53
1035.403	1004.1
1035.691	1033.48
1035.979	1033.48
1036.267	1020.59
1036.554	1002.74
1036.842	1002.52
1037.129	967.71
1037.417	995.28
1037.704	950.31
1037.992	952.12
1038.279	946.7
1038.566	965
1038.853	965
1039.14	965
