Data from hue_150_FLMS001491_00063.txt Node
Date: Tue Feb 07 16:54:21 GMT 2017
User: dcchb
Spectrometer: FLMS00149
Trigger mode: 0
Integration Time (sec): 2.000000E-2
Scans to average: 10
Electric dark correction enabled: true
Nonlinearity correction enabled: false
Boxcar width: 0
XAxis mode: Wavelengths
Number of Pixels in Spectrum: 2048
>>>>>Begin Spectral Data<<<<<
341.393	3.45
341.776	3.45
342.16	3.45
342.543	-73.16
342.927	-55.31
343.31	-70.45
343.693	-63.67
344.077	-64.35
344.46	-49.66
344.843	-58.02
345.226	-39.49
345.61	-46.72
345.993	-16.44
346.376	1.41
346.759	3.45
347.142	31.24
347.525	39.6
347.908	55.42
348.291	80.73
348.674	83.22
349.057	113.73
349.44	126.83
349.823	131.13
350.206	175.65
350.588	188.07
350.971	209.77
351.354	221.07
351.737	246.38
352.119	255.19
352.502	271.01
352.884	280.05
353.267	265.81
353.65	304.91
354.032	324.57
354.414	312.14
354.797	299.26
355.179	314.85
355.562	320.95
355.944	352.14
356.326	324.79
356.709	353.04
357.091	340.84
357.473	344.23
357.855	335.19
358.238	340.16
358.62	354.62
359.002	333.16
359.384	360.95
359.766	348.52
360.148	338.8
360.53	325.92
360.912	350.78
361.294	332.7
361.676	355.75
362.057	327.05
362.439	345.36
362.821	308.3
363.203	320.05
363.584	353.95
363.966	327.28
364.348	332.03
364.729	309.88
365.111	313.95
365.493	322.08
365.874	328.86
366.256	304.68
366.637	322.76
367.019	285.02
367.4	314.17
367.781	332.93
368.163	311.91
368.544	324.12
368.925	317.34
369.306	333.38
369.688	316.43
370.069	319.82
370.45	288.86
370.831	303.1
371.212	306.26
371.593	306.94
371.974	336.09
372.355	311.69
372.736	320.05
373.117	331.8
373.498	301.97
373.879	330.22
374.26	316.66
374.641	314.17
375.021	320.5
375.402	336.09
375.783	348.3
376.163	312.82
376.544	323.66
376.925	344.68
377.305	326.83
377.686	339.03
378.066	333.83
378.447	325.92
378.827	336.32
379.208	335.87
379.588	349.65
379.968	322.53
380.349	316.21
380.729	343.32
381.109	353.27
381.489	325.92
381.87	347.62
382.25	341.29
382.63	329.99
383.01	343.32
383.39	340.84
383.77	338.35
384.15	370.67
384.53	360.95
384.91	339.48
385.29	345.58
385.67	345.58
386.049	356.43
386.429	358.24
386.809	341.97
387.189	351.01
387.568	365.24
387.948	384.68
388.328	375.19
388.707	353.95
389.087	350.1
389.466	368.63
389.846	371.57
390.225	366.6
390.605	362.53
390.984	380.84
391.363	384.68
391.743	406.6
392.122	389.2
392.501	397.33
392.881	397.79
393.26	396.43
393.639	385.13
394.018	384.91
394.397	398.24
394.776	401.63
395.155	383.1
395.534	419.25
395.913	394.62
396.292	394.62
396.671	383.78
397.05	402.98
397.429	391.46
397.808	393.72
398.186	419.25
398.565	412.7
398.944	430.33
399.323	409.54
399.701	414.28
400.08	438.01
400.458	406.83
400.837	425.58
401.215	412.25
401.594	424.23
401.972	425.58
402.351	417.67
402.729	412.02
403.107	422.64
403.486	427.39
403.864	447.5
404.242	433.04
404.62	431.68
404.999	414.51
405.377	418.58
405.755	443.66
406.133	452.25
406.511	426.03
406.889	435.98
407.267	457.67
407.645	471.46
408.023	466.94
408.401	450.89
408.779	454.06
409.156	462.19
409.534	500.61
409.912	488.18
410.29	492.02
410.667	510.55
411.045	482.98
411.422	497.22
411.8	494.96
412.178	489.08
412.555	487.05
412.933	512.13
413.31	518.69
413.687	524.11
414.065	542.42
414.442	517.11
414.819	509.42
415.197	521.85
415.574	549.87
415.951	568.18
416.328	541.06
416.705	545.35
417.082	546.48
417.46	570.89
417.837	553.49
418.214	535.18
418.591	563.43
418.967	564.34
419.344	573.15
419.721	563.66
420.098	574.96
420.475	560.04
420.852	563.66
421.228	593.26
421.605	579.02
421.982	603.66
422.358	579.7
422.735	634.62
423.111	602.07
423.488	588.06
423.864	610.66
424.241	613.15
424.617	631
424.994	634.84
425.37	641.17
425.746	638.01
426.123	628.97
426.499	625.8
426.875	673.49
427.251	644.33
427.627	652.47
428.003	678
428.379	660.38
428.756	675.07
429.132	686.82
429.507	689.3
429.883	699.47
430.259	687.04
430.635	686.37
431.011	705.8
431.387	729.98
431.763	752.13
432.138	762.3
432.514	744.9
432.89	733.37
433.265	771.11
433.641	773.6
434.016	783.31
434.392	799.81
434.767	793.03
435.143	783.31
435.518	815.18
435.894	808.4
436.269	811.56
436.644	831.67
437.02	820.6
437.395	853.37
437.77	835.97
438.145	836.42
438.52	886.81
438.895	867.38
439.271	861.28
439.646	893.82
440.021	913.93
440.395	891.56
440.77	868.51
441.145	893.14
441.52	928.39
441.895	902.18
442.27	922.52
442.645	903.54
443.019	925
443.394	972.46
443.769	973.82
444.143	942.63
444.518	993.02
444.892	959.13
445.267	976.98
445.641	981.73
446.016	974.49
446.39	1005
446.764	1013.14
447.139	1018.33
447.513	999.13
447.887	1011.56
448.262	1028.05
448.636	1033.48
449.01	1059.24
449.384	1041.16
449.758	1057.66
450.132	1055.85
450.506	1082.29
450.88	1084.55
451.254	1089.75
451.628	1106.02
452.002	1071.67
452.376	1132.91
452.75	1110.99
453.123	1140.37
453.497	1159.12
453.871	1158.22
454.244	1176.75
454.618	1181.27
454.992	1205.45
455.365	1215.17
455.739	1195.73
456.112	1223.98
456.486	1232.11
456.859	1280.7
457.232	1252
457.606	1290.19
457.979	1317.54
458.352	1340.13
458.725	1357.08
459.099	1357.31
459.472	1374.26
459.845	1392.11
460.218	1453.13
460.591	1413.8
460.964	1425.78
461.337	1453.8
461.71	1469.17
462.083	1504.65
462.456	1496.97
462.829	1554.59
463.201	1558.89
463.574	1554.14
463.947	1579
464.32	1631.43
464.692	1641.14
465.065	1654.02
465.438	1685.66
465.81	1698.99
466.183	1717.53
466.555	1781.48
466.928	1768.37
467.3	1775.6
467.672	1811.99
468.045	1854.02
468.417	1884.53
468.789	1884.3
469.161	1955.26
469.534	1971.98
469.906	2007.69
470.278	2007.24
470.65	2082.71
471.022	2132.66
471.394	2177.4
471.766	2202.48
472.138	2208.59
472.51	2258.53
472.882	2341.24
473.253	2354.12
473.625	2407.45
473.997	2468.47
474.369	2489.93
474.74	2539.42
475.112	2571.29
475.484	2637.73
475.855	2750.27
476.227	2813.54
476.598	2870.26
476.97	2904.61
477.341	2980.54
477.713	3050.82
478.084	3087.66
478.455	3218.73
478.827	3276.13
479.198	3365.84
479.569	3407.42
479.94	3536.46
480.311	3606.97
480.682	3732.39
481.053	3890.8
481.424	3939.16
481.795	4033.85
482.166	4098.48
482.537	4157.24
482.908	4342.32
483.279	4422.99
483.65	4583.21
484.021	4696.88
484.391	4817.33
484.762	4895.75
485.133	4993.37
485.503	5106.36
485.874	5236.98
486.244	5309.52
486.615	5464.55
486.985	5653.69
487.356	5801.49
487.726	5822.73
488.097	6055.26
488.467	6075.38
488.837	6346.78
489.207	6442.15
489.578	6631.97
489.948	6681.24
490.318	6827.9
490.688	6955.81
491.058	7099.08
491.428	7227.66
491.798	7363.48
492.168	7619.29
492.538	7673.98
492.908	7853.41
493.278	7989.68
493.648	8105.15
494.017	8169.11
494.387	8435.99
494.757	8506.05
495.126	8617.46
495.496	8770.9
495.866	8826.04
496.235	9038.01
496.605	9153.04
496.974	9250.89
497.344	9341.05
497.713	9467.83
498.082	9598.22
498.452	9743.53
498.821	9855.16
499.19	9899.46
499.559	10055.39
499.928	10150.07
500.298	10215.16
500.667	10318.43
501.036	10435.71
501.405	10532.66
501.774	10685.65
502.143	10745.99
502.512	10830.05
502.88	10959.99
503.249	10984.4
503.618	11063.49
503.987	11145.3
504.356	11249.93
504.724	11260.78
505.093	11378.06
505.462	11567.66
505.83	11618.73
506.199	11681.56
506.567	11858.28
506.936	11852.17
507.304	12049.46
507.672	11980.53
508.041	12095.11
508.409	12193.63
508.777	12300.52
509.145	12390.92
509.514	12415.1
509.882	12493.29
510.25	12457.13
510.618	12581.65
510.986	12564.47
511.354	12738.7
511.722	12802.88
512.09	12839.27
512.458	12850.79
512.826	12935.31
513.193	13088.3
513.561	13123.55
513.929	13168.3
514.297	13189.31
514.664	13257.79
515.032	13229.09
515.4	13399.25
515.767	13388.18
516.135	13396.31
516.502	13397.44
516.869	13658.23
517.237	13600.6
517.604	13536.65
517.972	13706.81
518.339	13688.74
518.706	13768.73
519.073	13737.1
519.44	13881.05
519.808	13989.29
520.175	13769.86
520.542	13939.35
520.909	14140.48
521.276	14005.34
521.643	14070.65
522.009	14135.28
522.376	14229.74
522.743	14254.37
523.11	14365.78
523.477	14457.08
523.843	14430.41
524.21	14553.57
524.577	14537.3
524.943	14597.19
525.31	14550.86
525.676	14721.25
526.043	14761.7
526.409	14810.74
526.776	14881.93
527.142	14809.84
527.508	14828.59
527.874	14929.61
528.241	14890.06
528.607	14880.8
528.973	14977.29
529.339	15034.46
529.705	15001.24
530.071	15075.82
530.437	15081.69
530.803	15054.12
531.169	15094.12
531.535	15052.99
531.901	14999.89
532.267	15030.62
532.632	15095.25
532.998	15184.06
533.364	15106.78
533.73	15010.96
534.095	15151.07
534.461	15158.75
534.826	15175.25
535.192	15197.85
535.557	15191.97
535.923	15080.79
536.288	15121.01
536.653	15125.99
537.019	15029.72
537.384	15037.85
537.749	15034.69
538.114	14989.72
538.479	14911.3
538.845	15047.12
539.21	14918.53
539.575	14944.75
539.94	14920.12
540.305	14954.69
540.67	14753.57
541.034	14902.26
541.399	14881.47
541.764	14822.72
542.129	14821.14
542.494	14724.42
542.858	14758.99
543.223	14658.65
543.587	14760.35
543.952	14676.05
544.316	14715.83
544.681	14591.99
545.045	14617.75
545.41	14602.38
545.774	14557.19
546.138	14599.45
546.503	14526.91
546.867	14425.89
547.231	14540.69
547.595	14411.2
547.959	14407.14
548.324	14463.18
548.688	14366.01
549.052	14284.43
549.416	14335.72
549.779	14300.92
550.143	14344.99
550.507	14401.03
550.871	14298.66
551.235	14224.77
551.599	14340.47
551.962	14258.21
552.326	14185.9
552.689	14216.63
553.053	14041.5
553.417	14109.29
553.78	14222.73
554.143	14095.96
554.507	14165.33
554.87	14077.43
555.234	14131.44
555.597	14077.2
555.96	13983.87
556.323	13997.88
556.686	14062.29
557.05	14075.62
557.413	14084.88
557.776	14106.58
558.139	14061.83
558.502	13979.8
558.865	14049.18
559.228	14088.95
559.59	14052.79
559.953	14033.59
560.316	14198.78
560.679	14103.41
561.041	14159.68
561.404	14121.72
561.767	14174.15
562.129	14153.36
562.492	14215.95
562.854	14158.78
563.217	14141.15
563.579	14135.96
563.941	14260.25
564.304	14325.1
564.666	14284.2
565.028	14260.25
565.39	14293.47
565.753	14263.86
566.115	14373.92
566.477	14398.77
566.839	14336.63
567.201	14416.63
567.563	14366.68
567.925	14420.47
568.287	14423.41
568.648	14485.33
569.01	14555.38
569.372	14514.48
569.734	14489.17
570.095	14449.17
570.457	14574.59
570.819	14548.6
571.18	14628.6
571.542	14705.43
571.903	14553.35
572.265	14559
572.626	14686
572.987	14627.24
573.349	14703.17
573.71	14781.36
574.071	14698.88
574.432	14773.23
574.794	14843.73
575.155	14838.08
575.516	14780.01
575.877	14866.56
576.238	14722.16
576.599	14879.21
576.96	14883.73
577.32	14850.29
577.681	14853
578.042	14937.29
578.403	14819.33
578.763	14864.75
579.124	14935.48
579.485	14910.4
579.845	14870.63
580.206	14843.28
580.566	14939.1
580.927	14885.99
581.287	14892.55
581.648	14959.44
582.008	14951.53
582.368	14912.88
582.728	14893
583.089	14824.75
583.449	14845.99
583.809	14860.68
584.169	14856.16
584.529	14867.91
584.889	14931.87
585.249	14819.1
585.609	14762.38
585.969	14915.37
586.329	14796.05
586.688	14853.68
587.048	14886.67
587.408	14803.74
587.768	14802.61
588.127	14775.49
588.487	14723.74
588.846	14866.33
589.206	14687.35
589.565	14692.33
589.925	14829.27
590.284	14686.45
590.643	14793.11
591.003	14722.38
591.362	14787.24
591.721	14711.99
592.08	14664.53
592.44	14742.27
592.799	14782.04
593.158	14633.12
593.517	14793.34
593.876	14740.01
594.235	14740.23
594.593	14758.31
594.952	14706.56
595.311	14761.93
595.67	14709.95
596.029	14763.28
596.387	14775.49
596.746	14785.43
597.104	14741.59
597.463	14691.2
597.822	14680.57
598.18	14647.58
598.538	14684.64
598.897	14777.97
599.255	14630.86
599.613	14782.94
599.972	14716.28
600.33	14626.11
600.688	14633.57
601.046	14663.17
601.404	14812.55
601.762	14705.43
602.12	14755.15
602.478	14764.87
602.836	14708.6
603.194	14700.91
603.552	14665.66
603.91	14643.74
604.268	14708.6
604.625	14626.34
604.983	14677.41
605.341	14655.94
605.698	14741.14
606.056	14732.1
606.413	14761.25
606.771	14743.17
607.128	14881.7
607.485	14752.66
607.843	14664.98
608.2	14823.62
608.557	14868.37
608.914	14767.58
609.272	14773
609.629	14824.75
609.986	14925.31
610.343	14780.68
610.7	14940.91
611.057	14977.06
611.414	14869.27
611.771	14977.29
612.127	14901.59
612.484	14879.89
612.841	15003.5
613.198	14892.77
613.554	14808.93
613.911	14970.74
614.267	14982.04
614.624	14962.37
614.98	14908.37
615.337	15021.36
615.693	14948.59
616.05	14969.15
616.406	15066.1
616.762	14998.31
617.118	14988.36
617.475	15031.98
617.831	15070.17
618.187	15094.57
618.543	15144.29
618.899	15116.04
619.255	15075.14
619.611	15000.34
619.967	15095.48
620.323	15160.34
620.678	15139.77
621.034	15025.2
621.39	15093.22
621.746	15029.27
622.101	15304.51
622.457	15046.44
622.812	15151.52
623.168	15175.93
623.523	15125.53
623.879	15135.48
624.234	15032.2
624.589	15120.79
624.945	15085.31
625.3	15193.78
625.655	15116.72
626.01	15178.64
626.365	15147.68
626.72	15156.72
627.075	15094.12
627.43	15111.98
627.785	15090.73
628.14	15182.93
628.495	15227.68
628.85	15229.03
629.205	15102.03
629.559	15194.69
629.914	15100.45
630.269	15128.7
630.623	15064.52
630.978	15061.81
631.332	15136.16
631.687	15121.01
632.041	15024.07
632.396	15103.84
632.75	15056.61
633.104	15075.82
633.459	14929.16
633.813	14940.68
634.167	14975.71
634.521	14878.31
634.875	14946.78
635.229	14938.19
635.583	14801.25
635.937	14854.36
636.291	14743.85
636.645	14891.19
636.999	14773.23
637.352	14837.86
637.706	14677.18
638.06	14789.5
638.413	14676.05
638.767	14743.17
639.121	14699.78
639.474	14554.02
639.828	14633.34
640.181	14582.27
640.534	14605.32
640.888	14573.23
641.241	14534.36
641.594	14533.91
641.947	14627.92
642.301	14488.72
642.654	14552.44
643.007	14591.09
643.36	14514.48
643.713	14529.39
644.066	14549.05
644.419	14480.81
644.771	14380.24
645.124	14152.68
645.477	14282.17
645.83	14145.45
646.182	14156.75
646.535	14123.75
646.888	14050.31
647.24	13959.24
647.593	14051.89
647.945	13876.98
648.298	13905.23
648.65	13883.31
649.002	13962.4
649.355	13883.76
649.707	13944.32
650.059	13983.64
650.411	14168.5
650.763	14138.89
651.115	14304.54
651.467	14266.57
651.819	14333.92
652.171	14226.58
652.523	14260.25
652.875	14232.68
653.227	14168.27
653.578	14223.41
653.93	14326.23
654.282	14245.56
654.633	14142.06
654.985	14267.48
655.337	14262.05
655.688	14236.52
656.039	14290.3
656.391	14194.26
656.742	14161.72
657.094	14203.07
657.445	14327.59
657.796	14287.82
658.147	14249.85
658.498	14255.95
658.849	14215.95
659.2	14230.42
659.551	14163.75
659.902	14281.71
660.253	14187.03
660.604	14302.28
660.955	14183.41
661.306	14268.61
661.656	14209.17
662.007	14259.34
662.358	14209.63
662.708	14271.55
663.059	14217.54
663.409	14123.75
663.76	14316.52
664.11	14309.96
664.461	14316.52
664.811	14309.51
665.161	14252.56
665.511	14232.68
665.862	14260.47
666.212	14338.21
666.562	14283.3
666.912	14321.71
667.262	14209.17
667.612	14286.69
667.962	14267.93
668.312	14264.54
668.662	14375.27
669.011	14310.19
669.361	14273.35
669.711	14271.55
670.06	14188.61
670.41	14246.69
670.76	14159.23
671.109	14233.13
671.459	14227.93
671.808	14153.36
672.157	14199.01
672.507	14124.88
672.856	14192.45
673.205	14227.93
673.554	14170.53
673.904	14095.51
674.253	14176.18
674.602	14102.74
674.951	13886.25
675.3	13846.47
675.649	14052.79
675.998	14045.79
676.346	14040.59
676.695	14060.7
677.044	13958.56
677.393	13955.85
677.741	14025.22
678.09	13976.41
678.438	13883.99
678.787	13907.04
679.135	13914.72
679.484	13800.15
679.832	13926.47
680.181	13754.05
680.529	13823.42
680.877	13741.84
681.225	13688.06
681.573	13883.99
681.922	13664.33
682.27	13763.08
682.618	13678.57
682.966	13690.09
683.314	13694.61
683.661	13581.85
684.009	13518.35
684.357	13522.86
684.705	13542.07
685.053	13511.11
685.4	13498.91
685.748	13416.2
686.095	13439.93
686.443	13431.12
686.79	13422.98
687.138	13434.73
687.485	13436.77
687.832	13301.4
688.18	13373.26
688.527	13234.51
688.874	13204
689.221	13188.64
689.568	13126.49
689.915	13051.69
690.262	13117.45
690.609	13093.72
690.956	12931.69
691.303	12903.45
691.65	12849.21
691.997	12895.31
692.344	12805.37
692.69	12833.39
693.037	12750.68
693.383	12617.13
693.73	12752.72
694.077	12648.09
694.423	12620.97
694.769	12574.64
695.116	12481.99
695.462	12486.73
695.808	12416.23
696.155	12430.01
696.501	12372.16
696.847	12387.08
697.193	12227.31
697.539	12355.21
697.885	12156.57
698.231	12173.3
698.577	12137.59
698.923	12137.14
699.269	12077.25
699.614	12013.75
699.96	11979.63
700.306	11943.47
700.651	11860.76
700.997	11803.59
701.342	11743.93
701.688	11782.12
702.033	11706.42
702.379	11680.43
702.724	11682.01
703.069	11700.77
703.415	11527.44
703.76	11551.17
704.105	11518.4
704.45	11501.22
704.795	11416.25
705.14	11365.18
705.485	11343.26
705.83	11264.85
706.175	11321.34
706.52	11255.13
706.865	11260.33
707.209	11152.53
707.554	11140.55
707.899	11229.82
708.243	11164.06
708.588	11068.69
708.932	11007.22
709.277	10980.33
709.621	10950.05
709.966	10857.17
710.31	10879.32
710.654	10800.68
710.998	10794.8
711.342	10864.86
711.687	10807.91
712.031	10737.18
712.375	10792.54
712.719	10764.75
713.063	10719.77
713.407	10761.13
713.75	10696.05
714.094	10676.16
714.438	10644.07
714.782	10651.98
715.125	10597.74
715.469	10590.06
715.812	10529.05
716.156	10567.24
716.499	10450.86
716.843	10506.45
717.186	10467.58
717.53	10522.49
717.873	10472.55
718.216	10402.95
718.559	10372.89
718.902	10314.14
719.246	10319.56
719.589	10302.61
719.932	10301.93
720.275	10314.81
720.617	10311.2
720.96	10243.4
721.303	10213.8
721.646	10251.09
721.989	10202.95
722.331	10221.26
722.674	10213.57
723.016	10203.18
723.359	10183.07
723.701	10231.2
724.044	10102.62
724.386	10079.57
724.729	10162.5
725.071	10097.87
725.413	10143.29
725.755	10078.21
726.097	10041.6
726.439	10060.36
726.782	10039.11
727.124	10049.96
727.465	9996.86
727.807	10024.2
728.149	10090.86
728.491	10028.27
728.833	10027.82
729.175	9970.19
729.516	9978.1
729.858	9966.8
730.199	9987.36
730.541	9985.33
730.882	9919.8
731.224	9943.52
731.565	9876.86
731.906	9948.04
732.248	9956.63
732.589	9910.76
732.93	9929.96
733.271	9875.5
733.612	9900.81
733.953	9891.77
734.294	9889.06
734.635	9890.87
734.976	9866.01
735.317	9849.06
735.658	9806.35
735.999	9846.58
736.339	9825.56
736.68	9896.52
737.021	9836.86
737.361	9903.75
737.702	9918.67
738.042	9875.28
738.383	9896.97
738.723	9936.74
739.063	9857.65
739.404	9829.85
739.744	9893.36
740.084	9874.37
740.424	9852.23
740.764	9901.72
741.104	9968.83
741.444	9887.71
741.784	9915.95
742.124	9971.55
742.464	9951.66
742.804	9992.56
743.143	9986.01
743.483	10032.56
743.823	9996.4
744.162	10035.05
744.502	10075.27
744.841	10027.59
745.181	10176.29
745.52	10102.62
745.86	10196.17
746.199	10265.78
746.538	10257.19
746.877	10346
747.216	10381.93
747.556	10417.18
747.895	10462.61
748.234	10427.35
748.573	10517.97
748.911	10603.62
749.25	10614.47
749.589	10554.13
749.928	10779.89
750.267	10802.94
750.605	10796.83
750.944	10892.2
751.283	10962.93
751.621	11007.22
751.96	11054.68
752.298	11141.23
752.636	11367.44
752.975	11333.54
753.313	11312.53
753.651	11477.04
753.989	11621.67
754.327	11759.3
754.666	11769.01
755.004	11862.57
755.342	12114.31
755.679	12117.25
756.017	12280.64
756.355	12443.35
756.693	12521.99
757.031	12671.59
757.368	12786.84
757.706	12957.23
758.044	12973.5
758.381	13214.62
758.719	13293.49
759.056	13570.32
759.394	13683.31
759.731	13664.78
760.068	13895.51
760.405	13973.7
760.743	14143.19
761.08	14365.78
761.417	14445.33
761.754	14608.03
762.091	14792.66
762.428	14953.11
762.765	15037.85
763.102	15216.83
763.438	15444.85
763.775	15547.9
764.112	15620.44
764.449	15793.31
764.785	16000.77
765.122	16047.32
765.458	16119.63
765.795	16248.67
766.131	16475.78
766.467	16638.26
766.804	16831.93
767.14	16846.17
767.476	17006.61
767.812	17110.12
768.148	17233.5
768.485	17300.84
768.821	17359.15
769.157	17503.78
769.492	17647.05
769.828	17849.98
770.164	17826.71
770.5	18000.49
770.836	18122.74
771.171	18154.16
771.507	18234.83
771.842	18206.36
772.178	18374.49
772.513	18396.86
772.849	18627.14
773.184	18472.34
773.519	18595.5
773.855	18777.42
774.19	18650.41
774.525	18876.4
774.86	18879.33
775.195	18920.69
775.53	18867.13
775.865	18938.99
776.2	18951.65
776.535	18909.16
776.87	19004.98
777.205	19000.91
777.539	19087.01
777.874	19201.13
778.209	18967.24
778.543	19158.42
778.878	19089.27
779.212	19150.06
779.547	19195.94
779.881	19250.62
780.215	19290.62
780.55	19331.53
780.884	19247.01
781.218	19262.37
781.552	19330.4
781.886	19269.15
782.22	19201.36
782.554	19341.69
782.888	19246.56
783.222	19158.65
783.556	19067.58
783.889	19113
784.223	18989.16
784.557	19050.63
784.89	19180.12
785.224	19008.14
785.557	18953.23
785.891	18908.71
786.224	18950.52
786.558	18964.53
786.891	18855.38
787.224	18832.33
787.557	18810.64
787.891	18894.7
788.224	18793.91
788.557	18795.95
788.89	18858.77
789.223	18831.43
789.556	18683.63
789.888	18634.37
790.221	18642.5
790.554	18520.25
790.887	18651.77
791.219	18550.53
791.552	18583.3
791.884	18484.99
792.217	18492.23
792.549	18462.17
792.882	18296.98
793.214	18303.3
793.546	18320.93
793.879	18184.21
794.211	18129.07
794.543	18220.59
794.875	18080.03
795.207	18150.31
795.539	18084.33
795.871	18138.34
796.203	17870.77
796.535	17897.21
796.867	17899.25
797.198	17826.93
797.53	17786.03
797.862	17803.88
798.193	17801.17
798.525	17679.59
798.856	17656.54
799.188	17530.67
799.519	17487.73
799.85	17499.94
800.182	17504.91
800.513	17416.32
800.844	17252.03
801.175	17439.15
801.506	17361.86
801.837	17250.45
802.168	17251.58
802.499	17172.71
802.83	17086.16
803.161	17163.22
803.491	17070.79
803.822	17094.52
804.153	16900.63
804.483	16900.18
804.814	16873.51
805.145	16822.44
805.475	16902.44
805.805	16739.5
806.136	16788.54
806.466	16726.85
806.796	16621.09
807.126	16599.39
807.457	16597.36
807.787	16584.25
808.117	16418.61
808.447	16390.59
808.777	16472.39
809.107	16373.41
809.436	16291.83
809.766	16360.76
810.096	16246.86
810.426	16196.69
810.755	16198.5
811.085	16158.28
811.414	16196.01
811.744	16122.12
812.073	16057.71
812.403	16074.89
812.732	16004.38
813.061	15972.52
813.39	15926.19
813.719	15898.85
814.049	15971.39
814.378	15924.61
814.707	15806.19
815.036	15862.24
815.365	15747.67
815.693	15619.53
816.022	15669.25
816.351	15626.99
816.68	15503.38
817.008	15573.66
817.337	15389.26
817.665	15470.84
817.994	15445.75
818.322	15447.56
818.651	15285.53
818.979	15357.17
819.307	15357.39
819.636	15343.61
819.964	15287.79
820.292	15413.44
820.62	15272.65
820.948	15215.48
821.276	15235.36
821.604	15262.48
821.932	15296.15
822.259	15301.35
822.587	15226.32
822.915	15264.06
823.243	15306.09
823.57	15165.53
823.898	15177.28
824.225	15147.23
824.553	15225.64
824.88	15226.1
825.207	15227.45
825.535	15257.28
825.862	15269.94
826.189	15243.27
826.516	15290.95
826.843	15282.37
827.17	15295.93
827.497	15261.35
827.824	15359.43
828.151	15316.04
828.478	15211.18
828.805	15305.87
829.131	15256.6
829.458	15212.99
829.785	15142.03
830.111	15249.15
830.438	15298.64
830.764	15309.48
831.09	15217.51
831.417	15190.62
831.743	15166.44
832.069	15271.29
832.395	15146.32
832.722	15267.23
833.048	15107.23
833.374	15208.92
833.7	15065.42
834.026	15156.72
834.351	15183.84
834.677	15057.29
835.003	15080.34
835.329	15097.51
835.654	15102.26
835.98	14972.32
836.306	15028.36
836.631	15067.46
836.956	14985.43
837.282	15068.59
837.607	14910.85
837.932	15005.76
838.258	14971.19
838.583	14921.47
838.908	14751.31
839.233	14909.72
839.558	14791.76
839.883	14838.76
840.208	14678.31
840.533	14726.9
840.858	14718.31
841.182	14702.04
841.507	14672.21
841.832	14587.47
842.156	14563.97
842.481	14567.13
842.805	14566
843.13	14521.48
843.454	14465.89
843.778	14319.45
844.103	14405.78
844.427	14377.76
844.751	14385.21
845.075	14359.68
845.399	14243.3
845.723	14121.72
846.047	14228.61
846.371	14072.68
846.695	14097.09
847.019	14019.57
847.343	13899.13
847.666	13855.51
847.99	13822.97
848.313	13779.58
848.637	13708.4
848.96	13660.71
849.284	13609.64
849.607	13609.64
849.931	13475.41
850.254	13343.21
850.577	13437.22
850.9	13335.3
851.223	13257.79
851.546	13229.77
851.869	13159.94
852.192	13149.77
852.515	13034.29
852.838	13025.48
853.161	12999.26
853.483	12900.06
853.806	12897.8
854.129	12870.23
854.451	12768.31
854.774	12775.77
855.096	12723.56
855.419	12687.18
855.741	12678.59
856.063	12563.57
856.385	12558.14
856.708	12551.14
857.03	12552.72
857.352	12468.43
857.674	12473.85
857.996	12489.9
858.318	12380.52
858.64	12318.6
858.961	12279.28
859.283	12194.31
859.605	12128.1
859.926	12115.9
860.248	12189.79
860.57	12140.98
860.891	12125.84
861.212	12085.16
861.534	12006.52
861.855	11986.86
862.176	11969.01
862.498	11936.47
862.819	11927.65
863.14	11888.78
863.461	11889.91
863.782	11836.81
864.103	11817.37
864.424	11790.48
864.745	11802.01
865.065	11792.06
865.386	11654.44
865.707	11690.6
866.027	11700.31
866.348	11699.41
866.668	11635
866.989	11615.57
867.309	11519.98
867.63	11662.12
867.95	11561.56
868.27	11486.76
868.59	11569.92
868.91	11566.31
869.23	11533.54
869.55	11438.63
869.87	11510.04
870.19	11560.88
870.51	11459.87
870.83	11367.22
871.15	11351.85
871.469	11371.73
871.789	11389.36
872.109	11336.03
872.428	11279.99
872.748	11331.28
873.067	11287.67
873.386	11274.79
873.706	11286.31
874.025	11259.87
874.344	11100.56
874.663	11164.28
874.982	11165.86
875.301	11148.24
875.62	11155.7
875.939	11208.35
876.258	11080.44
876.577	11056.94
876.896	11046.09
877.214	10997.28
877.533	10959.99
877.852	10963.61
878.17	11070.95
878.489	10986.66
878.807	10990.73
879.125	10923.84
879.444	10874.57
879.762	10879.32
880.08	10957.73
880.398	10856.72
880.716	10806.55
881.034	10851.3
881.352	10828.7
881.67	10753.9
881.988	10786.89
882.306	10773.56
882.624	10665.76
882.941	10649.04
883.259	10643.17
883.577	10548.48
883.894	10620.12
884.212	10594.35
884.529	10553.9
884.846	10623.51
885.164	10524.75
885.481	10481.36
885.798	10502.61
886.115	10355.94
886.432	10407.69
886.75	10349.16
887.067	10427.13
887.383	10261.48
887.7	10301.48
888.017	10309.84
888.334	10373.34
888.651	10318.43
888.967	10196.4
889.284	10149.17
889.6	10124.31
889.917	10074.14
890.233	10134.03
890.55	10074.37
890.866	10065.55
891.182	10072.79
891.498	10009.51
891.815	9933.81
892.131	9916.86
892.447	9936.52
892.763	9809.52
893.079	9893.13
893.395	9821.04
893.71	9821.27
894.026	9804.09
894.342	9703.76
894.657	9645
894.973	9701.95
895.289	9569.07
895.604	9660.37
895.92	9543.53
896.235	9500.15
896.55	9522.97
896.865	9491.78
897.181	9479.58
897.496	9470.09
897.811	9444.1
898.126	9422.18
898.441	9344.44
898.756	9295.63
899.071	9229.87
899.386	9195.75
899.7	9164.34
900.015	9120.27
900.33	9009.99
900.644	9048.63
900.959	9105.13
901.273	9015.41
901.588	8967.73
901.902	8941.52
902.216	8868.3
902.531	8886.83
902.845	8831.91
903.159	8797.57
903.473	8725.93
903.787	8762.31
904.101	8690.45
904.415	8647.74
904.729	8582.43
905.042	8533.39
905.356	8574.52
905.67	8463.56
905.984	8589.66
906.297	8525.71
906.611	8418.82
906.924	8439.61
907.237	8403.68
907.551	8428.99
907.864	8285.04
908.177	8290.69
908.491	8234.64
908.804	8172.72
909.117	8119.17
909.43	8165.04
909.743	8079.39
910.056	8053.18
910.368	8001.43
910.681	7979.28
910.994	7972.05
911.307	7918.27
911.619	7894.76
911.932	7913.52
912.244	7825.61
912.557	7811.15
912.869	7761.21
913.181	7701.32
913.494	7731.6
913.806	7626.75
914.118	7610.93
914.43	7592.17
914.742	7574.32
915.054	7536.36
915.366	7549.01
915.678	7504.94
915.99	7486.87
916.302	7415.68
916.613	7373.42
916.925	7398.05
917.236	7346.08
917.548	7297.94
917.859	7259.07
918.171	7248.45
918.482	7183.82
918.794	7218.4
919.105	7193.31
919.416	7092.07
919.727	7114.22
920.038	7114.67
920.349	6981.34
920.66	7036.26
920.971	7035.58
921.282	6957.61
921.593	6961
921.903	6888.69
922.214	6832.87
922.525	6848.69
922.835	6785.41
923.146	6733.66
923.456	6739.99
923.767	6675.59
924.077	6768.01
924.387	6679.43
924.697	6620
925.008	6562.82
925.318	6563.95
925.628	6569.15
925.938	6545.2
926.248	6542.94
926.558	6514.69
926.867	6425.88
927.177	6438.53
927.487	6370.96
927.796	6333.68
928.106	6362.83
928.416	6300
928.725	6324.18
929.034	6250.51
929.344	6268.37
929.653	6224.98
929.962	6189.27
930.271	6120.57
930.581	6114.47
930.89	6105.43
931.199	6089.16
931.508	6115.83
931.817	6095.49
932.125	6031.99
932.434	6072.21
932.743	5992.44
933.051	5904.08
933.36	5937.08
933.669	5866.34
933.977	5887.59
934.286	5860.92
934.594	5803.97
934.902	5784.31
935.21	5764.65
935.519	5793.12
935.827	5669.06
936.135	5718.55
936.443	5678.55
936.751	5691.66
937.059	5606.01
937.367	5629.74
937.674	5556.52
937.982	5559.23
938.29	5553.58
938.597	5538.67
938.905	5458.44
939.213	5395.17
939.52	5427.48
939.827	5471.33
940.135	5387.26
940.442	5343.87
940.749	5335.96
941.056	5401.04
941.363	5286.92
941.67	5271.78
941.977	5246.7
942.284	5230.43
942.591	5200.15
942.898	5176.64
943.205	5175.51
943.511	5158.56
943.818	5103.43
944.125	5113.82
944.431	5070.43
944.738	5021.85
945.044	5034.95
945.35	5046.7
945.657	4977.78
945.963	4945.46
946.269	4981.39
946.575	4952.69
946.881	4896.65
947.187	4898.68
947.493	4822.08
947.799	4835.64
948.105	4838.12
948.41	4816.43
948.716	4807.16
949.022	4772.13
949.327	4780.95
949.633	4655.08
949.938	4692.81
950.244	4712.93
950.549	4685.81
950.854	4645.81
951.16	4668.18
951.465	4576.66
951.77	4587.51
952.075	4569.88
952.38	4581.18
952.685	4506.83
952.99	4510.22
953.294	4499.37
953.599	4383.44
953.904	4437.23
954.209	4401.07
954.513	4429.54
954.818	4323.78
955.122	4354.29
955.426	4336.89
955.731	4361.3
956.035	4325.37
956.339	4264.8
956.643	4318.14
956.948	4241.75
957.252	4241.98
957.556	4227.97
957.86	4197.23
958.163	4177.57
958.467	4174.64
958.771	4145.03
959.075	4152.94
959.378	4130.12
959.682	4105.03
959.985	4071.59
960.289	4069.78
960.592	4046.96
960.896	4047.86
961.199	3997.47
961.502	4033.17
961.805	3936.22
962.108	3934.19
962.411	3902.55
962.714	3945.49
963.017	3923.57
963.32	3900.97
963.623	3880.41
963.926	3874.76
964.228	3833.18
964.531	3834.98
964.833	3780.75
965.136	3759.73
965.438	3767.64
965.741	3741.43
966.043	3721.09
966.345	3695.78
966.648	3682.45
966.95	3700.75
967.252	3647.87
967.554	3624.37
967.856	3637.7
968.158	3585.05
968.46	3618.27
968.761	3585.72
969.063	3548.66
969.365	3535.78
969.666	3543.92
969.968	3509.57
970.269	3516.12
970.571	3494.88
970.872	3456.91
971.174	3461.21
971.475	3487.65
971.776	3413.3
972.077	3443.81
972.378	3382.79
972.679	3404.71
972.98	3394.54
973.281	3398.39
973.582	3310.93
973.883	3346.18
974.183	3300.31
974.484	3310.25
974.785	3319.07
975.085	3314.77
975.386	3250.82
975.686	3270.93
975.986	3246.98
976.287	3255.56
976.587	3193.19
976.887	3146.19
977.187	3206.75
977.487	3178.73
977.787	3156.13
978.087	3139.18
978.387	3126.3
978.687	3162.01
978.987	3083.14
979.286	3087.21
979.586	3106.64
979.885	3042.24
980.185	3048.11
980.484	3025.74
980.784	3029.36
981.083	2988.9
981.382	2969.24
981.682	3000.43
981.981	2992.07
982.28	2914.78
982.579	2943.93
982.878	2928.79
983.177	2939.41
983.475	2916.36
983.774	2890.6
984.073	2880.66
984.372	2835.46
984.67	2846.08
984.969	2879.75
985.267	2796.14
985.566	2815.58
985.864	2805.86
986.162	2781.45
986.461	2733.54
986.759	2765.63
987.057	2703.94
987.355	2708.23
987.653	2694.9
987.951	2715.24
988.249	2703.49
988.547	2715.69
988.844	2668.91
989.142	2642.47
989.44	2659.2
989.737	2613.77
990.035	2614.9
990.332	2631.85
990.63	2581.46
990.927	2599.54
991.224	2569.93
991.521	2536.26
991.819	2534
992.116	2551.85
992.413	2539.65
992.71	2491.74
993.006	2517.96
993.303	2457.62
993.6	2479.99
993.897	2495.58
994.193	2461.91
994.49	2462.59
994.787	2423.04
995.083	2400.22
995.379	2398.64
995.676	2390.73
995.972	2393.44
996.268	2369.03
996.565	2371.29
996.861	2359.77
997.157	2343.95
997.453	2330.16
997.749	2385.3
998.044	2273.67
998.34	2275.48
998.636	2284.97
998.932	2253.56
999.227	2256.27
999.523	2237.51
999.818	2236.38
1000.114	2205.87
1000.409	2221.47
1000.704	2165.88
1001	2161.36
1001.295	2175.82
1001.59	2150.96
1001.885	2189.38
1002.18	2131.07
1002.475	2126.33
1002.77	2110.74
1003.065	2079.78
1003.359	2081.81
1003.654	2066.89
1003.949	2084.3
1004.243	2040.23
1004.538	2023.51
1004.832	2042.71
1005.127	2008.37
1005.421	2014.92
1005.715	2005.88
1006.009	1996.61
1006.304	2005.2
1006.598	1970.17
1006.892	1949.38
1007.186	1929.72
1007.48	1968.82
1007.773	1902.61
1008.067	1900.8
1008.361	1913.45
1008.655	1884.53
1008.948	1886.11
1009.242	1896.73
1009.535	1877.52
1009.829	1868.48
1010.122	1818.99
1010.415	1835.26
1010.708	1807.69
1011.001	1802.72
1011.295	1806.79
1011.588	1777.18
1011.881	1795.94
1012.173	1785.32
1012.466	1769.73
1012.759	1737.86
1013.052	1751.65
1013.344	1713.46
1013.637	1706.9
1013.93	1711.42
1014.222	1683.18
1014.514	1710.07
1014.807	1692.67
1015.099	1650.41
1015.391	1632.56
1015.683	1653.57
1015.976	1610.41
1016.268	1611.09
1016.56	1577.64
1016.851	1597.75
1017.143	1617.19
1017.435	1603.4
1017.727	1597.98
1018.018	1548.49
1018.31	1566.79
1018.602	1554.82
1018.893	1533.58
1019.185	1516.4
1019.476	1521.82
1019.767	1530.86
1020.058	1492.9
1020.35	1492.22
1020.641	1474.14
1020.932	1475.5
1021.223	1471.66
1021.514	1412.9
1021.804	1448.61
1022.095	1446.8
1022.386	1397.99
1022.677	1402.05
1022.967	1423.97
1023.258	1395.5
1023.548	1375.84
1023.839	1385.56
1024.129	1369.96
1024.419	1359.79
1024.709	1348.5
1025	1350.08
1025.29	1336.74
1025.58	1334.26
1025.87	1285.67
1026.16	1296.07
1026.449	1301.94
1026.739	1297.65
1027.029	1283.19
1027.319	1267.37
1027.608	1279.12
1027.898	1261.94
1028.187	1222.62
1028.477	1246.35
1028.766	1255.84
1029.055	1230.08
1029.344	1235.73
1029.634	1213.13
1029.923	1212.91
1030.212	1175.84
1030.501	1187.82
1030.79	1185.11
1031.078	1148.73
1031.367	1145.56
1031.656	1180.36
1031.945	1141.72
1032.233	1133.59
1032.522	1123.87
1032.81	1143.08
1033.099	1131.33
1033.387	1089.75
1033.675	1117.32
1033.963	1097.2
1034.251	1064.66
1034.54	1078.67
1034.828	1066.7
1035.116	1059.92
1035.403	1066.24
1035.691	1059.92
1035.979	1051.33
1036.267	1074.6
1036.554	1044.1
1036.842	1034.83
1037.129	1010.2
1037.417	1002.74
1037.704	1000.26
1037.992	996.19
1038.279	988.51
1038.566	1018.33
1038.853	1018.33
1039.14	1018.33
