Data from hue_310_FLMS001491_37.txt Node
Date: Mon Feb 06 15:49:37 GMT 2017
User: dcchb
Spectrometer: FLMS00149
Trigger mode: 0
Integration Time (sec): 2.000000E-2
Scans to average: 10
Electric dark correction enabled: true
Nonlinearity correction enabled: false
Boxcar width: 0
XAxis mode: Wavelengths
Number of Pixels in Spectrum: 2048
>>>>>Begin Spectral Data<<<<<
341.393	-6.79
341.776	-6.79
342.16	-6.79
342.543	-60.35
342.927	-56.28
343.31	-60.8
343.693	-60.35
344.077	-65.1
344.46	-67.81
344.843	-54.93
345.226	-42.72
345.61	-38.21
345.993	-5.89
346.376	-9.28
346.759	-0.24
347.142	54.67
347.525	35.47
347.908	55.13
348.291	75.69
348.674	90.6
349.057	93.77
349.44	133.77
349.823	148.68
350.206	159.76
350.588	199.53
350.971	211.73
351.354	241.56
351.737	242.01
352.119	267.55
352.502	269.58
352.884	270.94
353.267	286.08
353.65	276.36
354.032	307.55
354.414	305.74
354.797	319.98
355.179	293.76
355.562	332.63
355.944	343.03
356.326	324.72
356.709	327.89
357.091	326.3
357.473	346.42
357.855	349.13
358.238	355.46
358.62	330.37
359.002	317.49
359.384	336.47
359.766	325.4
360.148	354.78
360.53	338.28
360.912	345.74
361.294	344.38
361.676	330.82
362.057	334.44
362.439	307.32
362.821	336.93
363.203	339.19
363.584	319.75
363.966	329.69
364.348	306.87
364.729	323.82
365.111	318.85
365.493	314.1
365.874	311.84
366.256	322.24
366.637	298.51
367.019	315.23
367.4	303.71
367.781	318.62
368.163	291.5
368.544	318.85
368.925	289.24
369.306	316.81
369.688	309.58
370.069	303.93
370.45	322.69
370.831	285.63
371.212	294.44
371.593	295.8
371.974	312.52
372.355	335.34
372.736	311.16
373.117	326.76
373.498	322.69
373.879	314.55
374.26	305.29
374.641	335.57
375.021	312.97
375.402	320.2
375.783	321.33
376.163	327.89
376.544	310.71
376.925	322.01
377.305	319.53
377.686	323.59
378.066	327.89
378.447	329.69
378.827	317.27
379.208	319.53
379.588	333.54
379.968	329.69
380.349	327.43
380.729	332.41
381.109	325.4
381.489	336.47
381.87	336.7
382.25	325.18
382.63	316.59
383.01	341.45
383.39	317.04
383.77	328.11
384.15	338.28
384.53	340.32
384.91	356.59
385.29	336.47
385.67	331.95
386.049	355.46
386.429	352.97
386.809	351.39
387.189	344.84
387.568	344.16
387.948	356.81
388.328	355
388.707	336.93
389.087	357.26
389.466	363.14
389.846	366.53
390.225	359.52
390.605	355
390.984	351.16
391.363	359.07
391.743	361.56
392.122	370.82
392.501	375.57
392.881	377.15
393.26	371.05
393.639	378.73
394.018	376.7
394.397	367.21
394.776	372.18
395.155	366.08
395.534	369.92
395.913	368.56
396.292	373.76
396.671	385.74
397.05	378.28
397.429	381.44
397.808	390.48
398.186	375.8
398.565	370.15
398.944	397.72
399.323	403.59
399.701	395.91
400.08	384.38
400.458	387.55
400.837	395.68
401.215	388.9
401.594	407.43
401.972	394.55
402.351	403.59
402.729	401.56
403.107	392.97
403.486	411.5
403.864	405.4
404.242	409.01
404.62	408.11
404.999	431.61
405.377	394.78
405.755	429.35
406.133	439.52
406.511	430.93
406.889	460.54
407.267	450.14
407.645	432.29
408.023	422.57
408.401	454.89
408.779	460.31
409.156	467.09
409.534	460.54
409.912	466.41
410.29	485.62
410.667	487.88
411.045	486.3
411.422	490.59
411.8	492.4
412.178	512.29
412.555	493.31
412.933	513.64
413.31	512.97
413.687	533.98
414.065	536.92
414.442	550.71
414.819	550.48
415.197	570.37
415.574	553.87
415.951	550.93
416.328	563.13
416.705	563.36
417.082	577.15
417.46	576.92
417.837	610.82
418.214	617.14
418.591	622.79
418.967	618.5
419.344	620.53
419.721	624.6
420.098	639.07
420.475	663.25
420.852	683.36
421.228	665.28
421.605	668.22
421.982	672.51
422.358	703.02
422.735	691.72
423.111	688.1
423.488	697.37
423.864	708.22
424.241	739.85
424.617	740.76
424.994	729.91
425.37	748.44
425.746	741.44
426.123	761.1
426.499	759.97
426.875	766.29
427.251	759.29
427.627	788.44
428.003	814.88
428.379	807.42
428.756	830.47
429.132	802.68
429.507	826.63
429.883	827.53
430.259	847.87
430.635	868.89
431.011	861.88
431.387	868.44
431.763	879.28
432.138	871.15
432.514	882.9
432.89	915.67
433.265	924.26
433.641	940.07
434.016	952.5
434.392	966.29
434.767	994.08
435.143	944.59
435.518	999.73
435.894	1001.99
436.269	1002.67
436.644	1027.08
437.02	1040.86
437.395	1071.14
437.77	1053.74
438.145	1074.99
438.52	1076.12
438.895	1056.91
439.271	1080.64
439.646	1092.61
440.021	1078.83
440.395	1109.79
440.77	1110.92
441.145	1085.83
441.52	1121.09
441.895	1135.1
442.27	1171.71
442.645	1142.1
443.019	1153.18
443.394	1165.83
443.769	1162.44
444.143	1156.34
444.518	1147.3
444.892	1154.53
445.267	1166.51
445.641	1192.95
446.016	1178.71
446.39	1163.12
446.764	1182.78
447.139	1188.2
447.513	1205.6
447.887	1217.81
448.262	1198.37
448.636	1215.1
449.01	1203.34
449.384	1230.46
449.758	1231.14
450.132	1245.38
450.506	1235.21
450.88	1262.1
451.254	1231.59
451.628	1241.54
452.002	1258.71
452.376	1238.37
452.75	1279.95
453.123	1278.82
453.497	1296.9
453.871	1300.29
454.244	1327.18
454.618	1315.88
454.992	1339.84
455.365	1326.96
455.739	1350.01
456.112	1375.99
456.486	1341.65
456.859	1366.28
457.232	1387.97
457.606	1389.78
457.979	1398.14
458.352	1413.73
458.725	1417.12
459.099	1402.66
459.472	1442.43
459.845	1450.8
460.218	1455.99
460.591	1459.83
460.964	1432.26
461.337	1468.65
461.71	1486.73
462.083	1530.34
462.456	1533.96
462.829	1500.51
463.201	1535.54
463.574	1559.49
463.947	1526.5
464.32	1602.2
464.692	1551.36
465.065	1580.96
465.438	1592.94
465.81	1620.96
466.183	1623.67
466.555	1644.69
466.928	1631.81
467.3	1646.95
467.672	1670.22
468.045	1689.66
468.417	1665.03
468.789	1686.04
469.161	1700.73
469.534	1727.85
469.906	1754.29
470.278	1784.35
470.65	1783.67
471.022	1802.65
471.394	1818.02
471.766	1805.81
472.138	1838.81
472.51	1871.35
472.882	1866.15
473.253	1898.47
473.625	1907.51
473.997	1926.26
474.369	1966.26
474.74	1931.46
475.112	1961.52
475.484	1964
475.855	1982.08
476.227	2067.73
476.598	2089.87
476.97	2029.76
477.341	2113.6
477.713	2112.47
478.084	2107.5
478.455	2168.97
478.827	2190.89
479.198	2234.96
479.569	2208.06
479.94	2265.69
480.311	2294.61
480.682	2331.68
481.053	2339.13
481.424	2378.23
481.795	2374.61
482.166	2433.37
482.537	2430.66
482.908	2454.61
483.279	2524.67
483.65	2519.24
484.021	2536.42
484.391	2528.28
484.762	2557.88
485.133	2591.33
485.503	2596.3
485.874	2610.09
486.244	2660.71
486.615	2649.18
486.985	2660.03
487.356	2719.01
487.726	2757.2
488.097	2795.17
488.467	2796.3
488.837	2832.23
489.207	2848.95
489.578	2911.1
489.948	2895.73
490.318	2881.94
490.688	2920.14
491.058	2978.44
491.428	2974.37
491.798	3020.02
492.168	3064.76
492.538	3049.4
492.908	3076.74
493.278	3107.47
493.648	3101.6
494.017	3149.51
494.387	3181.15
494.757	3185.44
495.126	3156.74
495.496	3194.03
495.866	3205.33
496.235	3251.88
496.605	3295.72
496.974	3279.9
497.344	3290.75
497.713	3328.71
498.082	3311.31
498.452	3310.18
498.821	3353.12
499.19	3333.23
499.559	3402.16
499.928	3381.59
500.298	3431.31
500.667	3429.5
501.036	3414.81
501.405	3499.33
501.774	3445.09
502.143	3470.63
502.512	3476.05
502.88	3480.8
503.249	3486.9
503.618	3524.19
503.987	3562.83
504.356	3488.48
504.724	3560.12
505.093	3549.72
505.462	3558.31
505.83	3596.28
506.199	3574.36
506.567	3631.53
506.936	3614.35
507.304	3631.75
507.672	3661.13
508.041	3690.28
508.409	3666.33
508.777	3715.37
509.145	3704.97
509.514	3712.2
509.882	3700.45
510.25	3722.15
510.618	3708.14
510.986	3759.44
511.354	3727.35
511.722	3752.88
512.09	3775.03
512.458	3727.57
512.826	3800.34
513.193	3782.49
513.561	3806.21
513.929	3816.83
514.297	3856.38
514.664	3868.81
515.032	3871.52
515.4	3857.96
515.767	3869.04
516.135	3864.74
516.502	3876.27
516.869	3920.33
517.237	3946.77
517.604	3893.44
517.972	3939.77
518.339	3928.92
518.706	3926.66
519.073	3948.13
519.44	3980.67
519.808	3976.83
520.175	4004.17
520.542	4015.02
520.909	4002.59
521.276	4033.1
521.643	4090.73
522.009	4066.09
522.376	4114
522.743	4089.14
523.11	4103.38
523.477	4150.61
523.843	4161.01
524.21	4158.07
524.577	4189.93
524.943	4169.14
525.31	4203.49
525.676	4244.39
526.043	4278.74
526.409	4256.82
526.776	4308.35
527.142	4320.55
527.508	4297.95
527.874	4360.55
528.241	4372.75
528.607	4365.07
528.973	4393.99
529.339	4383.6
529.705	4387.89
530.071	4439.42
530.437	4500.66
530.803	4534.33
531.169	4529.36
531.535	4532.3
531.901	4511.96
532.267	4573.42
532.632	4550.83
532.998	4607.77
533.364	4572.75
533.73	4624.27
534.095	4687.55
534.461	4664.72
534.826	4642.35
535.192	4734.55
535.557	4708.56
535.923	4699.75
536.288	4703.37
536.653	4719.64
537.019	4825.62
537.384	4780.88
537.749	4831.27
538.114	4862.46
538.479	4895.68
538.845	4872.63
539.21	4839.63
539.575	4890.25
539.94	4918.5
540.305	4984.49
540.67	4948.1
541.034	4965.28
541.399	4978.61
541.764	5044.6
542.129	5053.64
542.494	5038.27
542.858	5117.14
543.223	5110.81
543.587	5151.49
543.952	5179.06
544.316	5150.13
544.681	5128.21
545.045	5209.11
545.41	5223.13
545.774	5211.6
546.138	5237.14
546.503	5269
546.867	5269.68
547.231	5304.93
547.595	5354.42
547.959	5374.99
548.324	5392.16
548.688	5351.26
549.052	5419.28
549.416	5409.56
549.779	5457.7
550.143	5441.42
550.507	5464.7
550.871	5507.86
551.235	5444.14
551.599	5492.95
551.962	5551.93
552.326	5582.66
552.689	5630.35
553.053	5583.79
553.417	5610.46
553.78	5677.8
554.143	5621.98
554.507	5663.79
554.87	5696.33
555.234	5732.26
555.597	5668.54
555.96	5715.09
556.323	5711.47
556.686	5719.61
557.05	5787.4
557.413	5823.34
557.776	5800.29
558.139	5843.45
558.502	5814.97
558.865	5799.61
559.228	5846.16
559.59	5888.87
559.953	5890.68
560.316	5946.27
560.679	5880.06
561.041	5994.63
561.404	5992.37
561.767	6024.23
562.129	6054.29
562.492	6086.15
562.854	6057.23
563.217	6060.84
563.579	6093.61
563.941	6078.24
564.304	6163.44
564.666	6162.08
565.028	6157.11
565.39	6179.94
565.753	6215.64
566.115	6238.01
566.477	6250.89
566.839	6237.79
567.201	6301.74
567.563	6313.27
567.925	6368.41
568.287	6335.41
568.648	6350.78
569.01	6416.99
569.372	6459.93
569.734	6438.23
570.095	6482.53
570.457	6569.98
570.819	6568.85
571.18	6565.91
571.542	6603.43
571.903	6598.91
572.265	6645.69
572.626	6653.6
572.987	6703.76
573.349	6776.08
573.71	6825.34
574.071	6811.56
574.432	6949.86
574.794	7056.52
575.155	7015.85
575.516	7079.12
575.877	7122.51
576.238	7156.18
576.599	7233.24
576.96	7266.91
577.32	7332
577.681	7445.89
578.042	7471.43
578.403	7527.25
578.763	7654.47
579.124	7663.29
579.485	7803.17
579.845	7943.51
580.206	7998.19
580.566	8131.3
580.927	8227.11
581.287	8316.38
581.648	8438.63
582.008	8574
582.368	8697.38
582.728	8830.71
583.089	9025.29
583.449	9115.68
583.809	9361.55
584.169	9494.2
584.529	9597.93
584.889	9787.53
585.249	9966.28
585.609	10096.67
585.969	10341.63
586.329	10532.59
586.688	10738.46
587.048	10999.24
587.408	11148.85
587.768	11380.25
588.127	11622.73
588.487	11808.04
588.846	12175.26
589.206	12270.4
589.565	12525.31
589.925	12848.24
590.284	13006.65
590.643	13401.44
591.003	13650.47
591.362	13941.99
591.721	14127.75
592.08	14367.74
592.44	14756.66
592.799	15050.66
593.158	15327.72
593.517	15542.4
593.876	15814.71
594.235	16071.43
594.593	16411.31
594.952	16734.91
595.311	16979.2
595.67	17334.22
596.029	17759.74
596.387	18020.08
596.746	18305.95
597.104	18467.3
597.463	18889.88
597.822	19145.25
598.18	19355.86
598.538	19636.31
598.897	20044.2
599.255	20190.87
599.613	20782.26
599.972	20918.76
600.33	21343.38
600.688	21431.74
601.046	21896.36
601.404	22095
601.762	22365.27
602.12	22729.56
602.478	23047.74
602.836	23391.91
603.194	23494.28
603.552	23670.32
603.91	23912.8
604.268	24242.96
604.625	24494.71
604.983	24888.6
605.341	24937.41
605.698	25308.7
606.056	25545.53
606.413	25778.97
606.771	26219.86
607.128	26321.78
607.485	26416.69
607.843	26797.02
608.2	27133.28
608.557	27318.59
608.914	27475.42
609.272	27761.97
609.629	27990.89
609.986	28342.97
610.343	28383.87
610.7	28720.81
611.057	28831.32
611.414	29018.21
611.771	29234.7
612.127	29590.39
612.484	29640.79
612.841	29929.59
613.198	30020.21
613.554	30144.28
613.911	30570.26
614.267	30626.98
614.624	30693.87
614.98	30955.78
615.337	31179.73
615.693	31284.14
616.05	31389.22
616.406	31747.63
616.762	31710.79
617.118	31913.72
617.475	32057.22
617.831	32315.75
618.187	32419.02
618.543	32590.32
618.899	32645.23
619.255	33049.29
619.611	33033.69
619.967	33193.46
620.323	33341.71
620.678	33432.1
621.034	33266
621.39	33462.16
621.746	33486.79
622.101	34044.97
622.457	33832.77
622.812	34104.85
623.168	34089.94
623.523	34255.81
623.879	34448.35
624.234	34298.52
624.589	34470.49
624.945	34658.74
625.3	34674.33
625.655	34724.72
626.01	34793.2
626.365	34998.16
626.72	34856.02
627.075	35162.68
627.43	35131.27
627.785	35009.23
628.14	35233.86
628.495	35277.93
628.85	35211.94
629.205	35230.47
629.559	35602.67
629.914	35553.63
630.269	35490.58
630.623	35392.73
630.978	35461.88
631.332	35666.39
631.687	35764.02
632.041	35687.86
632.396	35774.41
632.75	35787.75
633.104	35703.68
633.459	35686.96
633.813	35665.71
634.167	35649.44
634.521	35634.98
634.875	35816.67
635.229	35835.2
635.583	35665.94
635.937	35715.43
636.291	35686.51
636.645	35757.46
636.999	35676.11
637.352	35738.93
637.706	35766.28
638.06	35721.31
638.413	35822.55
638.767	35642.44
639.121	35889.66
639.474	35563.57
639.828	35707.97
640.181	35700.29
640.534	35741.64
640.888	35687.18
641.241	35591.14
641.594	35577.36
641.947	35774.41
642.301	35519.5
642.654	35600.41
643.007	35770.8
643.36	35682.44
643.713	35602.67
644.066	35791.14
644.419	35536.9
644.771	35270.92
645.124	35082
645.477	35000.87
645.83	34724.5
646.182	34696.02
646.535	34631.39
646.888	34824.61
647.24	34458.74
647.593	34799.97
647.945	34626.87
648.298	34466.42
648.65	34377.39
649.002	34405.63
649.355	34568.79
649.707	34469.14
650.059	34576.03
650.411	35079.29
650.763	35073.87
651.115	35511.14
651.467	35429.56
651.819	35304.37
652.171	35270.47
652.523	35109.12
652.875	35162.9
653.227	35016.92
653.578	35412.39
653.93	35175.11
654.282	35079.06
654.633	35096.24
654.985	35032.74
655.337	35101.89
655.688	35158.61
656.039	35271.37
656.391	34886.75
656.742	35029.8
657.094	34969.24
657.445	35197.7
657.796	35026.41
658.147	35051.95
658.498	35000.65
658.849	35063.92
659.2	35060.76
659.551	35035
659.902	35132.85
660.253	34905.28
660.604	35035
660.955	34893.08
661.306	35091.04
661.656	34971.72
662.007	34864.38
662.358	34946.19
662.708	34992.06
663.059	34929.46
663.409	34682.01
663.76	34887.2
664.11	34910.71
664.461	35001.1
664.811	34935.79
665.161	34917.94
665.511	34782.12
665.862	34905.28
666.212	35018.73
666.562	35038.16
666.912	34962.91
667.262	34882.23
667.612	34827.77
667.962	34852.4
668.312	34932.4
668.662	34950.71
669.011	34850.14
669.361	34809.01
669.711	34833.65
670.06	34953.87
670.41	34772.4
670.76	34757.49
671.109	34732.41
671.459	34752.97
671.808	34785.29
672.157	34801.33
672.507	34497.38
672.856	34564.5
673.205	34607.21
673.554	34729.69
673.904	34559.98
674.253	34781.22
674.602	34644.72
674.951	34317.28
675.3	33960.9
675.649	34585.07
675.998	34570.38
676.346	34488.57
676.695	34634.1
677.044	34353.88
677.393	34493.99
677.741	34460.32
678.09	34361.57
678.438	34298.52
678.787	34399.99
679.135	34404.05
679.484	34204.06
679.832	34438.63
680.181	34087.9
680.529	34321.57
680.877	34063.5
681.225	34052.88
681.573	34307.33
681.922	33973.78
682.27	33969.71
682.618	33977.85
682.966	33938.08
683.314	33882.48
683.661	33887.91
684.009	33611.98
684.357	33673.45
684.705	33520.46
685.053	33587.8
685.4	33563.62
685.748	33399.33
686.095	33365.21
686.443	33296.96
686.79	33248.83
687.138	33378.09
687.485	33388.71
687.832	33171.32
688.18	33266.91
688.527	32913.92
688.874	32920.93
689.221	33056.52
689.568	32976.52
689.915	32864.66
690.262	32719.58
690.609	32716.87
690.956	32632.35
691.303	32629.18
691.65	32531.79
691.997	32563.88
692.344	32238.23
692.69	32296.76
693.037	32272.58
693.383	32072.81
693.73	32192.36
694.077	31968.41
694.423	31946.26
694.769	31856.55
695.116	31657.91
695.462	31692.03
695.808	31561.19
696.155	31561.42
696.501	31291.37
696.847	31269.9
697.193	31031.26
697.539	31244.59
697.885	30986.06
698.231	30998.27
698.577	31028.32
698.923	30862
699.269	30789.91
699.614	30638.05
699.96	30607.99
700.306	30498.17
700.651	30535.91
700.997	30365.74
701.342	30354.44
701.688	30309.25
702.033	30158.29
702.379	30179.53
702.724	30039.87
703.069	30126.43
703.415	29813.21
703.76	29851.18
704.105	29796.04
704.45	29825.42
704.795	29554.46
705.14	29629.26
705.485	29478.53
705.83	29331.19
706.175	29450.28
706.52	29341.36
706.865	29234.02
707.209	29128.94
707.554	29168.48
707.899	29278.09
708.243	29069.5
708.588	28906.8
708.932	28791.09
709.277	28791.77
709.621	28874.71
709.966	28691.66
710.31	28639.68
710.654	28427.94
710.998	28483.08
711.342	28522.4
711.687	28482.4
712.031	28334.61
712.375	28198.34
712.719	28226.59
713.063	28243.99
713.407	28305.68
713.75	27977.56
714.094	28079.47
714.438	27975.3
714.782	27919.25
715.125	27867.95
715.469	27821.85
715.812	27763.55
716.156	27544.57
716.499	27573.27
716.843	27708.41
717.186	27417.57
717.53	27485.82
717.873	27561.52
718.216	27363.11
718.559	27378.93
718.902	27154.75
719.246	27334.18
719.589	27154.75
719.932	26947.53
720.275	27073.62
720.617	27048.54
720.96	27106.39
721.303	26857.58
721.646	26980.97
721.989	26739.62
722.331	26873.86
722.674	26721.09
723.016	26790.92
723.359	26716.8
723.701	26772.84
724.044	26538.95
724.386	26413.75
724.729	26344.15
725.071	26432.06
725.413	26548.89
725.755	26319.97
726.097	26358.39
726.439	26161.56
726.782	26180.09
727.124	26326.53
727.465	26159.07
727.807	26224.61
728.149	26043.14
728.491	26026.19
728.833	26159.3
729.175	25974.22
729.516	26039.3
729.858	25819.87
730.199	25908.01
730.541	25860.32
730.882	25746.88
731.224	25910.04
731.565	25666.43
731.906	25694
732.248	25778.52
732.589	25665.53
732.93	25469.6
733.271	25536.72
733.612	25508.92
733.953	25567.68
734.294	25504.17
734.635	25413.33
734.976	25422.82
735.317	25214.46
735.658	25258.08
735.999	25174.92
736.339	25271.41
736.68	25253.79
737.021	25152.32
737.361	25085.88
737.702	25187.8
738.042	25108.48
738.383	24893.57
738.723	25134.47
739.063	24875.26
739.404	24980.12
739.744	25045.66
740.084	24742.84
740.424	24786.9
740.764	24869.39
741.104	24770.18
741.444	24644.31
741.784	24675.5
742.124	24693.35
742.464	24668.49
742.804	24614.03
743.143	24482.73
743.483	24632.78
743.823	24348.27
744.162	24289.29
744.502	24569.74
744.841	24267.14
745.181	24317.09
745.52	24242.96
745.86	24254.49
746.199	24145.34
746.538	24113.7
746.877	24303.3
747.216	24179.92
747.556	24165.23
747.895	24136.07
748.234	24076.64
748.573	23969.75
748.911	24049.75
749.25	23968.17
749.589	23950.54
749.928	23746.48
750.267	23842.07
750.605	23739.47
750.944	23725.92
751.283	23639.59
751.621	23605.24
751.96	23480.27
752.298	23609.08
752.636	23544
752.975	23473.27
753.313	23350.78
753.651	23450.22
753.989	23367.51
754.327	23250.9
754.666	23212.71
755.004	23170.45
755.342	23109.89
755.679	23054.07
756.017	22923
756.355	23014.52
756.693	22882.55
757.031	23028.31
757.368	22860.85
757.706	22812.04
758.044	22594.19
758.381	22727.3
758.719	22643.91
759.056	22622.67
759.394	22588.54
759.731	22422.22
760.068	22356.23
760.405	22398.72
760.743	22173.19
761.08	22250.47
761.417	22155.34
761.754	22143.58
762.091	22106.3
762.428	21946.53
762.765	21800.99
763.102	21914.44
763.438	21806.19
763.775	21665.4
764.112	21723.48
764.449	21708.79
764.785	21552.41
765.122	21438.07
765.458	21294.57
765.795	21310.39
766.131	21341.35
766.467	21195.81
766.804	21196.72
767.14	20924.41
767.476	20960.56
767.812	20872.21
768.148	20962.6
768.485	20782.72
768.821	20624.75
769.157	20628.37
769.492	20567.58
769.828	20645.32
770.164	20332.56
770.5	20233.8
770.836	20400.13
771.171	20252.11
771.507	20171.88
771.842	19945.45
772.178	20031.55
772.513	20001.49
772.849	19904.77
773.184	19792.69
773.519	19829.52
773.855	19615.52
774.19	19600.15
774.525	19672.46
774.86	19514.73
775.195	19553.37
775.53	19394.96
775.865	19340.27
776.2	19122.87
776.535	19065.93
776.87	19148.41
777.205	19025.25
777.539	18912.71
777.874	18952.93
778.209	18765.82
778.543	18802.66
778.878	18593.85
779.212	18641.3
779.547	18503
779.881	18605.6
780.215	18322.22
780.55	18459.39
780.884	18349.11
781.218	18283.8
781.552	18211.94
781.886	18115.89
782.22	18106.63
782.554	17990.25
782.888	17845.39
783.222	17816.47
783.556	17726.3
783.889	17567.89
784.223	17537.38
784.557	17539.86
784.89	17560.2
785.224	17475.01
785.557	17320.66
785.891	17297.38
786.224	17348.46
786.558	17270.27
786.891	17042.7
787.224	17019.65
787.557	16921.12
787.891	17005.41
788.224	16869.82
788.557	16899.43
788.89	16832.76
789.223	16756.16
789.556	16560.91
789.888	16616.27
790.221	16562.49
790.554	16422.6
790.887	16502.15
791.219	16310.97
791.552	16353.23
791.884	16271.87
792.217	16192.55
792.549	16336.28
792.882	15993.69
793.214	16016.51
793.546	15965.22
793.879	15895.39
794.211	15746.69
794.543	15800.93
794.875	15851.55
795.207	15781.49
795.539	15668.5
795.871	15721.61
796.203	15452.69
796.535	15506.7
796.867	15428.73
797.198	15342.86
797.53	15381.05
797.862	15265.12
798.193	15272.13
798.525	15190.77
798.856	15194.39
799.188	15132.92
799.519	14939.71
799.85	14930.44
800.182	14969.31
800.513	14929.08
800.844	14815.42
801.175	14928.18
801.506	14817.22
801.837	14737.9
802.168	14714.18
802.499	14669.43
802.83	14626.04
803.161	14520.06
803.491	14543.11
803.822	14534.74
804.153	14536.55
804.483	14322.77
804.814	14348.99
805.145	14311.02
805.475	14283.68
805.805	14208.43
806.136	14142.66
806.466	14107.19
806.796	14106.51
807.126	14010.92
807.457	13979.28
807.787	14005.27
808.117	13892.28
808.447	13873.52
808.777	14026.51
809.107	13854.76
809.436	13777.02
809.766	13812.96
810.096	13696.12
810.426	13696.12
810.755	13679.85
811.085	13586.07
811.414	13607.99
811.744	13464.26
812.073	13464.04
812.403	13454.1
812.732	13383.36
813.061	13374.1
813.39	13253.65
813.719	13260.88
814.049	13374.78
814.378	13297.04
814.707	13213.65
815.036	13220.43
815.365	13074.67
815.693	13008.46
816.022	13041.9
816.351	13044.61
816.68	12948.12
817.008	12929.14
817.337	12915.35
817.665	12783.83
817.994	12836.03
818.322	12799.88
818.651	12785.64
818.979	12662.25
819.307	12817.28
819.636	12736.15
819.964	12615.25
820.292	12709.71
820.62	12660.67
820.948	12573.21
821.276	12643.04
821.604	12616.15
821.932	12699.09
822.259	12641.24
822.587	12613.89
822.915	12606.21
823.243	12573.67
823.57	12627.68
823.898	12543.61
824.225	12469.04
824.553	12549.71
824.88	12564.85
825.207	12645.53
825.535	12456.38
825.862	12516.27
826.189	12575.7
826.516	12557.17
826.843	12658.41
827.17	12602.59
827.497	12599.43
827.824	12645.08
828.151	12577.28
828.478	12474.91
828.805	12657.96
829.131	12540.45
829.458	12514.01
829.785	12435.82
830.111	12543.16
830.438	12554.46
830.764	12535.93
831.09	12473.56
831.417	12478.98
831.743	12487.57
832.069	12462.03
832.395	12455.48
832.722	12474.01
833.048	12463.16
833.374	12455.93
833.7	12443.95
834.026	12443.27
834.351	12415.25
834.677	12397.63
835.003	12422.48
835.329	12410.06
835.654	12435.14
835.98	12307.68
836.306	12335.25
836.631	12229.49
836.956	12328.02
837.282	12398.3
837.607	12207.35
837.932	12176.61
838.258	12182.72
838.583	12226.56
838.908	12141.59
839.233	12095.71
839.558	12133.45
839.883	12030.4
840.208	12062.72
840.533	12029.95
840.858	12066.34
841.182	12020.01
841.507	12059.33
841.832	11924.87
842.156	11926.9
842.481	11883.29
842.805	11812.56
843.13	11824.76
843.454	11797.42
843.778	11740.69
844.103	11765.1
844.427	11712.9
844.751	11710.41
845.075	11677.87
845.399	11640.81
845.723	11522.17
846.047	11561.94
846.371	11535.73
846.695	11539.57
847.019	11423.41
847.343	11394.94
847.666	11289.18
847.99	11231.1
848.313	11218.45
848.637	11137.77
848.96	11169.41
849.284	11161.73
849.607	11037.21
849.931	11054.38
850.254	10895.07
850.577	10923.09
850.9	10843.54
851.223	10774.39
851.546	10721.96
851.869	10687.61
852.192	10800.61
852.515	10696.43
852.838	10601.06
853.161	10608.75
853.483	10666.15
853.806	10502.08
854.129	10607.84
854.451	10463.21
854.774	10375.76
855.096	10363.33
855.419	10337.12
855.741	10328.75
856.063	10291.92
856.385	10236.78
856.708	10206.05
857.03	10158.14
857.352	10192.71
857.674	10124.69
857.996	10088.53
858.318	10031.81
858.64	10015.54
858.961	10017.8
859.283	10000.17
859.605	9962.89
859.926	9907.3
860.248	9891.48
860.57	9848.31
860.891	9807.19
861.212	9799.95
861.534	9789.11
861.855	9735.55
862.176	9763.34
862.498	9750.24
862.819	9732.61
863.14	9743.01
863.461	9690.58
863.782	9641.09
864.103	9628.21
864.424	9634.76
864.745	9629.11
865.065	9536.01
865.386	9562.22
865.707	9566.51
866.027	9544.37
866.348	9492.62
866.668	9549.79
866.989	9478.38
867.309	9431.38
867.63	9477.48
867.95	9412.39
868.27	9361.77
868.59	9420.3
868.91	9353.64
869.23	9364.71
869.55	9334.43
869.87	9317.03
870.19	9355.67
870.51	9295.11
870.83	9279.06
871.15	9217.37
871.469	9237.03
871.789	9271.38
872.109	9224.6
872.428	9143.02
872.748	9200.87
873.067	9167.43
873.386	9209.24
873.706	9180.31
874.025	9115.68
874.344	9092.4
874.663	9117.03
874.982	9018.51
875.301	9145.51
875.62	9019.18
875.939	8965.17
876.258	9044.49
876.577	9009.47
876.896	8979.18
877.214	9042.91
877.533	8960.65
877.852	8936.25
878.17	8950.26
878.489	8976.7
878.807	8961.11
879.125	8899.64
879.444	8913.2
879.762	8867.55
880.08	8855.57
880.398	8819.87
880.716	8815.8
881.034	8777.38
881.352	8769.25
881.67	8785.29
881.988	8759.08
882.306	8722.69
882.624	8753.43
882.941	8702.13
883.259	8670.72
883.577	8599.31
883.894	8643.37
884.212	8604.28
884.529	8580.55
884.846	8524.06
885.164	8602.7
885.481	8498.97
885.798	8534.9
886.115	8538.07
886.432	8432.98
886.75	8431.4
887.067	8432.08
887.383	8387.79
887.7	8429.82
888.017	8396.6
888.334	8379.43
888.651	8273.89
888.967	8299.2
889.284	8286.77
889.6	8244.97
889.917	8214.01
890.233	8178.75
890.55	8175.14
890.866	8167.45
891.182	8132.65
891.498	8117.06
891.815	8068.47
892.131	8048.36
892.447	8064.18
892.763	7975.82
893.079	7972.66
893.395	7922.04
893.71	7918.42
894.026	7981.02
894.342	7892.66
894.657	7918.2
894.973	7862.15
895.289	7828.25
895.604	7797.29
895.92	7753.23
896.235	7781.48
896.55	7708.71
896.865	7668.71
897.181	7677.98
897.496	7625.77
897.811	7617.41
898.126	7618.32
898.441	7556.62
898.756	7565.89
899.071	7475.72
899.386	7563.63
899.7	7459.68
900.015	7432.33
900.33	7388.94
900.644	7357.53
900.959	7368.61
901.273	7372.45
901.588	7349.17
901.902	7274.82
902.216	7267.37
902.531	7264.65
902.845	7197.99
903.159	7156.18
903.473	7165.9
903.787	7098.1
904.101	7037.99
904.415	7044.55
904.729	7016.07
905.042	7000.03
905.356	6959.35
905.67	6983.76
905.984	6911.67
906.297	6887.26
906.611	6898.34
906.924	6857.21
907.237	6842.07
907.551	6815.17
907.864	6830.09
908.177	6781.5
908.491	6775.63
908.804	6716.87
909.117	6704.67
909.43	6649.3
909.743	6612.69
910.056	6624.9
910.368	6604.33
910.681	6524.56
910.994	6495.86
911.307	6485.01
911.619	6442.08
911.932	6399.82
912.244	6449.76
912.557	6399.14
912.869	6375.64
913.181	6327.28
913.494	6368.63
913.806	6279.82
914.118	6288.63
914.43	6201.86
914.742	6206.38
915.054	6231.69
915.366	6183.1
915.678	6174.96
915.99	6130.9
916.302	6052.48
916.613	6030.34
916.925	6025.82
917.236	6008.19
917.548	5932.03
917.859	6024.91
918.171	5887.29
918.482	5904.69
918.794	5895.2
919.105	5857.46
919.416	5830.79
919.727	5817.01
920.038	5839.83
920.349	5760.06
920.66	5745.37
920.971	5738.37
921.282	5676.67
921.593	5670.57
921.903	5570.91
922.214	5593.74
922.525	5573.4
922.835	5584.02
923.146	5558.26
923.456	5510.8
923.767	5567.07
924.077	5470.12
924.387	5442.78
924.697	5407.75
925.008	5439.62
925.318	5388.54
925.628	5357.59
925.938	5377.92
926.248	5349.68
926.558	5339.96
926.867	5314.65
927.177	5254.76
927.487	5254.76
927.796	5211.83
928.106	5215.44
928.416	5158.95
928.725	5153.07
929.034	5131.38
929.344	5147.87
929.653	5120.3
929.962	5074.43
930.271	5032.85
930.581	4985.39
930.89	5064.71
931.199	5000.31
931.508	4968.67
931.817	4973.64
932.125	4907.88
932.434	4944.04
932.743	4866.52
933.051	4871.72
933.36	4796.24
933.669	4763.25
933.977	4800.31
934.286	4761.67
934.594	4758.5
934.902	4730.26
935.21	4712.18
935.519	4714.44
935.827	4685.96
936.135	4636.47
936.443	4573.2
936.751	4549.92
937.059	4608
937.367	4536.59
937.674	4583.14
937.982	4519.19
938.29	4528.23
938.597	4469.25
938.905	4413.2
939.213	4471.05
939.52	4470.38
939.827	4428.8
940.135	4435.12
940.442	4377.5
940.749	4408.46
941.056	4331.4
941.363	4335.01
941.67	4326.65
941.977	4320.55
942.284	4240.55
942.591	4257.05
942.898	4231.96
943.205	4262.25
943.511	4187.9
943.818	4188.8
944.125	4196.03
944.431	4149.71
944.738	4092.31
945.044	4165.07
945.35	4115.58
945.657	4073.78
945.963	4086.43
946.269	4058.86
946.575	4057.05
946.881	3998.75
947.187	3982.48
947.493	3959.66
947.799	3971.63
948.105	3943.39
948.41	3901.8
948.716	3938.41
949.022	3900
949.327	3902.71
949.633	3856.16
949.938	3871.07
950.244	3819.09
950.549	3812.99
950.854	3795.37
951.16	3791.75
951.465	3789.49
951.77	3737.51
952.075	3715.37
952.38	3728.7
952.685	3748.14
952.99	3694.13
953.294	3686.22
953.599	3651.42
953.904	3643.73
954.209	3597.86
954.513	3628.82
954.818	3585.2
955.122	3580.91
955.426	3586.56
955.731	3563.73
956.035	3536.16
956.339	3509.5
956.643	3486
956.948	3500.01
957.252	3493.45
957.556	3483.96
957.86	3439.67
958.163	3415.94
958.467	3453.91
958.771	3406
959.075	3386.34
959.378	3344.76
959.682	3350.41
959.985	3377.07
960.289	3318.32
960.592	3317.19
960.896	3324.42
961.199	3269.96
961.502	3270.18
961.805	3228.15
962.108	3224.99
962.411	3234.03
962.714	3209.84
963.017	3206.46
963.32	3219.79
963.623	3163.74
963.926	3173.91
964.228	3120.13
964.531	3119.68
964.833	3112.45
965.136	3077.65
965.438	3081.71
965.741	3063.18
966.043	3054.14
966.345	3067.48
966.648	3000.36
966.95	3014.37
967.252	2996.29
967.554	2996.74
967.856	2977.53
968.158	2967.14
968.46	2927.82
968.761	2952.45
969.063	2967.14
969.365	2909.06
969.666	2918.78
969.968	2849.85
970.269	2887.14
970.571	2890.31
970.872	2867.48
971.174	2843.07
971.475	2829.29
971.776	2842.4
972.077	2805.34
972.378	2811.21
972.679	2801.27
972.98	2733.7
973.281	2789.97
973.582	2755.62
973.883	2757.65
974.183	2730.76
974.484	2693.47
974.785	2712.91
975.085	2683.98
975.386	2688.95
975.686	2686.47
975.986	2657.77
976.287	2655.06
976.587	2593.14
976.887	2656.87
977.187	2602.86
977.487	2625.91
977.787	2608.05
978.087	2576.19
978.387	2558.34
978.687	2531.67
978.987	2538.68
979.286	2549.98
979.586	2531.67
979.885	2534.16
980.185	2511.11
980.484	2537.32
980.784	2473.59
981.083	2466.14
981.382	2454.61
981.682	2492.35
981.981	2438.79
982.28	2409.64
982.579	2397.66
982.878	2404.44
983.177	2396.53
983.475	2396.76
983.774	2374.39
984.073	2371.22
984.372	2355.18
984.67	2346.14
984.969	2369.87
985.267	2333.48
985.566	2307.27
985.864	2308.4
986.162	2300.94
986.461	2254.84
986.759	2285.58
987.057	2248.29
987.355	2253.94
987.653	2241.51
987.951	2249.42
988.249	2247.38
988.547	2219.36
988.844	2202.64
989.142	2188.63
989.44	2191.57
989.737	2158.57
990.035	2153.6
990.332	2180.04
990.63	2144.11
990.927	2180.72
991.224	2097.33
991.521	2140.49
991.819	2108.41
992.116	2118.35
992.413	2074.96
992.71	2079.03
993.006	2078.58
993.303	2069.76
993.6	2048.07
993.897	2027.05
994.193	2017.33
994.49	2037.22
994.787	2027.28
995.083	2000.39
995.379	2008.75
995.676	2018.92
995.972	1985.24
996.268	2006.94
996.565	1957.67
996.861	1959.93
997.157	1922.2
997.453	1934.4
997.749	1926.71
998.044	1933.95
998.34	1926.71
998.636	1933.27
998.932	1871.12
999.227	1901.4
999.523	1884.68
999.818	1873.61
1000.114	1869.09
1000.409	1820.05
1000.704	1833.16
1001	1841.29
1001.295	1819.83
1001.59	1789.54
1001.885	1787.06
1002.18	1785.02
1002.475	1794.97
1002.77	1784.35
1003.065	1758.81
1003.359	1748.64
1003.654	1734.86
1003.949	1754.29
1004.243	1725.82
1004.538	1701.64
1004.832	1702.54
1005.127	1722.65
1005.421	1667.29
1005.715	1663.67
1006.009	1685.59
1006.304	1659.83
1006.598	1664.8
1006.892	1642.88
1007.186	1590.68
1007.48	1612.82
1007.773	1637.23
1008.067	1638.13
1008.361	1596.33
1008.655	1600.85
1008.948	1588.19
1009.242	1566.95
1009.535	1559.27
1009.829	1559.04
1010.122	1532.37
1010.415	1545.26
1010.708	1535.99
1011.001	1510.68
1011.295	1515.2
1011.588	1502.77
1011.881	1498.25
1012.173	1507.74
1012.466	1488.31
1012.759	1489.44
1013.052	1469.1
1013.344	1466.39
1013.637	1431.36
1013.93	1452.6
1014.222	1426.16
1014.514	1399.72
1014.807	1437.01
1015.099	1409.44
1015.391	1400.4
1015.683	1374.86
1015.976	1377.12
1016.268	1391.36
1016.56	1368.31
1016.851	1368.99
1017.143	1368.99
1017.435	1334.64
1017.727	1319.05
1018.018	1302.78
1018.31	1308.2
1018.602	1311.36
1018.893	1303.45
1019.185	1311.36
1019.476	1271.14
1019.767	1269.78
1020.058	1286.05
1020.35	1271.59
1020.641	1240.63
1020.932	1265.04
1021.223	1236.79
1021.514	1225.26
1021.804	1242.67
1022.095	1219.16
1022.386	1209.67
1022.677	1204.02
1022.967	1191.14
1023.258	1171.93
1023.548	1195.21
1023.839	1193.85
1024.129	1184.81
1024.419	1161.31
1024.709	1153.63
1025	1138.94
1025.29	1139.62
1025.58	1112.72
1025.87	1119.05
1026.16	1098.49
1026.449	1139.39
1026.739	1082.9
1027.029	1093.97
1027.319	1082.67
1027.608	1093.29
1027.898	1062.56
1028.187	1063.69
1028.477	1077.02
1028.766	1056.91
1029.055	1052.39
1029.344	1057.59
1029.634	1046.06
1029.923	1023.01
1030.212	1028.66
1030.501	1039.73
1030.79	1013.29
1031.078	1001.09
1031.367	977.81
1031.656	1009.22
1031.945	980.07
1032.233	978.04
1032.522	973.97
1032.81	971.26
1033.099	959.06
1033.387	937.81
1033.675	967.42
1033.963	943.69
1034.251	920.87
1034.54	933.29
1034.828	935.1
1035.116	905.5
1035.403	922
1035.691	892.62
1035.979	906.63
1036.267	891.71
1036.554	898.04
1036.842	901.66
1037.129	882.45
1037.417	877.25
1037.704	868.21
1037.992	887.19
1038.279	875.22
1038.566	853.07
1038.853	853.07
1039.14	853.07
