Data from hue_80_FLMS001491_36.txt Node
Date: Mon Feb 06 15:22:55 GMT 2017
User: dcchb
Spectrometer: FLMS00149
Trigger mode: 0
Integration Time (sec): 2.000000E-2
Scans to average: 10
Electric dark correction enabled: true
Nonlinearity correction enabled: false
Boxcar width: 0
XAxis mode: Wavelengths
Number of Pixels in Spectrum: 2048
>>>>>Begin Spectral Data<<<<<
341.393	18.67
341.776	18.67
342.16	18.67
342.543	-57.71
342.927	-59.29
343.31	-64.04
343.693	-76.92
344.077	-54.32
344.46	-70.82
344.843	-45.51
345.226	-58.39
345.61	-63.59
345.993	-9.35
346.376	-4.6
346.759	14.15
347.142	32.68
347.525	56.64
347.908	67.03
348.291	64.09
348.674	102.29
349.057	110.65
349.44	141.61
349.823	156.75
350.206	170.98
350.588	189.97
350.971	204.2
351.354	214.37
351.737	240.13
352.119	234.71
352.502	276.52
352.884	272.45
353.267	291.21
353.65	296.86
354.032	289.17
354.414	287.82
354.797	323.97
355.179	319
355.562	293.69
355.944	302.05
356.326	310.42
356.709	346.35
357.091	333.92
357.473	352.67
357.855	364.43
358.238	325.1
358.62	333.24
359.002	330.3
359.384	351.54
359.766	352.45
360.148	340.7
360.53	321.49
360.912	322.84
361.294	310.64
361.676	329.85
362.057	324.88
362.439	309.96
362.821	321.94
363.203	325.78
363.584	333.47
363.966	328.04
364.348	347.7
364.729	316.29
365.111	320.58
365.493	307.48
365.874	339.57
366.256	328.04
366.637	317.42
367.019	323.52
367.4	304.31
367.781	298.44
368.163	326.46
368.544	316.74
368.925	320.13
369.306	327.82
369.688	316.52
370.069	303.86
370.45	310.19
370.831	313.35
371.212	313.81
371.593	304.09
371.974	324.43
372.355	312.45
372.736	319.23
373.117	330.3
373.498	315.16
373.879	307.7
374.26	297.99
374.641	316.97
375.021	309.06
375.402	316.97
375.783	320.58
376.163	324.43
376.544	323.3
376.925	342.28
377.305	330.3
377.686	318.1
378.066	317.42
378.447	327.59
378.827	331.66
379.208	313.58
379.588	318.1
379.968	334.6
380.349	318.32
380.729	335.27
381.109	346.8
381.489	334.82
381.87	337.08
382.25	315.16
382.63	337.76
383.01	336.63
383.39	353.8
383.77	356.52
384.15	335.73
384.53	345.22
384.91	347.02
385.29	344.76
385.67	353.8
386.049	359.45
386.429	332.56
386.809	345.67
387.189	351.54
387.568	353.13
387.948	345.67
388.328	356.29
388.707	352.67
389.087	346.57
389.466	345.67
389.846	356.74
390.225	351.09
390.605	389.06
390.984	371.2
391.363	356.52
391.743	368.04
392.122	363.52
392.501	374.59
392.881	364.2
393.26	376.4
393.639	370.53
394.018	394.48
394.397	382.96
394.776	389.51
395.155	376.85
395.534	395.16
395.913	369.85
396.292	374.14
396.671	373.01
397.05	391.32
397.429	376.4
397.808	382.96
398.186	375.05
398.565	391.77
398.944	378.66
399.323	378.66
399.701	380.47
400.08	390.64
400.458	397.64
400.837	383.63
401.215	402.39
401.594	399.68
401.972	395.39
402.351	393.58
402.729	424.99
403.107	414.37
403.486	408.04
403.864	402.16
404.242	407.81
404.62	389.06
404.999	402.16
405.377	434.93
405.755	432.45
406.133	407.59
406.511	406.68
406.889	429.73
407.267	432.67
407.645	415.27
408.023	433.8
408.401	438.1
408.779	436.97
409.156	441.03
409.534	442.39
409.912	423.63
410.29	454.14
410.667	450.75
411.045	452.33
411.422	418.89
411.8	470.86
412.178	457.53
412.555	449.85
412.933	464.08
413.31	453.24
413.687	463.18
414.065	473.58
414.442	502.05
414.819	474.71
415.197	474.48
415.574	460.69
415.951	452.78
416.328	466.8
416.705	487.13
417.082	475.83
417.46	485.78
417.837	490.07
418.214	476.51
418.591	477.64
418.967	503.18
419.344	514.03
419.721	516.96
420.098	515.38
420.475	491.43
420.852	510.41
421.228	504.31
421.605	508.6
421.982	528.04
422.358	541.82
422.735	504.76
423.111	516.74
423.488	543.18
423.864	535.27
424.241	547.47
424.617	525.55
424.994	521.26
425.37	539.56
425.746	546.79
426.123	531.2
426.499	544.31
426.875	557.19
427.251	566.23
427.627	576.62
428.003	579.79
428.379	574.82
428.756	563.97
429.132	590.41
429.507	605.78
429.883	584.76
430.259	589.28
430.635	596.06
431.011	613.91
431.387	619.11
431.763	626.79
432.138	633.8
432.514	644.42
432.89	638.99
433.265	638.54
433.641	641.48
434.016	643.51
434.392	654.81
434.767	670.86
435.143	641.71
435.518	663.17
435.894	662.27
436.269	671.08
436.644	687.81
437.02	680.58
437.395	696.17
437.77	698.88
438.145	704.98
438.52	695.26
438.895	701.14
439.271	717.86
439.646	748.82
440.021	726.22
440.395	740.23
440.77	732.1
441.145	736.62
441.52	746.34
441.895	751.76
442.27	755.15
442.645	757.86
443.019	779.56
443.394	784.98
443.769	772.1
444.143	796.73
444.518	783.17
444.892	772.55
445.267	808.71
445.641	797.41
446.016	807.8
446.39	799.89
446.764	811.19
447.139	804.87
447.513	801.48
447.887	810.97
448.262	813.68
448.636	810.06
449.01	828.37
449.384	816.16
449.758	847.58
450.132	885.54
450.506	843.28
450.88	829.05
451.254	858.88
451.628	871.76
452.002	887.8
452.376	881.7
452.75	901.59
453.123	899.33
453.497	895.94
453.871	905.88
454.244	931.87
454.618	953.34
454.992	959.66
455.365	948.82
455.739	947.01
456.112	950.62
456.486	979.55
456.859	991.08
457.232	1000.79
457.606	996.73
457.979	1018.65
458.352	1032.88
458.725	1032.66
459.099	1042.15
459.472	1074.24
459.845	1087.34
460.218	1081.92
460.591	1076.72
460.964	1089.6
461.337	1097.06
461.71	1152.65
462.083	1145.42
462.456	1151.98
462.829	1175.93
463.201	1184.97
463.574	1182.03
463.947	1203.5
464.32	1212.54
464.692	1251.41
465.065	1239.88
465.438	1279.43
465.81	1312.88
466.183	1307.45
466.555	1317.39
466.928	1345.64
467.3	1343.16
467.672	1374.57
468.045	1405.08
468.417	1413.21
468.789	1404.85
469.161	1448.92
469.534	1456.37
469.906	1539.31
470.278	1498.41
470.65	1545.86
471.022	1576.14
471.394	1660.21
471.766	1636.26
472.138	1659.53
472.51	1686.65
472.882	1706.31
473.253	1780.43
473.625	1793.77
473.997	1831.73
474.369	1855.01
474.74	1937.04
475.112	1921.45
475.484	1995.79
475.855	2013.65
476.227	2101.33
476.598	2139.52
476.97	2200.54
477.341	2246.64
477.713	2276.69
478.084	2295.22
478.455	2391.49
478.827	2437.37
479.198	2558.72
479.569	2569.79
479.94	2687.75
480.311	2713.74
480.682	2823.12
481.053	2920.97
481.424	2988.99
481.795	3065.15
482.166	3119.16
482.537	3225.14
482.908	3302.88
483.279	3375.87
483.65	3454.97
484.021	3564.79
484.391	3645.47
484.762	3749.87
485.133	3829.65
485.503	3979.25
485.874	4043.88
486.244	4155.96
486.615	4287.94
486.985	4357.99
487.356	4486.12
487.726	4555.5
488.097	4778.55
488.467	4819.22
488.837	4916.62
489.207	5087.24
489.578	5222.83
489.948	5311.19
490.318	5418.76
490.688	5556.61
491.058	5679.77
491.428	5820.33
491.798	5947.1
492.168	6083.15
492.538	6210.6
492.908	6354.32
493.278	6508.67
493.648	6538.27
494.017	6679.29
494.387	6833.63
494.757	7006.74
495.126	7136
495.496	7195.88
495.866	7366.5
496.235	7494.63
496.605	7644.91
496.974	7742.54
497.344	7920.61
497.713	7983.43
498.082	8130.32
498.452	8321.28
498.821	8347.04
499.19	8485.79
499.559	8554.04
499.928	8705.68
500.298	8846.01
500.667	8938.21
501.036	8971.43
501.405	9099.11
501.774	9224.08
502.143	9336.62
502.512	9406.67
502.88	9557.4
503.249	9648.25
503.618	9747.23
503.987	9776.38
504.356	9909.03
504.724	10102.47
505.093	10061.57
505.462	10207.78
505.83	10300.66
506.199	10486.42
506.567	10627.21
506.936	10534.1
507.304	10748.79
507.672	10846.18
508.041	10954.88
508.409	10965.5
508.777	11095.22
509.145	11241.65
509.514	11258.83
509.882	11382.44
510.25	11427.86
510.618	11500.86
510.986	11519.39
511.354	11675.77
511.722	11733.62
512.09	11875.08
512.458	11886.61
512.826	12003.67
513.193	12047.06
513.561	12078.24
513.929	12195.07
514.297	12299.7
514.664	12400.95
515.032	12377.67
515.4	12534.5
515.767	12616.76
516.135	12677.55
516.502	12616.76
516.869	12833.02
517.237	12881.16
517.604	12820.82
517.972	12976.98
518.339	13045
518.706	13046.58
519.073	13104.66
519.44	13176.29
519.808	13322.05
520.175	13182.39
520.542	13449.28
520.909	13383.74
521.276	13564.08
521.643	13617.64
522.009	13655.38
522.376	13702.61
522.743	13828.25
523.11	13902.37
523.477	14054.01
523.843	14024.63
524.21	14211.29
524.577	14298.75
524.943	14226.21
525.31	14256.49
525.676	14428.69
526.043	14501.45
526.409	14511.4
526.776	14661.9
527.142	14566.54
527.508	14684.5
527.874	14676.37
528.241	14700.09
528.607	14784.61
528.973	14823.71
529.339	14820.09
529.705	14924.04
530.071	15066.19
530.437	15097.15
530.803	15150.7
531.169	15129.23
531.535	15047.88
531.901	15110.25
532.267	15143.25
532.632	15244.49
532.998	15240.64
533.364	15281.32
533.73	15201.55
534.095	15332.39
534.461	15417.36
534.826	15345.05
535.192	15393.86
535.557	15466.63
535.923	15422.33
536.288	15358.83
536.653	15437.48
537.019	15403.35
537.384	15392.73
537.749	15404.03
538.114	15436.12
538.479	15488.77
538.845	15485.84
539.21	15479.06
539.575	15497.36
539.94	15545.04
540.305	15454.88
540.67	15438.61
541.034	15471.37
541.399	15415.78
541.764	15539.39
542.129	15545.72
542.494	15538.94
542.858	15440.64
543.223	15461.66
543.587	15496.91
543.952	15474.31
544.316	15459.17
544.681	15465.05
545.045	15504.59
545.41	15398.38
545.774	15545.27
546.138	15431.15
546.503	15489.45
546.867	15400.64
547.231	15507.76
547.595	15438.61
547.959	15478.38
548.324	15444.25
548.688	15491.49
549.052	15432.73
549.416	15500.3
549.779	15473.86
550.143	15343.92
550.507	15467.76
550.871	15544.14
551.235	15425.05
551.599	15470.69
551.962	15446.06
552.326	15465.05
552.689	15550.01
553.053	15439.06
553.417	15451.03
553.78	15577.13
554.143	15520.64
554.507	15517.47
554.87	15458.04
555.234	15626.4
555.597	15484.48
555.96	15458.49
556.323	15560.86
556.686	15524.03
557.05	15567.42
557.413	15602.67
557.776	15557.92
558.139	15642.22
558.502	15625.72
558.865	15592.5
559.228	15771.03
559.59	15675.21
559.953	15633.85
560.316	15792.27
560.679	15737.13
561.041	15818.48
561.404	15908.65
561.767	15942.55
562.129	15848.76
562.492	16029.32
562.854	15951.81
563.217	15867.52
563.579	15950.23
563.941	16039.27
564.304	16030.68
564.666	16103.22
565.028	16107.06
565.39	16127.63
565.753	16172.6
566.115	16225.25
566.477	16286.94
566.839	16267.28
567.201	16331.24
567.563	16287.62
567.925	16420.5
568.287	16349.77
568.648	16432.93
569.01	16491.46
569.372	16606.71
569.734	16511.35
570.095	16537.33
570.457	16591.12
570.819	16588.18
571.18	16660.49
571.542	16706.82
571.903	16716.09
572.265	16746.59
572.626	16754.95
572.987	16748.85
573.349	16808.29
573.71	16916.76
574.071	16881.51
574.432	16896.87
574.794	17021.16
575.155	16897.78
575.516	16767.61
575.877	16982.07
576.238	16991.56
576.599	17035.17
576.96	16970.32
577.32	17058.68
577.681	17031.11
578.042	17053.25
578.403	17102.06
578.763	17123.08
579.124	17103.42
579.485	17070.65
579.845	17217.09
580.206	17067.72
580.566	17143.19
580.927	17103.42
581.287	17178.45
581.648	17208.5
582.008	17286.92
582.368	17251.44
582.728	17222.51
583.089	17085.57
583.449	17108.17
583.809	17182.06
584.169	17246.24
584.529	17114.95
584.889	17311.1
585.249	17085.34
585.609	17084.66
585.969	17169.41
586.329	17060.26
586.688	17118.79
587.048	17133.93
587.408	17124.66
587.768	17110.43
588.127	17109.52
588.487	17013.93
588.846	17084.44
589.206	16997.43
589.565	17046.92
589.925	17099.13
590.284	17126.02
590.643	17131.22
591.003	17044.66
591.362	17119.47
591.721	17203.3
592.08	17079.01
592.44	17135.28
592.799	17148.16
593.158	17034.5
593.517	17014.61
593.876	17047.83
594.235	17041.05
594.593	17018.9
594.952	17060.94
595.311	16963.76
595.67	17046.92
596.029	17047.15
596.387	17170.54
596.746	17065.91
597.104	17085.12
597.463	17036.76
597.822	17047.83
598.18	16973.25
598.538	16917.66
598.897	16932.13
599.255	16872.47
599.613	17108.39
599.972	16953.59
600.33	17037.21
600.688	16902.07
601.046	17064.55
601.404	17149.75
601.762	17084.66
602.12	17184.77
602.478	17098.45
602.836	17128.96
603.194	17035.85
603.552	17084.21
603.91	17082.63
604.268	17137.77
604.625	17081.95
604.983	17114.04
605.341	17090.54
605.698	17079.69
606.056	17173.02
606.413	17180.25
606.771	17200.37
607.128	17181.84
607.485	17114.04
607.843	17118.34
608.2	17247.6
608.557	17302.29
608.914	17172.12
609.272	17295.28
609.629	17302.96
609.986	17355.39
610.343	17312.23
610.7	17396.97
611.057	17282.4
611.414	17358.78
611.771	17417.99
612.127	17481.72
612.484	17459.34
612.841	17443.3
613.198	17455.05
613.554	17464.31
613.911	17627.25
614.267	17493.01
614.624	17552.45
614.98	17595.61
615.337	17535.05
615.693	17601.49
616.05	17562.62
616.406	17704.08
616.762	17620.69
617.118	17585.22
617.475	17546.8
617.831	17654.82
618.187	17700.01
618.543	17725.1
618.899	17833.34
619.255	17776.17
619.611	17796.74
619.967	17852.55
620.323	17776.85
620.678	17771.65
621.034	17633.8
621.39	17779.79
621.746	17756.28
622.101	17923.06
622.457	17765.78
622.812	17747.25
623.168	17891.42
623.523	17839.22
623.879	17898.65
624.234	17797.41
624.589	17772.33
624.945	17879.67
625.3	17941.59
625.655	17897.98
626.01	17881.93
626.365	17897.98
626.72	17989.05
627.075	17828.82
627.43	17862.27
627.785	17855.49
628.14	17792.67
628.495	17829.73
628.85	17855.26
629.205	17768.26
629.559	17863.4
629.914	17744.53
630.269	17779.33
630.623	17679.45
630.978	17652.78
631.332	17711.31
631.687	17900.91
632.041	17655.5
632.396	17815.94
632.75	17712.44
633.104	17769.84
633.459	17622.05
633.813	17589.96
634.167	17693.69
634.521	17651.65
634.875	17620.92
635.229	17691.2
635.583	17497.08
635.937	17540.7
636.291	17544.76
636.645	17502.05
636.999	17546.57
637.352	17599.23
637.706	17443.07
638.06	17447.82
638.413	17381.61
638.767	17370.76
639.121	17374.6
639.474	17354.49
639.828	17400.14
640.181	17372.34
640.534	17411.89
640.888	17239.24
641.241	17307.48
641.594	17264.09
641.947	17319.01
642.301	17218.22
642.654	17279.69
643.007	17250.31
643.36	17236.98
643.713	17171.22
644.066	17254.15
644.419	17062.52
644.771	16994.72
645.124	16885.12
645.477	16878.34
645.83	16744.11
646.182	16739.59
646.535	16606.48
646.888	16665.24
647.24	16543.21
647.593	16670.66
647.945	16638.12
648.298	16540.95
648.65	16468.18
649.002	16524
649.355	16617.78
649.707	16505.47
650.059	16646.03
650.411	16847.61
650.763	16799.93
651.115	17052.35
651.467	16981.62
651.819	17055.06
652.171	16986.59
652.523	16965.12
652.875	17038.79
653.227	16853.94
653.578	17046.02
653.93	16981.16
654.282	16929.87
654.633	16867.49
654.985	16932.13
655.337	16884.44
655.688	16903.43
656.039	16970.77
656.391	16804.45
656.742	16856.2
657.094	16813.94
657.445	16858
657.796	16943.2
658.147	16928.96
658.498	16962.86
658.849	16984.78
659.2	16970.99
659.551	16862.52
659.902	17026.13
660.253	16982.29
660.604	16932.8
660.955	16878.34
661.306	16863.2
661.656	16877.89
662.007	16959.02
662.358	16945.91
662.708	16907.27
663.059	16999.92
663.409	16824.56
663.76	17001.73
664.11	16950.43
664.461	17041.95
664.811	17006.02
665.161	17005.34
665.511	16922.63
665.862	16953.37
666.212	16971.22
666.562	16978
666.912	17027.26
667.262	16988.4
667.612	16921.28
667.962	16984.33
668.312	16874.27
668.662	17101.84
669.011	16916.31
669.361	16845.35
669.711	16914.5
670.06	16901.62
670.41	16805.8
670.76	16873.82
671.109	16885.57
671.459	16791.34
671.808	16777.55
672.157	16909.75
672.507	16734.62
672.856	16735.07
673.205	16829.76
673.554	16794.28
673.904	16905.01
674.253	16838.12
674.602	16809.19
674.951	16560.84
675.3	16501.4
675.649	16686.93
675.998	16781.62
676.346	16726.03
676.695	16803.32
677.044	16661.62
677.393	16617.11
677.741	16749.08
678.09	16642.42
678.438	16602.87
678.787	16598.57
679.135	16534.17
679.484	16509.31
679.832	16598.57
680.181	16439.93
680.529	16484.45
680.877	16464.12
681.225	16366.94
681.573	16545.92
681.922	16412.37
682.27	16375.98
682.618	16340.05
682.966	16319.49
683.314	16270.45
683.661	16198.59
684.009	16147.74
684.357	16108.64
684.705	16175.99
685.053	16156.78
685.4	16086.72
685.748	16048.53
686.095	16030
686.443	16002.21
686.79	15931.93
687.138	15999.49
687.485	15978.25
687.832	15785.04
688.18	15933.51
688.527	15863.23
688.874	15784.13
689.221	15732.83
689.568	15652.61
689.915	15656.9
690.262	15625.49
690.609	15560.41
690.956	15510.24
691.303	15463.46
691.65	15465.72
691.997	15389.34
692.344	15280.42
692.69	15261.89
693.037	15307.76
693.383	15176.01
693.73	15197.03
694.077	15068.9
694.423	15121.33
694.769	15055.56
695.116	14941.44
695.462	14886.3
695.808	14941.9
696.155	14992.74
696.501	14750.26
696.847	14736.7
697.193	14669.36
697.539	14703.94
697.885	14633.88
698.231	14541.91
698.577	14489.25
698.923	14483.83
699.269	14507.33
699.614	14307.11
699.96	14310.05
700.306	14310.95
700.651	14155.25
700.997	14172.65
701.342	14123.16
701.688	14102.37
702.033	14061.01
702.379	13976.95
702.724	13864.86
703.069	13970.17
703.415	13835.26
703.76	13818.53
704.105	13822.83
704.45	13794.81
704.795	13646.79
705.14	13582.16
705.485	13651.76
705.83	13711.19
706.175	13563.4
706.52	13539.9
706.865	13476.85
707.209	13431.43
707.554	13438.43
707.899	13422.16
708.243	13396.17
708.588	13302.16
708.932	13228.72
709.277	13203.18
709.621	13190.98
709.966	13159.12
710.31	13127.48
710.654	12997.54
710.998	13071.44
711.342	12998.22
711.687	12987.14
712.031	12963.42
712.375	12842.97
712.719	12932.23
713.063	12900.59
713.407	12834.61
713.75	12799.35
714.094	12848.62
714.438	12667.38
714.782	12775.17
715.125	12656.08
715.469	12672.58
715.812	12571.34
716.156	12596.87
716.499	12575.86
716.843	12607.95
717.186	12538.34
717.53	12478.23
717.873	12589.64
718.216	12531.56
718.559	12484.11
718.902	12401.85
719.246	12421.28
719.589	12409.08
719.932	12324.79
720.275	12381.28
720.617	12326.37
720.96	12295.41
721.303	12289.31
721.646	12310.1
721.989	12258.12
722.331	12225.36
722.674	12262.19
723.016	12276.88
723.359	12298.8
723.701	12248.63
724.044	12112.59
724.386	12060.16
724.729	12162.99
725.071	12101.29
725.413	12063.55
725.755	12108.98
726.097	12065.13
726.439	11960.05
726.782	12053.84
727.124	12108.98
727.465	12123.21
727.807	12006.61
728.149	12002.31
728.491	11951.69
728.833	12006.61
729.175	11951.69
729.516	11968.64
729.858	11941.52
730.199	11915.08
730.541	11830.34
730.882	11939.26
731.224	12027.62
731.565	11940.62
731.906	11862.65
732.248	11873.73
732.589	11873.95
732.93	11891.35
733.271	11853.84
733.612	11897.46
733.953	11892.03
734.294	11940.84
734.635	11835.08
734.976	11849.55
735.317	11797.35
735.658	11830.56
735.999	11842.99
736.339	11832.82
736.68	11896.55
737.021	11797.35
737.361	11794.86
737.702	11928.19
738.042	11885.25
738.383	11842.32
738.723	11875.76
739.063	11786.72
739.404	11936.1
739.744	11836.67
740.084	11843.9
740.424	11867.4
740.764	11849.1
741.104	11925.48
741.444	11885.48
741.784	11838.47
742.124	11895.65
742.464	11930.9
742.804	11912.14
743.143	11961.63
743.483	11998.02
743.823	11815.88
744.162	11924.12
744.502	12000.96
744.841	12034.4
745.181	12108.98
745.52	12054.97
745.86	12121.18
746.199	12088.18
746.538	12149.65
746.877	12262.42
747.216	12255.64
747.556	12157.11
747.895	12400.49
748.234	12391.23
748.573	12369.53
748.911	12485.91
749.25	12534.95
749.589	12497.21
749.928	12516.42
750.267	12653.14
750.605	12730.88
750.944	12690.43
751.283	12796.41
751.621	12871.44
751.96	12885.23
752.298	13036.18
752.636	13134.49
752.975	13120.7
753.313	13033.24
753.651	13324.76
753.989	13378.32
754.327	13404.53
754.666	13482.72
755.004	13664.87
755.342	13757.97
755.679	13907.35
756.017	13905.99
756.355	14023.5
756.693	14085.42
757.031	14248.81
757.368	14257.39
757.706	14363.15
758.044	14564.96
758.381	14659.42
758.719	14684.27
759.056	14900.31
759.394	14936.02
759.731	14997.71
760.068	15093.3
760.405	15187.76
760.743	15276.12
761.08	15381.21
761.417	15432.28
761.754	15517.02
762.091	15710.01
762.428	15782.55
762.765	15807.41
763.102	15930.57
763.438	15998.82
763.775	16073.84
764.112	16156.78
764.449	16260.5
764.785	16366.72
765.122	16366.26
765.458	16427.28
765.795	16518.58
766.131	16617.11
766.467	16700.04
766.804	16724.9
767.14	16825.91
767.476	16850.55
767.812	16909.3
768.148	17117.66
768.485	17048.51
768.821	17081.05
769.157	17173.7
769.492	17187.49
769.828	17312.45
770.164	17210.54
770.5	17354.94
770.836	17424.77
771.171	17201.04
771.507	17326.24
771.842	17306.58
772.178	17371.21
772.513	17468.61
772.849	17445.33
773.184	17506.35
773.519	17554.71
773.855	17476.74
774.19	17460.02
774.525	17573.24
774.86	17497.76
775.195	17540.7
775.53	17521.49
775.865	17533.92
776.2	17438.55
776.535	17454.37
776.87	17389.06
777.205	17496.4
777.539	17364.2
777.874	17442.39
778.209	17314.94
778.543	17330.53
778.878	17230.42
779.212	17259.35
779.547	17273.81
779.881	17395.62
780.215	17262.74
780.55	17155.62
780.884	17171.67
781.218	17157.2
781.552	17235.39
781.886	17199.01
782.22	17121.5
782.554	17055.06
782.888	16927.61
783.222	16952.69
783.556	16766.48
783.889	16799.25
784.223	16692.58
784.557	16713.6
784.89	16757.67
785.224	16676.99
785.557	16636.54
785.891	16632.47
786.224	16652.58
786.558	16648.52
786.891	16485.58
787.224	16479.26
787.557	16468.86
787.891	16452.59
788.224	16348.19
788.557	16421.86
788.89	16392.03
789.223	16320.62
789.556	16194.74
789.888	16255.76
790.221	16064.35
790.554	16032.26
790.887	16134.86
791.219	16015.31
791.552	16000.17
791.884	15847.18
792.217	15848.99
792.549	15864.58
792.882	15758.82
793.214	15704.36
793.546	15739.16
793.879	15641.31
794.211	15594.53
794.543	15611.93
794.875	15499.39
795.207	15577.36
795.539	15485.61
795.871	15428.21
796.203	15380.75
796.535	15427.31
796.867	15202
797.198	15225.05
797.53	15213.98
797.862	15140.08
798.193	15167.2
798.525	15090.37
798.856	15200.87
799.188	14940.31
799.519	14945.51
799.85	14867.77
800.182	14789.81
800.513	14847.43
800.844	14734.67
801.175	14835.68
801.506	14808.57
801.837	14662.81
802.168	14695.12
802.499	14656.71
802.83	14593.2
803.161	14507.78
803.491	14437.05
803.822	14429.37
804.153	14433.21
804.483	14283.61
804.814	14303.27
805.145	14247.22
805.475	14265.3
805.805	14181.46
806.136	14247.45
806.466	14178.98
806.796	14165.19
807.126	13944.41
807.457	13957.51
807.787	14014.46
808.117	13894.01
808.447	13908.02
808.777	13935.82
809.107	13861.25
809.436	13820.57
809.766	13859.89
810.096	13764.98
810.426	13798.2
810.755	13749.61
811.085	13686.11
811.414	13752.32
811.744	13601.14
812.073	13516.85
812.403	13591.2
812.732	13458.32
813.061	13468.71
813.39	13403.18
813.719	13344.2
814.049	13482.5
814.378	13348.94
814.707	13407.92
815.036	13284.76
815.365	13226.01
815.693	13118.89
816.022	13168.38
816.351	13119.8
816.68	13092.23
817.008	13022.85
817.337	12931.55
817.665	12926.81
817.994	12985.79
818.322	12997.31
818.651	12880.25
818.979	12927.26
819.307	12916.86
819.636	12829.63
819.964	12773.82
820.292	12847.26
820.62	12786.47
820.948	12788.51
821.276	12771.33
821.604	12810.88
821.932	12789.18
822.259	12746.02
822.587	12817.21
822.915	12715.29
823.243	12662.86
823.57	12780.6
823.898	12798.22
824.225	12737.21
824.553	12713.48
824.88	12769.3
825.207	12804.55
825.535	12775.4
825.862	12847.04
826.189	12628.51
826.516	12742.18
826.843	12715.51
827.17	12727.04
827.497	12729.07
827.824	12752.35
828.151	12672.35
828.478	12760.26
828.805	12728.62
829.131	12728.39
829.458	12669.86
829.785	12608.85
830.111	12684.1
830.438	12799.58
830.764	12776.98
831.09	12747.38
831.417	12616.31
831.743	12682.75
832.069	12638.68
832.395	12679.81
832.722	12659.92
833.048	12614.27
833.374	12641.62
833.7	12556.2
834.026	12673.93
834.351	12659.92
834.677	12579.47
835.003	12617.21
835.329	12625.12
835.654	12486.82
835.98	12597.78
836.306	12557.78
836.631	12536.99
836.956	12532.02
837.282	12565.46
837.607	12489.53
837.932	12429.42
838.258	12411.34
838.583	12381.28
838.908	12273.26
839.233	12337.9
839.558	12323.88
839.883	12331.12
840.208	12284.34
840.533	12231.68
840.858	12282.76
841.182	12295.19
841.507	12148.97
841.832	12155.3
842.156	12137.22
842.481	12142.42
842.805	12096.32
843.13	12109.43
843.454	12099.48
843.778	11901.07
844.103	11975.87
844.427	11903.78
844.751	11961.63
845.075	11929.55
845.399	11859.04
845.723	11782.43
846.047	11852.03
846.371	11722.32
846.695	11721.64
847.019	11639.84
847.343	11635.54
847.666	11519.61
847.99	11522.78
848.313	11507.86
848.637	11378.15
848.96	11396.68
849.284	11361.2
849.607	11236.46
849.931	11241.88
850.254	11143.8
850.577	11070.36
850.9	11092.5
851.223	11089.57
851.546	10968.67
851.869	10875.56
852.192	10902
852.515	10904.94
852.838	10809.35
853.161	10795.79
853.483	10728.45
853.806	10790.37
854.129	10662.01
854.451	10717.83
854.774	10596.7
855.096	10595.34
855.419	10569.81
855.741	10484.61
856.063	10445.29
856.385	10451.39
856.708	10371.39
857.03	10362.81
857.352	10448.91
857.674	10321.68
857.996	10383.15
858.318	10241.91
858.64	10245.97
858.961	10161.46
859.283	10166.88
859.605	10148.35
859.926	10164.39
860.248	10149.7
860.57	10099.76
860.891	10117.16
861.212	10029.48
861.534	10048.24
861.855	9933.44
862.176	9970.95
862.498	9987.68
862.819	9907.45
863.14	9890.73
863.461	9816.15
863.782	9829.04
864.103	9827.68
864.424	9788.81
864.745	9864.97
865.065	9760.56
865.386	9737.96
865.707	9746.33
866.027	9756.27
866.348	9690.51
866.668	9734.35
866.989	9676.27
867.309	9607.35
867.63	9589.49
867.95	9631.07
868.27	9542.72
868.59	9548.14
868.91	9584.52
869.23	9624.29
869.55	9549.95
869.87	9613
870.19	9522.6
870.51	9510.85
870.83	9558.31
871.15	9514.47
871.469	9457.97
871.789	9494.58
872.109	9509.95
872.428	9409.16
872.748	9361.7
873.067	9387.01
873.386	9433.79
873.706	9384.75
874.025	9334.81
874.344	9337.07
874.663	9341.82
874.982	9308.15
875.301	9311.76
875.62	9220.24
875.939	9267.92
876.258	9276.28
876.577	9196.51
876.896	9234.47
877.214	9159.45
877.533	9118.09
877.852	9186.11
878.17	9215.49
878.489	9131.43
878.807	9071.77
879.125	9069.06
879.444	9111.09
879.762	9116.51
880.08	9060.02
880.398	8943.18
880.716	9035.61
881.034	9015.5
881.352	8989.06
881.67	8957.42
881.988	8964.65
882.306	8918.55
882.624	8960.13
882.941	8881.49
883.259	8803.07
883.577	8807.59
883.894	8836.29
884.212	8830.19
884.529	8798.55
884.846	8739.12
885.164	8779.35
885.481	8741.15
885.798	8748.16
886.115	8653.7
886.432	8645.11
886.75	8643.76
887.067	8645.11
887.383	8630.42
887.7	8606.24
888.017	8469.07
888.334	8587.94
888.651	8522.18
888.967	8478.11
889.284	8436.76
889.6	8430.88
889.917	8402.41
890.233	8395.4
890.55	8388.17
890.866	8303.43
891.182	8307.95
891.498	8293.93
891.815	8329.19
892.131	8315.85
892.447	8257.33
892.763	8221.17
893.079	8198.12
893.395	8117.44
893.71	8179.59
894.026	8073.38
894.342	8142.75
894.657	8093.71
894.973	7999.03
895.289	8019.14
895.604	7996.54
895.92	7927.84
896.235	7948.86
896.55	7907.05
896.865	7859.82
897.181	7811.91
897.496	7884.68
897.811	7814.4
898.126	7812.37
898.441	7728.75
898.756	7763.33
899.071	7703.44
899.386	7625.93
899.7	7606.04
900.015	7607.17
900.33	7571.47
900.644	7535.54
900.959	7497.12
901.273	7472.71
901.588	7424.8
901.902	7387.52
902.216	7415.54
902.531	7371.92
902.845	7324.69
903.159	7256.9
903.473	7297.8
903.787	7269.55
904.101	7226.84
904.415	7249.67
904.729	7273.62
905.042	7150.01
905.356	7152.72
905.67	7167.18
905.984	7102.1
906.297	7125.83
906.611	7020.3
906.924	7020.75
907.237	6995.66
907.551	6994.53
907.864	6967.64
908.177	6950.47
908.491	6954.76
908.804	6866.4
909.117	6843.35
909.43	6806.97
909.743	6741.43
910.056	6678.16
910.368	6683.13
910.681	6633.87
910.994	6674.77
911.307	6645.84
911.619	6618.05
911.932	6635.67
912.244	6561.78
912.557	6520.65
912.869	6500.08
913.181	6465.96
913.494	6420.09
913.806	6405.17
914.118	6383.48
914.43	6363.59
914.742	6322.23
915.054	6284.5
915.366	6289.47
915.678	6237.94
915.99	6268.23
916.302	6144.84
916.613	6198.4
916.925	6174.89
917.236	6191.39
917.548	6127.66
917.859	6106.2
918.171	6061
918.482	6062.58
918.794	6001.79
919.105	6058.51
919.416	6019.87
919.727	5945.52
920.038	5929.7
920.349	5848.12
920.66	5861.91
920.971	5821.01
921.282	5818.52
921.593	5773.55
921.903	5747.11
922.214	5743.95
922.525	5743.72
922.835	5679.31
923.146	5674.79
923.456	5665.98
923.767	5609.94
924.077	5631.41
924.387	5647.45
924.697	5582.14
925.008	5480.68
925.318	5551.41
925.628	5554.12
925.938	5485.65
926.248	5431.41
926.558	5435.03
926.867	5391.86
927.177	5408.59
927.487	5390.96
927.796	5334.69
928.106	5335.59
928.416	5266.9
928.725	5280.45
929.034	5243.17
929.344	5264.86
929.653	5250.85
929.962	5141.02
930.271	5151.42
930.581	5183.73
930.89	5099.44
931.199	5074.13
931.508	5076.62
931.817	5119.55
932.125	5062.16
932.434	5026.68
932.743	5004.98
933.051	4955.94
933.36	4986.68
933.669	4919.33
933.977	4914.36
934.286	4870.97
934.594	4894.02
934.902	4852.44
935.21	4864.65
935.519	4806.57
935.827	4798.21
936.135	4788.26
936.443	4727.7
936.751	4709.4
937.059	4720.24
937.367	4703.75
937.674	4695.84
937.982	4711.66
938.29	4636.18
938.597	4636.4
938.905	4574.48
939.213	4595.73
939.52	4521.6
939.827	4529.97
940.135	4518.44
940.442	4466.92
940.749	4507.82
941.056	4477.54
941.363	4427.37
941.67	4418.33
941.977	4385.79
942.284	4354.38
942.591	4369.07
942.898	4348.28
943.205	4339.91
943.511	4315.06
943.818	4292.91
944.125	4293.59
944.431	4278.22
944.738	4247.04
945.044	4202.06
945.35	4198.45
945.657	4193.48
945.963	4184.44
946.269	4175.17
946.575	4141.95
946.881	4121.39
947.187	4101.05
947.493	4063.54
947.799	4061.5
948.105	4009.98
948.41	4024.67
948.716	4031.9
949.022	3982.41
949.327	3971.79
949.633	3936.08
949.938	3954.16
950.244	3953.03
950.549	3894.73
950.854	3884.33
951.16	3884.33
951.465	3893.82
951.77	3836.88
952.075	3847.72
952.38	3846.82
952.685	3815.86
952.99	3764.56
953.294	3764.34
953.599	3741.96
953.904	3703.77
954.209	3695.41
954.513	3696.77
954.818	3661.06
955.122	3700.61
955.426	3657.45
955.731	3609.76
956.035	3597.56
956.339	3589.43
956.643	3634.4
956.948	3582.42
957.252	3579.71
957.556	3530.44
957.86	3539.71
958.163	3537.9
958.467	3486.38
958.771	3496.77
959.075	3493.61
959.378	3436.44
959.682	3439.37
959.985	3426.49
960.289	3435.08
960.592	3381.75
960.896	3398.47
961.199	3390.56
961.502	3342.43
961.805	3327.96
962.108	3333.61
962.411	3319.83
962.714	3280.73
963.017	3271.47
963.32	3257.46
963.623	3247.06
963.926	3246.61
964.228	3203.45
964.531	3231.69
964.833	3209.1
965.136	3207.74
965.438	3170.91
965.741	3174.07
966.043	3150.34
966.345	3125.26
966.648	3104.69
966.95	3128.87
967.252	3093.85
967.554	3091.81
967.856	3054.98
968.158	3052.49
968.46	3078.25
968.761	3061.53
969.063	3001.87
969.365	2971.81
969.666	3007.97
969.968	2949.44
970.269	2956.45
970.571	2966.62
970.872	2972.72
971.174	2927.75
971.475	2938.6
971.776	2864.7
972.077	2896.34
972.378	2861.53
972.679	2889.33
972.98	2817.47
973.281	2838.94
973.582	2858.37
973.883	2820.86
974.183	2804.59
974.484	2815.89
974.785	2777.02
975.085	2770.01
975.386	2779.28
975.686	2737.92
975.986	2721.88
976.287	2715.1
976.587	2690.92
976.887	2673.29
977.187	2713.29
977.487	2658.15
977.787	2644.59
978.087	2637.13
978.387	2606.85
978.687	2653.18
978.987	2603.01
979.286	2639.17
979.586	2589.45
979.885	2619.51
980.185	2547.87
980.484	2561.43
980.784	2549.45
981.083	2554.88
981.382	2520.98
981.682	2508.55
981.981	2480.3
982.28	2512.62
982.579	2476.01
982.878	2469.45
983.177	2489.79
983.475	2429.91
983.774	2450.92
984.073	2426.29
984.372	2408.67
984.67	2420.87
984.969	2402.79
985.267	2389.91
985.566	2369.34
985.864	2412.73
986.162	2370.93
986.461	2344.94
986.759	2329.8
987.057	2351.94
987.355	2283.25
987.653	2296.13
987.951	2257.71
988.249	2267.2
988.547	2281.44
988.844	2269.46
989.142	2300.42
989.44	2231.72
989.737	2232.85
990.035	2255.68
990.332	2215
990.63	2242.34
990.927	2164.38
991.224	2184.94
991.521	2163.02
991.819	2165.51
992.116	2146.3
992.413	2138.62
992.71	2142.23
993.006	2141.78
993.303	2102.23
993.6	2100.2
993.897	2110.37
994.193	2133.42
994.49	2051.61
994.787	2075.57
995.083	2058.84
995.379	2020.65
995.676	2065.17
995.972	2026.98
996.268	2003.03
996.565	1988.56
996.861	2002.12
997.157	1999.41
997.453	1988.11
997.749	1986.08
998.044	1953.08
998.34	1936.81
998.636	1958.96
998.932	1918.06
999.227	1919.19
999.523	1907.21
999.818	1883.48
1000.114	1884.16
1000.409	1887.1
1000.704	1844.39
1001	1856.82
1001.295	1850.71
1001.59	1850.26
1001.885	1845.06
1002.18	1844.39
1002.475	1806.65
1002.77	1811.39
1003.065	1791.73
1003.359	1777.95
1003.654	1763.03
1003.949	1801.45
1004.243	1754.67
1004.538	1727.1
1004.832	1755.12
1005.127	1735.01
1005.421	1726.65
1005.715	1717.38
1006.009	1701.34
1006.304	1688.68
1006.598	1711.28
1006.892	1663.37
1007.186	1685.07
1007.48	1648.91
1007.773	1645.3
1008.067	1652.3
1008.361	1603.94
1008.655	1626.99
1008.948	1597.39
1009.242	1611.4
1009.535	1583.38
1009.829	1600.55
1010.122	1587.67
1010.415	1599.2
1010.708	1550.83
1011.001	1553.09
1011.295	1563.94
1011.588	1530.04
1011.881	1522.59
1012.173	1506.09
1012.466	1520.1
1012.759	1519.42
1013.052	1511.97
1013.344	1492.31
1013.637	1477.39
1013.93	1483.72
1014.222	1461.12
1014.514	1446.43
1014.807	1470.84
1015.099	1447.33
1015.391	1427.9
1015.683	1425.64
1015.976	1403.49
1016.268	1392.42
1016.56	1384.96
1016.851	1372.08
1017.143	1377.05
1017.435	1385.87
1017.727	1337.73
1018.018	1347.68
1018.31	1355.59
1018.602	1332.31
1018.893	1357.62
1019.185	1360.78
1019.476	1311.52
1019.767	1283.27
1020.058	1287.57
1020.35	1289.15
1020.641	1290.28
1020.932	1266.1
1021.223	1285.98
1021.514	1259.32
1021.804	1258.64
1022.095	1248.7
1022.386	1194.01
1022.677	1217.28
1022.967	1201.69
1023.258	1198.3
1023.548	1191.3
1023.839	1229.71
1024.129	1177.74
1024.419	1184.52
1024.709	1144.29
1025	1161.92
1025.29	1172.77
1025.58	1174.35
1025.87	1132.09
1026.16	1128.25
1026.449	1111.75
1026.739	1136.38
1027.029	1120.56
1027.319	1116.5
1027.608	1102.71
1027.898	1118.3
1028.187	1094.8
1028.477	1081.24
1028.766	1058.19
1029.055	1092.09
1029.344	1044.41
1029.634	1046.89
1029.923	1048.7
1030.212	1058.42
1030.501	1045.54
1030.79	1033.11
1031.078	1009.15
1031.367	1026.33
1031.656	1016.84
1031.945	997.63
1032.233	991.08
1032.522	1000.79
1032.81	977.74
1033.099	948.82
1033.387	956.73
1033.675	985.43
1033.963	978.19
1034.251	974.35
1034.54	963.96
1034.828	961.92
1035.116	952.21
1035.403	936.84
1035.691	933.9
1035.979	913.34
1036.267	919.21
1036.554	926.44
1036.842	888.48
1037.129	905.43
1037.417	855.94
1037.704	898.2
1037.992	894.36
1038.279	884.19
1038.566	859.1
1038.853	859.1
1039.14	859.1
