Data from hue_30_FLMS001491_57.txt Node
Date: Mon Feb 06 15:05:36 GMT 2017
User: dcchb
Spectrometer: FLMS00149
Trigger mode: 0
Integration Time (sec): 2.000000E-2
Scans to average: 10
Electric dark correction enabled: true
Nonlinearity correction enabled: false
Boxcar width: 0
XAxis mode: Wavelengths
Number of Pixels in Spectrum: 2048
>>>>>Begin Spectral Data<<<<<
341.393	-11.29
341.776	-11.29
342.16	-11.29
342.543	-56.48
342.927	-78.18
343.31	-71.85
343.693	-74.79
344.077	-76.59
344.46	-55.13
344.843	-38.63
345.226	-47.67
345.61	-34.34
345.993	-21.45
346.376	0.92
346.759	16.74
347.142	28.26
347.525	44.31
347.908	47.47
348.291	67.81
348.674	100.35
349.057	114.59
349.44	115.49
349.823	146.22
350.206	165.43
350.588	195.04
350.971	210.18
351.354	229.16
351.737	226.67
352.119	249.27
352.502	255.6
352.884	266.22
353.267	288.37
353.65	313.68
354.032	302.38
354.414	323.62
354.797	294.47
355.179	313.23
355.562	312.32
355.944	310.06
356.326	348.93
356.709	338.31
357.091	327.24
357.473	352.32
357.855	337.41
358.238	330.63
358.62	340.12
359.002	339.44
359.384	353.68
359.766	341.25
360.148	329.05
360.53	341.02
360.912	332.43
361.294	327.01
361.676	314.81
362.057	331.98
362.439	313.68
362.821	325.43
363.203	310.74
363.584	313.23
363.966	344.86
364.348	313.9
364.729	327.24
365.111	310.29
365.493	334.92
365.874	323.85
366.256	320.91
366.637	312.55
367.019	320.91
367.4	319.33
367.781	307.35
368.163	304.41
368.544	303.28
368.925	298.76
369.306	317.97
369.688	298.54
370.069	311.42
370.45	326.79
370.831	297.18
371.212	317.52
371.593	315.49
371.974	305.54
372.355	306.9
372.736	305.54
373.117	327.69
373.498	308.03
373.879	313
374.26	287.69
374.641	309.84
375.021	304.86
375.402	309.38
375.783	323.4
376.163	336.05
376.544	337.86
376.925	325.2
377.305	309.61
377.686	334.92
378.066	326.11
378.447	335.82
378.827	320.23
379.208	352.55
379.588	344.64
379.968	321.81
380.349	323.85
380.729	309.38
381.109	328.59
381.489	329.5
381.87	327.46
382.25	354.13
382.63	333.79
383.01	339.44
383.39	342.15
383.77	338.54
384.15	332.66
384.53	319.1
384.91	348.03
385.29	338.99
385.67	347.8
386.049	355.03
386.429	344.86
386.809	354.36
387.189	350.51
387.568	330.17
387.948	353.68
388.328	335.6
388.707	356.39
389.087	365.2
389.466	339.89
389.846	375.82
390.225	354.36
390.605	370.4
390.984	369.5
391.363	348.25
391.743	372.21
392.122	354.13
392.501	362.94
392.881	372.43
393.26	362.49
393.639	353.9
394.018	374.47
394.397	381.25
394.776	388.25
395.155	370.85
395.534	385.99
395.913	370.4
396.292	375.82
396.671	382.38
397.05	401.36
397.429	377.63
397.808	380.34
398.186	369.72
398.565	384.64
398.944	383.05
399.323	387.35
399.701	401.59
400.08	413.11
400.458	406.33
400.837	377.18
401.215	401.13
401.594	404.75
401.972	411.75
402.351	401.59
402.729	419.21
403.107	424.41
403.486	417.63
403.864	415.14
404.242	432.32
404.62	395.48
404.999	438.87
405.377	405.2
405.755	407.24
406.133	399.33
406.511	423.05
406.889	422.83
407.267	412.66
407.645	419.44
408.023	425.54
408.401	407.91
408.779	438.87
409.156	436.16
409.534	432.77
409.912	467.57
410.29	445.88
410.667	434.35
411.045	445.65
411.422	450.62
411.8	458.53
412.178	458.31
412.555	467.57
412.933	443.39
413.31	452.66
413.687	456.05
414.065	470.06
414.442	475.26
414.819	471.64
415.197	471.19
415.574	488.36
415.951	470.51
416.328	490.4
416.705	493.33
417.082	472.77
417.46	487.01
417.837	467.8
418.214	497.85
418.591	502.37
418.967	493.79
419.344	498.31
419.721	504.18
420.098	490.17
420.475	514.35
420.852	521.81
421.228	502.83
421.605	517.29
421.982	516.38
422.358	512.99
422.735	535.59
423.111	536.27
423.488	529.49
423.864	522.49
424.241	552.54
424.617	544.41
424.994	532.43
425.37	554.58
425.746	527.68
426.123	532.2
426.499	556.16
426.875	566.78
427.251	557.06
427.627	573.56
428.003	576.72
428.379	570.39
428.756	598.19
429.132	601.58
429.507	580.79
429.883	587.8
430.259	585.31
430.635	586.44
431.011	588.25
431.387	606.1
431.763	607.68
432.138	634.12
432.514	625.53
432.89	627.79
433.265	639.09
433.641	642.48
434.016	638.64
434.392	649.71
434.767	652.43
435.143	635.7
435.518	672.09
435.894	665.53
436.269	672.09
436.644	668.25
437.02	662.37
437.395	691.07
437.77	693.78
438.145	682.48
438.52	706.44
438.895	707.57
439.271	701.92
439.646	720.45
440.021	715.02
440.395	737.85
440.77	734.46
441.145	723.84
441.52	747.57
441.895	727
442.27	733.55
442.645	757.73
443.019	760.67
443.394	743.27
443.769	775.36
444.143	729.94
444.518	777.17
444.892	741.46
445.267	773.33
445.641	776.49
446.016	786.21
446.39	804.74
446.764	767.45
447.139	784.85
447.513	800.45
447.887	793.21
448.262	811.07
448.636	789.37
449.01	824.4
449.384	816.49
449.758	846.32
450.132	845.42
450.506	834.12
450.88	844.96
451.254	829.14
451.628	860.33
452.002	852.87
452.376	842.93
452.75	862.82
453.123	836.6
453.497	856.04
453.871	882.93
454.244	872.76
454.618	895.13
454.992	931.52
455.365	922.93
455.739	930.84
456.112	948.69
456.486	942.36
456.859	954.34
457.232	943.72
457.606	965.41
457.979	972.19
458.352	986.88
458.725	1020.1
459.099	1009.25
459.472	1004.28
459.845	1017.84
460.218	1026.65
460.591	1039.76
460.964	1051.96
461.337	1056.71
461.71	1098.29
462.083	1094.9
462.456	1100.55
462.829	1095.8
463.201	1122.92
463.574	1113.66
463.947	1157.05
464.32	1175.12
464.692	1162.92
465.065	1167.44
465.438	1195.01
465.81	1236.14
466.183	1206.99
466.555	1241.34
466.928	1247.44
467.3	1232.98
467.672	1278.85
468.045	1284.95
468.417	1307.32
468.789	1335.8
469.161	1344.39
469.534	1360.2
469.906	1369.24
470.278	1391.62
470.65	1424.16
471.022	1456.47
471.394	1424.16
471.766	1476.59
472.138	1469.13
472.51	1519.3
472.882	1552.52
473.253	1542.57
473.625	1597.26
473.997	1624.83
474.369	1630.03
474.74	1632.29
475.112	1675.45
475.484	1738.5
475.855	1746.86
476.227	1763.13
476.598	1847.88
476.97	1842.23
477.341	1877.7
477.713	1906.4
478.084	1946.18
478.455	2039.96
478.827	2035.44
479.198	2107.08
479.569	2085.38
479.94	2160.41
480.311	2167.64
480.682	2222.55
481.053	2270.24
481.424	2351.82
481.795	2383
482.166	2402.66
482.537	2476.11
482.908	2525.37
483.279	2587.06
483.65	2605.14
484.021	2690.79
484.391	2722.2
484.762	2787.29
485.133	2840.62
485.503	2887.85
485.874	2980.05
486.244	2971.24
486.615	3083.77
486.985	3108.86
487.356	3187.27
487.726	3205.58
488.097	3328.06
488.467	3331.9
488.837	3418
489.207	3463.43
489.578	3564.89
489.948	3590.43
490.318	3655.51
490.688	3669.07
491.058	3732.8
491.428	3806.47
491.798	3890.76
492.168	3972.79
492.538	3986.35
492.908	4087.59
493.278	4179.11
493.648	4180.47
494.017	4238.77
494.387	4261.6
494.757	4284.42
495.126	4372.78
495.496	4442.84
495.866	4457.52
496.235	4511.53
496.605	4640.8
496.974	4665.2
497.344	4653.68
497.713	4734.13
498.082	4802.37
498.452	4838.3
498.821	4923.95
499.19	4897.51
499.559	4955.36
499.928	5035.14
500.298	5074.68
500.667	5108.58
501.036	5073.55
501.405	5149.94
501.774	5155.36
502.143	5229.48
502.512	5337.05
502.88	5318.74
503.249	5322.59
503.618	5364.84
503.987	5415.01
504.356	5498.17
504.724	5538.4
505.093	5531.39
505.462	5579.75
505.83	5630.37
506.199	5694.1
506.567	5714.89
506.936	5702.46
507.304	5800.77
507.672	5829.47
508.041	5848
508.409	5891.38
508.777	5925.28
509.145	5912.18
509.514	6011.38
509.882	6060.19
510.25	6013.42
510.618	6119.63
510.986	6089.57
511.354	6242.56
511.722	6183.58
512.09	6308.1
512.458	6297.48
512.826	6273.3
513.193	6352.62
513.561	6336.8
513.929	6396
514.297	6490.69
514.664	6480.75
515.032	6461.99
515.4	6579.28
515.767	6617.92
516.135	6587.41
516.502	6593.51
516.869	6702.21
517.237	6687.3
517.604	6664.92
517.972	6789.67
518.339	6770.91
518.706	6786.05
519.073	6812.49
519.44	6816.11
519.808	6908.08
520.175	6968.19
520.542	7040.06
520.909	7021.52
521.276	7028.3
521.643	7122.09
522.009	7136.32
522.376	7110.56
522.743	7191.01
523.11	7281.63
523.477	7293.83
523.843	7307.17
524.21	7363.66
524.577	7428.29
524.943	7457.67
525.31	7481.85
525.676	7644.11
526.043	7609.08
526.409	7644.56
526.776	7685.24
527.142	7697.66
527.508	7803.2
527.874	7748.51
528.241	7868.51
528.607	7858.11
528.973	7916.19
529.339	7973.59
529.705	7955.29
530.071	8044.55
530.437	8101.95
530.803	8137.43
531.169	8135.17
531.535	8178.56
531.901	8313.02
532.267	8286.12
532.632	8263.07
532.998	8312.56
533.364	8415.84
533.73	8360.25
534.095	8448.15
534.461	8453.58
534.826	8560.69
535.192	8586.46
535.557	8633.46
535.923	8617.19
536.288	8639.33
536.653	8702.38
537.019	8665.1
537.384	8842.95
537.749	8834.58
538.114	8851.76
538.479	8864.87
538.845	8950.29
539.21	8903.06
539.575	8974.02
539.94	8981.7
540.305	9094.01
540.67	9069.61
541.034	9071.41
541.399	9192.54
541.764	9170.85
542.129	9241.35
542.494	9315.7
542.858	9306.66
543.223	9309.15
543.587	9350.28
543.952	9364.74
544.316	9305.08
544.681	9508.69
545.045	9520.22
545.41	9521.8
545.774	9597.73
546.138	9642.25
546.503	9626.2
546.867	9704.17
547.231	9769.47
547.595	9711.17
547.959	9767.21
548.324	9694.9
548.688	9817.84
549.052	9858.51
549.416	9933.31
549.779	9978.96
550.143	10007.89
550.507	10075.91
550.871	10060.54
551.235	10001.56
551.599	10095.79
551.962	10232.74
552.326	10196.36
552.689	10251.72
553.053	10236.58
553.417	10292.85
553.78	10393.87
554.143	10310.25
554.507	10373.98
554.87	10393.64
555.234	10493.07
555.597	10426.41
555.96	10537.82
556.323	10621.66
556.686	10545.27
557.05	10685.38
557.413	10573.07
557.776	10704.59
558.139	10733.07
558.502	10674.76
558.865	10743.91
559.228	10767.64
559.59	10838.6
559.953	10869.78
560.316	11030.68
560.679	11046.05
561.041	11090.57
561.404	11046.73
561.767	11097.35
562.129	11161.3
562.492	11253.28
562.854	11190.91
563.217	11179.16
563.579	11242.2
563.941	11347.06
564.304	11346.83
564.666	11405.36
565.028	11417.79
565.39	11395.19
565.753	11571.46
566.115	11563.33
566.477	11636.77
566.839	11643.1
567.201	11652.36
567.563	11646.94
567.925	11774.85
568.287	11832.47
568.648	11860.95
569.01	11944.78
569.372	12060.94
569.734	11951.56
570.095	12111.11
570.457	12043.09
570.819	12162.41
571.18	12218.68
571.542	12293.7
571.903	12311.33
572.265	12363.53
572.626	12419.57
572.987	12416.64
573.349	12433.59
573.71	12567.59
574.071	12666.35
574.432	12766.46
574.794	12812.11
575.155	12892.78
575.516	12825.21
575.877	13019.56
576.238	13043.96
576.599	13231.98
576.96	13272.89
577.32	13372.09
577.681	13388.36
578.042	13532.31
578.403	13633.78
578.763	13674.46
579.124	13845.07
579.485	13966.43
579.845	14088.01
580.206	14108.8
580.566	14278.73
580.927	14488.67
581.287	14574.09
581.648	14758.27
582.008	14961.65
582.368	15000.52
582.728	15177.47
583.089	15337.46
583.449	15528.19
583.809	15609.1
584.169	15836.66
584.529	16003.66
584.889	16313.94
585.249	16383.76
585.609	16572.69
585.969	16719.57
586.329	16921.6
586.688	17241.14
587.048	17475.26
587.408	17659.66
587.768	17761.81
588.127	18020.56
588.487	18215.13
588.846	18522.24
589.206	18690.37
589.565	18910.7
589.925	19253.07
590.284	19417.13
590.643	19704.13
591.003	20007.4
591.362	20171.46
591.721	20420.72
592.08	20664.1
592.44	20981.61
592.799	21255.73
593.158	21451.88
593.517	21667.69
593.876	21935.03
594.235	22141.8
594.593	22522.81
594.952	22788.57
595.311	22926.87
595.67	23275.79
596.029	23524.59
596.387	23892.72
596.746	24145.59
597.104	24366.38
597.463	24565.7
597.822	24908.29
598.18	24985.12
598.538	25254.27
598.897	25708.26
599.255	25667.14
599.613	26226.44
599.972	26265.09
600.33	26656.26
600.688	26648.13
601.046	26993.65
601.404	27408.11
601.762	27526.07
602.12	27872.5
602.478	28066.17
602.836	28364.24
603.194	28386.16
603.552	28696.66
603.91	28852.36
604.268	29138.23
604.625	29271.79
604.983	29583.19
605.341	29619.57
605.698	29962.84
606.056	30231.08
606.413	30261.59
606.771	30515.37
607.128	30709.72
607.485	30828.58
607.843	30988.13
608.2	31510.37
608.557	31626.3
608.914	31596.92
609.272	32002.11
609.629	32207.3
609.986	32339.28
610.343	32417.69
610.7	32729.78
611.057	32858.59
611.414	32955.08
611.771	33116.43
612.127	33419.25
612.484	33521.62
612.841	33767.71
613.198	33777.66
613.554	33967.03
613.911	34218.1
614.267	34247.93
614.624	34338.77
614.98	34547.81
615.337	34795.26
615.693	34793.68
616.05	34943.95
616.406	35240.67
616.762	35227.11
617.118	35232.08
617.475	35317.28
617.831	35535.12
618.187	35688.34
618.543	35901.44
618.899	36079.52
619.255	36244.94
619.611	36182.34
619.967	36369.45
620.323	36566.51
620.678	36431.6
621.034	36500.3
621.39	36573.74
621.746	36456.68
622.101	37051.47
622.457	36893.73
622.812	37060.51
623.168	37052.6
623.523	37285.14
623.879	37313.16
624.234	37131.92
624.589	37218.47
624.945	37298.69
625.3	37488.07
625.655	37573.94
626.01	37578.46
626.365	37695.07
626.72	37716.31
627.075	37619.59
627.43	37786.82
627.785	37721.28
628.14	37892.13
628.495	38017.77
628.85	37939.58
629.205	37788.85
629.559	38066.13
629.914	37831.11
630.269	38031.56
630.623	38038.79
630.978	37963.54
631.332	38047.38
631.687	38324.88
632.041	38025.45
632.396	38244.66
632.75	37985
633.104	38167.15
633.459	37998.34
633.813	38118.79
634.167	38103.87
634.521	38086.24
634.875	38087.6
635.229	38086.7
635.583	37824.1
635.937	38035.62
636.291	37905.01
636.645	38128.73
636.999	38031.78
637.352	38115.17
637.706	37925.8
638.06	38064.55
638.413	38006.02
638.767	37947.04
639.121	37988.17
639.474	37677.67
639.828	37856.65
640.181	37896.64
640.534	37932.12
640.888	37895.74
641.241	37668.63
641.594	37824.56
641.947	37963.76
642.301	37831.11
642.654	37847.61
643.007	37732.36
643.36	37840.83
643.713	37600.83
644.066	37944.78
644.419	37657.33
644.771	37421.18
645.124	37178.25
645.477	37058.93
645.83	36931.25
646.182	36752.72
646.535	36637.24
646.888	36883.11
647.24	36585.94
647.593	36756.11
647.945	36580.52
648.298	36531.03
648.65	36488.32
649.002	36441.32
649.355	36566.28
649.707	36436.34
650.059	36544.82
650.411	37086.95
650.763	37132.6
651.115	37483.1
651.467	37296.66
651.819	37444
652.171	37227.06
652.523	37121.07
652.875	37299.82
653.227	36973.96
653.578	37297.11
653.93	37229.54
654.282	37185.03
654.633	36993.62
654.985	37173.73
655.337	37120.85
655.688	37089.89
656.039	37349.77
656.391	36956.56
656.742	37059.38
657.094	37071.13
657.445	37200.84
657.796	36983.9
658.147	37018.7
658.498	36962.43
658.849	36985.26
659.2	36918.82
659.551	36886.28
659.902	36955.2
660.253	36914.07
660.604	37025.48
660.955	36813.06
661.306	36976.44
661.656	36742.32
662.007	36981.64
662.358	36871.14
662.708	36818.71
663.059	36936.9
663.409	36637.69
663.76	36871.59
664.11	36800.63
664.461	36883.34
664.811	36772.61
665.161	36838.14
665.511	36758.37
665.862	36738.94
666.212	36957.91
666.562	36891.7
666.912	36814.41
667.262	36806.05
667.612	36901.87
667.962	36856.22
668.312	36733.51
668.662	36910.46
669.011	36760.63
669.361	36798.37
669.711	36714.98
670.06	36678.37
670.41	36564.48
670.76	36582.56
671.109	36789.78
671.459	36588.43
671.808	36507.75
672.157	36717.47
672.507	36418.49
672.856	36451.49
673.205	36707.07
673.554	36763.57
673.904	36443.8
674.253	36701.87
674.602	36491.26
674.951	35994.55
675.3	35910.71
675.649	36395.22
675.998	36357.25
676.346	36321.32
676.695	36448.1
677.044	36244.71
677.393	36411.94
677.741	36374.65
678.09	36252.85
678.438	36143.7
678.787	36259.63
679.135	36181.66
679.484	35972.18
679.832	36273.86
680.181	35986.86
680.529	36023.7
680.877	35948
681.225	36108.67
681.573	36164.49
681.922	35938.73
682.27	35829.35
682.618	35806.98
682.966	35860.99
683.314	35714.1
683.661	35688.34
684.009	35530.15
684.357	35545.75
684.705	35446.77
685.053	35443.38
685.4	35462.81
685.748	35167.9
686.095	35298.3
686.443	35136.94
686.79	35178.98
687.138	35010.39
687.485	35085.87
687.832	34842.94
688.18	34956.84
688.527	34762.49
688.874	34849.49
689.221	34620.8
689.568	34598.2
689.915	34520.69
690.262	34504.87
690.609	34428.04
690.956	34296.51
691.303	34281.37
691.65	34108.5
691.997	34093.35
692.344	33955.05
692.69	33811.1
693.037	33831.67
693.383	33592.35
693.73	33840.48
694.077	33616.76
694.423	33592.58
694.769	33621.28
695.116	33285.47
695.462	33269.42
695.808	33223.32
696.155	33292.02
696.501	32962.54
696.847	32966.6
697.193	32883.44
697.539	32855.87
697.885	32733.39
698.231	32592.83
698.577	32622.43
698.923	32607.29
699.269	32423.12
699.614	32229.45
699.96	32259.96
700.306	32217.02
700.651	32130.69
700.997	31984.94
701.342	31968.89
701.688	31930.25
702.033	31805.05
702.379	31804.83
702.724	31776.35
703.069	31728.45
703.415	31480.54
703.76	31453.88
704.105	31386.31
704.45	31291.39
704.795	31097.5
705.14	31101.12
705.485	31121.91
705.83	30918.98
706.175	31013.21
706.52	30833.1
706.865	30822.03
707.209	30698.19
707.554	30625.42
707.899	30637.85
708.243	30524.18
708.588	30446.9
708.932	30071.09
709.277	30271.99
709.621	30257.3
709.966	30109.96
710.31	30117.41
710.654	29876.97
710.998	29903.18
711.342	29882.84
711.687	29701.38
712.031	29683.08
712.375	29650.53
712.719	29582.06
713.063	29590.2
713.407	29682.4
713.75	29385.23
714.094	29472.69
714.438	29351.78
714.782	29374.16
715.125	29249.64
715.469	29377.09
715.812	29292.35
716.156	28857.11
716.499	28934.85
716.843	28908.18
717.186	28910.67
717.53	28966.94
717.873	28976.88
718.216	28901.18
718.559	28754.29
718.902	28613.05
719.246	28577.57
719.589	28458.93
719.932	28308.42
720.275	28433.62
720.617	28425.26
720.96	28205.15
721.303	28333.96
721.646	28283.11
721.989	28108.43
722.331	28218.71
722.674	28071.37
723.016	28100.52
723.359	27992.5
723.701	28152.72
724.044	27860.75
724.386	27745.27
724.729	27925.38
725.071	27821.2
725.413	27625.05
725.755	27738.95
726.097	27705.73
726.439	27503.92
726.782	27555.45
727.124	27621.66
727.465	27539.63
727.807	27585.5
728.149	27470.25
728.491	27378.5
728.833	27477.94
729.175	27324.27
729.516	27327.21
729.858	27162.69
730.199	27279.97
730.541	27226.64
730.882	27023.71
731.224	27119.75
731.565	27004.28
731.906	26925.41
732.248	27057.38
732.589	26905.3
732.93	26770.38
733.271	26762.93
733.612	26842.92
733.953	26696.26
734.294	26758.18
734.635	26615.81
734.976	26621.69
735.317	26573.1
735.658	26643.38
735.999	26521.12
736.339	26495.14
736.68	26417.85
737.021	26356.61
737.361	26259.89
737.702	26479.32
738.042	26340.79
738.383	26284.75
738.723	26397.29
739.063	26231.64
739.404	26233.22
739.744	26277.29
740.084	26086.11
740.424	26068.48
740.764	25966.56
741.104	26060.35
741.444	25895.38
741.784	25761.82
742.124	25922.27
742.464	25851.99
742.804	25809.73
743.143	25685.67
743.483	25699
743.823	25604.54
744.162	25549.17
744.502	25592.11
744.841	25521.38
745.181	25626.46
745.52	25505.33
745.86	25495.84
746.199	25376.3
746.538	25487.48
746.877	25393.24
747.216	25362.29
747.556	25299.24
747.895	25393.02
748.234	25233.93
748.573	25258.11
748.911	25120.71
749.25	25195.28
749.589	25129.97
749.928	25076.42
750.267	25037.55
750.605	25035.51
750.944	24932.01
751.283	24939.47
751.621	24778.12
751.96	24808.63
752.298	24758.69
752.636	24788.51
752.975	24665.13
753.313	24494.06
753.651	24621.97
753.989	24593.04
754.327	24522.31
754.666	24398.47
755.004	24413.16
755.342	24428.52
755.679	24313.95
756.017	24282.31
756.355	24308.75
756.693	24152.83
757.031	24169.55
757.368	24157.12
757.706	24046.84
758.044	23910.35
758.381	24043.9
758.719	23801.42
759.056	23791.25
759.394	23710.13
759.731	23708.77
760.068	23684.36
760.405	23598.72
760.743	23464.03
761.08	23525.95
761.417	23318.95
761.754	23304.94
762.091	23279.18
762.428	23142.46
762.765	23088.45
763.102	23067.88
763.438	23057.71
763.775	22888
764.112	22838.51
764.449	22858.85
764.785	22726.87
765.122	22606.2
765.458	22567.33
765.795	22572.75
766.131	22556.26
766.467	22430.38
766.804	22283.95
767.14	22313.1
767.476	22334.12
767.812	22103.61
768.148	22109.94
768.485	22000.11
768.821	21977.29
769.157	21873.34
769.492	21773
769.828	21826.56
770.164	21556.96
770.5	21642.16
770.836	21627.69
771.171	21440.13
771.507	21370.07
771.842	21067.03
772.178	21163.98
772.513	21078.33
772.849	21098.22
773.184	20985.68
773.519	21025.22
773.855	20885.34
774.19	20749.75
774.525	20793.14
774.86	20657.55
775.195	20663.43
775.53	20530.77
775.865	20409.87
776.2	20275.41
776.535	20164.23
776.87	20146.6
777.205	20018.24
777.539	20027.06
777.874	19978.92
778.209	19882.43
778.543	19870.45
778.878	19717.46
779.212	19700.06
779.547	19639.27
779.881	19577.58
780.215	19430.46
780.55	19445.15
780.884	19365.15
781.218	19382.56
781.552	19366.74
781.886	19216.46
782.22	19086.97
782.554	19018.27
782.888	18838.61
783.222	18870.48
783.556	18744.15
783.889	18801.78
784.223	18520.88
784.557	18555.46
784.89	18655.12
785.224	18436.59
785.557	18376.71
785.891	18269.14
786.224	18185.98
786.558	18284.96
786.891	17963.61
787.224	18072.99
787.557	17997.96
787.891	17948.24
788.224	17814.23
788.557	17898.75
788.89	17771.52
789.223	17740.56
789.556	17615.82
789.888	17612.66
790.221	17523.17
790.554	17362.27
790.887	17381.48
791.219	17335.83
791.552	17274.36
791.884	17252.67
792.217	17117.98
792.549	17131.99
792.882	16995.5
793.214	16959.12
793.546	16981.94
793.879	16815.39
794.211	16701.04
794.543	16895.84
794.875	16712.34
795.207	16762.96
795.539	16621.27
795.871	16588.73
796.203	16422.18
796.535	16420.83
796.867	16311
797.198	16293.6
797.53	16294.73
797.862	16094.05
798.193	16161.62
798.525	16078.91
798.856	16029.2
799.188	15942.19
799.519	15913.27
799.85	15849.09
800.182	15925.92
800.513	15828.98
800.844	15660.62
801.175	15792.37
801.506	15690.9
801.837	15569.55
802.168	15560.28
802.499	15534.07
802.83	15360.74
803.161	15384.69
803.491	15367.75
803.822	15433.05
804.153	15236.9
804.483	15175.43
804.814	15164.81
805.145	15132.27
805.475	15135.44
805.805	14972.05
806.136	15033.97
806.466	15056.57
806.796	14928.21
807.126	14857.25
807.457	14869.68
807.787	14790.81
808.117	14705.16
808.447	14717.14
808.777	14648.89
809.107	14524.15
809.436	14538.16
809.766	14505.4
810.096	14534.32
810.426	14436.47
810.755	14483.7
811.085	14495.9
811.414	14396.47
811.744	14222.24
812.073	14284.16
812.403	14324.84
812.732	14131.85
813.061	14097.5
813.39	14088.01
813.719	14023.37
814.049	14090.04
814.378	14058.85
814.707	14028.8
815.036	13948.57
815.365	13887.33
815.693	13753.1
816.022	13796.71
816.351	13778.86
816.68	13677.39
817.008	13713.33
817.337	13594.46
817.665	13538.64
817.994	13548.13
818.322	13616.38
818.651	13598.53
818.979	13476.5
819.307	13507.68
819.636	13467.46
819.964	13408.48
820.292	13492.09
820.62	13397.18
820.948	13352.88
821.276	13357.63
821.604	13369.38
821.932	13389.04
822.259	13372.77
822.587	13328.7
822.915	13361.92
823.243	13341.58
823.57	13224.53
823.898	13220.23
824.225	13218.88
824.553	13255.71
824.88	13242.6
825.207	13247.8
825.535	13298.42
825.862	13293.45
826.189	13186.33
826.516	13273.56
826.843	13338.42
827.17	13260
827.497	13395.14
827.824	13342.71
828.151	13314.47
828.478	13228.37
828.805	13270.4
829.131	13220.91
829.458	13263.17
829.785	13236.28
830.111	13141.36
830.438	13221.36
830.764	13229.27
831.09	13239.67
831.417	13142.49
831.743	13181.59
832.069	13150.18
832.395	13156.28
832.722	13232.43
833.048	13127.13
833.374	13149.95
833.7	13067.24
834.026	13084.19
834.351	13148.14
834.677	13069.5
835.003	13093.23
835.329	13098.2
835.654	13091.2
835.98	13011.2
836.306	13003.06
836.631	12927.13
836.956	12985.66
837.282	13046.9
837.607	12913.8
837.932	12903.86
838.258	12882.16
838.583	12828.38
838.908	12817.08
839.233	12834.03
839.558	12819.34
839.883	12763.29
840.208	12702.96
840.533	12710.64
840.858	12724.88
841.182	12728.72
841.507	12750.87
841.832	12527.14
842.156	12593.13
842.481	12662.96
842.805	12509.97
843.13	12554.49
843.454	12493.92
843.778	12458.9
844.103	12432.46
844.427	12396.52
844.751	12352.46
845.075	12326.47
845.399	12323.98
845.723	12269.07
846.047	12275.85
846.371	12248.96
846.695	12157.89
847.019	12087.83
847.343	11968.96
847.666	11925.8
847.99	11831.12
848.313	11932.36
848.637	11805.81
848.96	11743.21
849.284	11778.24
849.607	11671.8
849.931	11613.72
850.254	11578.24
850.577	11499.82
850.9	11501.63
851.223	11474.51
851.546	11387.51
851.869	11283.56
852.192	11354.52
852.515	11249.21
852.838	11230.23
853.161	11241.75
853.483	11164.47
853.806	11145.03
854.129	11133.28
854.451	10999.72
854.774	10915.66
855.096	10930.35
855.419	11005.37
855.741	10871.82
856.063	10841.99
856.385	10841.76
856.708	10825.27
857.03	10709.56
857.352	10708.66
857.674	10630.02
857.996	10657.36
858.318	10591.15
858.64	10668.89
858.961	10573.07
859.283	10531.94
859.605	10465.73
859.926	10519.96
860.248	10393.19
860.57	10415.33
860.891	10415.79
861.212	10322
861.534	10371.94
861.855	10326.3
862.176	10380.31
862.498	10335.79
862.819	10320.65
863.14	10242.23
863.461	10216.69
863.782	10164.27
864.103	10200.88
864.424	10195.23
864.745	10205.4
865.065	10046.98
865.386	10110.48
865.707	10044.04
866.027	10091.73
866.348	10080.65
866.668	10077.26
866.989	9999.07
867.309	9910.26
867.63	9940.77
867.95	9927.66
868.27	9858.51
868.59	9920.21
868.91	9857.38
869.23	9926.98
869.55	9832.98
869.87	9936.7
870.19	9791.17
870.51	9852.18
870.83	9873.65
871.15	9789.36
871.469	9770.38
871.789	9813.09
872.109	9760.44
872.428	9726.09
872.748	9746.2
873.067	9734.9
873.386	9735.8
873.706	9696.71
874.025	9679.31
874.344	9629.14
874.663	9673.43
874.982	9616.03
875.301	9613.55
875.62	9564.73
875.939	9545.3
876.258	9521.8
876.577	9505.75
876.896	9483.38
877.214	9501.46
877.533	9470.27
877.852	9467.11
878.17	9465.53
878.489	9442.03
878.807	9403.61
879.125	9382.82
879.444	9394.57
879.762	9371.97
880.08	9384.4
880.398	9305.31
880.716	9282.26
881.034	9326.77
881.352	9272.09
881.67	9334.68
881.988	9237.29
882.306	9184.18
882.624	9214.01
882.941	9115.93
883.259	9141.92
883.577	9121.81
883.894	9127.91
884.212	9131.53
884.529	9027.35
884.846	9015.82
885.164	8969.04
885.481	9033.67
885.798	8963.17
886.115	8944.41
886.432	8939.89
886.75	8920.46
887.067	8905.32
887.383	8821.7
887.7	8892.21
888.017	8891.76
888.334	8843.85
888.651	8789.84
888.967	8834.13
889.284	8757.98
889.6	8739.67
889.917	8628.71
890.233	8654.48
890.55	8618.09
890.866	8657.64
891.182	8667.81
891.498	8675.04
891.815	8654.7
892.131	8560.92
892.447	8558.43
892.763	8468.72
893.079	8487.7
893.395	8424.88
893.71	8430.3
894.026	8367.93
894.342	8335.84
894.657	8306.01
894.973	8342.39
895.289	8296.29
895.604	8268.05
895.92	8165.45
896.235	8204.09
896.55	8137.2
896.865	8169.52
897.181	8104.66
897.496	8127.71
897.811	8032.8
898.126	8039.35
898.441	8031.44
898.756	8045.23
899.071	7942.63
899.386	7999.35
899.7	7876.64
900.015	7816.76
900.33	7803.88
900.644	7731.79
900.959	7785.57
901.273	7753.93
901.588	7744.44
901.902	7699.47
902.216	7632.13
902.531	7646.82
902.845	7616.31
903.159	7535.18
903.473	7548.06
903.787	7547.84
904.101	7528.86
904.415	7499.03
904.729	7432.81
905.042	7408.86
905.356	7379.26
905.67	7356.43
905.984	7411.34
906.297	7338.58
906.611	7287.96
906.924	7250.67
907.237	7279.14
907.551	7189.66
907.864	7218.36
908.177	7141.3
908.491	7162.31
908.804	7116.89
909.117	7039.15
909.43	7073.73
909.743	7019.94
910.056	7015.2
910.368	6976.33
910.681	6887.74
910.994	6880.29
911.307	6861.98
911.619	6824.92
911.932	6829.89
912.244	6756.45
912.557	6758.25
912.869	6772.94
913.181	6709.44
913.494	6645.04
913.806	6644.13
914.118	6630.12
914.43	6603.46
914.742	6578.6
915.054	6521.42
915.366	6472.39
915.678	6451.6
915.99	6463.12
916.302	6379.96
916.613	6396
916.925	6421.99
917.236	6363.01
917.548	6310.13
917.859	6347.64
918.171	6238.95
918.482	6283.69
918.794	6225.16
919.105	6262.67
919.416	6140.64
919.727	6117.37
920.038	6118.72
920.349	6113.98
920.66	6055.9
920.971	6025.39
921.282	6069.46
921.593	5955.56
921.903	5944.94
922.214	5942.46
922.525	5887.32
922.835	5919.41
923.146	5810.26
923.456	5874.66
923.767	5799.64
924.077	5839.63
924.387	5764.38
924.697	5742.01
925.008	5676.93
925.318	5724.84
925.628	5703.37
925.938	5672.86
926.248	5625.4
926.558	5592.41
926.867	5584.27
927.177	5528.91
927.487	5503.15
927.796	5506.99
928.106	5471.28
928.416	5458.4
928.725	5437.16
929.034	5392.41
929.344	5424.96
929.653	5385.41
929.962	5334.79
930.271	5286.2
930.581	5299.31
930.89	5296.6
931.199	5231.06
931.508	5244.85
931.817	5268.58
932.125	5197.39
932.434	5187.45
932.743	5170.5
933.051	5154.23
933.36	5105.19
933.669	5076.49
933.977	5064.51
934.286	4992.65
934.594	5001.92
934.902	4987.23
935.21	4952.2
935.519	4932.99
935.827	4978.64
936.135	4875.37
936.443	4843.5
936.751	4858.87
937.059	4855.93
937.367	4865.2
937.674	4881.92
937.982	4817.51
938.29	4757.63
938.597	4774.58
938.905	4724.18
939.213	4721.7
939.52	4661.13
939.827	4707.01
940.135	4617.29
940.442	4651.19
940.749	4638.31
941.056	4630.4
941.363	4581.59
941.67	4539.1
941.977	4520.35
942.284	4479.22
942.591	4479.44
942.898	4460.01
943.205	4441.03
943.511	4449.16
943.818	4415.27
944.125	4394.47
944.431	4344.31
944.738	4375.49
945.044	4356.51
945.35	4302.05
945.657	4276.29
945.963	4264.08
946.269	4221.82
946.575	4257.53
946.881	4230.86
947.187	4224.54
947.493	4186.57
947.799	4171.2
948.105	4131.88
948.41	4122.62
948.716	4129.85
949.022	4069.29
949.327	4102.96
949.633	4060.7
949.938	4070.19
950.244	4055.5
950.549	3982.28
950.854	3969.63
951.16	3991.32
951.465	4009.85
951.77	3989.97
952.075	3956.29
952.38	3920.59
952.685	3902.96
952.99	3890.31
953.294	3886.24
953.599	3806.24
953.904	3816.86
954.209	3783.42
954.513	3803.76
954.818	3797.43
955.122	3726.7
955.426	3742.06
955.731	3718.56
956.035	3725.34
956.339	3735.51
956.643	3650.54
956.948	3682.18
957.252	3630.88
957.556	3650.77
957.86	3641.05
958.163	3629.3
958.467	3589.07
958.771	3605.12
959.075	3581.16
959.378	3567.6
959.682	3533.03
959.985	3517.21
960.289	3533.48
960.592	3452.35
960.896	3461.84
961.199	3491.22
961.502	3448.51
961.805	3391.34
962.108	3406.7
962.411	3408.51
962.714	3372.13
963.017	3351.56
963.32	3342.98
963.623	3343.43
963.926	3342.53
964.228	3310.89
964.531	3332.36
964.833	3326.25
965.136	3259.82
965.438	3243.09
965.741	3251.23
966.043	3229.53
966.345	3231.34
966.648	3192.47
966.95	3178.91
967.252	3188.86
967.554	3153.6
967.856	3101.63
968.158	3095.3
968.46	3141.63
968.761	3150.67
969.063	3103.89
969.365	3091.23
969.666	3054.85
969.968	3051.23
970.269	3008.07
970.571	3055.75
970.872	2999.26
971.174	2989.54
971.475	3013.27
971.776	2984.34
972.077	2975.98
972.378	2953.61
972.679	2945.02
972.98	2924.68
973.281	2926.49
973.582	2893.05
973.883	2873.16
974.183	2903.89
974.484	2827.06
974.785	2874.06
975.085	2832.71
975.386	2848.98
975.686	2849.2
975.986	2804.69
976.287	2784.12
976.587	2731.92
976.887	2779.6
977.187	2767.4
977.487	2731.24
977.787	2723.56
978.087	2696.89
978.387	2692.82
978.687	2703.22
978.987	2688.76
979.286	2684.69
979.586	2663.22
979.885	2634.97
980.185	2627.74
980.484	2615.54
980.784	2611.02
981.083	2633.62
981.382	2568.53
981.682	2576.9
981.981	2571.02
982.28	2560.85
982.579	2549.1
982.878	2550.68
983.177	2502.77
983.475	2553.85
983.774	2532.38
984.073	2493.73
984.372	2481.3
984.67	2479.95
984.969	2418.93
985.267	2455.54
985.566	2451.93
985.864	2429.78
986.162	2399.27
986.461	2418.03
986.759	2385.04
987.057	2354.98
987.355	2361.53
987.653	2366.96
987.951	2333.06
988.249	2344.59
988.547	2365.38
988.844	2355.66
989.142	2326.51
989.44	2310.46
989.737	2282.67
990.035	2297.13
990.332	2262.33
990.63	2257.58
990.927	2229.79
991.224	2243.12
991.521	2264.59
991.819	2218.26
992.116	2210.58
992.413	2199.28
992.71	2194.53
993.006	2193.85
993.303	2169
993.6	2157.7
993.897	2156.34
994.193	2143.69
994.49	2114.08
994.787	2122.67
995.083	2096.91
995.379	2086.29
995.676	2102.11
995.972	2088.77
996.268	2072.05
996.565	2063.69
996.861	2083.35
997.157	2020.98
997.453	2033.86
997.749	2037.25
998.044	2016.91
998.34	1977.59
998.636	1984.14
998.932	1978.95
999.227	1985.27
999.523	1929.91
999.818	1915.9
1000.114	1955.89
1000.409	1934.43
1000.704	1893.3
1001	1913.86
1001.295	1905.73
1001.59	1887.2
1001.885	1889.91
1002.18	1881.77
1002.475	1833.64
1002.77	1866.41
1003.065	1824.6
1003.359	1834.54
1003.654	1859.4
1003.949	1808.33
1004.243	1824.15
1004.538	1795.67
1004.832	1776.01
1005.127	1758.84
1005.421	1772.17
1005.715	1754.09
1006.009	1748.22
1006.304	1709.57
1006.598	1709.8
1006.892	1716.13
1007.186	1702.12
1007.48	1693.08
1007.773	1653.98
1008.067	1685.62
1008.361	1684.49
1008.655	1664.15
1008.948	1662.12
1009.242	1643.36
1009.535	1643.13
1009.829	1610.82
1010.122	1612.85
1010.415	1600.42
1010.708	1595.9
1011.001	1582.35
1011.295	1576.7
1011.588	1582.57
1011.881	1574.21
1012.173	1557.26
1012.466	1547.77
1012.759	1533.76
1013.052	1558.39
1013.344	1550.71
1013.637	1490.37
1013.93	1490.6
1014.222	1462.35
1014.514	1465.06
1014.807	1462.57
1015.099	1456.02
1015.391	1451.28
1015.683	1452.18
1015.976	1440.2
1016.268	1442.01
1016.56	1413.54
1016.851	1424.38
1017.143	1413.31
1017.435	1398.17
1017.727	1391.84
1018.018	1405.85
1018.31	1388.9
1018.602	1381.67
1018.893	1350.04
1019.185	1349.36
1019.476	1330.37
1019.767	1324.95
1020.058	1345.52
1020.35	1326.98
1020.641	1339.41
1020.932	1290.38
1021.223	1298.96
1021.514	1267.78
1021.804	1249.92
1022.095	1276.36
1022.386	1265.52
1022.677	1261.22
1022.967	1228.68
1023.258	1242.92
1023.548	1241.34
1023.839	1205.41
1024.129	1231.62
1024.419	1221
1024.709	1207.44
1025	1173.99
1025.29	1164.05
1025.58	1206.54
1025.87	1157.72
1026.16	1127.89
1026.449	1162.24
1026.739	1123.37
1027.029	1124.05
1027.319	1112.3
1027.608	1134
1027.898	1113.88
1028.187	1126.99
1028.477	1105.07
1028.766	1078.4
1029.055	1092.87
1029.344	1079.99
1029.634	1067.56
1029.923	1066.2
1030.212	1061
1030.501	1044.96
1030.79	1039.99
1031.078	1029.82
1031.367	1030.27
1031.656	1062.59
1031.945	1031.85
1032.233	1019.65
1032.522	1006.54
1032.81	1025.07
1033.099	1009.25
1033.387	1025.75
1033.675	979.65
1033.963	987.33
1034.251	991.4
1034.54	948.46
1034.828	978.07
1035.116	954.79
1035.403	963.38
1035.691	975.13
1035.979	935.58
1036.267	935.58
1036.554	944.17
1036.842	948.69
1037.129	923.83
1037.417	928.8
1037.704	918.18
1037.992	892.19
1038.279	897.39
1038.566	899.2
1038.853	899.2
1039.14	899.2
