Data from hue_320_FLMS001491_21.txt Node
Date: Mon Feb 06 15:46:57 GMT 2017
User: dcchb
Spectrometer: FLMS00149
Trigger mode: 0
Integration Time (sec): 2.000000E-2
Scans to average: 10
Electric dark correction enabled: true
Nonlinearity correction enabled: false
Boxcar width: 0
XAxis mode: Wavelengths
Number of Pixels in Spectrum: 2048
>>>>>Begin Spectral Data<<<<<
341.393	-22.03
341.776	-22.03
342.16	-22.03
342.543	-39.43
342.927	-72.65
343.31	-78.3
343.693	-80.11
344.077	-47.8
344.46	-70.62
344.843	-81.69
345.226	-42.6
345.61	-28.81
345.993	-13.67
346.376	-8.25
346.759	12.99
347.142	25.2
347.525	53.9
347.908	61.13
348.291	74.01
348.674	97.96
349.057	126.66
349.44	131.63
349.823	136.61
350.206	137.96
350.588	191.75
350.971	189.03
351.354	223.61
351.737	230.62
352.119	243.5
352.502	246.21
352.884	253.44
353.267	252.76
353.65	295.7
354.032	296.6
354.414	307.45
354.797	295.92
355.179	328.69
355.562	314.46
355.944	328.69
356.326	349.93
356.709	335.7
357.091	323.72
357.473	314.91
357.855	346.32
358.238	337.73
358.62	328.92
359.002	333.44
359.384	304.96
359.766	335.92
360.148	310.84
360.53	350.84
360.912	339.77
361.294	354.45
361.676	324.17
362.057	325.98
362.439	326.88
362.821	310.84
363.203	327.34
363.584	316.71
363.966	338.18
364.348	321.46
364.729	315.36
365.111	330.27
365.493	318.07
365.874	316.04
366.256	302.48
366.637	305.42
367.019	298.18
367.4	311.52
367.781	313.33
368.163	313.33
368.544	315.81
368.925	321.91
369.306	325.98
369.688	318.75
370.069	306.32
370.45	297.05
370.831	298.64
371.212	302.03
371.593	306.77
371.974	313.33
372.355	314.68
372.736	310.39
373.117	292.76
373.498	322.36
373.879	310.16
374.26	307.9
374.641	293.89
375.021	315.36
375.402	302.48
375.783	316.71
376.163	333.66
376.544	318.3
376.925	308.35
377.305	324.4
377.686	317.17
378.066	327.34
378.447	325.53
378.827	321.69
379.208	333.66
379.588	313.33
379.968	346.77
380.349	328.69
380.729	333.44
381.109	331.18
381.489	317.39
381.87	317.62
382.25	348.58
382.63	348.58
383.01	331.18
383.39	341.35
383.77	332.08
384.15	329.6
384.53	350.39
384.91	347
385.29	319.2
385.67	345.87
386.049	372.53
386.429	322.59
386.809	343.15
387.189	348.8
387.568	356.49
387.948	323.95
388.328	344.06
388.707	357.39
389.087	335.92
389.466	336.38
389.846	332.08
390.225	366.88
390.605	352.65
390.984	361.01
391.363	370.5
391.743	367.79
392.122	356.26
392.501	370.72
392.881	381.35
393.26	362.36
393.639	370.95
394.018	356.04
394.397	358.07
394.776	396.94
395.155	372.76
395.534	399.2
395.913	369.59
396.292	389.71
396.671	361.23
397.05	372.76
397.429	378.41
397.808	362.82
398.186	358.75
398.565	383.83
398.944	396.26
399.323	377.73
399.701	375.02
400.08	400.55
400.458	373.44
400.837	400.1
401.215	402.59
401.594	415.92
401.972	402.36
402.351	419.31
402.729	415.47
403.107	375.24
403.486	422.93
403.864	413.89
404.242	415.92
404.62	419.54
404.999	417.05
405.377	432.87
405.755	422.02
406.133	417.28
406.511	414.79
406.889	441.46
407.267	436.49
407.645	420.67
408.023	435.36
408.401	433.55
408.779	436.26
409.156	453.89
409.534	464.28
409.912	480.78
410.29	443.27
410.667	466.77
411.045	477.61
411.422	488.01
411.8	469.93
412.178	473.32
412.555	486.2
412.933	502.7
413.31	514.68
413.687	507.22
414.065	498.63
414.442	535.24
414.819	522.36
415.197	548.57
415.574	544.73
415.951	557.16
416.328	563.71
416.705	569.14
417.082	560.55
417.46	560.32
417.837	601.91
418.214	579.98
418.591	601.23
418.967	587.22
419.344	585.63
419.721	610.49
420.098	564.84
420.475	604.39
420.852	618.63
421.228	620.66
421.605	636.93
421.982	631.06
422.358	640.77
422.735	654.56
423.111	675.8
423.488	671.73
423.864	672.41
424.241	686.87
424.617	678.06
424.994	699.08
425.37	688
425.746	701.56
426.123	692.52
426.499	694.56
426.875	694.33
427.251	727.33
427.627	731.39
428.003	735.91
428.379	750.83
428.756	751.28
429.132	788.57
429.507	768.45
429.883	776.82
430.259	799.19
430.635	788.79
431.011	819.75
431.387	812.07
431.763	798.74
432.138	843.48
432.514	816.36
432.89	831.05
433.265	864.05
433.641	869.69
434.016	868.56
434.392	863.37
434.767	898.62
435.143	879.86
435.518	911.05
435.894	904.95
436.269	930.03
436.644	920.09
437.02	925.96
437.395	931.16
437.77	949.01
438.145	977.71
438.52	970.48
438.895	953.53
439.271	943.59
439.646	975
440.021	991.5
440.395	997.6
440.77	990.82
441.145	1015.68
441.52	1025.17
441.895	1012.74
442.27	1024.49
442.645	1029.69
443.019	1044.38
443.394	1025.85
443.769	1060.42
444.143	1040.76
444.518	1062.01
444.892	1056.58
445.267	1051.84
445.641	1067.2
446.016	1056.58
446.39	1063.14
446.764	1088.22
447.139	1057.94
447.513	1090.25
447.887	1103.59
448.262	1101.33
448.636	1090.25
449.01	1120.31
449.384	1087.09
449.758	1106.3
450.132	1111.5
450.506	1128.22
450.88	1129.8
451.254	1112.63
451.628	1150.59
452.002	1157.82
452.376	1151.04
452.75	1155.56
453.123	1164.83
453.497	1167.54
453.871	1206.86
454.244	1194.88
454.618	1210.7
454.992	1186.07
455.365	1201.66
455.739	1220.65
456.112	1229.23
456.486	1246.41
456.859	1248.67
457.232	1273.07
457.606	1246.18
457.979	1255.67
458.352	1285.5
458.725	1315.56
459.099	1305.16
459.472	1312.62
459.845	1342.45
460.218	1315.56
460.591	1327.31
460.964	1319.63
461.337	1351.04
461.71	1364.14
462.083	1391.71
462.456	1376.8
462.829	1390.36
463.201	1417.7
463.574	1410.92
463.947	1432.17
464.32	1446.85
464.692	1451.6
465.065	1464.71
465.438	1480.53
465.81	1473.07
466.183	1495.21
466.555	1524.14
466.928	1510.58
467.3	1557.59
467.672	1531.15
468.045	1586.51
468.417	1564.14
468.789	1571.15
469.161	1572.5
469.534	1608.21
469.906	1638.04
470.278	1611.37
470.65	1640.97
471.022	1667.64
471.394	1698.15
471.766	1693.18
472.138	1683.68
472.51	1728.43
472.882	1753.51
473.253	1763.91
473.625	1788.99
473.997	1804.36
474.369	1797.58
474.74	1817.92
475.112	1849.33
475.484	1865.15
475.855	1889.78
476.227	1912.61
476.598	1929.55
476.97	1959.38
477.341	1978.59
477.713	1995.54
478.084	2012.94
478.455	2080.74
478.827	2040.29
479.198	2092.26
479.569	2148.53
479.94	2125.71
480.311	2138.36
480.682	2202.31
481.053	2249.55
481.424	2241.41
481.795	2241.18
482.166	2259.04
482.537	2349.88
482.908	2340.16
483.279	2375.64
483.65	2395.08
484.021	2409.32
484.391	2443.66
484.762	2470.56
485.133	2467.17
485.503	2481.63
485.874	2532.7
486.244	2536.54
486.615	2582.87
486.985	2623.09
487.356	2617.9
487.726	2662.87
488.097	2730.66
488.467	2685.01
488.837	2737.44
489.207	2763.2
489.578	2819.7
489.948	2852.69
490.318	2866.7
490.688	2840.49
491.058	2870.77
491.428	2920.04
491.798	2931.34
492.168	2986.93
492.538	2997.1
492.908	3027.15
493.278	3019.02
493.648	3049.3
494.017	3076.64
494.387	3096.98
494.757	3168.17
495.126	3142.4
495.496	3147.37
495.866	3136.98
496.235	3229.63
496.605	3214.94
496.974	3215.17
497.344	3227.82
497.713	3251.78
498.082	3282.96
498.452	3287.48
498.821	3325.45
499.19	3315.05
499.559	3348.05
499.928	3379.69
500.298	3377.43
500.667	3404.77
501.036	3443.86
501.405	3470.98
501.774	3419.68
502.143	3458.55
502.512	3440.93
502.88	3463.3
503.249	3473.92
503.618	3487.48
503.987	3538.33
504.356	3554.14
504.724	3559.34
505.093	3515.27
505.462	3554.6
505.83	3603.63
506.199	3620.58
506.567	3609.28
506.936	3631.43
507.304	3615.61
507.672	3623.29
508.041	3614.26
508.409	3673.91
508.777	3685.44
509.145	3692.9
509.514	3724.99
509.882	3743.52
510.25	3712.11
510.618	3758.66
510.986	3764.53
511.354	3769.73
511.722	3773.8
512.09	3809.05
512.458	3783.06
512.826	3809.5
513.193	3823.97
513.561	3801.37
513.929	3812.67
514.297	3904.42
514.664	3875.04
515.032	3889.28
515.4	3894.93
515.767	3866.9
516.135	3896.73
516.502	3894.02
516.869	3941.25
517.237	3968.6
517.604	3938.31
517.972	3967.01
518.339	3974.25
518.706	3985.09
519.073	3960.69
519.44	3985.09
519.808	4025.32
520.175	4030.29
520.542	4063.28
520.909	4087.46
521.276	4051.76
521.643	4078.2
522.009	4104.19
522.376	4093.34
522.743	4113.23
523.11	4141.92
523.477	4157.07
523.843	4175.6
524.21	4228.7
524.577	4237.06
524.943	4303.73
525.31	4244.75
525.676	4274.58
526.043	4301.69
526.409	4312.32
526.776	4298.76
527.142	4336.04
527.508	4395.25
527.874	4399.77
528.241	4476.61
528.607	4420.56
528.973	4475.02
529.339	4475.48
529.705	4442.71
530.071	4495.14
530.437	4539.88
530.803	4516.6
531.169	4600.22
531.535	4537.62
531.901	4589.14
532.267	4644.74
532.632	4620.33
532.998	4667.11
533.364	4674.79
533.73	4681.8
534.095	4694.68
534.461	4748.46
534.826	4787.78
535.192	4758.63
535.557	4831.62
535.923	4809.03
536.288	4815.58
536.653	4845.86
537.019	4865.07
537.384	4902.13
537.749	4910.94
538.114	4891.28
538.479	4905.29
538.845	4908.91
539.21	4943.26
539.575	4983.71
539.94	4983.94
540.305	5058.06
540.67	5021.68
541.034	5083.37
541.399	5067.55
541.764	5061
542.129	5114.78
542.494	5145.97
542.858	5169.69
543.223	5176.02
543.587	5180.77
543.952	5226.87
544.316	5235
544.681	5261.44
545.045	5283.82
545.41	5319.3
545.774	5342.57
546.138	5319.52
546.503	5372.85
546.867	5420.54
547.231	5370.59
547.595	5388.9
547.959	5421.67
548.324	5442.91
548.688	5450.59
549.052	5495.79
549.416	5488.1
549.779	5551.83
550.143	5531.27
550.507	5556.58
550.871	5600.42
551.235	5596.35
551.599	5654.88
551.962	5606.75
552.326	5601.77
552.689	5690.36
553.053	5677.03
553.417	5710.25
553.78	5754.99
554.143	5722.22
554.507	5781.2
554.87	5765.84
555.234	5773.29
555.597	5793.86
555.96	5808.32
556.323	5830.24
556.686	5859.39
557.05	5871.82
557.413	5912.05
557.776	5930.13
558.139	5945.72
558.502	5962.44
558.865	5972.39
559.228	5986.17
559.59	5990.92
559.953	6000.18
560.316	6069.33
560.679	6093.51
561.041	6093.51
561.404	6099.16
561.767	6157.01
562.129	6111.82
562.492	6212.61
562.854	6142.1
563.217	6188.2
563.579	6258.25
563.941	6237.92
564.304	6227.07
564.666	6282.21
565.028	6300.51
565.39	6360.4
565.753	6343.45
566.115	6320.4
566.477	6430.23
566.839	6467.74
567.201	6437.01
567.563	6434.52
567.925	6519.72
568.287	6463.45
568.648	6503.67
569.01	6554.97
569.372	6582.31
569.734	6572.14
570.095	6692.37
570.457	6682.65
570.819	6673.61
571.18	6685.81
571.542	6707.06
571.903	6745.92
572.265	6809.65
572.626	6834.51
572.987	6865.02
573.349	6920.38
573.71	6987.05
574.071	6965.13
574.432	7001.96
574.794	7098.46
575.155	7192.47
575.516	7142.98
575.877	7150.43
576.238	7259.58
576.599	7332.12
576.96	7434.27
577.32	7441.05
577.681	7579.12
578.042	7615.05
578.403	7643.98
578.763	7778.89
579.124	7857.53
579.485	7972.11
579.845	8055.27
580.206	8141.59
580.566	8218.43
580.927	8342.49
581.287	8464.3
581.648	8595.59
582.008	8688.25
582.368	8782.71
582.728	8901.12
583.089	9143.15
583.449	9224.5
583.809	9358.74
584.169	9548.79
584.529	9736.35
584.889	9950.81
585.249	10078.49
585.609	10219.05
585.969	10486.39
586.329	10612.49
586.688	10835.76
587.048	11015.42
587.408	11203.21
587.768	11431.68
588.127	11762.52
588.487	11835.06
588.846	12208.61
589.206	12321.37
589.565	12623.06
589.925	12908.93
590.284	13062.37
590.643	13379.87
591.003	13724.5
591.362	13925.62
591.721	14171.49
592.08	14490.58
592.44	14699.84
592.799	15118.13
593.158	15206.72
593.517	15659.59
593.876	15872.01
594.235	16064.78
594.593	16508.61
594.952	16749.96
595.311	16871.76
595.67	17369.6
596.029	17767.56
596.387	17942.92
596.746	18346.98
597.104	18557.37
597.463	18903.12
597.822	19240.29
598.18	19361.41
598.538	19685.47
598.897	20007.72
599.255	20191.9
599.613	20829.85
599.972	20936.29
600.33	21201.14
600.688	21416.05
601.046	21767.22
601.404	22074.56
601.762	22380.77
602.12	22756.58
602.478	22969.45
602.836	23146.62
603.194	23422.77
603.552	23761.07
603.91	23924.46
604.268	24293.94
604.625	24409.41
604.983	24768.28
605.341	24940.47
605.698	25229.28
606.056	25631.3
606.413	25804.86
606.771	26135.25
607.128	26276.48
607.485	26424.05
607.843	26685.06
608.2	27206.4
608.557	27285.95
608.914	27414.99
609.272	27685.71
609.629	27969.55
609.986	28358.01
610.343	28362.53
610.7	28765.91
611.057	29001.61
611.414	29062.4
611.771	29294.48
612.127	29518.88
612.484	29747.58
612.841	30044.75
613.198	30053.11
613.554	30269.37
613.911	30501.01
614.267	30555.24
614.624	30774.9
614.98	31019.86
615.337	31245.17
615.693	31303.7
616.05	31420.3
616.406	31839.5
616.762	31802.44
617.118	31998.82
617.475	32126.73
617.831	32369.43
618.187	32354.52
618.543	32567.17
618.899	32963.09
619.255	32932.13
619.611	33071.33
619.967	33216.87
620.323	33336.86
620.678	33362.17
621.034	33382.51
621.39	33601.94
621.746	33579.8
622.101	34135.49
622.457	33956.28
622.812	34127.8
623.168	34232.43
623.523	34307.69
623.879	34532.76
624.234	34327.57
624.589	34585.42
624.945	34737.96
625.3	34789.71
625.655	34801.01
626.01	34974.33
626.365	35022.92
626.72	35116.93
627.075	35183.59
627.43	35170.26
627.785	35123.71
628.14	35337.94
628.495	35417.03
628.85	35377.26
629.205	35438.73
629.559	35655.22
629.914	35588.56
630.269	35650.48
630.623	35496.58
630.978	35598.27
631.332	35774.09
631.687	35914.42
632.041	35790.36
632.396	35907.42
632.75	35791.04
633.104	35911.03
633.459	35836.68
633.813	35889.56
634.167	35864.71
634.521	35689.8
634.875	35961.88
635.229	35818.61
635.583	35864.25
635.937	35784.03
636.291	35962.78
636.645	35949.22
636.999	35992.61
637.352	36030.58
637.706	35818.38
638.06	35936.34
638.413	35976.34
638.767	35807.08
639.121	35957.59
639.474	35827.42
639.828	35896.34
640.181	36025.61
640.534	35901.77
640.888	35885.05
641.241	35748.33
641.594	35852.5
641.947	35941.77
642.301	35696.58
642.654	35901.32
643.007	35898.15
643.36	35943.8
643.713	35771.38
644.066	35933.41
644.419	35790.13
644.771	35442.34
645.124	35147.89
645.477	35195.12
645.83	34957.39
646.182	34882.59
646.535	34812.98
646.888	34905.64
647.24	34721.91
647.593	34994.45
647.945	34847.11
648.298	34780.67
648.65	34690.95
649.002	34536.15
649.355	34696.83
649.707	34618.41
650.059	34865.64
650.411	35207.55
650.763	35328.9
651.115	35601.66
651.467	35571.61
651.819	35665.39
652.171	35318.28
652.523	35430.37
652.875	35398.73
653.227	35265.17
653.578	35480.08
653.93	35480.08
654.282	35264.72
654.633	35271.95
654.985	35453.19
655.337	35424.27
655.688	35224.5
656.039	35546.97
656.391	35065.41
656.742	35239.19
657.094	35361.9
657.445	35393.98
657.796	35297.94
658.147	35294.33
658.498	35220.2
658.849	35322.57
659.2	35196.93
659.551	35168.45
659.902	35286.19
660.253	35217.72
660.604	35378.84
660.955	35105.63
661.306	35198.96
661.656	35155.57
662.007	35061.56
662.358	35103.82
662.708	35145.86
663.059	35123.03
663.409	34945.41
663.76	35143.14
664.11	35200.77
664.461	35118.29
664.811	35064.95
665.161	35207.55
665.511	35069.7
665.862	35209.13
666.212	35202.8
666.562	35129.13
666.912	35198.28
667.262	35122.81
667.612	35017.95
667.962	35089.13
668.312	34976.37
668.662	35081.68
669.011	35059.08
669.361	35078.29
669.711	35055.46
670.06	34967.78
670.41	34884.17
670.76	34969.81
671.109	35054.56
671.459	35033.99
671.808	34790.38
672.157	35081.68
672.507	34725.75
672.856	34928.69
673.205	34965.52
673.554	34954.45
673.904	34814.56
674.253	34938.86
674.602	35029.93
674.951	34472.65
675.3	34306.33
675.649	34811.85
675.998	34741.12
676.346	34756.04
676.695	34913.09
677.044	34621.12
677.393	34739.76
677.741	34708.58
678.09	34558.75
678.438	34601.24
678.787	34648.47
679.135	34641.91
679.484	34382.71
679.832	34526.89
680.181	34422.94
680.529	34448.7
680.877	34500.22
681.225	34440.11
681.573	34514.91
681.922	34237.18
682.27	34134.13
682.618	34255.48
682.966	34241.47
683.314	34116.73
683.661	34095.26
684.009	33853.91
684.357	33978.2
684.705	33755.61
685.053	33857.08
685.4	33822.05
685.748	33619.79
686.095	33560.36
686.443	33678.55
686.79	33565.11
687.138	33596.97
687.485	33592.68
687.832	33386.35
688.18	33321.5
688.527	33271.78
688.874	33302.06
689.221	33192.46
689.568	33160.15
689.915	33104.55
690.262	32975.29
690.609	32938.91
690.956	32883.77
691.303	32916.31
691.65	32830.89
691.997	32647.84
692.344	32512.25
692.69	32469.99
693.037	32445.36
693.383	32199.94
693.73	32381.18
694.077	32111.36
694.423	32091.7
694.769	32024.36
695.116	32030.23
695.462	31973.06
695.808	31792.27
696.155	31967.86
696.501	31660.3
696.847	31744.36
697.193	31511.83
697.539	31574.65
697.885	31319.52
698.231	31264.38
698.577	31314.54
698.923	31132.85
699.269	31031.84
699.614	30893.54
699.96	30780.55
700.306	30882.92
700.651	30729.47
700.997	30712.75
701.342	30609.03
701.688	30620.55
702.033	30545.3
702.379	30459.88
702.724	30432.76
703.069	30462.14
703.415	30121.81
703.76	30175.36
704.105	30155.93
704.45	30096.72
704.795	29939.89
705.14	29783.28
705.485	29867.58
705.83	29666.23
706.175	29776.05
706.52	29675.94
706.865	29496.74
707.209	29531.09
707.554	29254.03
707.899	29382.84
708.243	29334.26
708.588	29284.09
708.932	29077.54
709.277	29127.26
709.621	29039.8
709.966	28875.51
710.31	28911.44
710.654	28607.5
710.998	28706.02
711.342	28774.5
711.687	28578.8
712.031	28581.06
712.375	28349.42
712.719	28525.92
713.063	28477.33
713.407	28521.85
713.75	28327.28
714.094	28244.12
714.438	28108.53
714.782	28144.23
715.125	28008.87
715.469	28079.6
715.812	27974.52
716.156	27777.01
716.499	27798.7
716.843	27765.94
717.186	27667.18
717.53	27831.92
717.873	27803.68
718.216	27651.36
718.559	27582.89
718.902	27400.75
719.246	27503.57
719.589	27446.62
719.932	27389.22
720.275	27296.8
720.617	27271.71
720.96	27108.1
721.303	27130.25
721.646	27083.47
721.989	27048.44
722.331	26995.79
722.674	27001.89
723.016	27095.22
723.359	26983.36
723.701	26917.15
724.044	26792.18
724.386	26775.91
724.729	26874.21
725.071	26691.39
725.413	26722.57
725.755	26642.35
726.097	26567.32
726.439	26490.72
726.782	26359.42
727.124	26629.47
727.465	26412.53
727.807	26447.33
728.149	26352.19
728.491	26267.22
728.833	26325.75
729.175	26182.48
729.516	26147.45
729.858	26111.06
730.199	26095.25
730.541	26102.48
730.882	26055.02
731.224	26049.15
731.565	25855.7
731.906	25940
732.248	25972.99
732.589	25873.11
732.93	25671.53
733.271	25684.18
733.612	25712.88
733.953	25700.45
734.294	25597.86
734.635	25490.52
734.976	25516.5
735.317	25428.6
735.658	25491.87
735.999	25457.97
736.339	25348.83
736.68	25506.33
737.021	25369.62
737.361	25285.55
737.702	25440.57
738.042	25299.79
738.383	25290.97
738.723	25371.42
739.063	25248.04
739.404	25251.88
739.744	25151.09
740.084	25065.67
740.424	25030.64
740.764	25033.35
741.104	25091.43
741.444	24849.86
741.784	24810.53
742.124	24829.97
742.464	25036.52
742.804	24705
743.143	24767.15
743.483	24703.64
743.823	24619.13
744.162	24557.43
744.502	24674.72
744.841	24562.41
745.181	24554.5
745.52	24489.41
745.86	24503.65
746.199	24446.7
746.538	24394.05
746.877	24356.99
747.216	24389.53
747.556	24363.31
747.895	24323.99
748.234	24238.57
748.573	24171
748.911	24101.85
749.25	24088.29
749.589	24004
749.928	24056.2
750.267	24049.2
750.605	24023.21
750.944	23902.76
751.283	24026.83
751.621	23888.98
751.96	23735.31
752.298	23626.16
752.636	23718.36
752.975	23585.71
753.313	23507.52
753.651	23627.06
753.989	23611.47
754.327	23450.34
754.666	23303.46
755.004	23382.32
755.342	23328.09
755.679	23342.1
756.017	23227.52
756.355	23274.98
756.693	23113.18
757.031	23260.07
757.368	23070.92
757.706	22922.9
758.044	22938.72
758.381	22851.49
758.719	22842.45
759.056	22825.05
759.394	22767.42
759.731	22674.77
760.068	22571.72
760.405	22506.41
760.743	22303.71
761.08	22628.9
761.417	22336.02
761.754	22321.33
762.091	22141.23
762.428	22186.87
762.765	22003.6
763.102	22114.79
763.438	22021.68
763.775	21861.69
764.112	21935.81
764.449	21933.32
764.785	21830.05
765.122	21598.87
765.458	21437.06
765.795	21431.87
766.131	21420.34
766.467	21387.12
766.804	21291.08
767.14	21204.3
767.476	21182.38
767.812	21115.04
768.148	21102.16
768.485	21043.63
768.821	20839.11
769.157	20856.74
769.492	20812
769.828	20800.7
770.164	20661.94
770.5	20506.24
770.836	20590.76
771.171	20444.1
771.507	20373.59
771.842	20241.39
772.178	20200.49
772.513	20183.09
772.849	20154.84
773.184	19983.09
773.519	20016.08
773.855	19996.88
774.19	19796.2
774.525	19833.04
774.86	19770.67
775.195	19664.68
775.53	19705.58
775.865	19522.99
776.2	19346.95
776.535	19271.7
776.87	19144.92
777.205	19142.89
777.539	19060.18
777.874	19118.71
778.209	19001.2
778.543	18836.91
778.878	18790.13
779.212	18825.61
779.547	18694.54
779.881	18732.28
780.215	18646.4
780.55	18589.23
780.884	18405.5
781.218	18482.79
781.552	18480.08
781.886	18360.53
782.22	18180.43
782.554	18064.5
782.888	18041.9
783.222	17917.61
783.556	17940.66
783.889	17882.81
784.223	17737.5
784.557	17775.46
784.89	17704.73
785.224	17544.74
785.557	17503.83
785.891	17481.91
786.224	17426.32
786.558	17402.14
786.891	17229.26
787.224	17226.55
787.557	17159.89
787.891	17154.69
788.224	17078.31
788.557	17068.36
788.89	16998.99
789.223	17071.75
789.556	16839.22
789.888	16776.62
790.221	16724.87
790.554	16588.6
790.887	16589.73
791.219	16484.43
791.552	16557.42
791.884	16451.21
792.217	16317.65
792.549	16228.84
792.882	16148.16
793.214	16126.02
793.546	16189.74
793.879	16022.97
794.211	15984.55
794.543	15974.61
794.875	15979.58
795.207	15954.72
795.539	15855.29
795.871	15853.71
796.203	15740.72
796.535	15521.06
796.867	15622.98
797.198	15602.64
797.53	15562.19
797.862	15362.42
798.193	15518.35
798.525	15378.92
798.856	15449.42
799.188	15160.84
799.519	15107.29
799.85	15137.57
800.182	15110.68
800.513	15128.08
800.844	14949.78
801.175	15086.5
801.506	14949.1
801.837	14890.34
802.168	14827.97
802.499	14862.32
802.83	14720.86
803.161	14684.02
803.491	14707.52
803.822	14711.14
804.153	14537.13
804.483	14451.71
804.814	14413.97
805.145	14361.32
805.475	14464.37
805.805	14336.01
806.136	14334.2
806.466	14352.05
806.796	14334.43
807.126	14182.56
807.457	14070.48
807.787	14038.39
808.117	13936.47
808.447	14026.41
808.777	14018.5
809.107	13964.49
809.436	13925.4
809.766	13954.77
810.096	13830.03
810.426	13832.52
810.755	13795.46
811.085	13724.05
811.414	13760.43
811.744	13668.23
812.073	13593.43
812.403	13608.57
812.732	13539.42
813.061	13559.98
813.39	13462.13
813.719	13419.87
814.049	13426.2
814.378	13430.27
814.707	13303.94
815.036	13319.31
815.365	13272.98
815.693	13154.12
816.022	13204.51
816.351	13130.39
816.68	13051.97
817.008	13005.19
817.337	13001.81
817.665	12892.88
817.994	13065.53
818.322	12925.87
818.651	12885.2
818.979	12887.01
819.307	12927.91
819.636	12802.26
819.964	12824.41
820.292	12742.15
820.62	12791.42
820.948	12688.14
821.276	12824.86
821.604	12764.52
821.932	12773.56
822.259	12728.82
822.587	12723.62
822.915	12633
823.243	12718.2
823.57	12673.23
823.898	12679.78
824.225	12572.21
824.553	12656.96
824.88	12611.08
825.207	12688.14
825.535	12581.7
825.862	12691.08
826.189	12599.78
826.516	12694.47
826.843	12742.83
827.17	12663.73
827.497	12753.45
827.824	12692.89
828.151	12757.74
828.478	12587.58
828.805	12732.89
829.131	12688.82
829.458	12600.91
829.785	12585.09
830.111	12621.93
830.438	12705.32
830.764	12615.83
831.09	12567.01
831.417	12516.62
831.743	12621.48
832.069	12589.39
832.395	12533.12
832.722	12623.96
833.048	12517.52
833.374	12550.29
833.7	12477.53
834.026	12571.99
834.351	12493.8
834.677	12479.78
835.003	12536.28
835.329	12443.85
835.654	12521.59
835.98	12444.98
836.306	12497.41
836.631	12357.3
836.956	12414.93
837.282	12475.49
837.607	12395.49
837.932	12317.76
838.258	12383.97
838.583	12292.22
838.908	12294.93
839.233	12312.56
839.558	12333.35
839.883	12147.59
840.208	12154.14
840.533	12154.6
840.858	12123.86
841.182	12196.4
841.507	12055.62
841.832	12015.39
842.156	12009.97
842.481	12037.76
842.805	12063.52
843.13	11890.2
843.454	12001.61
843.778	11877.31
844.103	11911.66
844.427	11826.69
844.751	11856.98
845.075	11783.53
845.399	11805.9
845.723	11673.03
846.047	11716.87
846.371	11580.6
846.695	11633.48
847.019	11523.65
847.343	11475.52
847.666	11444.33
847.99	11361.62
848.313	11386.03
848.637	11227.61
848.96	11256.99
849.284	11222.42
849.607	11142.87
849.931	11123.44
850.254	11096.09
850.577	11060.84
850.9	10884.57
851.223	10910.56
851.546	10830.79
851.869	10861.07
852.192	10864.91
852.515	10737.68
852.838	10674.41
853.161	10677.8
853.483	10626.27
853.806	10570.23
854.129	10581.53
854.451	10522.77
854.774	10476.22
855.096	10460.4
855.419	10390.57
855.741	10422.44
856.063	10325.72
856.385	10277.58
856.708	10247.08
857.03	10313.06
857.352	10248.43
857.674	10196.46
857.996	10211.37
858.318	10114.65
858.64	10151.94
858.961	10125.72
859.283	10069.23
859.605	10023.58
859.926	10019.96
860.248	9994.2
860.57	9889.57
860.891	9943.81
861.212	9927.31
861.534	9872.62
861.855	9842.79
862.176	9868.1
862.498	9918.5
862.819	9855.9
863.14	9782.23
863.461	9718.95
863.782	9715.34
864.103	9765.51
864.424	9719.63
864.745	9760.08
865.065	9715.79
865.386	9603.25
865.707	9723.25
866.027	9675.79
866.348	9622.91
866.668	9640.31
866.989	9628.56
867.309	9499.3
867.63	9491.84
867.95	9506.3
868.27	9487.55
868.59	9547.43
868.91	9481.9
869.23	9472.18
869.55	9401.9
869.87	9513.31
870.19	9487.55
870.51	9434.89
870.83	9445.06
871.15	9351.05
871.469	9329.59
871.789	9342.47
872.109	9431.5
872.428	9316.03
872.748	9276.25
873.067	9306.53
873.386	9243.26
873.706	9277.61
874.025	9173.21
874.344	9180.89
874.663	9223.37
874.982	9209.81
875.301	9205.52
875.62	9154.9
875.939	9188.8
876.258	9096.15
876.577	9046.43
876.896	9038.97
877.214	9034.68
877.533	9135.47
877.852	9034.68
878.17	9019.76
878.489	9005.3
878.807	9080.33
879.125	8976.37
879.444	8990.84
879.762	8948.58
880.08	8944.51
880.398	8881.01
880.716	8960.1
881.034	8897.73
881.352	8881.91
881.67	8828.13
881.988	8856.15
882.306	8795.81
882.624	8796.72
882.941	8707.23
883.259	8721.01
883.577	8688.92
883.894	8702.71
884.212	8706.55
884.529	8653.22
884.846	8653.9
885.164	8617.06
885.481	8603.05
885.798	8707.45
886.115	8566.89
886.432	8536.16
886.75	8522.83
887.067	8525.09
887.383	8458.87
887.7	8507.46
888.017	8413.9
888.334	8395.15
888.651	8384.75
888.967	8354.47
889.284	8310.4
889.6	8334.81
889.917	8258.88
890.233	8289.16
890.55	8246.68
890.866	8298.43
891.182	8238.31
891.498	8196.73
891.815	8192.67
892.131	8110.41
892.447	8046.68
892.763	8153.12
893.079	8071.09
893.395	8018.21
893.71	8030.18
894.026	8013.01
894.342	8020.47
894.657	7891.66
894.973	7964.88
895.289	7964.88
895.604	7925.33
895.92	7872
896.235	7834.03
896.55	7887.82
896.865	7829.06
897.181	7759.68
897.496	7719.46
897.811	7662.74
898.126	7666.35
898.441	7658.22
898.756	7610.99
899.071	7625.45
899.386	7554.49
899.7	7609.86
900.015	7535.06
900.33	7497.99
900.644	7498.9
900.959	7460.71
901.273	7389.98
901.588	7385.68
901.902	7329.19
902.216	7395.85
902.531	7310.2
902.845	7280.83
903.159	7236.08
903.473	7210.54
903.787	7157.21
904.101	7164.22
904.415	7169.19
904.729	7136.87
905.042	7045.35
905.356	6997.9
905.67	7038.57
905.984	7045.35
906.297	7003.77
906.611	6972.13
906.924	6912.7
907.237	6883.32
907.551	6957.67
907.864	6925.13
908.177	6876.09
908.491	6824.34
908.804	6801.52
909.117	6724.23
909.43	6717.9
909.743	6750.9
910.056	6686.94
910.368	6687.85
910.681	6611.01
910.994	6637.45
911.307	6549.55
911.619	6571.01
911.932	6505.03
912.244	6512.26
912.557	6481.3
912.869	6418.7
913.181	6430.9
913.494	6396.1
913.806	6381.87
914.118	6319.95
914.43	6312.49
914.742	6264.36
915.054	6227.97
915.366	6219.84
915.678	6230.01
915.99	6174.19
916.302	6131.93
916.613	6096.9
916.925	6068.65
917.236	6051.03
917.548	5971.93
917.859	6047.86
918.171	6025.04
918.482	5966.51
918.794	5929.67
919.105	5914.08
919.416	5917.25
919.727	5888.09
920.038	5880.41
920.349	5797.02
920.66	5830.92
920.971	5792.05
921.282	5753.41
921.593	5733.97
921.903	5726.06
922.214	5681.55
922.525	5646.74
922.835	5668.89
923.146	5595.9
923.456	5599.51
923.767	5537.14
924.077	5571.27
924.387	5535.33
924.697	5517.93
925.008	5508.22
925.318	5440.2
925.628	5453.98
925.938	5435.9
926.248	5406.75
926.558	5352.97
926.867	5325.17
927.177	5320.88
927.487	5317.04
927.796	5283.59
928.106	5287.66
928.416	5240.2
928.725	5234.1
929.034	5166.76
929.344	5199.3
929.653	5157.94
929.962	5151.16
930.271	5058.06
930.581	5090.6
930.89	5039.08
931.199	5050.15
931.508	4996.14
931.817	5001.56
932.125	4968.57
932.434	4963.15
932.743	4935.35
933.051	4917.27
933.36	4874.11
933.669	4890.15
933.977	4873.88
934.286	4832.53
934.594	4822.36
934.902	4733.55
935.21	4748.24
935.519	4757.5
935.827	4745.75
936.135	4693.32
936.443	4668.46
936.751	4671.18
937.059	4650.39
937.367	4618.07
937.674	4604.51
937.982	4564.51
938.29	4530.84
938.597	4604.06
938.905	4497.17
939.213	4498.75
939.52	4498.53
939.827	4530.16
940.135	4420.56
940.442	4417.85
940.749	4388.47
941.056	4454.91
941.363	4376.27
941.67	4363.84
941.977	4325.87
942.284	4280.68
942.591	4274.58
942.898	4279.32
943.205	4343.73
943.511	4209.95
943.818	4256.5
944.125	4181.25
944.431	4182.6
944.738	4155.26
945.044	4137.63
945.35	4146.22
945.657	4115.49
945.963	4138.99
946.269	4115.26
946.575	4053.11
946.881	4027.8
947.187	4003.17
947.493	4047.92
947.799	3997.97
948.105	3994.81
948.41	3934.47
948.716	3966.11
949.022	3915.04
949.327	3928.15
949.633	3904.42
949.938	3917.3
950.244	3910.29
950.549	3860.35
950.854	3831.42
951.16	3785.78
951.465	3757.53
951.77	3764.08
952.075	3772.67
952.38	3762.5
952.685	3760.69
952.99	3756.85
953.294	3727.7
953.599	3686.57
953.904	3660.36
954.209	3610.41
954.513	3688.83
954.818	3600.47
955.122	3592.11
955.426	3610.87
955.731	3565.67
956.035	3542.39
956.339	3576.97
956.643	3529.29
956.948	3534.03
957.252	3520.47
957.556	3521.15
957.86	3491.09
958.163	3455.84
958.467	3420.81
958.771	3431.66
959.075	3423.98
959.378	3383.98
959.682	3393.7
959.985	3367.93
960.289	3381.94
960.592	3343.75
960.896	3313.02
961.199	3348.05
961.502	3297.2
961.805	3275.06
962.108	3261.95
962.411	3250.42
962.714	3235.06
963.017	3233.25
963.32	3254.72
963.623	3222.18
963.926	3198.45
964.228	3187.15
964.531	3170.43
964.833	3140.14
965.136	3105.79
965.438	3137.21
965.741	3098.34
966.043	3073.48
966.345	3093.14
966.648	3075.96
966.95	3037.77
967.252	2998.9
967.554	2997.1
967.856	3019.92
968.158	3002.29
968.46	2981.96
968.761	2971.79
969.063	2939.7
969.365	2924.78
969.666	2949.19
969.968	2916.65
970.269	2889.98
970.571	2889.75
970.872	2896.76
971.174	2887.72
971.475	2833.26
971.776	2849.98
972.077	2848.4
972.378	2832.13
972.679	2813.15
972.98	2807.72
973.281	2805.46
973.582	2782.19
973.883	2773.37
974.183	2756.65
974.484	2786.03
974.785	2706.03
975.085	2704.22
975.386	2723.21
975.686	2685.69
975.986	2662.19
976.287	2654.73
976.587	2659.25
976.887	2638.91
977.187	2655.41
977.487	2625.35
977.787	2569.76
978.087	2616.32
978.387	2569.99
978.687	2597.33
978.987	2557.79
979.286	2573.15
979.586	2548.07
979.885	2555.75
980.185	2513.49
980.484	2508.75
980.784	2484.34
981.083	2491.8
981.382	2477.56
981.682	2438.69
981.981	2492.48
982.28	2451.8
982.579	2450.44
982.878	2428.52
983.177	2439.37
983.475	2410.9
983.774	2412.7
984.073	2381.29
984.372	2384.46
984.67	2360.73
984.969	2347.62
985.267	2358.7
985.566	2356.21
985.864	2344.68
986.162	2313.05
986.461	2342.65
986.759	2315.31
987.057	2269.66
987.355	2298.58
987.653	2257.45
987.951	2256.1
988.249	2244.8
988.547	2280.28
988.844	2230.34
989.142	2204.12
989.44	2207.51
989.737	2207.96
990.035	2184.46
990.332	2224.46
990.63	2196.67
990.927	2163.67
991.224	2156.67
991.521	2120.74
991.819	2137.23
992.116	2097.01
992.413	2115.76
992.71	2091.58
993.006	2066.73
993.303	2077.12
993.6	2066.73
993.897	2074.63
994.193	2096.56
994.49	2026.95
994.787	2027.4
995.083	2019.95
995.379	2018.82
995.676	2020.62
995.972	2032.83
996.268	1985.15
996.565	1991.93
996.861	1975.65
997.157	1948.76
997.453	1956.45
997.749	1902.66
998.044	1962.77
998.34	1937.24
998.636	1931.59
998.932	1894.53
999.227	1892.27
999.523	1857.01
999.818	1872.61
1000.114	1879.61
1000.409	1886.17
1000.704	1831.25
1001	1838.03
1001.295	1824.7
1001.59	1816.56
1001.885	1811.82
1002.18	1805.94
1002.475	1774.08
1002.77	1788.99
1003.065	1760.97
1003.359	1770.46
1003.654	1763.23
1003.949	1747.41
1004.243	1746.96
1004.538	1732.72
1004.832	1709.45
1005.127	1732.72
1005.421	1684.81
1005.715	1680.07
1006.009	1672.61
1006.304	1670.58
1006.598	1687.98
1006.892	1679.16
1007.186	1651.59
1007.48	1650.92
1007.773	1574.08
1008.067	1614.99
1008.361	1614.31
1008.655	1591.94
1008.948	1589.45
1009.242	1581.99
1009.535	1570.24
1009.829	1572.28
1010.122	1533.41
1010.415	1524.37
1010.708	1530.69
1011.001	1525.04
1011.295	1526.17
1011.588	1515.55
1011.881	1557.36
1012.173	1506.29
1012.466	1484.14
1012.759	1505.16
1013.052	1454.54
1013.344	1472.62
1013.637	1442.11
1013.93	1434.88
1014.222	1459.06
1014.514	1439.85
1014.807	1396.91
1015.099	1412.05
1015.391	1421.09
1015.683	1387.65
1015.976	1412.28
1016.268	1382.9
1016.56	1378.16
1016.851	1364.6
1017.143	1349.91
1017.435	1342.45
1017.727	1326.86
1018.018	1365.95
1018.31	1317.14
1018.602	1321.43
1018.893	1307.2
1019.185	1312.62
1019.476	1314.88
1019.767	1297.71
1020.058	1279.63
1020.35	1265.62
1020.641	1254.54
1020.932	1264.03
1021.223	1243.24
1021.514	1274.88
1021.804	1231.27
1022.095	1249.8
1022.386	1201.44
1022.677	1229.01
1022.967	1200.76
1023.258	1184.26
1023.548	1169.57
1023.839	1180.87
1024.129	1150.37
1024.419	1154.88
1024.709	1149.69
1025	1139.74
1025.29	1156.47
1025.58	1151.04
1025.87	1122.8
1026.16	1107.65
1026.449	1132.96
1026.739	1120.31
1027.029	1114.66
1027.319	1096.58
1027.608	1107.43
1027.898	1074.21
1028.187	1095.68
1028.477	1051.38
1028.766	1057.26
1029.055	1050.25
1029.344	1041.89
1029.634	1068.33
1029.923	1050.93
1030.212	1028.11
1030.501	1066.53
1030.79	999.86
1031.078	1006.41
1031.367	1004.38
1031.656	1017.94
1031.945	1001.89
1032.233	975
1032.522	980.2
1032.81	972.06
1033.099	969.58
1033.387	970.48
1033.675	964.61
1033.963	963.7
1034.251	975.45
1034.54	942.69
1034.828	958.05
1035.116	915.34
1035.403	897.72
1035.691	909.69
1035.979	927.55
1036.267	905.85
1036.554	908.56
1036.842	908.79
1037.129	902.46
1037.417	873.99
1037.704	863.82
1037.992	870.37
1038.279	876.7
1038.566	859.07
1038.853	859.07
1039.14	859.07
