Data from hue_220_FLMS001491_00003.txt Node
Date: Tue Feb 07 16:38:27 GMT 2017
User: dcchb
Spectrometer: FLMS00149
Trigger mode: 0
Integration Time (sec): 2.000000E-2
Scans to average: 10
Electric dark correction enabled: true
Nonlinearity correction enabled: false
Boxcar width: 0
XAxis mode: Wavelengths
Number of Pixels in Spectrum: 2048
>>>>>Begin Spectral Data<<<<<
341.393	-7.99
341.776	-7.99
342.16	-7.99
342.543	-79.86
342.927	-59.52
343.31	-58.61
343.693	-82.57
344.077	-42.34
344.46	-68.33
344.843	-50.93
345.226	-46.64
345.61	-28.78
345.993	-39.41
346.376	11.67
346.759	16.19
347.142	25.9
347.525	36.3
347.908	48.73
348.291	63.42
348.674	94.38
349.057	121.04
349.44	139.35
349.823	148.84
350.206	157.43
350.588	182.74
350.971	208.95
351.354	213.02
351.737	239.68
352.119	258.21
352.502	255.05
352.884	266.57
353.267	293.92
353.65	293.69
354.032	309.96
354.414	316.74
354.797	301.6
355.179	296.4
355.562	325.78
355.944	320.36
356.326	325.56
356.709	319.68
357.091	328.04
357.473	349.51
357.855	345.89
358.238	338.89
358.62	337.99
359.002	342.73
359.384	338.21
359.766	321.94
360.148	337.76
360.53	346.35
360.912	335.95
361.294	349.74
361.676	329.17
362.057	340.25
362.439	346.35
362.821	337.53
363.203	321.26
363.584	333.69
363.966	334.14
364.348	317.2
364.729	317.65
365.111	318.1
365.493	331.88
365.874	306.57
366.256	307.93
366.637	316.07
367.019	300.02
367.4	316.97
367.781	317.2
368.163	326.69
368.544	314.26
368.925	324.65
369.306	321.49
369.688	283.75
370.069	333.69
370.45	309.96
370.831	306.8
371.212	309.96
371.593	304.77
371.974	320.58
372.355	310.42
372.736	321.04
373.117	296.86
373.498	316.74
373.879	307.7
374.26	305.9
374.641	308.61
375.021	319.23
375.402	323.52
375.783	328.27
376.163	327.14
376.544	308.38
376.925	323.3
377.305	328.04
377.686	340.7
378.066	333.47
378.447	326.91
378.827	320.36
379.208	319.23
379.588	354.71
379.968	347.02
380.349	333.92
380.729	330.53
381.109	334.14
381.489	330.75
381.87	330.08
382.25	344.76
382.63	318.32
383.01	351.77
383.39	342.51
383.77	348.61
384.15	342.05
384.53	339.79
384.91	361.94
385.29	359.91
385.67	348.61
386.049	341.6
386.429	370.53
386.809	323.97
387.189	349.96
387.568	350.64
387.948	352.45
388.328	338.66
388.707	359.23
389.087	338.44
389.466	373.69
389.846	354.48
390.225	375.27
390.605	357.42
390.984	347.93
391.363	359.91
391.743	375.27
392.122	379.34
392.501	375.5
392.881	387.02
393.26	383.63
393.639	391.77
394.018	385.89
394.397	389.74
394.776	390.41
395.155	392.67
395.534	375.5
395.913	402.39
396.292	385.67
396.671	406.91
397.05	397.87
397.429	403.75
397.808	414.82
398.186	399
398.565	403.52
398.944	419.11
399.323	408.49
399.701	412.79
400.08	408.04
400.458	429.28
400.837	410.3
401.215	416.85
401.594	419.79
401.972	432.67
402.351	448.27
402.729	433.8
403.107	458.89
403.486	433.58
403.864	446.01
404.242	448.72
404.62	455.5
404.999	465.89
405.377	454.37
405.755	462.05
406.133	470.41
406.511	468.6
406.889	479.45
407.267	477.64
407.645	494.59
408.023	485.78
408.401	493.01
408.779	503.63
409.156	507.02
409.534	505.21
409.912	524.42
410.29	535.95
410.667	537.3
411.045	525.78
411.422	543.86
411.8	576.17
412.178	567.36
412.555	573.46
412.933	593.35
413.31	580.92
413.687	602.84
414.065	609.62
414.442	601.71
414.819	611.88
415.197	648.03
415.574	642.84
415.951	655.72
416.328	673.57
416.705	655.94
417.082	671.76
417.46	675.83
417.837	672.67
418.214	700.69
418.591	687.13
418.967	720.57
419.344	718.31
419.721	730.74
420.098	733.23
420.475	763.06
420.852	774.58
421.228	760.8
421.605	772.55
421.982	782.95
422.358	811.42
422.735	797.86
423.111	827.69
423.488	869.27
423.864	890.97
424.241	883.73
424.617	864.98
424.994	914.47
425.37	956.27
425.746	939.78
426.123	934.81
426.499	953.34
426.875	970.96
427.251	984.52
427.627	1011.19
428.003	1016.39
428.379	1043.73
428.756	1034.24
429.132	1082.6
429.507	1058.19
429.883	1078.53
430.259	1070.17
430.635	1107.46
431.011	1113.78
431.387	1116.04
431.763	1159.88
432.138	1174.8
432.514	1178.87
432.89	1191.75
433.265	1234.01
433.641	1197.17
434.016	1244.63
434.392	1288.69
434.767	1327.79
435.143	1312.65
435.518	1339.77
435.894	1366.88
436.269	1375.7
436.644	1400.78
437.02	1433.78
437.395	1461.57
437.77	1459.09
438.145	1509.71
438.52	1502.25
438.895	1519.65
439.271	1552.19
439.646	1586.31
440.021	1614.56
440.395	1615.47
440.77	1622.25
441.145	1660.89
441.52	1676.93
441.895	1694.79
442.27	1711.28
442.645	1719.87
443.019	1729.36
443.394	1753.54
443.769	1782.24
444.143	1796.93
444.518	1810.94
444.892	1821.11
445.267	1849.13
445.641	1870.37
446.016	1862.24
446.39	1882.13
446.764	1905.63
447.139	1904.72
447.513	1944.95
447.887	1902.01
448.262	1961.67
448.636	1949.47
449.01	1960.99
449.384	1993.99
449.758	1999.64
450.132	2031.95
450.506	2035.12
450.88	2059.3
451.254	2063.14
451.628	2085.28
452.002	2109.46
452.376	2094.78
452.75	2141.55
453.123	2172.74
453.497	2198.28
453.871	2190.14
454.244	2222.91
454.618	2268.56
454.992	2300.65
455.365	2267.2
455.739	2344.94
456.112	2361.21
456.486	2380.64
456.859	2386.97
457.232	2405.73
457.606	2428.33
457.979	2436.24
458.352	2496.35
458.725	2520.75
459.099	2545.16
459.472	2569.11
459.845	2613.41
460.218	2622.9
460.591	2662.22
460.964	2652.95
461.337	2680.3
461.71	2745.38
462.083	2744.7
462.456	2799.62
462.829	2753.74
463.201	2860.41
463.574	2874.64
463.947	2881.42
464.32	2945.15
464.692	2948.76
465.065	2957.8
465.438	3041.19
465.81	3083.22
466.183	3083.45
466.555	3163.22
466.928	3159.61
467.3	3168.42
467.672	3223.11
468.045	3285.48
468.417	3287.29
468.789	3317.57
469.161	3368.87
469.534	3438.24
469.906	3467.17
470.278	3473.5
470.65	3508.3
471.022	3584.91
471.394	3620.39
471.766	3611.8
472.138	3671.23
472.51	3776.54
472.882	3806.14
473.253	3825.13
473.625	3891.34
473.997	3965.46
474.369	3997.78
474.74	4012.69
475.112	4018.11
475.484	4140.15
475.855	4217.66
476.227	4213.59
476.598	4309.18
476.97	4374.26
477.341	4425.11
477.713	4459.23
478.084	4490.87
478.455	4644.76
478.827	4612
479.198	4748.26
479.569	4722.73
479.94	4842.05
480.311	4899.45
480.682	4984.64
481.053	5101.02
481.424	5122.04
481.795	5197.74
482.166	5263.51
482.537	5307.57
482.908	5362.03
483.279	5483.16
483.65	5548.02
484.021	5611.97
484.391	5651.29
484.762	5729.26
485.133	5740.78
485.503	5860.33
485.874	5991.85
486.244	5964.28
486.615	6092.64
486.985	6048.8
487.356	6197.27
487.726	6254.67
488.097	6353.87
488.467	6342.35
488.837	6520.87
489.207	6488.56
489.578	6575.56
489.948	6634.32
490.318	6741.43
490.688	6762.22
491.058	6877.02
491.428	6947.76
491.798	6944.14
492.168	7101.42
492.538	7132.61
492.908	7185.04
493.278	7225.71
493.648	7214.19
494.017	7305.26
494.387	7356.56
494.757	7375.31
495.126	7487.4
495.496	7506.61
495.866	7502.54
496.235	7637.91
496.605	7657.79
496.974	7645.14
497.344	7691.69
497.713	7747.73
498.082	7771.69
498.452	7832.93
498.821	7857.56
499.19	7865.7
499.559	7982.98
499.928	7992.47
500.298	8048.97
500.667	8084.9
501.036	8078.57
501.405	8137.33
501.774	8115.86
502.143	8208.29
502.512	8179.59
502.88	8256.42
503.249	8228.63
503.618	8269.3
503.987	8241.51
504.356	8373.25
504.724	8349.53
505.093	8365.35
505.462	8407.6
505.83	8431.56
506.199	8488.51
506.567	8542.97
506.936	8481.27
507.304	8594.27
507.672	8579.35
508.041	8674.94
508.409	8711.1
508.777	8643.76
509.145	8687.6
509.514	8746.35
509.882	8686.69
510.25	8699.57
510.618	8782.96
510.986	8805.79
511.354	8820.25
511.722	8843.07
512.09	8907.48
512.458	8848.27
512.826	8893.69
513.193	8903.41
513.561	8946.35
513.929	8879.68
514.297	8949.28
514.664	9032.9
515.032	8941.83
515.4	9016.85
515.767	9074.93
516.135	9092.11
516.502	8987.7
516.869	9104.31
517.237	9076.06
517.604	9018.21
517.972	9052.56
518.339	9130.07
518.706	9135.27
519.073	9107.92
519.44	9103.63
519.808	9221.14
520.175	9176.4
520.542	9257.75
520.909	9259.11
521.276	9216.17
521.643	9252.78
522.009	9227.92
522.376	9260.24
522.743	9274.7
523.11	9359.67
523.477	9332.55
523.843	9344.08
524.21	9444.64
524.577	9453.23
524.943	9435.83
525.31	9428.37
525.676	9530.51
526.043	9493
526.409	9542.26
526.776	9527.57
527.142	9455.03
527.508	9543.62
527.874	9450.74
528.241	9604.63
528.607	9515.37
528.973	9584.97
529.339	9520.79
529.705	9584.52
530.071	9619.32
530.437	9547.23
530.803	9652.54
531.169	9611.41
531.535	9512.66
531.901	9567.12
532.267	9588.59
532.632	9587.23
532.998	9540.68
533.364	9558.31
533.73	9575.93
534.095	9585.2
534.461	9573.22
534.826	9552.66
535.192	9520.34
535.557	9594.47
535.923	9511.3
536.288	9551.08
536.653	9550.4
537.019	9457.97
537.384	9450.06
537.749	9468.82
538.114	9477.41
538.479	9487.12
538.845	9421.59
539.21	9454.58
539.575	9390.4
539.94	9414.13
540.305	9455.49
540.67	9363.06
541.034	9324.42
541.399	9338.2
541.764	9310.18
542.129	9332.1
542.494	9291.2
542.858	9280.58
543.223	9193.8
543.587	9244.19
543.952	9249.39
544.316	9208.03
544.681	9215.49
545.045	9243.29
545.41	9143.63
545.774	9173.46
546.138	9121.71
546.503	9161.93
546.867	9068.15
547.231	9209.16
547.595	9057.08
547.959	9078.55
548.324	8989.28
548.688	8998.55
549.052	9020.24
549.416	8975.5
549.779	8997.42
550.143	8955.39
550.507	8996.97
550.871	8958.78
551.235	8896.63
551.599	8998.32
551.962	8872.22
552.326	8818.67
552.689	8905.9
553.053	8743.64
553.417	8812.34
553.78	8932.79
554.143	8762.85
554.507	8800.59
554.87	8843.75
555.234	8862.96
555.597	8803.53
555.96	8751.55
556.323	8757.65
556.686	8713.81
557.05	8797.2
557.413	8702.96
557.776	8768.05
558.139	8786.58
558.502	8761.27
558.865	8767.59
559.228	8827.03
559.59	8812.56
559.953	8734.6
560.316	8824.99
560.679	8789.29
561.041	8796.52
561.404	8867.25
561.767	8822.28
562.129	8804.66
562.492	8809.85
562.854	8837.42
563.217	8808.72
563.579	8782.96
563.941	8931.88
564.304	8862.28
564.666	8936.18
565.028	8943.63
565.39	8897.53
565.753	8963.52
566.115	8965.1
566.477	8973.01
566.839	8986.57
567.201	8990.87
567.563	8993.58
567.925	8983.86
568.287	9018.89
568.648	9062.28
569.01	9108.15
569.372	9069.96
569.734	9086.46
570.095	9161.03
570.457	9110.86
570.819	9143.18
571.18	9174.59
571.542	9106.57
571.903	9203.06
572.265	9238.99
572.626	9269.5
572.987	9236.96
573.349	9230.63
573.71	9276.96
574.071	9309.05
574.432	9341.36
574.794	9397.86
575.155	9339.56
575.516	9397.18
575.877	9384.3
576.238	9443.51
576.599	9485.99
576.96	9457.07
577.32	9452.55
577.681	9535.94
578.042	9536.16
578.403	9523.28
578.763	9509.72
579.124	9558.76
579.485	9656.16
579.845	9651.64
580.206	9605.54
580.566	9642.15
580.927	9619.32
581.287	9756.95
581.648	9676.05
582.008	9677.4
582.368	9703.84
582.728	9742.48
583.089	9814.8
583.449	9746.1
583.809	9828.13
584.169	9774.35
584.529	9768.25
584.889	9855.7
585.249	9838.07
585.609	9840.11
585.969	9883.72
586.329	9902.93
586.688	9955.13
587.048	9937.06
587.408	9892.76
587.768	9914.91
588.127	9947.22
588.487	9860.67
588.846	10018.18
589.206	9967.79
589.565	9961.46
589.925	10109.93
590.284	10017.28
590.643	10036.49
591.003	10095.24
591.362	10062.02
591.721	10115.36
592.08	10137.05
592.44	10163.49
592.799	10128.69
593.158	10122.36
593.517	10121.01
593.876	10125.98
594.235	10116.26
594.593	10141.57
594.952	10112.42
595.311	10136.6
595.67	10223.6
596.029	10358.96
596.387	10277.84
596.746	10235.58
597.104	10191.29
597.463	10263.83
597.822	10269.25
598.18	10231.96
598.538	10260.66
598.897	10266.76
599.255	10224.96
599.613	10307.44
599.972	10258.18
600.33	10314.22
600.688	10314.67
601.046	10282.58
601.404	10391.73
601.762	10310.38
602.12	10440.32
602.478	10378.4
602.836	10394.9
603.194	10384.05
603.552	10330.94
603.91	10352.64
604.268	10413.65
604.625	10342.24
604.983	10424.27
605.341	10395.35
605.698	10358.06
606.056	10358.29
606.413	10434.67
606.771	10426.31
607.128	10438.96
607.485	10533.88
607.843	10466.76
608.2	10494.1
608.557	10463.14
608.914	10445.52
609.272	10558.73
609.629	10574.55
609.986	10551.28
610.343	10544.72
610.7	10625.4
611.057	10463.82
611.414	10610.03
611.771	10551.5
612.127	10596.7
612.484	10583.82
612.841	10644.16
613.198	10594.44
613.554	10586.98
613.911	10629.92
614.267	10683.7
614.624	10661.56
614.98	10616.13
615.337	10675.79
615.693	10658.17
616.05	10674.66
616.406	10767.09
616.762	10713.98
617.118	10695.91
617.475	10746.3
617.831	10785.85
618.187	10775
618.543	10800.08
618.899	10814.55
619.255	10798.28
619.611	10742.68
619.967	10817.03
620.323	10840.08
620.678	10744.27
621.034	10780.42
621.39	10762.8
621.746	10729.58
622.101	10892.28
622.457	10775.45
622.812	10828.11
623.168	10841.21
623.523	10783.36
623.879	10904.94
624.234	10803.92
624.589	10800.54
624.945	10795.34
625.3	10863.13
625.655	10784.04
626.01	10796.69
626.365	10819.74
626.72	10787.88
627.075	10764.38
627.43	10763.25
627.785	10782
628.14	10802.34
628.495	10792.4
628.85	10768.67
629.205	10733.87
629.559	10819.97
629.914	10682.12
630.269	10815.22
630.623	10636.7
630.978	10718.5
631.332	10701.55
631.687	10738.84
632.041	10723.7
632.396	10675.11
632.75	10666.75
633.104	10659.75
633.459	10603.93
633.813	10616.81
634.167	10597.38
634.521	10608
634.875	10600.77
635.229	10626.75
635.583	10572.07
635.937	10574.33
636.291	10561.45
636.645	10523.93
636.999	10518.96
637.352	10531.84
637.706	10422.24
638.06	10545.85
638.413	10485.52
638.767	10497.72
639.121	10471.05
639.474	10386.31
639.828	10405.07
640.181	10440.32
640.534	10443.93
640.888	10360.32
641.241	10329.14
641.594	10340.43
641.947	10403.48
642.301	10374.11
642.654	10390.15
643.007	10384.95
643.36	10350.38
643.713	10361.22
644.066	10361.22
644.419	10287.1
644.771	10252.75
645.124	10202.58
645.477	10132.76
645.83	10026.77
646.182	10061.57
646.535	9970.05
646.888	10060.22
647.24	9971.63
647.593	10042.82
647.945	9935.7
648.298	9945.42
648.65	9986.32
649.002	9985.42
649.355	9988.13
649.707	9958.52
650.059	10006.43
650.411	10114.68
650.763	10154.45
651.115	10232.41
651.467	10182.47
651.819	10204.39
652.171	10219.53
652.523	10248.46
652.875	10216.37
653.227	10129.37
653.578	10172.53
653.93	10260.21
654.282	10163.04
654.633	10145.41
654.985	10177.95
655.337	10200.55
655.688	10198.52
656.039	10171.63
656.391	10188.35
656.742	10163.04
657.094	10178.18
657.445	10225.18
657.796	10209.36
658.147	10153.55
658.498	10179.53
658.849	10200.55
659.2	10193.77
659.551	10195.81
659.902	10273.09
660.253	10192.42
660.604	10185.86
660.955	10141.12
661.306	10263.83
661.656	10199.2
662.007	10240.55
662.358	10248.46
662.708	10245.3
663.059	10229.02
663.409	10151.51
663.76	10243.49
664.11	10278.74
664.461	10227.89
664.811	10281.23
665.161	10258.63
665.511	10234.22
665.862	10274
666.212	10271.96
666.562	10338.17
666.912	10319.87
667.262	10295.46
667.612	10292.98
667.962	10246.65
668.312	10231.28
668.662	10326.2
669.011	10245.75
669.361	10236.93
669.711	10215.01
670.06	10264.28
670.41	10286.88
670.76	10167.33
671.109	10228.35
671.459	10241.23
671.808	10150.83
672.157	10249.36
672.507	10160.55
672.856	10167.78
673.205	10151.29
673.554	10219.99
673.904	10157.39
674.253	10159.87
674.602	10116.26
674.951	10029.26
675.3	9885.53
675.649	10139.99
675.998	10077.16
676.346	10107.67
676.695	10129.14
677.044	10100.89
677.393	10055.92
677.741	10076.71
678.09	10103.15
678.438	9991.97
678.787	10011.4
679.135	10038.75
679.484	10001.01
679.832	10010.95
680.181	9951.74
680.529	10009.14
680.877	9936.6
681.225	9962.59
681.573	9936.6
681.922	9881.46
682.27	9813.44
682.618	9838.3
682.966	9791.97
683.314	9882.59
683.661	9794.23
684.009	9769.15
684.357	9752.2
684.705	9696.38
685.053	9692.77
685.4	9771.64
685.748	9605.76
686.095	9620
686.443	9574.8
686.79	9615.48
687.138	9662.71
687.485	9684.41
687.832	9544.52
688.18	9542.94
688.527	9472.66
688.874	9534.81
689.221	9453.23
689.568	9401.02
689.915	9417.75
690.262	9364.19
690.609	9354.47
690.956	9331.42
691.303	9313.57
691.65	9291.87
691.997	9266.11
692.344	9162.61
692.69	9153.35
693.037	9208.94
693.383	9058.21
693.73	9090.07
694.077	9041.94
694.423	9077.19
694.769	9024.76
695.116	8999.45
695.462	8967.59
695.808	8895.73
696.155	8914.03
696.501	8880.13
696.847	8845.78
697.193	8736.86
697.539	8813.47
697.885	8733.92
698.231	8635.39
698.577	8628.16
698.923	8657.99
699.269	8620.71
699.614	8525.79
699.96	8567.15
700.306	8636.07
700.651	8492.35
700.997	8463.2
701.342	8441.05
701.688	8405.57
702.033	8414.84
702.379	8373.93
702.724	8339.36
703.069	8299.36
703.415	8241.05
703.76	8216.87
704.105	8242.86
704.45	8241.96
704.795	8139.14
705.14	8142.98
705.485	8087.84
705.83	8105.46
706.175	8113.37
706.52	8023.43
706.865	7999.7
707.209	8030.89
707.554	7954.73
707.899	7984.56
708.243	7881.97
708.588	7891.46
708.932	7889.43
709.277	7847.62
709.621	7858.01
709.966	7791.8
710.31	7829.31
710.654	7738.02
710.998	7753.61
711.342	7729.66
711.687	7755.42
712.031	7710.67
712.375	7630.68
712.719	7716.1
713.063	7704.35
713.407	7639.94
713.75	7601.07
714.094	7623.22
714.438	7605.36
714.782	7583.9
715.125	7544.8
715.469	7569.43
715.812	7532.82
716.156	7456.22
716.499	7438.36
716.843	7537.12
717.186	7465.26
717.53	7474.29
717.873	7436.56
718.216	7476.78
718.559	7476.78
718.902	7462.77
719.246	7395.88
719.589	7380.74
719.932	7325.15
720.275	7321.98
720.617	7288.09
720.96	7329.89
721.303	7352.49
721.646	7316.79
721.989	7233.62
722.331	7334.64
722.674	7334.41
723.016	7251.7
723.359	7274.98
723.701	7348.65
724.044	7282.66
724.386	7286.05
724.729	7290.8
725.071	7243.11
725.413	7253.96
725.755	7258.03
726.097	7263.45
726.439	7242.89
726.782	7145.26
727.124	7186.62
727.465	7210.12
727.807	7210.12
728.149	7200.4
728.491	7132.38
728.833	7223.23
729.175	7184.36
729.516	7140.29
729.858	7184.81
730.199	7146.17
730.541	7193.17
730.882	7152.5
731.224	7170.35
731.565	7155.89
731.906	7163.57
732.248	7171.03
732.589	7181.65
732.93	7134.87
733.271	7067.75
733.612	7101.42
733.953	7123.34
734.294	7176.22
734.635	7110.01
734.976	7144.59
735.317	7140.07
735.658	7141.87
735.999	7124.93
736.339	7161.53
736.68	7193.85
737.021	7173.06
737.361	7119.95
737.702	7242.21
738.042	7178.71
738.383	7194.75
738.723	7175.32
739.063	7203.79
739.404	7150.01
739.744	7293.28
740.084	7180.97
740.424	7281.08
740.764	7273.4
741.104	7265.71
741.444	7244.02
741.784	7298.03
742.124	7312.49
742.464	7311.14
742.804	7292.15
743.143	7347.97
743.483	7404.01
743.823	7335.32
744.162	7444.01
744.502	7460.06
744.841	7430.45
745.181	7505.03
745.52	7545.93
745.86	7530.11
746.199	7623.44
746.538	7657.12
746.877	7714.29
747.216	7734.18
747.556	7747.96
747.895	7794.29
748.234	7785.25
748.573	7880.39
748.911	7975.98
749.25	8012.36
749.589	8073.38
749.928	8119.93
750.267	8206.48
750.605	8254.16
750.944	8315.63
751.283	8421.84
751.621	8454.38
751.96	8551.78
752.298	8617.99
752.636	8703.64
752.975	8721.72
753.313	8898.21
753.651	9010.98
753.989	9084.2
754.327	9221.82
754.666	9316.96
755.004	9421.81
755.342	9512.66
755.679	9687.57
756.017	9853.44
756.355	9943.38
756.693	10102.25
757.031	10213.66
757.368	10349.93
757.706	10474.22
758.044	10545.4
758.381	10823.81
758.719	10984.94
759.056	11126.63
759.394	11279.62
759.731	11372.95
760.068	11626.28
760.405	11730.91
760.743	11870.11
761.08	12106.49
761.417	12231.68
761.754	12397.1
762.091	12667.38
762.428	12729.75
762.765	12858.33
763.102	13131.55
763.438	13382.39
763.775	13445.21
764.112	13694.02
764.449	13889.95
764.785	14032.99
765.122	14227.56
765.458	14354.11
765.795	14490.38
766.131	14717.49
766.467	14846.76
766.804	14962.69
767.14	15165.17
767.476	15308.89
767.812	15442.67
768.148	15614.19
768.485	15671.82
768.821	15804.02
769.157	15947.74
769.492	16094.63
769.828	16279.04
770.164	16270.22
770.5	16532.59
770.836	16701.17
771.171	16761.06
771.507	16879.92
771.842	16902.3
772.178	17028.62
772.513	17105.91
772.849	17262.51
773.184	17325.79
773.519	17418.44
773.855	17421.6
774.19	17625.89
774.525	17583.63
774.86	17795.15
775.195	17962.61
775.53	17930.29
775.865	17910.63
776.2	17926.68
776.535	17934.58
776.87	18037.41
777.205	18070.63
777.539	18121.02
777.874	18208.48
778.209	18142.49
778.543	18359.43
778.878	18236.72
779.212	18330.05
779.547	18465.19
779.881	18500.9
780.215	18426.32
780.55	18549.94
780.884	18513.33
781.218	18552.42
781.552	18584.96
781.886	18567.11
782.22	18625.41
782.554	18543.83
782.888	18493.21
783.222	18579.77
783.556	18484.85
783.889	18558.98
784.223	18423.84
784.557	18494.8
784.89	18579.77
785.224	18459.09
785.557	18495.47
785.891	18544.06
786.224	18442.37
786.558	18490.95
786.891	18393.78
787.224	18417.96
787.557	18431.75
787.891	18471.75
788.224	18367.34
788.557	18380.22
788.89	18499.77
789.223	18431.3
789.556	18333.44
789.888	18361.24
790.221	18300
790.554	18226.55
790.887	18255.71
791.219	18163.51
791.552	18207.12
791.884	18144.75
792.217	18102.72
792.549	18219.78
792.882	17966.9
793.214	17983.4
793.546	18062.49
793.879	17996.05
794.211	17891.42
794.543	17913.34
794.875	17923.29
795.207	18000.8
795.539	17831.54
795.871	17858.2
796.203	17774.59
796.535	17685.78
796.867	17756.28
797.198	17579.57
797.53	17625.21
797.862	17562.39
798.193	17534.37
798.525	17455.5
798.856	17526.01
799.188	17335.96
799.519	17320.59
799.85	17230.42
800.182	17260.93
800.513	17317.2
800.844	17128.28
801.175	17232.91
801.506	17132.57
801.837	17222.74
802.168	17103.42
802.499	16994.95
802.83	16950.2
803.161	16977.77
803.491	17019.13
803.822	16954.95
804.153	16859.13
804.483	16778.68
804.814	16755.86
805.145	16823.65
805.475	16716.09
805.805	16612.36
806.136	16659.36
806.466	16599.93
806.796	16701.85
807.126	16487.39
807.457	16459.82
807.787	16489.43
808.117	16371.69
808.447	16449.43
808.777	16389.99
809.107	16395.64
809.436	16276.55
809.766	16195.65
810.096	16247.85
810.426	16174.63
810.755	16183.9
811.085	16191.13
811.414	16200.62
811.744	16005.14
812.073	16025.71
812.403	15996.78
812.732	15928.99
813.061	15990.91
813.39	15864.81
813.719	15860.97
814.049	15894.86
814.378	15858.93
814.707	15766.05
815.036	15715.89
815.365	15677.02
815.693	15574.42
816.022	15544.59
816.351	15494.42
816.68	15452.16
817.008	15560.86
817.337	15415.33
817.665	15411.49
817.994	15417.59
818.322	15377.59
818.651	15352.73
818.979	15376.69
819.307	15446.51
819.636	15284.26
819.964	15194.54
820.292	15372.39
820.62	15218.27
820.948	15267.76
821.276	15261.89
821.604	15195.22
821.932	15247.2
822.259	15260.76
822.587	15284.49
822.915	15226.86
823.243	15270.25
823.57	15161.78
823.898	15188.22
824.225	15239.51
824.553	15206.07
824.88	15225.5
825.207	15208.33
825.535	15249.23
825.862	15336.69
826.189	15201.78
826.516	15239.74
826.843	15240.64
827.17	15286.52
827.497	15329
827.824	15301.89
828.151	15361.55
828.478	15278.61
828.805	15297.82
829.131	15257.82
829.458	15251.04
829.785	15254.66
830.111	15269.8
830.438	15393.63
830.764	15297.59
831.09	15365.39
831.417	15258.5
831.743	15297.82
832.069	15267.31
832.395	15169.91
832.722	15218.95
833.048	15273.41
833.374	15310.7
833.7	15128.33
834.026	15222.11
834.351	15171.95
834.677	15181.89
835.003	15184.15
835.329	15220.08
835.654	15130.36
835.98	15048.79
836.306	15171.49
836.631	15058.28
836.956	15073.87
837.282	15043.59
837.607	14959.97
837.932	15061.44
838.258	14938.73
838.583	14994.55
838.908	14800.88
839.233	14896.02
839.558	14922.69
839.883	14764.72
840.208	14774.67
840.533	14823.03
840.858	14798.17
841.182	14855.57
841.507	14726.99
841.832	14673.88
842.156	14619.42
842.481	14653.54
842.805	14666.42
843.13	14650.83
843.454	14621
843.778	14494.9
844.103	14498.07
844.427	14406.54
844.751	14442.47
845.075	14415.36
845.399	14279.09
845.723	14332.19
846.047	14295.13
846.371	14179.88
846.695	14163.38
847.019	14083.84
847.343	14056.49
847.666	14004.97
847.99	13927.91
848.313	13809.04
848.637	13712.1
848.96	13768.37
849.284	13769.5
849.607	13567.47
849.931	13530.86
850.254	13506.45
850.577	13501.71
850.9	13399.34
851.223	13387.81
851.546	13328.38
851.869	13121.6
852.192	13314.59
852.515	13085.45
852.838	13129.74
853.161	13094.94
853.483	13018.78
853.806	12963.64
854.129	12932
854.451	12938.11
854.774	12904.89
855.096	12794.38
855.419	12781.05
855.741	12675.06
856.063	12713.48
856.385	12731.33
856.708	12543.09
857.03	12520.72
857.352	12526.37
857.674	12512.13
857.996	12490.21
858.318	12435.29
858.64	12372.02
858.961	12364.34
859.283	12200.05
859.605	12202.98
859.926	12277.78
860.248	12290.44
860.57	12188.97
860.891	12208.86
861.212	12144.68
861.534	12181.29
861.855	12009.32
862.176	12145.13
862.498	12050.67
862.819	12045.25
863.14	11915.31
863.461	11995.76
863.782	11898.13
864.103	11941.75
864.424	11934.06
864.745	11870.34
865.065	11823.33
865.386	11784.01
865.707	11795.99
866.027	11822.88
866.348	11778.14
866.668	11780.62
866.989	11746.05
867.309	11660.85
867.63	11674.41
867.95	11731.13
868.27	11608.65
868.59	11621.98
868.91	11589.22
869.23	11552.83
869.55	11558.26
869.87	11591.02
870.19	11599.61
870.51	11508.77
870.83	11550.8
871.15	11444.59
871.469	11409.33
871.789	11538.14
872.109	11419.5
872.428	11353.06
872.748	11418.37
873.067	11416.79
873.386	11364.36
873.706	11410.01
874.025	11320.97
874.344	11219.96
874.663	11364.81
874.982	11237.36
875.301	11282.33
875.62	11209.34
875.939	11189.45
876.258	11256.57
876.577	11203.46
876.896	11184.93
877.214	11100.19
877.533	11090.25
877.852	11068.32
878.17	11117.59
878.489	11057.03
878.807	11114.88
879.125	11052.28
879.444	11015.67
879.762	11034.88
880.08	10977.93
880.398	10975.22
880.716	10969.57
881.034	10895.22
881.352	10880.53
881.67	10904.71
881.988	10812.96
882.306	10856.35
882.624	10748.79
882.941	10758.73
883.259	10709.46
883.577	10666.08
883.894	10652.06
884.212	10645.74
884.529	10678.5
884.846	10624.49
885.164	10644.16
885.481	10473.31
885.798	10573.87
886.115	10400.09
886.432	10464.72
886.75	10490.26
887.067	10471.05
887.383	10360.32
887.7	10381.11
888.017	10360.55
888.334	10354.45
888.651	10269.93
888.967	10306.76
889.284	10235.58
889.6	10214.11
889.917	10170.27
890.233	10131.4
890.55	10107.9
890.866	10064.51
891.182	10087.56
891.498	10088.24
891.815	9979.54
892.131	9974.34
892.447	9974.57
892.763	9951.52
893.079	9877.4
893.395	9797.85
893.71	9822.26
894.026	9727.8
894.342	9755.82
894.657	9710.85
894.973	9737.51
895.289	9704.74
895.604	9653.22
895.92	9551.53
896.235	9612.54
896.55	9556.27
896.865	9512.66
897.181	9440.57
897.496	9537.07
897.811	9457.07
898.126	9473.79
898.441	9384.98
898.756	9313.79
899.071	9283.29
899.386	9173.91
899.7	9187.24
900.015	9108.83
900.33	9085.1
900.644	9096.4
900.959	9131.2
901.273	9034.03
901.588	9027.02
901.902	8958.32
902.216	8935.95
902.531	8898.21
902.845	8907.7
903.159	8811.66
903.473	8826.35
903.787	8770.98
904.101	8686.69
904.415	8725.56
904.729	8667.94
905.042	8683.53
905.356	8654.15
905.67	8618.67
905.984	8629.29
906.297	8507.94
906.611	8482.18
906.924	8498
907.237	8486.92
907.551	8423.87
907.864	8313.82
908.177	8328.96
908.491	8235.63
908.804	8274.5
909.117	8240.83
909.43	8163.54
909.743	8159.93
910.056	8141.4
910.368	8091.68
910.681	8035.41
910.994	8048.07
911.307	8000.83
911.619	7906.83
911.932	7923.1
912.244	7859.37
912.557	7862.99
912.869	7797.45
913.181	7771.01
913.494	7752.71
913.806	7703.22
914.118	7703.67
914.43	7614.4
914.742	7583.44
915.054	7577.12
915.366	7540.06
915.678	7536.67
915.99	7518.59
916.302	7394.07
916.613	7392.26
916.925	7380.74
917.236	7377.12
917.548	7315.88
917.859	7298.71
918.171	7369.44
918.482	7267.07
918.794	7235.88
919.105	7210.35
919.416	7242.89
919.727	7216.67
920.038	7130.12
920.349	7008.77
920.66	7095.77
920.971	7018.26
921.282	7032.27
921.593	6962.67
921.903	6961.31
922.214	6922.22
922.525	6881.99
922.835	6856.68
923.146	6775.56
923.456	6754.54
923.767	6818.94
924.077	6783.01
924.387	6695.11
924.697	6602.23
925.008	6646.29
925.318	6613.3
925.628	6653.53
925.938	6572.62
926.248	6505.96
926.558	6524.94
926.867	6451.27
927.177	6525.62
927.487	6407.88
927.796	6378.5
928.106	6438.39
928.416	6395.68
928.725	6332.63
929.034	6263.71
929.344	6276.36
929.653	6252.41
929.962	6209.47
930.271	6243.59
930.581	6161.56
930.89	6120.43
931.199	6076.14
931.508	6072.52
931.817	6054.9
932.125	6059.64
932.434	5999.76
932.743	5976.48
933.051	5954.11
933.36	5919.76
933.669	5921.12
933.977	5888.57
934.286	5881.12
934.594	5860.78
934.902	5844.51
935.21	5788.46
935.519	5789.14
935.827	5762.93
936.135	5713.44
936.443	5680.22
936.751	5675.02
937.059	5657.62
937.367	5630.28
937.674	5571.07
937.982	5597.96
938.29	5594.12
938.597	5563.38
938.905	5527.91
939.213	5487.91
939.52	5455.59
939.827	5468.25
940.135	5417.85
940.442	5411.3
940.749	5373.56
941.056	5373.33
941.363	5297.86
941.67	5355.71
941.977	5267.8
942.284	5257.63
942.591	5240
942.898	5196.84
943.205	5173.79
943.511	5137.41
943.818	5174.02
944.125	5111.65
944.431	5142.15
944.738	5068.93
945.044	5068.93
945.35	5052.66
945.657	5019.67
945.963	5026.9
946.269	4986.45
946.575	4970.86
946.881	4926.57
947.187	4880.46
947.493	4902.84
947.799	4889.28
948.105	4831.65
948.41	4840.92
948.716	4856.74
949.022	4805.89
949.327	4790.98
949.633	4738.55
949.938	4780.35
950.244	4734.48
950.549	4715.27
950.854	4692.67
951.16	4734.25
951.465	4607.25
951.77	4642.51
952.075	4568.61
952.38	4588.5
952.685	4564.54
952.99	4483.41
953.294	4534.71
953.599	4539.68
953.904	4441.83
954.209	4464.43
954.513	4468.05
954.818	4435.28
955.122	4419.01
955.426	4379.24
955.731	4401.83
956.035	4317.99
956.339	4290.42
956.643	4329.29
956.948	4288.84
957.252	4230.76
957.556	4271.67
957.86	4239.35
958.163	4257.66
958.467	4221.95
958.771	4178.34
959.075	4142.63
959.378	4143.08
959.682	4149.41
959.985	4093.59
960.289	4082.29
960.592	4075.97
960.896	4052.69
961.199	4045.46
961.502	4008.85
961.805	4068.06
962.108	3981.28
962.411	3981.51
962.714	3925.24
963.017	3886.82
963.32	3920.26
963.623	3880.94
963.926	3859.93
964.228	3829.42
964.531	3847.5
964.833	3823.09
965.136	3810.66
965.438	3764.11
965.741	3819.93
966.043	3751.23
966.345	3708.97
966.648	3710.1
966.95	3735.41
967.252	3690.21
967.554	3677.11
967.856	3690.67
968.158	3646.83
968.46	3622.19
968.761	3605.02
969.063	3611.57
969.365	3600.05
969.666	3565.7
969.968	3545.13
970.269	3582.87
970.571	3526.15
970.872	3491.57
971.174	3495.19
971.475	3471.01
971.776	3484.57
972.077	3449.77
972.378	3414.74
972.679	3414.06
972.98	3442.76
973.281	3383.56
973.582	3379.94
973.883	3352.6
974.183	3355.99
974.484	3328.42
974.785	3324.8
975.085	3288.87
975.386	3281.64
975.686	3235.31
975.986	3262.88
976.287	3256.55
976.587	3190.11
976.887	3257.91
977.187	3243.67
977.487	3182.66
977.787	3194.63
978.087	3178.36
978.387	3124.8
978.687	3133.39
978.987	3113.05
979.286	3117.35
979.586	3093.62
979.885	3101.98
980.185	3080.51
980.484	3018.14
980.784	3017.01
981.083	2965.49
981.382	3010.01
981.682	2978.37
981.981	2987.41
982.28	2960.52
982.579	2934.53
982.878	2972.49
983.177	2902.21
983.475	2894.98
983.774	2896.56
984.073	2865.83
984.372	2890.46
984.67	2860.41
984.969	2867.41
985.267	2842.33
985.566	2806.62
985.864	2807.07
986.162	2831.25
986.461	2793.51
986.759	2753.74
987.057	2763.91
987.355	2744.48
987.653	2743.8
987.951	2742.67
988.249	2716.23
988.547	2700.86
988.844	2673.29
989.142	2697.92
989.44	2688.43
989.737	2665.38
990.035	2639.85
990.332	2617.93
990.63	2625.38
990.927	2619.73
991.224	2568.21
991.521	2577.93
991.819	2542.22
992.116	2553.29
992.413	2521.43
992.71	2514.65
993.006	2505.84
993.303	2517.14
993.6	2519.4
993.897	2529.57
994.193	2493.63
994.49	2446.63
994.787	2462.68
995.083	2402.34
995.379	2387.65
995.676	2387.2
995.972	2396.24
996.268	2373.64
996.565	2357.37
996.861	2377.48
997.157	2333.87
997.453	2327.54
997.749	2310.14
998.044	2310.59
998.34	2323.47
998.636	2306.07
998.932	2278.5
999.227	2279.86
999.523	2271.27
999.818	2248.44
1000.114	2267.88
1000.409	2253.87
1000.704	2193.98
1001	2171.38
1001.295	2176.36
1001.59	2170.03
1001.885	2149.01
1002.18	2151.5
1002.475	2132.74
1002.77	2127.99
1003.065	2117.6
1003.359	2140.42
1003.654	2095.91
1003.949	2071.5
1004.243	2072.86
1004.538	2056.36
1004.832	2030.37
1005.127	2021.33
1005.421	2014.55
1005.715	2005.29
1006.009	1996.02
1006.304	1984.95
1006.598	1967.32
1006.892	1967.32
1007.186	1956.93
1007.48	1949.24
1007.773	1905.85
1008.067	1939.98
1008.361	1863.82
1008.655	1905.63
1008.948	1870.15
1009.242	1873.76
1009.535	1856.82
1009.829	1865.4
1010.122	1827.89
1010.415	1833.77
1010.708	1817.72
1011.001	1840.77
1011.295	1818.4
1011.588	1768.68
1011.881	1793.77
1012.173	1751.73
1012.466	1758.74
1012.759	1756.25
1013.052	1737.04
1013.344	1781.56
1013.637	1734.33
1013.93	1709.02
1014.222	1705.86
1014.514	1675.8
1014.807	1676.48
1015.099	1654.56
1015.391	1651.85
1015.683	1664.28
1015.976	1632.19
1016.268	1626.09
1016.56	1650.49
1016.851	1623.6
1017.143	1601.23
1017.435	1607.1
1017.727	1567.56
1018.018	1570.5
1018.31	1575.69
1018.602	1541.57
1018.893	1544.51
1019.185	1557.16
1019.476	1524.39
1019.767	1520.78
1020.058	1504.06
1020.35	1502.02
1020.641	1469.71
1020.932	1437.17
1021.223	1456.83
1021.514	1429.48
1021.804	1453.21
1022.095	1427.45
1022.386	1435.36
1022.677	1411.18
1022.967	1421.35
1023.258	1375.92
1023.548	1372.76
1023.839	1398.52
1024.129	1389.94
1024.419	1360.11
1024.709	1353.1
1025	1334.57
1025.29	1348.13
1025.58	1322.14
1025.87	1300.9
1026.16	1319.65
1026.449	1310.16
1026.739	1296.15
1027.029	1265.64
1027.319	1274.23
1027.608	1294.57
1027.898	1248.47
1028.187	1268.58
1028.477	1258.87
1028.766	1220.9
1029.055	1202.82
1029.344	1215.7
1029.634	1206.66
1029.923	1177.51
1030.212	1203.95
1030.501	1156.27
1030.79	1186.1
1031.078	1158.75
1031.367	1161.01
1031.656	1143.39
1031.945	1139.77
1032.233	1139.32
1032.522	1124.18
1032.81	1134.8
1033.099	1108.59
1033.387	1085.54
1033.675	1097.74
1033.963	1115.37
1034.251	1084.86
1034.54	1098.19
1034.828	1055.48
1035.116	1075.82
1035.403	1062.03
1035.691	1032.66
1035.979	1063.39
1036.267	1050.06
1036.554	1051.86
1036.842	1012.32
1037.129	1015.71
1037.417	1011.19
1037.704	994.24
1037.992	1020
1038.279	1000.34
1038.566	992.66
1038.853	992.66
1039.14	992.66
