Data from hue_36_FLMS001491_00083.txt Node
Date: Tue Feb 07 17:30:24 GMT 2017
User: dcchb
Spectrometer: FLMS00149
Trigger mode: 0
Integration Time (sec): 2.000000E-2
Scans to average: 10
Electric dark correction enabled: true
Nonlinearity correction enabled: false
Boxcar width: 0
XAxis mode: Wavelengths
Number of Pixels in Spectrum: 2048
>>>>>Begin Spectral Data<<<<<
341.393	-5.16
341.776	-5.16
342.16	-5.16
342.543	-57.36
342.927	-76.57
343.31	-63.91
343.693	-62.78
344.077	-58.94
344.46	-72.95
344.843	-49.45
345.226	-48.77
345.61	-34.08
345.993	-16.23
346.376	-22.33
346.759	16.77
347.142	23.77
347.525	37.78
347.908	67.39
348.291	80.04
348.674	85.92
349.057	117.78
349.44	115.07
349.823	131.34
350.206	157.78
350.588	213.82
350.971	206.82
351.354	221.96
351.737	242.75
352.119	252.69
352.502	263.99
352.884	270.32
353.267	274.61
353.65	293.59
354.032	289.75
354.414	296.31
354.797	308.06
355.179	289.98
355.562	319.81
355.944	327.72
356.326	333.59
356.709	326.59
357.091	329.75
357.473	348.28
357.855	343.76
358.238	332.46
358.62	337.89
359.002	329.3
359.384	329.53
359.766	341.28
360.148	335.4
360.53	328.85
360.912	331.79
361.294	328.62
361.676	319.36
362.057	322.52
362.439	352.12
362.821	324.1
363.203	319.58
363.584	317.55
363.966	358.9
364.348	308.96
364.729	307.6
365.111	318.23
365.493	316.64
365.874	322.07
366.256	289.3
366.637	317.77
367.019	306.47
367.4	326.81
367.781	322.97
368.163	314.38
368.544	283.65
368.925	325.23
369.306	320.03
369.688	308.28
370.069	296.08
370.45	321.62
370.831	312.8
371.212	304.44
371.593	307.6
371.974	303.54
372.355	303.31
372.736	311.22
373.117	308.28
373.498	312.8
373.879	318.68
374.26	333.14
374.641	325.91
375.021	310.32
375.402	322.52
375.783	326.36
376.163	328.85
376.544	310.77
376.925	306.25
377.305	293.37
377.686	324.33
378.066	325.68
378.447	330.66
378.827	316.64
379.208	325.01
379.588	333.37
379.968	319.58
380.349	317.1
380.729	351.45
381.109	319.58
381.489	310.77
381.87	332.69
382.25	332.91
382.63	336.3
383.01	328.62
383.39	332.91
383.77	361.84
384.15	334.95
384.53	326.81
384.91	344.44
385.29	319.36
385.67	343.76
386.049	357.1
386.429	351.22
386.809	327.04
387.189	336.76
387.568	374.04
387.948	341.73
388.328	331.11
388.707	352.35
389.087	348.96
389.466	337.21
389.846	335.4
390.225	356.87
390.605	360.48
390.984	375.4
391.363	356.64
391.743	366.59
392.122	347.83
392.501	358.45
392.881	372.69
393.26	374.5
393.639	352.8
394.018	373.59
394.397	348.06
394.776	363.2
395.155	374.27
395.534	393.7
395.913	404.33
396.292	394.83
396.671	360.94
397.05	383.76
397.429	352.58
397.808	374.04
398.186	381.73
398.565	370.43
398.944	400.71
399.323	374.04
399.701	382.63
400.08	364.55
400.458	379.69
400.837	398.68
401.215	382.63
401.594	384.67
401.972	416.08
402.351	393.7
402.729	384.89
403.107	402.74
403.486	380.37
403.864	379.69
404.242	413.59
404.62	397.09
404.999	402.97
405.377	397.09
405.755	394.83
406.133	402.29
406.511	410.65
406.889	430.54
407.267	410.88
407.645	408.62
408.023	429.41
408.401	439.8
408.779	419.69
409.156	398
409.534	420.82
409.912	438.45
410.29	425.12
410.667	430.99
411.045	402.97
411.422	417.88
411.8	450.43
412.178	433.25
412.555	445.68
412.933	454.27
413.31	443.65
413.687	451.33
414.065	456.08
414.442	444.55
414.819	482.29
415.197	464.66
415.574	467.83
415.951	461.27
416.328	470.31
416.705	477.32
417.082	461.73
417.46	466.7
417.837	485.45
418.214	502.4
418.591	477.32
418.967	480.26
419.344	477.09
419.721	499.92
420.098	500.82
420.475	499.01
420.852	503.31
421.228	508.73
421.605	485.91
421.982	499.24
422.358	495.85
422.735	517.54
423.111	533.59
423.488	507.6
423.864	510.54
424.241	517.32
424.617	519.58
424.994	531.55
425.37	530.2
425.746	517.54
426.123	519.8
426.499	526.58
426.875	543.08
427.251	548.5
427.627	552.8
428.003	550.99
428.379	547.6
428.756	565.68
429.132	589.18
429.507	574.72
429.883	550.08
430.259	584.43
430.635	590.08
431.011	584.89
431.387	608.84
431.763	569.07
432.138	611.78
432.514	598.44
432.89	626.24
433.265	600.03
433.641	624.88
434.016	647.48
434.392	650.87
434.767	630.99
435.143	631.66
435.518	637.54
435.894	664.43
436.269	644.77
436.644	649.06
437.02	655.17
437.395	653.81
437.77	682.06
438.145	652.45
438.52	699.91
438.895	663.08
439.271	700.59
439.646	663.98
440.021	697.65
440.395	650.65
440.77	680.7
441.145	684.09
441.52	703.75
441.895	701.27
442.27	727.25
442.645	710.31
443.019	712.57
443.394	734.03
443.769	731.55
444.143	728.16
444.518	714.15
444.892	723.87
445.267	721.61
445.641	740.36
446.016	764.32
446.39	757.08
446.764	729.06
447.139	736.29
447.513	765.9
447.887	754.6
448.262	741.49
448.636	772.23
449.01	749.4
449.384	785.56
449.758	795.73
450.132	792.11
450.506	781.26
450.88	791.21
451.254	776.52
451.628	807.25
452.002	823.98
452.376	828.72
452.75	831.21
453.123	800.93
453.497	813.35
453.871	854.71
454.244	862.17
454.618	849.06
454.992	878.66
455.365	847.93
455.739	894.71
456.112	890.19
456.486	893.35
456.859	901.71
457.232	945.78
457.606	910.98
457.979	923.86
458.352	940.81
458.725	934.93
459.099	970.86
459.472	978.77
459.845	981.49
460.218	1019.9
460.591	981.03
460.964	967.7
461.337	1017.42
461.71	1014.7
462.083	1038.66
462.456	1054.25
462.829	1051.77
463.201	1069.39
463.574	1041.6
463.947	1073.01
464.32	1117.08
464.692	1081.82
465.065	1118.43
465.438	1132.67
465.81	1139.45
466.183	1166.11
466.555	1186.9
466.928	1174.7
467.3	1208.15
467.672	1204.53
468.045	1228.03
468.417	1272.55
468.789	1251.08
469.161	1282.95
469.534	1294.25
469.906	1301.93
470.278	1326.11
470.65	1361.59
471.022	1391.19
471.394	1435.03
471.766	1442.72
472.138	1429.16
472.51	1501.25
472.882	1529.04
473.253	1520.68
473.625	1559.55
473.997	1575.82
474.369	1612.88
474.74	1656.04
475.112	1665.99
475.484	1715.7
475.855	1757.28
476.227	1750.5
476.598	1854.23
476.97	1863.5
477.341	1881.35
477.713	1976.04
478.084	1969.93
478.455	2044.06
478.827	2084.06
479.198	2127.67
479.569	2191.62
479.94	2246.99
480.311	2315.01
480.682	2334.67
481.053	2458.28
481.424	2492.86
481.795	2502.58
482.166	2588.22
482.537	2614.66
482.908	2760.87
483.279	2838.16
483.65	2885.62
484.021	2966.29
484.391	3009.68
484.762	3069.57
485.133	3139.39
485.503	3220.07
485.874	3337.58
486.244	3380.52
486.615	3498.26
486.985	3552.04
487.356	3639.27
487.726	3745.25
488.097	3844.24
488.467	3872.71
488.837	3988.41
489.207	4118.58
489.578	4207.62
489.948	4309.31
490.318	4378.91
490.688	4426.37
491.058	4554.27
491.428	4648.51
491.798	4725.12
492.168	4804.66
492.538	4936.64
492.908	5021.38
493.278	5162.39
493.648	5169.85
494.017	5301.15
494.387	5318.55
494.757	5420.24
495.126	5543.63
495.496	5579.78
495.866	5675.15
496.235	5792.66
496.605	5876.72
496.974	5924.86
497.344	6025.19
497.713	6143.61
498.082	6155.81
498.452	6302.7
498.821	6368.24
499.19	6389.93
499.559	6465.18
499.928	6593.32
500.298	6682.8
500.667	6726.87
501.036	6767.55
501.405	6905.85
501.774	6913.76
502.143	7063.81
502.512	7050.03
502.88	7153.3
503.249	7276.01
503.618	7310.13
503.987	7386.51
504.356	7434.42
504.724	7470.13
505.093	7519.62
505.462	7622.67
505.83	7718.03
506.199	7748.09
506.567	7922.09
506.936	7926.16
507.304	8045.93
507.672	8025.82
508.041	8111.47
508.409	8184.23
508.777	8244.8
509.145	8330.9
509.514	8356.66
509.882	8428.52
510.25	8487.73
510.618	8510.55
510.986	8593.71
511.354	8676.2
511.722	8788.74
512.09	8795.74
512.458	8798.23
512.826	8902.86
513.193	8978.56
513.561	8980.37
513.929	9045.91
514.297	9159.8
514.664	9276.41
515.032	9238.9
515.4	9380.13
515.767	9339.68
516.135	9423.52
516.502	9447.03
516.869	9557.08
517.237	9550.3
517.604	9604.54
517.972	9703.52
518.339	9747.13
518.706	9746.9
519.073	9863.96
519.44	9957.29
519.808	9979.22
520.175	10006.11
520.542	10144.86
520.909	10128.36
521.276	10204.29
521.643	10305.76
522.009	10336.72
522.376	10331.07
522.743	10438.64
523.11	10608.58
523.477	10588.01
523.843	10710.72
524.21	10790.49
524.577	10859.87
524.943	10886.54
525.31	10982.13
525.676	11012.41
526.043	11096.7
526.409	11151.61
526.776	11258.5
527.142	11283.81
527.508	11397.71
527.874	11397.71
528.241	11552.51
528.607	11506.18
528.973	11668.89
529.339	11698.49
529.705	11744.37
530.071	11884.02
530.437	11902.78
530.803	12008.31
531.169	12086.73
531.535	12046.96
531.901	12127.63
532.267	12185.26
532.632	12286.5
532.998	12358.59
533.364	12390.68
533.73	12358.36
534.095	12500.5
534.461	12542.54
534.826	12588.41
535.192	12632.03
535.557	12674.29
535.923	12723.78
536.288	12763.32
536.653	12844.9
537.019	12877.44
537.384	12879.7
537.749	12970.1
538.114	13012.13
538.479	13036.54
538.845	13097.1
539.21	13199.47
539.575	13222.75
539.94	13231.33
540.305	13278.34
540.67	13375.96
541.034	13337.54
541.399	13385.23
541.764	13559.91
542.129	13626.8
542.494	13579.8
542.858	13677.42
543.223	13666.58
543.587	13810.53
543.952	13767.59
544.316	13827.7
544.681	13856.18
545.045	13925.1
545.41	14055.49
545.774	14092.78
546.138	14116.73
546.503	14128.94
546.867	14190.4
547.231	14352.43
547.595	14323.28
547.959	14434.47
548.324	14335.26
548.688	14381.59
549.052	14494.58
549.416	14610.05
549.779	14632.88
550.143	14635.14
550.507	14696.38
550.871	14736.38
551.235	14805.08
551.599	14919.65
551.962	14935.92
552.326	14951.74
552.689	15038.74
553.053	15004.62
553.417	15069.93
553.78	15299.75
554.143	15083.94
554.507	15286.19
554.87	15331.16
555.234	15368.9
555.597	15375.01
555.96	15326.19
556.323	15470.37
556.686	15604.6
557.05	15654.32
557.413	15667.88
557.776	15649.35
558.139	15826.07
558.502	15795.79
558.865	15899.29
559.228	16059.73
559.59	16069.68
559.953	16130.47
560.316	16177.02
560.679	16178.37
561.041	16320.07
561.404	16303.12
561.767	16433.28
562.129	16371.36
562.492	16694.52
562.854	16521.42
563.217	16606.39
563.579	16623.11
563.941	16766.16
564.304	16798.92
564.666	16902.2
565.028	16946.94
565.39	16954.62
565.753	17126.82
566.115	17132.25
566.477	17174.28
566.839	17229.42
567.201	17454.95
567.563	17407.49
567.925	17522.52
568.287	17556.87
568.648	17640.48
569.01	17674.83
569.372	17798.9
569.734	17698.11
570.095	17975.39
570.457	18004.54
570.819	18020.36
571.18	18014.03
571.542	18202.5
571.903	18219.9
572.265	18292.44
572.626	18332.44
572.987	18409.95
573.349	18469.39
573.71	18622.38
574.071	18707.8
574.432	18771.53
574.794	19009.26
575.155	19016.49
575.516	18977.17
575.877	19137.39
576.238	19254.9
576.599	19350.72
576.96	19392.07
577.32	19505.74
577.681	19542.35
578.042	19669.58
578.403	19875.23
578.763	19924.49
579.124	20150.7
579.485	20295.1
579.845	20397.92
580.206	20524.25
580.566	20632.95
580.927	20771.7
581.287	21003.56
581.648	21008.08
582.008	21321.52
582.368	21404.9
582.728	21623.43
583.089	21674.05
583.449	21827.27
583.809	22043.08
584.169	22205.79
584.529	22355.39
584.889	22738.65
585.249	22839.67
585.609	22906.56
585.969	23216.61
586.329	23248.47
586.688	23606.88
587.048	23761
587.408	23899.53
587.768	24128
588.127	24341.32
588.487	24470.59
588.846	24867.64
589.206	24911.7
589.565	25075.54
589.925	25516.89
590.284	25569.54
590.643	25850.44
591.003	26101.5
591.362	26469.18
591.721	26575.39
592.08	26723.18
592.44	26980.35
592.799	27265.77
593.158	27264.18
593.517	27591.86
593.876	27899.65
594.235	28023.03
594.593	28241.33
594.952	28597.03
595.311	28555
595.67	28935.33
596.029	29415.77
596.387	29492.37
596.746	29660.51
597.104	29689.21
597.463	29914.06
597.822	30317.21
598.18	30270.21
598.538	30566.7
598.897	30949.96
599.255	30874.94
599.613	31465.43
599.972	31411.87
600.33	31746.1
600.688	31823.61
601.046	32102.7
601.404	32284.84
601.762	32409.36
602.12	32645.51
602.478	32847.54
602.836	33103.35
603.194	33109.68
603.552	33150.58
603.91	33428.54
604.268	33665.6
604.625	33653.17
604.983	33930.45
605.341	33892.03
605.698	34287.95
606.056	34539.02
606.413	34651.33
606.771	34809.52
607.128	34976.75
607.485	35025.34
607.843	35056.3
608.2	35399.11
608.557	35537.87
608.914	35638.2
609.272	35823.73
609.629	35925.43
609.986	36248.13
610.343	36238.64
610.7	36598.63
611.057	36473.66
611.414	36755.01
611.771	36759.08
612.127	37040.42
612.484	36960.43
612.841	37273.41
613.198	37211.27
613.554	37413.07
613.911	37634.08
614.267	37778.94
614.624	37704.81
614.98	37999.27
615.337	38019.61
615.693	38131.47
616.05	38096.44
616.406	38511.12
616.762	38390.22
617.118	38437.22
617.475	38607.16
617.831	38715.18
618.187	38831.11
618.543	38852.13
618.899	39052.57
619.255	39092.12
619.611	39207.15
619.967	39355.39
620.323	39435.16
620.678	39354.49
621.034	39310.2
621.39	39378.67
621.746	39541.15
622.101	39849.84
622.457	39656.17
622.812	39702.95
623.168	39877.64
623.523	39904.98
623.879	40118.76
624.234	39837.41
624.589	40023.17
624.945	40085.77
625.3	40206.67
625.655	40300.45
626.01	40331.41
626.365	40343.84
626.72	40229.72
627.075	40396.49
627.43	40353.56
627.785	40350.62
628.14	40422.48
628.495	40583.83
628.85	40634.45
629.205	40382.26
629.559	40792.64
629.914	40525.08
630.269	40553.55
630.623	40571.63
630.978	40526.66
631.332	40636.49
631.687	40740.21
632.041	40546.77
632.396	40616.6
632.75	40618.18
633.104	40726.2
633.459	40491.41
633.813	40539.77
634.167	40457.51
634.521	40539.32
634.875	40694.11
635.229	40476.94
635.583	40275.37
635.937	40620.67
636.291	40349.94
636.645	40530.95
636.999	40470.39
637.352	40579.31
637.706	40367.79
638.06	40462.26
638.413	40427
638.767	40275.82
639.121	40430.39
639.474	40140.91
639.828	40270.85
640.181	40267.01
640.534	40249.83
640.888	40098.88
641.241	40102.04
641.594	40043.96
641.947	40238.76
642.301	40189.72
642.654	40317.4
643.007	40198.31
643.36	40144.98
643.713	40117.63
644.066	40220
644.419	39872.21
644.771	39681.03
645.124	39318.56
645.477	39218.9
645.83	39121.27
646.182	39005.57
646.535	38852.13
646.888	39089.41
647.24	38812.13
647.593	39114.95
647.945	38980.94
648.298	38896.65
648.65	38720.15
649.002	38723.09
649.355	38829.98
649.707	38790.21
650.059	38968.96
650.411	39434.49
650.763	39417.99
651.115	39801.03
651.467	39548.38
651.819	39759
652.171	39569.4
652.523	39515.39
652.875	39474.03
653.227	39338.44
653.578	39578.44
653.93	39515.61
654.282	39346.58
654.633	39182.51
654.985	39291.21
655.337	39438.33
655.688	39454.82
656.039	39424.54
656.391	39177.09
656.742	39140.93
657.094	39256.19
657.445	39400.14
657.796	39481.04
658.147	39290.08
658.498	39272.68
658.849	39338.67
659.2	39321.95
659.551	39141.39
659.902	39199.69
660.253	39284.43
660.604	39316.75
660.955	39105
661.306	39139.13
661.656	39108.17
662.007	39203.98
662.358	39318.78
662.708	39136.41
663.059	39170.09
663.409	38929.87
663.76	39362.17
664.11	39139.8
664.461	39176.19
664.811	39125.12
665.161	39040.15
665.511	39099.81
665.862	39070.65
666.212	39090.99
666.562	39121.27
666.912	38959.24
667.262	39061.84
667.612	38967.83
667.962	39015.97
668.312	39144.78
668.662	39237.2
669.011	39112.91
669.361	38980.49
669.711	38903.43
670.06	38936.65
670.41	38861.62
670.76	38901.17
671.109	39094.38
671.459	38937.55
671.808	38850.55
672.157	38945.01
672.507	38687.16
672.856	38648.29
673.205	38708.63
673.554	38848.51
673.904	38762.64
674.253	38951.11
674.602	38894.61
674.951	38239.71
675.3	38059.83
675.649	38655.52
675.998	38533.49
676.346	38719.48
676.695	38750.89
677.044	38556.99
677.393	38736.42
677.741	38631.34
678.09	38493.49
678.438	38474.06
678.787	38521.52
679.135	38610.1
679.484	38272.93
679.832	38504.11
680.181	38282.88
680.529	38340.05
680.877	38171.69
681.225	38277
681.573	38405.36
681.922	38164.69
682.27	38070.45
682.618	37908.65
682.966	37848.99
683.314	37927.18
683.661	37833.17
684.009	37658.04
684.357	37712.05
684.705	37624.36
685.053	37702.78
685.4	37549.56
685.748	37392.28
686.095	37410.36
686.443	37383.92
686.79	37332.85
687.138	37342.79
687.485	37325.84
687.832	37334.2
688.18	37113.42
688.527	37110.25
688.874	37015.57
689.221	36960.2
689.568	36785.74
689.915	36733.99
690.262	36790.49
690.609	36556.6
690.956	36546.43
691.303	36508.01
691.65	36383.94
691.997	36390.5
692.344	36104.4
692.69	36170.84
693.037	36204.51
693.383	35826.67
693.73	35945.76
694.077	35733.57
694.423	35829.83
694.769	35583.06
695.116	35713.68
695.462	35657.41
695.808	35467.81
696.155	35570.18
696.501	35234.37
696.847	35256.52
697.193	35022.85
697.539	35169.29
697.885	34866.7
698.231	34815.4
698.577	34804.1
698.923	34730.88
699.269	34532.47
699.614	34566.82
699.96	34436.65
700.306	34374.51
700.651	34160.73
700.997	34162.53
701.342	34054.74
701.688	34217.45
702.033	33826.95
702.379	33780.62
702.724	33865.37
703.069	33890
703.415	33381.31
703.76	33492.27
704.105	33433.29
704.45	33306.06
704.795	33294.99
705.14	33131.37
705.485	33151.04
705.83	33041.43
706.175	33043.69
706.52	32982.9
706.865	32842.12
707.209	32800.99
707.554	32741.78
707.899	32720.76
708.243	32504.27
708.588	32499.75
708.932	32339.31
709.277	32445.06
709.621	32333.88
709.966	32158.07
710.31	32181.8
710.654	31892.76
710.998	32016.6
711.342	32055.92
711.687	31932.54
712.031	31755.82
712.375	31544.3
712.719	31603.28
713.063	31616.84
713.407	31595.14
713.75	31546.33
714.094	31501.13
714.438	31322.16
714.782	31303.63
715.125	31171.88
715.469	31189.5
715.812	31028.15
716.156	31082.39
716.499	30975.95
716.843	31028.38
717.186	30910.87
717.53	31043.29
717.873	31005.55
718.216	30781.61
718.559	30673.13
718.902	30409.86
719.246	30570.54
719.589	30533.48
719.932	30437.66
720.275	30403.54
720.617	30362.41
720.96	30349.3
721.303	30261.39
721.646	30201.73
721.989	30066.6
722.331	30138.46
722.674	30112.02
723.016	30179.81
723.359	30043.32
723.701	29981.17
724.044	29801.52
724.386	29723.78
724.729	29894.17
725.071	29709.54
725.413	29749.09
725.755	29749.32
726.097	29487.18
726.439	29362.89
726.782	29484.01
727.124	29545.03
727.465	29472.04
727.807	29364.02
728.149	29301.19
728.491	29253.74
728.833	29376.22
729.175	29221.65
729.516	29090.58
729.858	29088.54
730.199	29244.25
730.541	28903.92
730.882	28969
731.224	29049
731.565	28999.96
731.906	28934.87
732.248	28775.56
732.589	28798.16
732.93	28624.37
733.271	28600.65
733.612	28710.25
733.953	28788.66
734.294	28597.71
734.635	28495.11
734.976	28488.56
735.317	28346.19
735.658	28489.01
735.999	28340.54
736.339	28355
736.68	28292.18
737.021	28284.5
737.361	28120.21
737.702	28281.33
738.042	28180.09
738.383	28150.49
738.723	28209.47
739.063	27968.35
739.404	28098.06
739.744	27954.11
740.084	27910.49
740.424	28025.52
740.764	27834.79
741.104	27976.93
741.444	27848.12
741.784	27720.67
742.124	27796.37
742.464	27702.82
742.804	27623.04
743.143	27491.07
743.483	27600.45
743.823	27368.59
744.162	27338.31
744.502	27439.77
744.841	27281.81
745.181	27414.46
745.52	27244.07
745.86	27329.49
746.199	27285.2
746.538	27218.54
746.877	27298.76
747.216	27244.07
747.556	27075.94
747.895	27102.38
748.234	26971.54
748.573	26957.98
748.911	26950.97
749.25	26914.81
749.589	26835.72
749.928	26780.58
750.267	26863.97
750.605	26747.59
750.944	26644.09
751.283	26562.06
751.621	26588.27
751.96	26469.63
752.298	26514.15
752.636	26512.11
752.975	26332.01
753.313	26348.5
753.651	26466.24
753.989	26195.74
754.327	26182.4
754.666	26083.42
755.004	26134.27
755.342	26207.49
755.679	26112.35
756.017	25899.47
756.355	26040.04
756.693	25822.41
757.031	25904.22
757.368	25718.69
757.706	25726.15
758.044	25678.92
758.381	25636.43
758.719	25514.85
759.056	25621.74
759.394	25381.52
759.731	25346.72
760.068	25220.85
760.405	25212.26
760.743	25101.08
761.08	25101.53
761.417	24855.66
761.754	24924.81
762.091	24895.66
762.428	24796.68
762.765	24640.52
763.102	24802.55
763.438	24626.97
763.775	24450.25
764.112	24429.91
764.449	24454.77
764.785	24501.55
765.122	24219.07
765.458	24197.6
765.795	24098.39
766.131	24085.51
766.467	23975.23
766.804	23835.35
767.14	23721.9
767.476	23815.01
767.812	23683.26
768.148	23566.2
768.485	23579.99
768.821	23429.48
769.157	23316.94
769.492	23186.55
769.828	23294.12
770.164	23048.93
770.5	22993.79
770.836	22933.45
771.171	22828.82
771.507	22863.4
771.842	22612.33
772.178	22654.14
772.513	22587.7
772.849	22595.61
773.184	22396.29
773.519	22455.72
773.855	22330.3
774.19	22210.53
774.525	22129.86
774.86	22105.45
775.195	22048.05
775.53	21938.22
775.865	21818.68
776.2	21691.9
776.535	21527.39
776.87	21516.09
777.205	21479.93
777.539	21269.99
777.874	21354.28
778.209	21288.97
778.543	21207.62
778.878	21068.19
779.212	21065.48
779.547	20993.16
779.881	20883.11
780.215	20825.71
780.55	20808.31
780.884	20708.65
781.218	20541.42
781.552	20635.43
781.886	20488.09
782.22	20427.3
782.554	20424.59
782.888	20232.28
783.222	20079.74
783.556	19983.7
783.889	19900.08
784.223	19889.01
784.557	19800.65
784.89	19818.05
785.224	19661.45
785.557	19653.08
785.891	19507.33
786.224	19446.31
786.558	19533.77
786.891	19349.36
787.224	19233.21
787.557	19240.44
787.891	19182.81
788.224	19132.65
788.557	18976.72
788.89	19051.07
789.223	18970.39
789.556	18866.66
789.888	18767.23
790.221	18672.55
790.554	18686.56
790.887	18622.6
791.219	18564.07
791.552	18557.29
791.884	18491.31
792.217	18412.89
792.549	18252.44
792.882	18085.22
793.214	18138.1
793.546	18176.74
793.879	18048.38
794.211	17915.73
794.543	17938.78
794.875	17890.65
795.207	17856.97
795.539	17772.91
795.871	17781.5
796.203	17586.25
796.535	17497.44
796.867	17469.19
797.198	17461.73
797.53	17487.04
797.862	17268.06
798.193	17345.57
798.525	17228.52
798.856	17307.16
799.188	16965.25
799.519	16937.22
799.85	16885.25
800.182	16954.4
800.513	17028.75
800.844	16790.79
801.175	16894.29
801.506	16765.25
801.837	16718.02
802.168	16627.85
802.499	16567.29
802.83	16541.98
803.161	16509.21
803.491	16476.45
803.822	16416.11
804.153	16329.56
804.483	16259.73
804.814	16120.3
805.145	16252.27
805.475	16238.26
805.805	16113.07
806.136	16000.3
806.466	16113.74
806.796	16028.32
807.126	15856.57
807.457	15898.83
807.787	15778.38
808.117	15775.9
808.447	15768.22
808.777	15616.35
809.107	15606.41
809.436	15596.69
809.766	15531.39
810.096	15557.37
810.426	15417.26
810.755	15529.13
811.085	15435.34
811.414	15401.9
811.744	15302.46
812.073	15247.78
812.403	15273.31
812.732	15149.7
813.061	15123.26
813.39	15088.23
813.719	15077.84
814.049	15092.3
814.378	14929.37
814.707	15042.13
815.036	14967.78
815.365	14941.34
815.693	14772.99
816.022	14775.02
816.351	14666.78
816.68	14654.35
817.008	14672.65
817.337	14535.03
817.665	14519.43
817.994	14541.58
818.322	14561.02
818.651	14489.15
818.979	14405.31
819.307	14492.32
819.636	14417.97
819.964	14259.55
820.292	14414.8
820.62	14367.8
820.948	14383.84
821.276	14325.32
821.604	14257.07
821.932	14375.26
822.259	14395.82
822.587	14313.56
822.915	14208.71
823.243	14265.2
823.57	14250.29
823.898	14264.3
824.225	14227.69
824.553	14182.04
824.88	14273.79
825.207	14263.62
825.535	14171.2
825.862	14254.58
826.189	14134.13
826.516	14236.05
826.843	14297.29
827.17	14215.04
827.497	14255.26
827.824	14241.02
828.151	14265.43
828.478	14131.65
828.805	14219.33
829.131	14193.12
829.458	14118.54
829.785	14113.57
830.111	14193.79
830.438	14221.59
830.764	14134.36
831.09	14184.08
831.417	14162.38
831.743	14158.31
832.069	14177.75
832.395	14087.13
832.722	14112.67
833.048	14051.88
833.374	14196.05
833.7	13951.99
834.026	14095.26
834.351	14116.73
834.677	14002.61
835.003	14052.78
835.329	14053.68
835.654	14083.97
835.98	13871.32
836.306	13949.05
836.631	13881.26
836.956	13954.93
837.282	13870.64
837.607	13862.28
837.932	13821.6
838.258	13884.65
838.583	13772.34
838.908	13702.28
839.233	13721.26
839.558	13721.04
839.883	13693.69
840.208	13539.35
840.533	13570.76
840.858	13603.98
841.182	13591.1
841.507	13647.37
841.832	13453.7
842.156	13546.35
842.481	13589.06
842.805	13451.89
843.13	13460.25
843.454	13392.91
843.778	13357.21
844.103	13243.08
844.427	13339.13
844.751	13361.05
845.075	13288.73
845.399	13251.67
845.723	13138.68
846.047	13139.13
846.371	13035.86
846.695	13066.59
847.019	12926.71
847.343	12930.1
847.666	12817.11
847.99	12735.75
848.313	12721.29
848.637	12611.91
848.96	12762.42
849.284	12636.55
849.607	12525.81
849.931	12477.91
850.254	12367.4
850.577	12361.75
850.9	12252.15
851.223	12263.45
851.546	12239.72
851.869	12126.05
852.192	12196.33
852.515	12084.92
852.838	11949.56
853.161	11964.02
853.483	11928.54
853.806	11941.65
854.129	11916.57
854.451	11855.55
854.774	11767.87
855.096	11741.88
855.419	11764.25
855.741	11731.71
856.063	11560.87
856.385	11613.97
856.708	11510.93
857.03	11517.71
857.352	11520.87
857.674	11438.39
857.996	11458.5
858.318	11382.34
858.64	11396.8
858.961	11308.22
859.283	11299.86
859.605	11223.93
859.926	11282.23
860.248	11212.85
860.57	11203.82
860.891	11198.17
861.212	11089.47
861.534	11063.03
861.855	11049.47
862.176	11120.88
862.498	10951.17
862.819	10948.46
863.14	10981.67
863.461	10938.74
863.782	10899.42
864.103	10889.02
864.424	10913.2
864.745	10885.86
865.065	10871.62
865.386	10753.88
865.707	10759.08
866.027	10850.15
866.348	10785.52
866.668	10785.07
866.989	10731.74
867.309	10667.56
867.63	10712.3
867.95	10685.86
868.27	10629.37
868.59	10633.66
868.91	10665.98
869.23	10636.37
869.55	10528.35
869.87	10587.11
870.19	10525.87
870.51	10565.87
870.83	10577.17
871.15	10478.41
871.469	10526.09
871.789	10535.36
872.109	10468.24
872.428	10435.25
872.748	10463.27
873.067	10411.29
873.386	10347.34
873.706	10392.76
874.025	10335.59
874.344	10319.77
874.663	10337.85
874.982	10324.06
875.301	10283.39
875.62	10299.43
875.939	10256.95
876.258	10182.6
876.577	10190.06
876.896	10216.5
877.214	10210.62
877.533	10207.68
877.852	10158.42
878.17	10158.42
878.489	10134.01
878.807	10172.2
879.125	10094.01
879.444	10107.8
879.762	10024.86
880.08	10027.35
880.398	10086.33
880.716	10022.83
881.034	10001.36
881.352	9951.87
881.67	9924.98
881.988	9945.32
882.306	9837.75
882.624	9817.19
882.941	9797.98
883.259	9705.55
883.577	9776.06
883.894	9716.17
884.212	9710.07
884.529	9714.59
884.846	9703.97
885.164	9715.72
885.481	9633.69
885.798	9639.34
886.115	9587.36
886.432	9583.52
886.75	9559.57
887.067	9578.32
887.383	9470.75
887.7	9505.56
888.017	9431.43
888.334	9497.42
888.651	9403.86
888.967	9395.05
889.284	9285.9
889.6	9378.55
889.917	9262.62
890.233	9219.01
890.55	9258.1
890.866	9278.44
891.182	9230.99
891.498	9225.11
891.815	9217.88
892.131	9170.65
892.447	9164.1
892.763	9098.11
893.079	9011.78
893.395	9008.17
893.71	9034.61
894.026	8995.96
894.342	9010.2
894.657	8946.93
894.973	8951.67
895.289	8949.86
895.604	8846.36
895.92	8768.4
896.235	8779.02
896.55	8725.69
896.865	8737.44
897.181	8651.57
897.496	8748.51
897.811	8649.31
898.126	8602.53
898.441	8566.14
898.756	8605.92
899.071	8524.79
899.386	8518.69
899.7	8381.29
900.015	8430.33
900.33	8398.01
900.644	8372.03
900.959	8466.71
901.273	8292.93
901.588	8260.62
901.902	8230.79
902.216	8202.99
902.531	8128.87
902.845	8128.87
903.159	8156.66
903.473	8074.41
903.787	8042.09
904.101	8038.25
904.415	8037.57
904.729	7956.44
905.042	7879.38
905.356	7937.69
905.67	7890
905.984	7894.07
906.297	7867.86
906.611	7790.57
906.924	7764.81
907.237	7841.19
907.551	7758.26
907.864	7704.02
908.177	7689.11
908.491	7668.32
908.804	7637.36
909.117	7526.17
909.43	7536.34
909.743	7468.09
910.056	7487.98
910.368	7459.51
910.681	7398.27
910.994	7396.91
911.307	7378.15
911.619	7340.64
911.932	7357.36
912.244	7322.34
912.557	7268.1
912.869	7190.59
913.181	7158.05
913.494	7207.99
913.806	7141.55
914.118	7065.62
914.43	7041.89
914.742	7001.21
915.054	7026.98
915.366	6931.39
915.678	6970.93
915.99	6869.24
916.302	6923.7
916.613	6861.1
916.925	6851.16
917.236	6798.96
917.548	6788.34
917.859	6756.25
918.171	6673.31
918.482	6655.01
918.794	6669.47
919.105	6664.95
919.416	6565.97
919.727	6569.36
920.038	6554.22
920.349	6553.54
920.66	6487.33
920.971	6490.49
921.282	6456.14
921.593	6380.67
921.903	6400.55
922.214	6424.96
922.525	6357.39
922.835	6335.69
923.146	6276.04
923.456	6235.36
923.767	6216.38
924.077	6214.12
924.387	6171.63
924.697	6157.62
925.008	6105.19
925.318	6051.41
925.628	6049.6
925.938	6073.78
926.248	6054.12
926.558	6005.53
926.867	5963.73
927.177	5925.99
927.487	5920.56
927.796	5890.96
928.106	5868.59
928.416	5829.49
928.725	5870.62
929.034	5793.34
929.344	5797.63
929.653	5787.23
929.962	5731.64
930.271	5693.9
930.581	5646.9
930.89	5625.66
931.199	5637.41
931.508	5590.86
931.817	5584.08
932.125	5583.62
932.434	5533.46
932.743	5482.61
933.051	5517.64
933.36	5474.47
933.669	5409.84
933.977	5403.97
934.286	5350.41
934.594	5410.97
934.902	5363.52
935.21	5333.91
935.519	5276.29
935.827	5272.45
936.135	5224.09
936.443	5188.38
936.751	5218.21
937.059	5198.32
937.367	5133.24
937.674	5131.88
937.982	5122.17
938.29	5086.01
938.597	5076.97
938.905	5023.64
939.213	5047.59
939.52	5021.15
939.827	4994.71
940.135	4933.92
940.442	4941.38
940.749	4921.27
941.056	4884.21
941.363	4930.31
941.67	4849.86
941.977	4834.49
942.284	4818.45
942.591	4804.21
942.898	4819.8
943.205	4772.57
943.511	4709.98
943.818	4696.42
944.125	4684.66
944.431	4643.08
944.738	4681.73
945.044	4628.4
945.35	4615.29
945.657	4598.79
945.963	4565.8
946.269	4505.46
946.575	4558.57
946.881	4556.08
947.187	4510.88
947.493	4500.94
947.799	4475.86
948.105	4483.31
948.41	4419.81
948.716	4399.47
949.022	4362.19
949.327	4361.06
949.633	4334.62
949.938	4333.26
950.244	4331.91
950.549	4261.17
950.854	4284
951.16	4229.54
951.465	4222.08
951.77	4202.19
952.075	4176.88
952.38	4220.27
952.685	4170.55
952.99	4095.3
953.294	4103.89
953.599	4091.91
953.904	4070.9
954.209	4090.56
954.513	4029.54
954.818	4027.06
955.122	4026.38
955.426	3994.06
955.731	3972.82
956.035	3949.77
956.339	3947.28
956.643	3931.24
956.948	3919.71
957.252	3893.95
957.556	3936.66
957.86	3899.37
958.163	3838.81
958.467	3833.16
958.771	3809.89
959.075	3833.61
959.378	3773.05
959.682	3757.01
959.985	3735.31
960.289	3769.89
960.592	3707.97
960.896	3716.78
961.199	3716.55
961.502	3681.75
961.805	3590.46
962.108	3658.93
962.411	3622.55
962.714	3604.69
963.017	3600.17
963.32	3634.3
963.623	3578.93
963.926	3569.67
964.228	3513.17
964.531	3513.62
964.833	3543.9
965.136	3500.97
965.438	3388.43
965.741	3418.48
966.043	3429.1
966.345	3450.8
966.648	3413.51
966.95	3391.14
967.252	3397.24
967.554	3408.77
967.856	3349.11
968.158	3329.67
968.46	3352.04
968.761	3305.04
969.063	3286.28
969.365	3281.54
969.666	3280.86
969.968	3228.88
970.269	3204.48
970.571	3204.7
970.872	3228.88
971.174	3175.33
971.475	3186.85
971.776	3199.51
972.077	3126.29
972.378	3124.25
972.679	3117.7
972.98	3096.01
973.281	3024.6
973.582	3066.63
973.883	3033.41
974.183	3037.02
974.484	3074.76
974.785	3018.04
975.085	3038.83
975.386	3024.82
975.686	2986.63
975.986	2978.95
976.287	2979.63
976.587	2945.5
976.887	2904.15
977.187	2920.87
977.487	2916.12
977.787	2859.4
978.087	2884.26
978.387	2879.97
978.687	2881.1
978.987	2837.26
979.286	2830.25
979.586	2853.3
979.885	2807.88
980.185	2783.25
980.484	2761.78
980.784	2795.68
981.083	2747.09
981.382	2743.47
981.682	2758.84
981.981	2750.03
982.28	2696.24
982.579	2688.56
982.878	2693.76
983.177	2695.11
983.475	2663.7
983.774	2659.86
984.073	2649.92
984.372	2609.69
984.67	2609.24
984.969	2630.93
985.267	2579.41
985.566	2578.96
985.864	2598.39
986.162	2607.21
986.461	2550.48
986.759	2574.44
987.057	2528.11
987.355	2527.43
987.653	2481.79
987.951	2475.23
988.249	2468.45
988.547	2479.75
988.844	2479.3
989.142	2458.51
989.44	2444.5
989.737	2426.87
990.035	2426.19
990.332	2411.73
990.63	2399.53
990.927	2384.84
991.224	2373.77
991.521	2352.97
991.819	2360.66
992.116	2310.04
992.413	2316.37
992.71	2286.31
993.006	2336.25
993.303	2308.68
993.6	2312.75
993.897	2281.11
994.193	2277.04
994.49	2251.28
994.787	2230.72
995.083	2237.05
995.379	2216.48
995.676	2228.23
995.972	2228.23
996.268	2213.77
996.565	2174.67
996.861	2170.15
997.157	2144.84
997.453	2172.87
997.749	2127.9
998.044	2131.96
998.34	2111.4
998.636	2114.79
998.932	2096.71
999.227	2071.63
999.523	2056.94
999.818	2037.5
1000.114	2048.58
1000.409	2026.2
1000.704	2009.03
1001	2018.07
1001.295	1994.79
1001.59	2033.21
1001.885	1985.07
1002.18	1983.49
1002.475	1942.82
1002.77	1962.93
1003.065	1985.75
1003.359	1936.04
1003.654	1950.95
1003.949	1911.86
1004.243	1912.08
1004.538	1903.95
1004.832	1897.39
1005.127	1874.34
1005.421	1858.98
1005.715	1806.55
1006.009	1827.79
1006.304	1824.18
1006.598	1833.21
1006.892	1829.15
1007.186	1825.08
1007.48	1796.38
1007.773	1781.92
1008.067	1800.9
1008.361	1759.54
1008.655	1759.09
1008.948	1743.73
1009.242	1716.16
1009.535	1740.56
1009.829	1709.83
1010.122	1705.53
1010.415	1686.55
1010.708	1687.23
1011.001	1707.12
1011.295	1673.67
1011.588	1648.13
1011.881	1637.74
1012.173	1637.97
1012.466	1634.35
1012.759	1621.24
1013.052	1596.84
1013.344	1586.89
1013.637	1557.52
1013.93	1559.55
1014.222	1555.93
1014.514	1554.58
1014.807	1582.6
1015.099	1543.73
1015.391	1548.7
1015.683	1545.31
1015.976	1501.47
1016.268	1508.25
1016.56	1494.92
1016.851	1496.27
1017.143	1508.25
1017.435	1502.6
1017.727	1438.87
1018.018	1452.89
1018.31	1449.72
1018.602	1423.73
1018.893	1426.67
1019.185	1423.06
1019.476	1391.64
1019.767	1414.24
1020.058	1395.71
1020.35	1357.52
1020.641	1390.97
1020.932	1367.92
1021.223	1363.62
1021.514	1349.16
1021.804	1340.12
1022.095	1319.56
1022.386	1330.4
1022.677	1307.8
1022.967	1318.2
1023.258	1303.28
1023.548	1287.69
1023.839	1278.65
1024.129	1277.3
1024.419	1289.27
1024.709	1267.81
1025	1248.6
1025.29	1239.33
1025.58	1224.42
1025.87	1229.84
1026.16	1224.64
1026.449	1200.24
1026.739	1217.86
1027.029	1174.02
1027.319	1194.81
1027.608	1184.87
1027.898	1186.23
1028.187	1175.38
1028.477	1153.68
1028.766	1148.71
1029.055	1139.67
1029.344	1154.81
1029.634	1128.6
1029.923	1109.84
1030.212	1133.8
1030.501	1113.46
1030.79	1096.74
1031.078	1082.95
1031.367	1093.12
1031.656	1089.05
1031.945	1068.04
1032.233	1060.13
1032.522	1047.47
1032.81	1054.25
1033.099	1054.25
1033.387	1053.57
1033.675	1021.48
1033.963	1028.26
1034.251	1018.77
1034.54	1004.76
1034.828	991.2
1035.116	993.46
1035.403	1012.45
1035.691	980.13
1035.979	978.77
1036.267	997.98
1036.554	978.32
1036.842	983.29
1037.129	946.46
1037.417	966.57
1037.704	964.08
1037.992	945.1
1038.279	920.24
1038.566	925.67
1038.853	925.67
1039.14	925.67
