Data from hue_330_FLMS001491_24.txt Node
Date: Mon Feb 06 15:45:10 GMT 2017
User: dcchb
Spectrometer: FLMS00149
Trigger mode: 0
Integration Time (sec): 2.000000E-2
Scans to average: 10
Electric dark correction enabled: true
Nonlinearity correction enabled: false
Boxcar width: 0
XAxis mode: Wavelengths
Number of Pixels in Spectrum: 2048
>>>>>Begin Spectral Data<<<<<
341.393	-15.27
341.776	-15.27
342.16	-15.27
342.543	-75.15
342.927	-76.51
343.31	-62.05
343.693	-59.33
344.077	-79
344.46	-64.98
344.843	-49.39
345.226	-38.77
345.61	-26.57
345.993	-26.12
346.376	3.26
346.759	13.21
347.142	10.49
347.525	44.17
347.908	57.5
348.291	70.38
348.674	101.57
349.057	105.63
349.44	120.32
349.823	158.29
350.206	160.32
350.588	184.73
350.971	202.35
351.354	223.6
351.737	226.08
352.119	257.27
352.502	263.82
352.884	275.12
353.267	285.74
353.65	279.87
354.032	288.9
354.414	331.16
354.797	310.15
355.179	311.5
355.562	320.54
355.944	314.89
356.326	341.78
356.709	312.63
357.091	324.61
357.473	347.89
357.855	336.59
358.238	329.81
358.62	330.94
359.002	340.2
359.384	315.8
359.766	327.32
360.148	323.48
360.53	333.88
360.912	346.3
361.294	336.59
361.676	337.72
362.057	347.43
362.439	319.86
362.821	329.81
363.203	333.2
363.584	318.28
363.966	326.19
364.348	304.95
364.729	332.75
365.111	309.92
365.493	316.25
365.874	311.28
366.256	332.75
366.637	313.54
367.019	307.66
367.4	301.11
367.781	303.37
368.163	309.24
368.544	307.44
368.925	316.47
369.306	335.91
369.688	298.4
370.069	332.97
370.45	302.24
370.831	310.15
371.212	312.18
371.593	318.06
371.974	298.62
372.355	313.31
372.736	301.79
373.117	309.24
373.498	317.38
373.879	308.34
374.26	313.08
374.641	310.37
375.021	315.57
375.402	294.78
375.783	318.73
376.163	320.77
376.544	311.73
376.925	313.76
377.305	310.15
377.686	318.73
378.066	324.61
378.447	336.59
378.827	328.9
379.208	320.09
379.588	329.58
379.968	323.71
380.349	313.99
380.729	341.56
381.109	349.02
381.489	349.69
381.87	329.58
382.25	340.65
382.63	322.12
383.01	332.97
383.39	330.03
383.77	355.57
384.15	337.94
384.53	361.9
384.91	347.89
385.29	340.88
385.67	358.28
386.049	342.91
386.429	335.91
386.809	343.82
387.189	361.9
387.568	341.78
387.948	341.56
388.328	334.78
388.707	327.1
389.087	334.78
389.466	359.41
389.846	360.32
390.225	356.02
390.605	367.32
390.984	358.51
391.363	367.32
391.743	348.79
392.122	370.26
392.501	367.55
392.881	359.19
393.26	372.97
393.639	385.4
394.018	382.91
394.397	372.52
394.776	360.77
395.155	375.68
395.534	369.81
395.913	386.53
396.292	363.93
396.671	379.75
397.05	379.52
397.429	365.74
397.808	361.9
398.186	376.36
398.565	385.63
398.944	389.02
399.323	376.13
399.701	392.86
400.08	400.09
400.458	403.7
400.837	384.5
401.215	405.51
401.594	399.18
401.972	389.92
402.351	408.9
402.729	405.51
403.107	403.93
403.486	415.91
403.864	404.61
404.242	441.67
404.62	405.96
404.999	412.29
405.377	408
405.755	410.03
406.133	416.59
406.511	442.57
406.889	437.6
407.267	446.19
407.645	433.76
408.023	436.25
408.401	459.52
408.779	440.77
409.156	453.19
409.534	435.34
409.912	450.71
410.29	482.8
410.667	468.11
411.045	469.24
411.422	475.57
411.8	483.48
412.178	485.51
412.555	502.01
412.933	481.89
413.31	495.45
413.687	497.94
414.065	509.01
414.442	520.99
414.819	528.22
415.197	542.91
415.574	551.72
415.951	544.94
416.328	568.22
416.705	545.85
417.082	539.52
417.46	560.76
417.837	555.34
418.214	580.42
418.591	567.54
418.967	576.58
419.344	586.75
419.721	584.04
420.098	593.98
420.475	603.47
420.852	613.64
421.228	625.39
421.605	612.96
421.982	636.92
422.358	647.77
422.735	631.72
423.111	658.16
423.488	637.82
423.864	667.65
424.241	650.48
424.617	688.44
424.994	673.53
425.37	689.35
425.746	690.48
426.123	690.25
426.499	704.94
426.875	711.04
427.251	706.97
427.627	717.82
428.003	731.61
428.379	729.8
428.756	719.18
429.132	736.12
429.507	732.96
429.883	758.05
430.259	743.81
430.635	768.67
431.011	790.36
431.387	786.07
431.763	809.57
432.138	784.49
432.514	827.2
432.89	826.74
433.265	831.72
433.641	854.77
434.016	865.39
434.392	838.49
434.767	877.59
435.143	870.36
435.518	881.88
435.894	899.28
436.269	896.57
436.644	911.49
437.02	927.53
437.395	920.3
437.77	928.89
438.145	946.51
438.52	948.32
438.895	966.85
439.271	970.24
439.646	995.1
440.021	984.25
440.395	976.8
440.77	992.62
441.145	1001.2
441.52	1028.09
441.895	1002.11
442.27	990.58
442.645	990.36
443.019	1000.07
443.394	999.85
443.769	1035.55
444.143	1038.26
444.518	1042.78
444.892	1035.33
445.267	1056.12
445.641	1049.79
446.016	1051.14
446.39	1081.2
446.764	1067.19
447.139	1051.82
447.513	1073.29
447.887	1065.61
448.262	1077.81
448.636	1096.34
449.01	1097.25
449.384	1122.56
449.758	1109.9
450.132	1144.48
450.506	1128.43
450.88	1144.7
451.254	1104.48
451.628	1150.13
452.002	1115.55
452.376	1138.83
452.75	1108.32
453.123	1176.79
453.497	1183.12
453.871	1179.95
454.244	1191.48
454.618	1210.24
454.992	1207.52
455.365	1211.59
455.739	1229.67
456.112	1233.74
456.486	1205.72
456.859	1220.86
457.232	1274.64
457.606	1246.17
457.979	1268.77
458.352	1294.75
458.725	1322.55
459.099	1323.45
459.472	1333.17
459.845	1331.14
460.218	1311.02
460.591	1353.74
460.964	1359.39
461.337	1377.92
461.71	1385.83
462.083	1412.27
462.456	1404.13
462.829	1414.3
463.201	1427.41
463.574	1409.1
463.947	1445.48
464.32	1492.49
464.692	1478.93
465.065	1492.71
465.438	1501.3
465.81	1504.92
466.183	1523.22
466.555	1546.05
466.928	1543.56
467.3	1565.26
467.672	1564.8
468.045	1567.97
468.417	1618.36
468.789	1592.15
469.161	1609.32
469.534	1634.86
469.906	1672.82
470.278	1677.34
470.65	1693.16
471.022	1718.02
471.394	1720.05
471.766	1732.93
472.138	1781.29
472.51	1823.33
472.882	1812.71
473.253	1799.15
473.625	1877.34
473.997	1862.87
474.369	1877.79
474.74	1908.75
475.112	1948.75
475.484	1982.42
475.855	1991.23
476.227	2034.85
476.598	2044.56
476.97	2068.97
477.341	2079.37
477.713	2100.16
478.084	2118.24
478.455	2153.94
478.827	2195.75
479.198	2232.36
479.569	2229.87
479.94	2270.77
480.311	2306.48
480.682	2335.63
481.053	2372.69
481.424	2445.91
481.795	2456.76
482.166	2500.37
482.537	2484.55
482.908	2524.55
483.279	2568.62
483.65	2600.48
484.021	2585.57
484.391	2664.21
484.762	2658.79
485.133	2703.3
485.503	2713.93
485.874	2790.99
486.244	2762.51
486.615	2823.53
486.985	2839.12
487.356	2879.8
487.726	2894.03
488.097	2995.27
488.467	3005.22
488.837	2985.33
489.207	3056.52
489.578	3083.63
489.948	3090.64
490.318	3153.69
490.688	3157.3
491.058	3182.39
491.428	3208.6
491.798	3276.17
492.168	3335.6
492.538	3372.44
492.908	3363.17
493.278	3415.83
493.648	3403.85
494.017	3430.29
494.387	3452.66
494.757	3473.68
495.126	3549.16
495.496	3540.57
495.866	3543.51
496.235	3588.93
496.605	3574.47
496.974	3630.29
497.344	3679.78
497.713	3672.54
498.082	3670.96
498.452	3716.16
498.821	3713
499.19	3734.69
499.559	3741.24
499.928	3807
500.298	3816.5
500.667	3802.71
501.036	3842.03
501.405	3838.42
501.774	3869.6
502.143	3916.61
502.512	3907.57
502.88	3965.42
503.249	3967.45
503.618	3937.4
503.987	3963.61
504.356	3960.67
504.724	3995.47
505.093	4037.96
505.462	3997.28
505.83	4062.36
506.199	4092.65
506.567	4115.47
506.936	4072.53
507.304	4117.05
507.672	4157.5
508.041	4162.7
508.409	4175.36
508.777	4188.01
509.145	4176.03
509.514	4228.01
509.882	4225.98
510.25	4240.44
510.618	4263.49
510.986	4249.93
511.354	4289.93
511.722	4324.96
512.09	4364.28
512.458	4319.53
512.826	4401.11
513.193	4333.32
513.561	4381.45
513.929	4412.64
514.297	4464.16
514.664	4421.9
515.032	4431.39
515.4	4486.76
515.767	4488.12
516.135	4483.37
516.502	4487.21
516.869	4491.96
517.237	4537.15
517.604	4501
517.972	4562.24
518.339	4544.39
518.706	4557.49
519.073	4580.32
519.44	4578.74
519.808	4666.19
520.175	4642.69
520.542	4649.69
520.909	4656.93
521.276	4671.84
521.643	4730.37
522.009	4693.08
522.376	4744.61
522.743	4801.55
523.11	4765.4
523.477	4825.28
523.843	4864.83
524.21	4863.7
524.577	4910.25
524.943	4896.47
525.31	4967.65
525.676	4922.23
526.043	4971.04
526.409	5010.59
526.776	5020.53
527.142	5058.04
527.508	5076.58
527.874	5103.47
528.241	5105.95
528.607	5132.17
528.973	5159.51
529.339	5162.22
529.705	5192.96
530.071	5266.85
530.437	5278.6
530.803	5299.62
531.169	5324.7
531.535	5316.34
531.901	5320.64
532.267	5372.84
532.632	5408.32
532.998	5416.45
533.364	5430.46
533.73	5503.01
534.095	5499.62
534.461	5486.51
534.826	5559.95
535.192	5505.26
535.557	5570.12
535.923	5574.87
536.288	5635.2
536.653	5623.45
537.019	5643.34
537.384	5675.66
537.749	5653.96
538.114	5695.54
538.479	5729.44
538.845	5740.06
539.21	5721.98
539.575	5758.37
539.94	5819.38
540.305	5856.89
540.67	5839.72
541.034	5852.15
541.399	5832.94
541.764	5887.18
542.129	5951.58
542.494	5953.39
542.858	5952.03
543.223	6078.81
543.587	6011.24
543.952	6081.29
544.316	6075.19
544.681	6101.63
545.045	6142.08
545.41	6175.98
545.774	6196.77
546.138	6204.46
546.503	6235.42
546.867	6186.38
547.231	6276.77
547.595	6308.18
547.959	6280.84
548.324	6328.29
548.688	6374.17
549.052	6418.69
549.416	6399.03
549.779	6446.94
550.143	6450.55
550.507	6433.6
550.871	6470.21
551.235	6482.87
551.599	6565.8
551.962	6580.26
552.326	6546.37
552.689	6582.07
553.053	6611.68
553.417	6556.76
553.78	6725.57
554.143	6648.06
554.507	6687.15
554.87	6682.41
555.234	6756.08
555.597	6782.75
555.96	6763.76
556.323	6753.37
556.686	6809.86
557.05	6849.18
557.413	6814.61
557.776	6856.42
558.139	6891.9
558.502	6909.52
558.865	6940.26
559.228	7020.25
559.59	6936.19
559.953	6975.96
560.316	7040.59
560.679	7049.41
561.041	7105.67
561.404	7074.72
561.767	7106.13
562.129	7165.33
562.492	7171.21
562.854	7201.94
563.217	7160.59
563.579	7182.96
563.941	7260.92
564.304	7310.19
564.666	7333.24
565.028	7347.25
565.39	7338.89
565.753	7390.64
566.115	7380.92
566.477	7373.92
566.839	7415.72
567.201	7439.9
567.563	7468.83
567.925	7481.03
568.287	7560.13
568.648	7533.23
569.01	7613.91
569.372	7622.27
569.734	7608.26
570.095	7713.34
570.457	7744.75
570.819	7778.43
571.18	7756.05
571.542	7836.28
571.903	7911.08
572.265	7917.63
572.626	7951.75
572.987	8013.9
573.349	8073.33
573.71	8079.89
574.071	8125.31
574.432	8140.22
574.794	8234.68
575.155	8238.3
575.516	8351.07
575.877	8437.17
576.238	8454.11
576.599	8544.28
576.96	8578.86
577.32	8669.48
577.681	8730.72
578.042	8762.35
578.403	8901.11
578.763	8965.51
579.124	9046.87
579.485	9153.08
579.845	9313.07
580.206	9445.05
580.566	9445.95
580.927	9617.7
581.287	9752.38
581.648	9816.56
582.008	10025.82
582.368	10153.5
582.728	10255.87
583.089	10405.7
583.449	10541.52
583.809	10653.38
584.169	10876.88
584.529	11110.54
584.889	11254.72
585.249	11360.03
585.609	11518.67
585.969	11821.71
586.329	12048.82
586.688	12231.87
587.048	12355.71
587.408	12597.06
587.768	12813.32
588.127	13060.09
588.487	13260.77
588.846	13666.18
589.206	13756.12
589.565	13992.5
589.925	14293.96
590.284	14465.48
590.643	14798.81
591.003	15109.98
591.362	15418.22
591.721	15622.96
592.08	15859.79
592.44	16193.57
592.799	16423.4
593.158	16702.03
593.517	16869.71
593.876	17264.96
594.235	17548.11
594.593	17773.64
594.952	18092.05
595.311	18307.87
595.67	18645.26
596.029	19104.91
596.387	19363.43
596.746	19651.11
597.104	19803.87
597.463	20250.87
597.822	20444.76
598.18	20619.44
598.538	20912.54
598.897	21232.31
599.255	21548.01
599.613	22026.41
599.972	22084.49
600.33	22351.83
600.688	22672.05
601.046	22987.29
601.404	23437.22
601.762	23585.02
602.12	23854.39
602.478	24196.07
602.836	24468.16
603.194	24514.26
603.552	24876.96
603.91	25090.96
604.268	25417.06
604.625	25515.59
604.983	26008.23
605.341	25976.59
605.698	26394.89
606.056	26636.91
606.413	26843.23
606.771	27254.3
607.128	27317.57
607.485	27498.36
607.843	27714.85
608.2	28118.91
608.557	28324.1
608.914	28363.42
609.272	28827.14
609.629	29090.86
609.986	29283.17
610.343	29360.23
610.7	29829.82
611.057	30000.21
611.414	30061.46
611.771	30232.52
612.127	30583.48
612.484	30724.71
612.841	30919.29
613.198	30907.76
613.554	31128.55
613.911	31368.31
614.267	31570.12
614.624	31775.76
614.98	31883.1
615.337	32160.84
615.693	32346.82
616.05	32345.46
616.406	32792.01
616.762	32864.32
617.118	32819.12
617.475	32910.19
617.831	33212.33
618.187	33254.59
618.543	33479.44
618.899	33683.51
619.255	33827.23
619.611	33899.32
619.967	33998.07
620.323	34279.65
620.678	34145.42
621.034	34163.95
621.39	34343.83
621.746	34420.66
622.101	34962.57
622.457	34649.13
622.812	34845.28
623.168	34858.84
623.523	35178.16
623.879	35366.4
624.234	35076.46
624.589	35224.03
624.945	35503.35
625.3	35523.01
625.655	35534.08
626.01	35716
626.365	35853.85
626.72	35761.64
627.075	35859.04
627.43	35964.35
627.785	35848.2
628.14	36083.22
628.495	36271.91
628.85	36204.8
629.205	36134.29
629.559	36494.96
629.914	36249.54
630.269	36374.96
630.623	36261.97
630.978	36151.69
631.332	36535.41
631.687	36496.31
632.041	36454.96
632.396	36567.05
632.75	36465.58
633.104	36586.71
633.459	36490.44
633.813	36522.3
634.167	36537.9
634.521	36615.86
634.875	36637.55
635.229	36645.24
635.583	36602.75
635.937	36606.14
636.291	36599.59
636.645	36675.29
636.999	36635.97
637.352	36694.95
637.706	36482.76
638.06	36659.25
638.413	36638.01
638.767	36435.07
639.121	36652.69
639.474	36481.17
639.828	36539.7
640.181	36617.44
640.534	36619.25
640.888	36530.44
641.241	36251.58
641.594	36473.94
641.947	36579.02
642.301	36365.47
642.654	36464.68
643.007	36546.26
643.36	36403.21
643.713	36513.26
644.066	36593.94
644.419	36269.65
644.771	36240.5
645.124	35911.02
645.477	35769.1
645.83	35637.35
646.182	35544.93
646.535	35369.34
646.888	35416.34
647.24	35329.34
647.593	35413.18
647.945	35483.46
648.298	35330.92
648.65	35273.07
649.002	35227.42
649.355	35370.24
649.707	35176.35
650.059	35438.72
650.411	35948.76
650.763	35915.76
651.115	36319.37
651.467	36148.98
651.819	36209.54
652.171	36045.48
652.523	36145.36
652.875	36046.61
653.227	35993.5
653.578	36216.32
653.93	35991.47
654.282	36090.22
654.633	35826.95
654.985	36093.16
655.337	36075.99
655.688	35997.57
656.039	36051.81
656.391	35765.03
656.742	35858.37
657.094	35895.65
657.445	35936.33
657.796	36012.03
658.147	35845.48
658.498	35760.51
658.849	35905.37
659.2	35779.95
659.551	35691.36
659.902	35774.98
660.253	35752.38
660.604	35688.43
660.955	35524.14
661.306	35784.02
661.656	35673.29
662.007	35795.32
662.358	35654.08
662.708	35715.77
663.059	35738.59
663.409	35503.12
663.76	35794.64
664.11	35774.53
664.461	35722.1
664.811	35791.93
665.161	35821.98
665.511	35573.85
665.862	35754.19
666.212	35865.37
666.562	35838.25
666.912	35740.63
667.262	35533.63
667.612	35665.38
667.962	35779.95
668.312	35714.19
668.662	35748.31
669.011	35716.67
669.361	35576.34
669.711	35546.28
670.06	35613.4
670.41	35414.31
670.76	35544.7
671.109	35582.44
671.459	35579.95
671.808	35512.61
672.157	35546.51
672.507	35357.36
672.856	35310.36
673.205	35530.46
673.554	35561.42
673.904	35428.32
674.253	35763.23
674.602	35416.57
674.951	34923.47
675.3	34676.48
675.649	35297.7
675.998	35393.29
676.346	35287.98
676.695	35391.26
677.044	35059.06
677.393	35247.53
677.741	35357.59
678.09	35254.99
678.438	35292.5
678.787	35162.79
679.135	35185.84
679.484	34887.77
679.832	35183.13
680.181	34958.05
680.529	35043.47
680.877	35098.61
681.225	34825.62
681.573	35028.78
681.922	34884.61
682.27	34791.27
682.618	34728.68
682.966	34716.7
683.314	34788.79
683.661	34586.53
684.009	34499.53
684.357	34441.23
684.705	34362.81
685.053	34391.74
685.4	34379.99
685.748	34281.91
686.095	34278.75
686.443	34201.69
686.79	34000.11
687.138	34108.35
687.485	34140.22
687.832	33853.67
688.18	34063.16
688.527	33775.03
688.874	33761.02
689.221	33761.25
689.568	33641.02
689.915	33625.43
690.262	33529.61
690.609	33348.6
690.956	33360.8
691.303	33292.56
691.65	33192.67
691.997	33241.71
692.344	33009.4
692.69	33089.62
693.037	32959.46
693.383	32823.64
693.73	32879.69
694.077	32608.28
694.423	32786.36
694.769	32589.07
695.116	32632.91
695.462	32613.48
695.808	32429.98
696.155	32431.79
696.501	32187.73
696.847	32329.19
697.193	32099.37
697.539	32130.33
697.885	31774.86
698.231	31769.21
698.577	31752.26
698.923	31699.83
699.269	31605.6
699.614	31545.71
699.96	31386.62
700.306	31400.86
700.651	31253.74
700.997	31038.83
701.342	31121.31
701.688	31159.96
702.033	30998.38
702.379	30998.15
702.724	30810.36
703.069	30949.57
703.415	30571.5
703.76	30626.19
704.105	30609.01
704.45	30642.91
704.795	30287.89
705.14	30301.22
705.485	30355.68
705.83	30103.04
706.175	30218.29
706.52	30168.8
706.865	30071.62
707.209	29919.31
707.554	29751.63
707.899	29935.58
708.243	29696.49
708.588	29722.93
708.932	29512.32
709.277	29506.44
709.621	29632.99
709.966	29216.73
710.31	29449.49
710.654	29196.17
710.998	29226
711.342	29176.96
711.687	28993.01
712.031	28994.14
712.375	28828.95
712.719	28857.65
713.063	28878.66
713.407	28974.25
713.75	28818.55
714.094	28670.31
714.438	28601.61
714.782	28576.75
715.125	28510.54
715.469	28567.94
715.812	28303.99
716.156	28178.57
716.499	28240.49
716.843	28346.7
717.186	28134.95
717.53	28267.83
717.873	28289.07
718.216	28132.01
718.559	28004.56
718.902	27756.66
719.246	28018.57
719.589	27786.49
719.932	27667.62
720.275	27754.17
720.617	27756.43
720.96	27599.6
721.303	27636.66
721.646	27621.97
721.989	27458.59
722.331	27489.09
722.674	27482.09
723.016	27487.06
723.359	27331.13
723.701	27464.46
724.044	27216.33
724.386	27141.76
724.729	27282.77
725.071	27112.38
725.413	27142.21
725.755	27136.33
726.097	26989.9
726.439	26946.28
726.782	26930.92
727.124	27138.59
727.465	26926.4
727.807	26925.49
728.149	26755.33
728.491	26746.29
728.833	26704.48
729.175	26550.14
729.516	26625.84
729.858	26525.73
730.199	26560.98
730.541	26486.18
730.882	26349.46
731.224	26503.36
731.565	26345.17
731.906	26327.99
732.248	26366.41
732.589	26201.9
732.93	26107.44
733.271	26169.81
733.612	26226.3
733.953	26117.6
734.294	26052.97
734.635	25899.53
734.976	26060.43
735.317	25860.66
735.658	25894.11
735.999	25855.01
736.339	25827.22
736.68	25814.56
737.021	25709.03
737.361	25678.75
737.702	25806.43
738.042	25654.11
738.383	25599.88
738.723	25821.11
739.063	25579.09
739.404	25619.09
739.744	25490.05
740.084	25325.53
740.424	25412.31
740.764	25462.48
741.104	25511.74
741.444	25428.36
741.784	25215.03
742.124	25287.57
742.464	25168.48
742.804	25078.54
743.143	25085.09
743.483	25154.92
743.823	25010.06
744.162	25092.77
744.502	25128.03
744.841	24880.57
745.181	25051.19
745.52	24905.43
745.86	24854.81
746.199	24758.54
746.538	24758.77
746.877	24909.05
747.216	24745.89
747.556	24630.41
747.895	24720.13
748.234	24536.4
748.573	24566.23
748.911	24503.64
749.25	24453.02
749.589	24369.18
749.928	24417.99
750.267	24436.97
750.605	24286.92
750.944	24262.96
751.283	24138.45
751.621	24193.81
751.96	24145.68
752.298	24114.95
752.636	24121.05
752.975	24010.09
753.313	23861.17
753.651	23971.67
753.989	23808.96
754.327	23792.47
754.666	23792.02
755.004	23689.87
755.342	23699.81
755.679	23624.11
756.017	23531.68
756.355	23670.89
756.693	23501.63
757.031	23441.74
757.368	23305.47
757.706	23402.65
758.044	23288.53
758.381	23386.6
758.719	23091.24
759.056	23064.35
759.394	23018.93
759.731	22962.21
760.068	22931.47
760.405	22869.1
760.743	22763.57
761.08	22803.79
761.417	22639.05
761.754	22611.93
762.091	22590.01
762.428	22453.07
762.765	22340.3
763.102	22492.39
763.438	22276.12
763.775	22179.4
764.112	22239.51
764.449	22207.42
764.785	22068.9
765.122	21893.31
765.458	21987.32
765.795	21833.88
766.131	21788.45
766.467	21662.35
766.804	21677.04
767.14	21540.1
767.476	21572.41
767.812	21318.18
768.148	21423.94
768.485	21185.3
768.821	21135.81
769.157	21234.12
769.492	21114.57
769.828	21035.7
770.164	20883.62
770.5	20781.47
770.836	20878.42
771.171	20718.65
771.507	20715.71
771.842	20515.27
772.178	20454.48
772.513	20389.17
772.849	20388.72
773.184	20285.67
773.519	20277.08
773.855	20193.01
774.19	20099.01
774.525	20042.74
774.86	19964.32
775.195	20004.54
775.53	19827.37
775.865	19746.7
776.2	19688.85
776.535	19426.03
776.87	19512.13
777.205	19387.84
777.539	19228.29
777.874	19397.55
778.209	19239.82
778.543	19139.03
778.878	19054.29
779.212	19057
779.547	18884.35
779.881	18975.19
780.215	18812.26
780.55	18892.48
780.884	18711.92
781.218	18623.79
781.552	18565.49
781.886	18595.54
782.22	18487.3
782.554	18362.1
782.888	18221.77
783.222	18232.61
783.556	18098.83
783.889	18112.17
784.223	17926.86
784.557	17858.16
784.89	17890.93
785.224	17765.28
785.557	17698.39
785.891	17681.67
786.224	17647.77
786.558	17658.17
786.891	17415.46
787.224	17394.9
787.557	17271.28
787.891	17299.98
788.224	17265.86
788.557	17252.07
788.89	17199.87
789.223	17142.92
789.556	17016.6
789.888	17004.4
790.221	16947
790.554	16861.35
790.887	16840.56
791.219	16732.09
791.552	16699.55
791.884	16656.16
792.217	16549.49
792.549	16536.84
792.882	16359.22
793.214	16343.62
793.546	16417.75
793.879	16284.42
794.211	16188.15
794.543	16246.23
794.875	16111.77
795.207	16134.59
795.539	16032.9
795.871	16035.61
796.203	15861.15
796.535	15770.08
796.867	15740.7
797.198	15754.94
797.53	15679.46
797.862	15587.26
798.193	15615.73
798.525	15503.19
798.856	15552.68
799.188	15442.4
799.519	15338.45
799.85	15320.37
800.182	15315.4
800.513	15269.98
800.844	15113.6
801.175	15232.92
801.506	15163.09
801.837	15111.79
802.168	15036.09
802.499	14909.31
802.83	14979.59
803.161	14879.48
803.491	14856.66
803.822	14851.01
804.153	14736.21
804.483	14654.18
804.814	14555.87
805.145	14656.66
805.475	14618.02
805.805	14553.84
806.136	14565.82
806.466	14458.25
806.796	14390.91
807.126	14283.57
807.457	14211.25
807.787	14382.32
808.117	14186.17
808.447	14204.7
808.777	14272.04
809.107	14192.72
809.436	14033.85
809.766	14084.02
810.096	14081.76
810.426	13949.79
810.755	13990.92
811.085	14013.06
811.414	13876.8
811.744	13724.94
812.073	13790.02
812.403	13751.15
812.732	13703.69
813.061	13655.11
813.39	13598.84
813.719	13509.12
814.049	13678.16
814.378	13550.7
814.707	13516.35
815.036	13551.83
815.365	13496.02
815.693	13367.66
816.022	13368.33
816.351	13321.56
816.68	13219.19
817.008	13219.19
817.337	13168.34
817.665	13155.91
817.994	13107.55
818.322	13163.14
818.651	13052.19
818.979	13011.51
819.307	13012.41
819.636	13063.26
819.964	12950.72
820.292	13032.75
820.62	12894.22
820.948	12917.5
821.276	12953.43
821.604	12876.82
821.932	12877.05
822.259	12893.55
822.587	12869.82
822.915	12819.65
823.243	12889.7
823.57	12849.03
823.898	12882.7
824.225	12780.33
824.553	12864.85
824.88	12812.87
825.207	12937.61
825.535	12790.95
825.862	12898.06
826.189	12748.46
826.516	12870.04
826.843	12828.91
827.17	12853.32
827.497	12923.6
827.824	12727
828.151	12921.12
828.478	12872.3
828.805	12825.3
829.131	12880.89
829.458	12753.44
829.785	12709.14
830.111	12788.46
830.438	12861
830.764	12805.64
831.09	12807.67
831.417	12706.21
831.743	12802.02
832.069	12794.56
832.395	12751.4
832.722	12730.39
833.048	12688.35
833.374	12790.5
833.7	12687.22
834.026	12746.43
834.351	12711.63
834.677	12659.88
835.003	12666.21
835.329	12684.06
835.654	12569.03
835.98	12605.19
836.306	12631.63
836.631	12533.1
836.956	12563.38
837.282	12545.53
837.607	12567.9
837.932	12516.15
838.258	12576.27
838.583	12427.57
838.908	12455.82
839.233	12422.37
839.558	12339.66
839.883	12338.53
840.208	12325.65
840.533	12367.91
840.858	12284.3
841.182	12386.89
841.507	12233.22
841.832	12216.5
842.156	12202.49
842.481	12173.79
842.805	12179.67
843.13	12106.9
843.454	12080.23
843.778	12030.74
844.103	11979.22
844.427	11992.33
844.751	12073.45
845.075	12001.82
845.399	11835.72
845.723	11882.95
846.047	11845.44
846.371	11732.45
846.695	11739.23
847.019	11607.25
847.343	11648.61
847.666	11592.79
847.99	11560.47
848.313	11548.5
848.637	11316.86
848.96	11422.62
849.284	11373.81
849.607	11293.14
849.931	11270.54
850.254	11209.52
850.577	11066.02
850.9	11103.31
851.223	10971.34
851.546	11019.24
851.869	10894.5
852.192	10994.16
852.515	10915.74
852.838	10856.54
853.161	10854.5
853.483	10773.83
853.806	10722.53
854.129	10732.92
854.451	10685.24
854.774	10660.61
855.096	10607.5
855.419	10555.53
855.741	10577.67
856.063	10528.18
856.385	10453.38
856.708	10382.42
857.03	10394.63
857.352	10389.2
857.674	10360.28
857.996	10362.76
858.318	10252.03
858.64	10308.3
858.961	10206.38
859.283	10178.14
859.605	10193.73
859.926	10210
860.248	10059.95
860.57	10051.36
860.891	10051.59
861.212	9945.6
861.534	10052.26
861.855	10087.07
862.176	9999.61
862.498	9960.06
862.819	9939.5
863.14	9947.18
863.461	9882.78
863.782	9899.95
864.103	9866.73
864.424	9779.28
864.745	9818.6
865.065	9712.16
865.386	9728.43
865.707	9758.03
866.027	9817.24
866.348	9728.88
866.668	9719.39
866.989	9716
867.309	9597.36
867.63	9697.02
867.95	9631.71
868.27	9675.78
868.59	9602.11
868.91	9612.28
869.23	9556.68
869.55	9529.79
869.87	9581.54
870.19	9526.18
870.51	9528.44
870.83	9525.95
871.15	9465.61
871.469	9402.79
871.789	9462.45
872.109	9450.25
872.428	9417.48
872.748	9475.56
873.067	9472.62
873.386	9492.28
873.706	9376.35
874.025	9347.2
874.344	9325.96
874.663	9352.4
874.982	9249.35
875.301	9337.03
875.62	9244.6
875.939	9234.21
876.258	9197.82
876.577	9204.83
876.896	9198.05
877.214	9142.68
877.533	9199.41
877.852	9199.86
878.17	9135.23
878.489	9120.31
878.807	9146.3
879.125	9086.87
879.444	9040.09
879.762	9024.04
880.08	9037.83
880.398	9047.32
880.716	8992.63
881.034	8976.81
881.352	8956.7
881.67	8945.4
881.988	8981.78
882.306	8920.77
882.624	8877.83
882.941	8908.11
883.259	8840.54
883.577	8828.79
883.894	8777.72
884.212	8812.52
884.529	8837.83
884.846	8767.78
885.164	8805.52
885.481	8712.19
885.798	8788.79
886.115	8676.93
886.432	8637.39
886.75	8698.4
887.067	8645.97
887.383	8615.01
887.7	8626.99
888.017	8521
888.334	8524.39
888.651	8516.71
888.967	8528.69
889.284	8474.23
889.6	8406.88
889.917	8342.48
890.233	8466.99
890.55	8389.71
890.866	8374.79
891.182	8271.52
891.498	8329.82
891.815	8269.71
892.131	8242.82
892.447	8188.81
892.763	8211.63
893.079	8217.06
893.395	8142.03
893.71	8161.69
894.026	8125.31
894.342	8133.9
894.657	8066.33
894.973	8052.54
895.289	8031.3
895.604	8017.97
895.92	7883.28
896.235	7907.24
896.55	7953.34
896.865	7892.77
897.181	7872.43
897.496	7823.62
897.811	7868.14
898.126	7746.11
898.441	7794.02
898.756	7673.34
899.071	7665.21
899.386	7691.2
899.7	7568.49
900.015	7620.69
900.33	7529.17
900.644	7513.35
900.959	7575.04
901.273	7498.66
901.588	7442.62
901.902	7428.15
902.216	7373.46
902.531	7332.79
902.845	7327.14
903.159	7371.43
903.473	7274.94
903.787	7264.99
904.101	7179.57
904.415	7246.91
904.729	7205.11
905.042	7182.06
905.356	7125.11
905.67	7098.67
905.984	7075.17
906.297	7117.43
906.611	7032.68
906.924	7017.54
907.237	6953.36
907.551	6982.97
907.864	6974.38
908.177	6938.45
908.491	6913.14
908.804	6912.01
909.117	6801.73
909.43	6833.37
909.743	6841.27
910.056	6745.46
910.368	6779.58
910.681	6726.48
910.994	6696.19
911.307	6620.94
911.619	6569.19
911.932	6555.18
912.244	6561.51
912.557	6594.95
912.869	6507.72
913.181	6488.97
913.494	6448.29
913.806	6403.32
914.118	6429.31
914.43	6402.64
914.742	6395.18
915.054	6295.98
915.366	6334.17
915.678	6280.61
915.99	6241.06
916.302	6208.98
916.613	6195.87
916.925	6150.67
917.236	6178.47
917.548	6114.29
917.859	6094.85
918.171	6068.19
918.482	6023.44
918.794	6011.69
919.105	6020.51
919.416	5945.25
919.727	5922.2
920.038	5923.78
920.349	5876.33
920.66	5854.41
920.971	5867.97
921.282	5795.2
921.593	5732.83
921.903	5780.29
922.214	5781.42
922.525	5761.08
922.835	5730.8
923.146	5698.03
923.456	5654.41
923.767	5636.56
924.077	5591.59
924.387	5588.43
924.697	5533.74
925.008	5566.05
925.318	5520.41
925.628	5506.39
925.938	5509.78
926.248	5410.58
926.558	5394.76
926.867	5351.82
927.177	5395.44
927.487	5350.01
927.796	5293.74
928.106	5286.97
928.416	5301.2
928.725	5274.08
929.034	5266.18
929.344	5285.16
929.653	5214.2
929.962	5174.43
930.271	5147.08
930.581	5140.98
930.89	5148.21
931.199	5073.41
931.508	5076.8
931.817	5090.36
932.125	5066.41
932.434	5006.29
932.743	4990.02
933.051	4936.01
933.36	4897.6
933.669	4924.49
933.977	4892.4
934.286	4877.26
934.594	4827.77
934.902	4836.58
935.21	4778.28
935.519	4835.9
935.827	4787.32
936.135	4726.98
936.443	4740.99
936.751	4740.31
937.059	4744.61
937.367	4693.76
937.674	4656.25
937.982	4677.49
938.29	4644.04
938.597	4629.13
938.905	4530.38
939.213	4535.57
939.52	4570.37
939.827	4561.56
940.135	4523.6
940.442	4486.31
940.749	4450.83
941.056	4461
941.363	4410.38
941.67	4424.16
941.977	4392.75
942.284	4382.36
942.591	4363.37
942.898	4328.35
943.205	4269.82
943.511	4290.16
943.818	4328.57
944.125	4216.26
944.431	4273.43
944.738	4235.69
945.044	4234.56
945.35	4191.63
945.657	4149.82
945.963	4154.11
946.269	4130.16
946.575	4106.66
946.881	4095.13
947.187	4092.19
947.493	4075.92
947.799	4040.44
948.105	4017.62
948.41	4037.05
948.716	3954.8
949.022	3954.8
949.327	3991.18
949.633	3937.85
949.938	3960.67
950.244	3937.17
950.549	3883.16
950.854	3881.8
951.16	3869.38
951.465	3846.55
951.77	3847.46
952.075	3816.04
952.38	3821.47
952.685	3813.33
952.99	3740.57
953.294	3748.47
953.599	3728.59
953.904	3735.59
954.209	3703.5
954.513	3676.39
954.818	3683.17
955.122	3676.39
955.426	3630.51
955.731	3660.57
956.035	3597.07
956.339	3606.56
956.643	3606.33
956.948	3538.76
957.252	3558.42
957.556	3546.9
957.86	3540.8
958.163	3532.21
958.467	3478.88
958.771	3469.39
959.075	3479.1
959.378	3420.35
959.682	3421.48
959.985	3448.82
960.289	3407.69
960.592	3372.21
960.896	3358.43
961.199	3347.13
961.502	3360.91
961.805	3316.62
962.108	3311.42
962.411	3322.95
962.714	3253.12
963.017	3290.41
963.32	3270.52
963.623	3207.7
963.926	3244.53
964.228	3217.42
964.531	3182.16
964.833	3183.74
965.136	3211.54
965.438	3170.19
965.741	3183.97
966.043	3113.01
966.345	3081.15
966.648	3106.01
966.95	3087.02
967.252	3105.55
967.554	3091.09
967.856	3054.03
968.158	3021.49
968.46	3044.31
968.761	3041.83
969.063	2989.4
969.365	2973.35
969.666	3021.71
969.968	2949.17
970.269	2958.89
970.571	2882.96
970.872	2934.94
971.174	2915.95
971.475	2892.45
971.776	2899.91
972.077	2850.87
972.378	2875.73
972.679	2880.02
972.98	2846.58
973.281	2799.35
973.582	2799.8
973.883	2802.74
974.183	2799.12
974.484	2771.55
974.785	2763.87
975.085	2741.95
975.386	2731.78
975.686	2755.73
975.986	2705.56
976.287	2697.66
976.587	2688.84
976.887	2690.65
977.187	2680.25
977.487	2674.15
977.787	2615.17
978.087	2604.78
978.387	2639.8
978.687	2623.31
978.987	2583.53
979.286	2589.86
979.586	2561.16
979.885	2588.96
980.185	2575.17
980.484	2533.82
980.784	2534.95
981.083	2516.42
981.382	2487.72
981.682	2496.08
981.981	2493.14
982.28	2472.35
982.579	2477.1
982.878	2468.96
983.177	2434.84
983.475	2459.7
983.774	2424.67
984.073	2405.23
984.372	2402.3
984.67	2400.94
984.969	2398.23
985.267	2422.63
985.566	2336.31
985.864	2349.64
986.162	2346.93
986.461	2331.79
986.759	2332.01
987.057	2298.57
987.355	2303.99
987.653	2271.23
987.951	2329.53
988.249	2296.08
988.547	2251.11
988.844	2236.88
989.142	2259.02
989.44	2229.87
989.737	2215.18
990.035	2233.94
990.332	2223.32
990.63	2185.13
990.927	2169.53
991.224	2173.83
991.521	2190.1
991.819	2133.83
992.116	2150.1
992.413	2138.12
992.71	2134.05
993.006	2131.12
993.303	2092.7
993.6	2084.11
993.897	2083.43
994.193	2086.6
994.49	2050.89
994.787	2065.36
995.083	2075.3
995.379	2051.57
995.676	2015.87
995.972	2037.11
996.268	2009.54
996.565	1994.85
996.861	1994.4
997.157	1977.67
997.453	1982.65
997.749	1996.66
998.044	1927.73
998.34	1956.66
998.636	1912.14
998.932	1924.12
999.227	1892.25
999.523	1964.79
999.818	1913.04
1000.114	1895.42
1000.409	1843.89
1000.704	1841.18
1001	1871.01
1001.295	1820.62
1001.59	1833.72
1001.885	1844.8
1002.18	1815.87
1002.475	1798.24
1002.77	1791.69
1003.065	1825.81
1003.359	1784.23
1003.654	1788.75
1003.949	1748.75
1004.243	1745.14
1004.538	1750.34
1004.832	1776.1
1005.127	1741.07
1005.421	1712.6
1005.715	1698.81
1006.009	1737.23
1006.304	1703.78
1006.598	1701.3
1006.892	1675.31
1007.186	1668.76
1007.48	1684.12
1007.773	1636.89
1008.067	1664.91
1008.361	1637.57
1008.655	1637.34
1008.948	1610.68
1009.242	1606.61
1009.535	1600.51
1009.829	1584.69
1010.122	1579.49
1010.415	1570.91
1010.708	1590.79
1011.001	1535.43
1011.295	1531.13
1011.588	1561.64
1011.881	1500.4
1012.173	1521.87
1012.466	1508.08
1012.759	1499.95
1013.052	1500.85
1013.344	1497.46
1013.637	1492.71
1013.93	1461.3
1014.222	1435.09
1014.514	1445.26
1014.807	1444.13
1015.099	1436.45
1015.391	1424.69
1015.683	1424.47
1015.976	1412.27
1016.268	1407.75
1016.56	1405.26
1016.851	1398.71
1017.143	1370.68
1017.435	1357.13
1017.727	1352.83
1018.018	1356.67
1018.31	1337.69
1018.602	1341.31
1018.893	1318.26
1019.185	1316.22
1019.476	1315.54
1019.767	1285.71
1020.058	1294.08
1020.35	1297.47
1020.641	1283.68
1020.932	1281.87
1021.223	1273.74
1021.514	1263.79
1021.804	1238.26
1022.095	1228.77
1022.386	1250.46
1022.677	1237.81
1022.967	1217.92
1023.258	1192.38
1023.548	1218.6
1023.839	1188.54
1024.129	1204.81
1024.419	1181.54
1024.709	1129.56
1025	1150.58
1025.29	1174.31
1025.58	1160.07
1025.87	1149.9
1026.16	1133.18
1026.449	1151.71
1026.739	1132.27
1027.029	1133.85
1027.319	1113.74
1027.608	1112.61
1027.898	1109.22
1028.187	1114.87
1028.477	1083.23
1028.766	1056.57
1029.055	1045.04
1029.344	1079.84
1029.634	1043.91
1029.923	1028.09
1030.212	1031.03
1030.501	1039.85
1030.79	1036.91
1031.078	1028.55
1031.367	998.94
1031.656	1026.06
1031.945	1027.19
1032.233	1020.86
1032.522	998.49
1032.81	983.8
1033.099	969.56
1033.387	985.16
1033.675	955.1
1033.963	965.27
1034.251	965.72
1034.54	958.49
1034.828	950.13
1035.116	917.36
1035.403	952.62
1035.691	922.33
1035.979	931.15
1036.267	910.58
1036.554	921.2
1036.842	893.63
1037.129	875.78
1037.417	906.52
1037.704	887.53
1037.992	866.97
1038.279	873.75
1038.566	865.39
1038.853	865.39
1039.14	865.39
