Data from hue_34_FLMS001491_00026.txt Node
Date: Tue Feb 07 17:25:24 GMT 2017
User: dcchb
Spectrometer: FLMS00149
Trigger mode: 0
Integration Time (sec): 2.000000E-2
Scans to average: 10
Electric dark correction enabled: true
Nonlinearity correction enabled: false
Boxcar width: 0
XAxis mode: Wavelengths
Number of Pixels in Spectrum: 2048
>>>>>Begin Spectral Data<<<<<
341.393	20.17
341.776	20.17
342.16	20.17
342.543	-56.21
342.927	-45.82
343.31	-73.84
343.693	-58.7
344.077	-65.25
344.46	-72.26
344.843	-41.75
345.226	-44.24
345.61	-20.28
345.993	-20.96
346.376	-5.59
346.759	9.55
347.142	17.68
347.525	31.47
347.908	56.55
348.291	76.44
348.674	93.16
349.057	118.02
349.44	136.78
349.823	154.63
350.206	182.42
350.588	204.57
350.971	206.6
351.354	228.53
351.737	265.13
352.119	239.82
352.502	275.76
352.884	268.75
353.267	282.76
353.65	299.94
354.032	312.36
354.414	325.47
354.797	300.39
355.179	314.17
355.562	332.03
355.944	321.86
356.326	358.01
356.709	370.22
357.091	346.94
357.473	351.69
357.855	351.46
358.238	347.17
358.62	353.27
359.002	340.84
359.384	344
359.766	352.14
360.148	366.6
360.53	355.53
360.912	357.79
361.294	371.12
361.676	335.41
362.057	320.73
362.439	338.8
362.821	337.45
363.203	320.05
363.584	344
363.966	332.03
364.348	307.62
364.729	342.65
365.111	327.05
365.493	322.53
365.874	331.35
366.256	344.68
366.637	331.57
367.019	332.48
367.4	322.53
367.781	303.33
368.163	317.56
368.544	319.6
368.925	310.33
369.306	341.52
369.688	312.82
370.069	334.74
370.45	321.86
370.831	344.68
371.212	327.51
371.593	314.4
371.974	317.56
372.355	290.67
372.736	322.99
373.117	319.6
373.498	296.55
373.879	317.79
374.26	331.8
374.641	325.92
375.021	316.88
375.402	324.79
375.783	337.22
376.163	326.15
376.544	328.64
376.925	335.64
377.305	337.9
377.686	339.93
378.066	332.7
378.447	350.78
378.827	347.84
379.208	340.61
379.588	326.83
379.968	332.48
380.349	328.64
380.729	336.09
381.109	330.44
381.489	326.15
381.87	334.96
382.25	321.18
382.63	347.62
383.01	320.95
383.39	334.06
383.77	333.38
384.15	321.4
384.53	333.83
384.91	339.71
385.29	337.45
385.67	344
386.049	348.97
386.429	339.26
386.809	358.69
387.189	352.36
387.568	374.06
387.948	348.07
388.328	365.24
388.707	372.25
389.087	341.52
389.466	350.56
389.846	365.02
390.225	368.63
390.605	373.15
390.984	355.98
391.363	381.06
391.743	385.81
392.122	373.15
392.501	364.34
392.881	396.66
393.26	381.97
393.639	363.66
394.018	396.2
394.397	371.35
394.776	361.18
395.155	377.67
395.534	367.73
395.913	369.76
396.292	374.06
396.671	384.91
397.05	381.97
397.429	385.81
397.808	407.96
398.186	379.71
398.565	405.02
398.944	373.38
399.323	388.75
399.701	413.83
400.08	417.67
400.458	401.85
400.837	424.9
401.215	394.62
401.594	408.41
401.972	408.86
402.351	411.35
402.729	405.7
403.107	404.34
403.486	414.96
403.864	399.14
404.242	409.99
404.62	412.7
404.999	421.74
405.377	424
405.755	402.76
406.133	428.52
406.511	404.11
406.889	441.4
407.267	438.69
407.645	424.45
408.023	420.61
408.401	445.69
408.779	452.93
409.156	439.14
409.534	443.89
409.912	436.88
410.29	453.6
410.667	446.6
411.045	458.35
411.422	455.19
411.8	451.12
412.178	461.74
412.555	475.75
412.933	459.71
413.31	464.68
413.687	466.94
414.065	485.47
414.442	472.36
414.819	485.92
415.197	454.51
415.574	485.24
415.951	482.3
416.328	500.38
416.705	479.82
417.082	480.5
417.46	494.05
417.837	503.09
418.214	492.47
418.591	505.81
418.967	506.71
419.344	506.48
419.721	504.22
420.098	523.43
420.475	527.73
420.852	512.36
421.228	532.92
421.605	526.82
421.982	504.68
422.358	537.9
422.735	546.03
423.111	553.26
423.488	526.37
423.864	554.84
424.241	558.23
424.617	539.48
424.994	529.31
425.37	555.52
425.746	536.99
426.123	586.48
426.499	555.3
426.875	575.41
427.251	577.67
427.627	593.49
428.003	570.21
428.379	591.68
428.756	576.31
429.132	583.54
429.507	575.86
429.883	598.91
430.259	602.07
430.635	602.07
431.011	610.89
431.387	645.69
431.763	622.19
432.138	624.9
432.514	615.18
432.89	656.31
433.265	633.49
433.641	647.27
434.016	653.37
434.392	652.47
434.767	671.45
435.143	665.8
435.518	680.94
435.894	699.02
436.269	681.85
436.644	689.76
437.02	690.66
437.395	706.25
437.77	704.22
438.145	693.37
438.52	701.06
438.895	726.82
439.271	700.38
439.646	737.89
440.021	722.52
440.395	725.91
440.77	739.7
441.145	753.71
441.52	743.54
441.895	749.42
442.27	764.1
442.645	758.91
443.019	744.67
443.394	732.47
443.769	779.7
444.143	773.37
444.518	771.79
444.892	777.21
445.267	765.46
445.641	792.35
446.016	787.38
446.39	795.97
446.764	776.31
447.139	778.34
447.513	808.4
447.887	800.71
448.262	791.67
448.636	826.93
449.01	808.62
449.384	802.75
449.758	829.41
450.132	838.68
450.506	832.58
450.88	845.68
451.254	833.71
451.628	853.82
452.002	882.75
452.376	904.67
452.75	876.42
453.123	888.39
453.497	880.71
453.871	882.07
454.244	878.9
454.618	929.07
454.992	934.5
455.365	921.16
455.739	959.81
456.112	958.22
456.486	954.83
456.859	982.18
457.232	992.35
457.606	962.52
457.979	979.24
458.352	984.21
458.725	1001.61
459.099	1002.06
459.472	1034.15
459.845	1046.81
460.218	1051.33
460.591	1061.27
460.964	1070.76
461.337	1091.78
461.71	1093.36
462.083	1096.3
462.456	1117.77
462.829	1116.41
463.201	1157.54
463.574	1142.85
463.947	1139.91
464.32	1184.43
464.692	1189.86
465.065	1189.4
465.438	1210.19
465.81	1239.35
466.183	1211.55
466.555	1274.15
466.928	1293.36
467.3	1268.05
467.672	1288.38
468.045	1334.26
468.417	1347.82
468.789	1379
469.161	1374.48
469.534	1431.66
469.906	1437.31
470.278	1463.29
470.65	1466.01
471.022	1473.92
471.394	1514.82
471.766	1526.12
472.138	1553.46
472.51	1573.57
472.882	1603.63
473.253	1656.74
473.625	1675.04
473.997	1681.59
474.369	1718.88
474.74	1755.26
475.112	1776.51
475.484	1843.17
475.855	1860.12
476.227	1921.59
476.598	1922.94
476.97	1996.16
477.341	2031.64
477.713	2037.74
478.084	2097.18
478.455	2168.36
478.827	2207
479.198	2296.49
479.569	2306.89
479.94	2381.46
480.311	2433.44
480.682	2482.7
481.053	2566.99
481.424	2598.18
481.795	2647.9
482.166	2736.93
482.537	2796.14
482.908	2877.49
483.279	2931.5
483.65	2978.96
484.021	3048.11
484.391	3137.15
484.762	3225.96
485.133	3231.16
485.503	3312.74
485.874	3416.46
486.244	3469.57
486.615	3591.6
486.985	3638.6
487.356	3787.98
487.726	3835.21
488.097	3929.44
488.467	3956.56
488.837	4070.46
489.207	4151.59
489.578	4243.79
489.948	4294.86
490.318	4444.69
490.688	4467.74
491.058	4591.57
491.428	4669.54
491.798	4777.56
492.168	4857.1
492.538	4916.99
492.908	5002.64
493.278	5149.3
493.648	5155.4
494.017	5247.15
494.387	5366.02
494.757	5443.98
495.126	5551.77
495.496	5580.25
495.866	5664.99
496.235	5755.16
496.605	5842.16
496.974	5959.9
497.344	5996.06
497.713	6059.78
498.082	6139.78
498.452	6201.25
498.821	6287.12
499.19	6326.44
499.559	6424.07
499.928	6468.81
500.298	6509.94
500.667	6690.28
501.036	6670.62
501.405	6782.48
501.774	6803.72
502.143	6853.66
502.512	6933.43
502.88	7000.78
503.249	7005.52
503.618	7113.54
503.987	7213.43
504.356	7231.05
504.724	7316.7
505.093	7369.13
505.462	7438.96
505.83	7437.83
506.199	7555.56
506.567	7594.89
506.936	7658.61
507.304	7708.33
507.672	7807.31
508.041	7814.99
508.409	7924.37
508.777	7994.87
509.145	7973.86
509.514	8051.82
509.882	8147.64
510.25	8119.17
510.618	8249.78
510.986	8217.24
511.354	8341.53
511.722	8361.64
512.09	8458.37
512.458	8463.56
512.826	8581.75
513.193	8588.98
513.561	8619.49
513.929	8654.74
514.297	8689.32
514.664	8863.1
515.032	8887.28
515.4	8914.17
515.767	9065.58
516.135	9012.25
516.502	9027.62
516.869	9108.07
517.237	9168.4
517.604	9178.12
517.972	9223.32
518.339	9303.54
518.706	9315.52
519.073	9367.95
519.44	9376.08
519.808	9567.94
520.175	9520.03
520.542	9650.42
520.909	9672.12
521.276	9635.06
521.643	9703.3
522.009	9803.41
522.376	9919.8
522.743	9909.85
523.11	9990.98
523.477	10009.96
523.843	10127.7
524.21	10164.08
524.577	10264.65
524.943	10333.34
525.31	10361.59
525.676	10454.02
526.043	10550.29
526.409	10548.48
526.776	10583.73
527.142	10635.26
527.508	10707.8
527.874	10833.44
528.241	10867.34
528.607	10877.96
528.973	11000.67
529.339	10977.17
529.705	11079.54
530.071	11187.78
530.437	11214.22
530.803	11277.05
531.169	11348.01
531.535	11344.16
531.901	11374.67
532.267	11424.84
532.632	11535.35
532.998	11541.45
533.364	11572.63
533.73	11674.33
534.095	11749.8
534.461	11792.97
534.826	11834.77
535.192	11907.99
535.557	11993.19
535.923	11999.51
536.288	12046.97
536.653	12104.37
537.019	12099.63
537.384	12083.81
537.749	12228.89
538.114	12316.12
538.479	12318.6
538.845	12282.22
539.21	12350.69
539.575	12383.69
539.94	12467.07
540.305	12539.84
540.67	12510.91
541.034	12633.85
541.399	12686.28
541.764	12696.45
542.129	12792.49
542.494	12790
542.858	12894.63
543.223	12919.04
543.587	12944.8
543.952	12970.79
544.316	13010.56
544.681	13067.74
545.045	13116.32
545.41	13139.37
545.774	13242.42
546.138	13224.57
546.503	13379.82
546.867	13370.55
547.231	13510.44
547.595	13484.9
547.959	13565.35
548.324	13544.79
548.688	13505.46
549.052	13630.88
549.416	13672.01
549.779	13707.94
550.143	13787.72
550.507	13892.8
550.871	13877.43
551.235	13920.14
551.599	14018.44
551.962	13981.38
552.326	14113.36
552.689	14143.41
553.053	14087.37
553.417	14153.81
553.78	14366.46
554.143	14246.69
554.507	14366.23
554.87	14357.42
555.234	14521.03
555.597	14493.01
555.96	14550.63
556.323	14500.92
556.686	14626.79
557.05	14622.5
557.413	14624.08
557.776	14747.69
558.139	14865.65
558.502	14836.5
558.865	14911.75
559.228	15017.97
559.59	15007.57
559.953	14992.2
560.316	15197.62
560.679	15189.94
561.041	15289.82
561.404	15405.08
561.767	15528.01
562.129	15446.66
562.492	15595.58
562.854	15537.73
563.217	15558.52
563.579	15617.95
563.941	15731.85
564.304	15739.08
564.666	15758.29
565.028	15763.71
565.39	15908.56
565.753	16002.12
566.115	15981.11
566.477	16006.87
566.839	16168.22
567.201	16222.45
567.563	16310.36
567.925	16331.83
568.287	16343.36
568.648	16410.25
569.01	16466.74
569.372	16677.58
569.734	16557.81
570.095	16672.16
570.457	16821.99
570.819	16784.02
571.18	16866.73
571.542	16987.41
571.903	17052.49
572.265	17104.47
572.626	17217
572.987	17264.01
573.349	17407.51
573.71	17481.4
574.071	17589.2
574.432	17632.81
574.794	17749.42
575.155	17800.27
575.516	17788.29
575.877	17943.99
576.238	18162.06
576.599	18163.19
576.96	18312.57
577.32	18230.76
577.681	18496.07
578.042	18658.32
578.403	18663.75
578.763	18784.42
579.124	18905.1
579.485	19027.8
579.845	19243.39
580.206	19282.26
580.566	19470.73
580.927	19676.38
581.287	19871.4
581.648	20027.55
582.008	20185.97
582.368	20312.97
582.728	20569.91
583.089	20628.21
583.449	20884.48
583.809	21044.25
584.169	21272.49
584.529	21364.69
584.889	21757.45
585.249	21811.46
585.609	22009.2
585.969	22286.48
586.329	22457.32
586.688	22670.19
587.048	22943.18
587.408	23028.38
587.768	23281.93
588.127	23539.55
588.487	23573.67
588.846	24191.51
589.206	24157.39
589.565	24466.31
589.925	24739.07
590.284	24867.2
590.643	25150.58
591.003	25458.14
591.362	25785.82
591.721	25850
592.08	26133.83
592.44	26481.85
592.799	26772.23
593.158	26880.93
593.517	27174.48
593.876	27361.82
594.235	27634.58
594.593	27912.32
594.952	28220.78
595.311	28351.63
595.67	28566.31
596.029	28982.57
596.387	29190.93
596.746	29506.4
597.104	29632.27
597.463	29841.98
597.822	30128.76
598.18	30263.44
598.538	30354.51
598.897	30961.5
599.255	30970.77
599.613	31517.65
599.972	31498.44
600.33	31831.08
600.688	31788.37
601.046	32273.56
601.404	32445.53
601.762	32518.3
602.12	32910.15
602.478	33061.11
602.836	33264.49
603.194	33365.73
603.552	33521.89
603.91	33614.77
604.268	34115.77
604.625	33950.35
604.983	34219.04
605.341	34359.61
605.698	34678.47
606.056	34994.16
606.413	35074.84
606.771	35294.72
607.128	35553.92
607.485	35482.29
607.843	35660.14
608.2	36116.39
608.557	36117.98
608.914	36262.15
609.272	36506.44
609.629	36761.58
609.986	37011.29
610.343	36792.76
610.7	37235.24
611.057	37311.17
611.414	37473.65
611.771	37576.47
612.127	37860.98
612.484	37922.22
612.841	38040.64
613.198	38114.08
613.554	38310.01
613.911	38508.42
614.267	38599.49
614.624	38522.66
614.98	38875.19
615.337	39071.8
615.693	39147.28
616.05	39114.73
616.406	39583.42
616.762	39392.47
617.118	39426.82
617.475	39596.3
617.831	39847.37
618.187	39840.59
618.543	40019.8
618.899	40347.24
619.255	40269.05
619.611	40342.5
619.967	40407.81
620.323	40574.13
620.678	40515.15
621.034	40524.64
621.39	40552.66
621.746	40486.22
622.101	41077.39
622.457	40837.17
622.812	41019.32
623.168	41165.53
623.523	41166.88
623.879	41297.5
624.234	41093.67
624.589	41364.17
624.945	41317.16
625.3	41432.87
625.655	41478.06
626.01	41500.21
626.365	41612.97
626.72	41523.48
627.075	41599.41
627.43	41605.29
627.785	41635.12
628.14	41730.48
628.495	41833.08
628.85	41789.47
629.205	41728.45
629.559	41965.05
629.914	41967.31
630.269	41782.69
630.623	41895.68
630.978	41660.43
631.332	41948.11
631.687	42077.82
632.041	41932.51
632.396	42073.3
632.75	41849.13
633.104	42064.26
633.459	41817.71
633.813	41913.08
634.167	41920.08
634.521	41888.45
634.875	41923.7
635.229	41876.92
635.583	41705.17
635.937	41768
636.291	41816.81
636.645	41863.14
636.999	41667.44
637.352	41835.79
637.706	41720.77
638.06	41814.55
638.413	41865.85
638.767	41730.03
639.121	41777.94
639.474	41549.25
639.828	41613.43
640.181	41726.42
640.534	41608.45
640.888	41517.83
641.241	41445.07
641.594	41457.72
641.947	41538.4
642.301	41431.96
642.654	41463.6
643.007	41547.21
643.36	41353.77
643.713	41453.2
644.066	41491.85
644.419	41262.47
644.771	41022.03
645.124	40767.35
645.477	40633.56
645.83	40488.71
646.182	40330.52
646.535	40206.23
646.888	40322.16
647.24	40092.34
647.593	40331.65
647.945	40189.28
648.298	40134.59
648.65	40109.51
649.002	39867.26
649.355	40033.58
649.707	40060.25
650.059	40347.47
650.411	40731.64
650.763	40669.95
651.115	41103.16
651.467	41014.57
651.819	40867.46
652.171	40857.74
652.523	40870.85
652.875	40839.21
653.227	40709.27
653.578	40950.39
653.93	40806.44
654.282	40664.52
654.633	40678.53
654.985	40811.19
655.337	40627.46
655.688	40794.46
656.039	40822.26
656.391	40495.49
656.742	40707.91
657.094	40648.71
657.445	40782.71
657.796	40651.87
658.147	40633.79
658.498	40588.82
658.849	40747.91
659.2	40562.15
659.551	40552.21
659.902	40640.8
660.253	40434.7
660.604	40554.24
660.955	40495.04
661.306	40655.26
661.656	40457.98
662.007	40502.95
662.358	40569.16
662.708	40407.81
663.059	40514.25
663.409	40265.44
663.76	40580.46
664.11	40530.97
664.461	40607.12
664.811	40424.76
665.161	40370.75
665.511	40338.43
665.862	40394.02
666.212	40485.32
666.562	40514.47
666.912	40320.58
667.262	40292.33
667.612	40324.42
667.962	40394.93
668.312	40203.52
668.662	40539.33
669.011	40238.55
669.361	40144.09
669.711	40265.44
670.06	40221.15
670.41	40192.9
670.76	40073.13
671.109	40266.57
671.459	40214.59
671.808	40070.42
672.157	40199.23
672.507	40046.69
672.856	39999.23
673.205	40130.3
673.554	40220.02
673.904	40084.2
674.253	40198.1
674.602	40156.51
674.951	39649.64
675.3	39352.02
675.649	39935.5
675.998	39827.94
676.346	39988.38
676.695	40085.33
677.044	39771.89
677.393	39952.9
677.741	40074.26
678.09	39804.66
678.438	39747.03
678.787	39803.53
679.135	39785.68
679.484	39652.8
679.832	39711.1
680.181	39563.99
680.529	39661.16
680.877	39444.67
681.225	39381.85
681.573	39703.87
681.922	39404.67
682.27	39324.9
682.618	39409.42
682.966	39170.55
683.314	39236.09
683.661	39145.47
684.009	38996.09
684.357	38992.25
684.705	38932.37
685.053	38968.3
685.4	38957.9
685.748	38829.09
686.095	38693.05
686.443	38592.94
686.79	38532.83
687.138	38501.87
687.485	38566.5
687.832	38424.58
688.18	38362.66
688.527	38260.52
688.874	38247.19
689.221	38247.86
689.568	37980.75
689.915	37955.67
690.262	37882.22
690.609	37752.74
690.956	37668.44
691.303	37649.24
691.65	37481.1
691.997	37568.11
692.344	37401.78
692.69	37330.83
693.037	37333.31
693.383	36942.14
693.73	37156.59
694.077	36988.24
694.423	36953.44
694.769	36842.03
695.116	36780.78
695.462	36767.23
695.808	36593.9
696.155	36739.43
696.501	36515.93
696.847	36511.64
697.193	36117.07
697.539	36324.07
697.885	36024.42
698.231	35855.16
698.577	35852
698.923	35987.13
699.269	35726.57
699.614	35529.07
699.96	35438.9
700.306	35444.77
700.651	35326.81
700.997	35244.78
701.342	35063.77
701.688	35017.21
702.033	34960.95
702.379	34967.72
702.724	34888.63
703.069	34922.53
703.415	34479.6
703.76	34710.78
704.105	34709.65
704.45	34490
704.795	34282.54
705.14	34167.97
705.485	34235.99
705.83	34098.82
706.175	34153.96
706.52	34069.9
706.865	33938.37
707.209	33884.14
707.554	33787.64
707.899	33736.8
708.243	33705.61
708.588	33544.26
708.932	33352.4
709.277	33182.91
709.621	33490.25
709.966	33135.68
710.31	33195.34
710.654	33013.88
710.998	32952.86
711.342	33035.8
711.687	32892.3
712.031	32703.83
712.375	32681.91
712.719	32681.01
713.063	32626.09
713.407	32771.4
713.75	32528.92
714.094	32471.75
714.438	32385.19
714.782	32484.17
715.125	32233.56
715.469	32403.27
715.812	32044.41
716.156	32045.09
716.499	32075.82
716.843	31980.91
717.186	31877.86
717.53	31981.81
717.873	31878.31
718.216	31824.76
718.559	31597.64
718.902	31484.43
719.246	31615.04
719.589	31415.28
719.932	31194.72
720.275	31417.31
720.617	31300.48
720.96	31231.33
721.303	31231.1
721.646	31164.66
721.989	30946.36
722.331	31117.43
722.674	31003.99
723.016	31149.07
723.359	31017.55
723.701	30896.42
724.044	30719.02
724.386	30718.57
724.729	30745.46
725.071	30727.38
725.413	30729.64
725.755	30582.08
726.097	30487.39
726.439	30438.8
726.782	30498.69
727.124	30637.67
727.465	30407.84
727.807	30198.81
728.149	30294.85
728.491	30237.45
728.833	30196.32
729.175	30139.15
729.516	30056.89
729.858	29934.41
730.199	30091.24
730.541	29991.81
730.882	29837.92
731.224	30009.21
731.565	29728.77
731.906	29797.92
732.248	29804.02
732.589	29602.67
732.93	29508.66
733.271	29571.48
733.612	29687.41
733.953	29600.41
734.294	29420.98
734.635	29442.67
734.976	29489.22
735.317	29349.57
735.658	29286.74
735.999	29211.94
736.339	29199.06
736.68	29191.83
737.021	29190.48
737.361	29177.37
737.702	29197.93
738.042	29060.99
738.383	29009.69
738.723	29180.98
739.063	28995.9
739.404	29017.37
739.744	28951.16
740.084	28874.33
740.424	28735.57
740.764	28777.83
741.104	28762.01
741.444	28584.62
741.784	28494.67
742.124	28568.57
742.464	28608.12
742.804	28548.91
743.143	28543.03
743.483	28388.69
743.823	28262.82
744.162	28321.57
744.502	28483.15
744.841	28170.62
745.181	28360.21
745.52	28066.89
745.86	28151.18
746.199	28123.84
746.538	28046.78
746.877	28003.84
747.216	28120.22
747.556	27989.83
747.895	27945.76
748.234	27856.73
748.573	27764.98
748.911	27762.04
749.25	27835.93
749.589	27693.79
749.928	27616.96
750.267	27750.29
750.605	27577.41
750.944	27551.65
751.283	27397.75
751.621	27518.43
751.96	27297.42
752.298	27399.11
752.636	27292.67
752.975	27215.16
753.313	27065.56
753.651	27246.35
753.989	27102.85
754.327	27055.62
754.666	26964.32
755.004	26967.03
755.342	26910.76
755.679	26972
756.017	26787.83
756.355	26872.34
756.693	26702.18
757.031	26617.89
757.368	26548.06
757.706	26518
758.044	26402.75
758.381	26419.47
758.719	26260.61
759.056	26381.51
759.394	26217.45
759.731	26170.67
760.068	26097.68
760.405	26111.91
760.743	25888.19
761.08	25930
761.417	25703.56
761.754	25650.46
762.091	25649.1
762.428	25664.24
762.765	25326.62
763.102	25563.23
763.438	25263.35
763.775	25331.37
764.112	25243.69
764.449	25358.94
764.785	25177.47
765.122	24956.01
765.458	24845.05
765.795	24830.82
766.131	24772.96
766.467	24733.87
766.804	24616.36
767.14	24592.86
767.476	24602.8
767.812	24403.26
768.148	24430.6
768.485	24321.68
768.821	24090.5
769.157	24071.74
769.492	24106.32
769.828	23931.18
770.164	23865.42
770.5	23828.13
770.836	23789.71
771.171	23538.19
771.507	23453.45
771.842	23330.29
772.178	23420.23
772.513	23245.32
772.849	23288.03
773.184	23067.92
773.519	23189.5
773.855	23002.84
774.19	23003.07
774.525	22782.51
774.86	22812.56
775.195	22721.49
775.53	22667.48
775.865	22566.24
776.2	22332.58
776.535	22255.29
776.87	22362.18
777.205	22205.35
777.539	22179.59
777.874	22141.62
778.209	21875.19
778.543	21860.27
778.878	21728.3
779.212	21732.14
779.547	21539.38
779.881	21674.74
780.215	21544.57
780.55	21504.8
780.884	21407.18
781.218	21346.84
781.552	21303.23
781.886	21099.39
782.22	21041.31
782.554	20991.59
782.888	20784.37
783.222	20726.29
783.556	20750.02
783.889	20689.23
784.223	20517.71
784.557	20453.53
784.89	20475.22
785.224	20389.12
785.557	20309.8
785.891	20179.19
786.224	20134.89
786.558	20120.43
786.891	19967.44
787.224	19859.2
787.557	19784.85
787.891	19789.59
788.224	19806.54
788.557	19797.28
788.89	19674.12
789.223	19648.35
789.556	19438.19
789.888	19440.68
790.221	19395.25
790.554	19205.43
790.887	19237.29
791.219	19245.43
791.552	19100.8
791.884	19009.27
792.217	18990.07
792.549	18903.29
792.882	18764.31
793.214	18679.79
793.546	18686.34
793.879	18579.45
794.211	18477.99
794.543	18449.74
794.875	18353.25
795.207	18473.47
795.539	18358.22
795.871	18327.48
796.203	18102.86
796.535	18062.41
796.867	18102.86
797.198	17998.45
797.53	17958.45
797.862	17856.31
798.193	17964.78
798.525	17760.72
798.856	17818.12
799.188	17635.98
799.519	17586.03
799.85	17461.29
800.182	17495.19
800.513	17514.85
800.844	17286.38
801.175	17451.35
801.506	17387.4
801.837	17257.68
802.168	17266.27
802.499	17153.05
802.83	17083.22
803.161	16973.17
803.491	17048.65
803.822	16994.19
804.153	16932.94
804.483	16757.58
804.814	16714.19
805.145	16673.29
805.475	16633.97
805.805	16666.06
806.136	16595.55
806.466	16601.43
806.796	16517.81
807.126	16425.61
807.457	16390.36
807.787	16387.65
808.117	16283.02
808.447	16258.61
808.777	16339.51
809.107	16037.37
809.436	16087.54
809.766	16083.93
810.096	16112.18
810.426	15899.07
810.755	15873.99
811.085	15948.11
811.414	15834.67
811.744	15696.37
812.073	15711.96
812.403	15767.55
812.732	15748.12
813.061	15618.4
813.39	15546.31
813.719	15510.16
814.049	15632.19
814.378	15525.07
814.707	15484.85
815.036	15488.01
815.365	15370.73
815.693	15180.45
816.022	15210.73
816.351	15225.19
816.68	15083.28
817.008	15165.99
817.337	15051.19
817.665	15015.71
817.994	15068.81
818.322	14948.82
818.651	14929.61
818.979	14881.02
819.307	14931.42
819.636	14867.69
819.964	14825.2
820.292	14840.34
820.62	14851.87
820.948	14706.79
821.276	14804.41
821.604	14698.88
821.932	14781.14
822.259	14786.11
822.587	14738.88
822.915	14698.65
823.243	14746.11
823.57	14735.49
823.898	14699.78
824.225	14629.28
824.553	14645.55
824.88	14719.44
825.207	14695.26
825.535	14584.31
825.862	14719.9
826.189	14616.85
826.516	14681.03
826.843	14689.84
827.17	14714.02
827.497	14715.38
827.824	14627.92
828.151	14625.66
828.478	14659.33
828.805	14733.91
829.131	14669.73
829.458	14570.29
829.785	14595.15
830.111	14582.05
830.438	14646.68
830.764	14662.04
831.09	14608.71
831.417	14610.07
831.743	14564.19
832.069	14555.83
832.395	14537.53
832.722	14566.23
833.048	14437.19
833.374	14481.71
833.7	14472.9
834.026	14449.62
834.351	14498.66
834.677	14321.04
835.003	14511.31
835.329	14408.94
835.654	14354.48
835.98	14364.65
836.306	14371.88
836.631	14316.97
836.956	14436.74
837.282	14389.73
837.607	14309.74
837.932	14271.77
838.258	14303.86
838.583	14317.42
838.908	14120.59
839.233	14179.57
839.558	14068.61
839.883	14027.94
840.208	14072.23
840.533	14061.83
840.858	14108.84
841.182	14055.96
841.507	13993.13
841.832	13940.93
842.156	13865.68
842.481	13854.38
842.805	13893.02
843.13	13890.99
843.454	13748.85
843.778	13789.07
844.103	13753.59
844.427	13712.46
844.751	13639.02
845.075	13559.93
845.399	13528.29
845.723	13551.79
846.047	13497.78
846.371	13330.33
846.695	13461.62
847.019	13274.74
847.343	13245.13
847.666	13164.46
847.99	13110.67
848.313	13165.81
848.637	13068.19
848.96	13012.82
849.284	12972.37
849.607	12926.72
849.931	12870.23
850.254	12708.42
850.577	12732.15
850.9	12668.2
851.223	12651.93
851.546	12543.68
851.869	12466.62
852.192	12526.05
852.515	12429.33
852.838	12358.6
853.161	12385.95
853.483	12350.92
853.806	12229.11
854.129	12273.86
854.451	12150.47
854.774	12198.38
855.096	12092.85
855.419	12080.87
855.741	12073.41
856.063	11992.74
856.385	11922.91
856.708	11909.8
857.03	11908.67
857.352	11861.89
857.674	11752.74
857.996	11745.74
858.318	11732.18
858.64	11729.92
858.961	11675.23
859.283	11666.87
859.605	11592.97
859.926	11595.68
860.248	11585.74
860.57	11534.89
860.891	11584.61
861.212	11519.75
861.534	11425.52
861.855	11394.11
862.176	11436.82
862.498	11398.17
862.819	11352.3
863.14	11235.24
863.461	11222.13
863.782	11314.56
864.103	11286.09
864.424	11303.71
864.745	11305.3
865.065	11161.57
865.386	11082.7
865.707	11112.76
866.027	11110.72
866.348	11095.13
866.668	11060.56
866.989	11008.13
867.309	10935.59
867.63	10983.04
867.95	11024.63
868.27	10883.84
868.59	10899.2
868.91	10894.91
869.23	10870.05
869.55	10809.04
869.87	10865.08
870.19	10792.09
870.51	10864.18
870.83	10865.08
871.15	10804.07
871.469	10817.63
871.789	10862.82
872.109	10771.52
872.428	10617.63
872.748	10779.89
873.067	10612.88
873.386	10645.88
873.706	10726.33
874.025	10670.51
874.344	10665.09
874.663	10573.11
874.982	10563.17
875.301	10568.14
875.62	10578.08
875.939	10523.62
876.258	10482.27
876.577	10480.46
876.896	10445.88
877.214	10401.36
877.533	10394.36
877.852	10442.27
878.17	10442.49
878.489	10513.68
878.807	10458.09
879.125	10437.3
879.444	10409.05
879.762	10326.79
880.08	10347.81
880.398	10283.4
880.716	10330.41
881.034	10249.96
881.352	10281.59
881.67	10192.78
881.988	10205.66
882.306	10165.89
882.624	10122.28
882.941	10088.15
883.259	10089.28
883.577	10052.67
883.894	9997.08
884.212	10045.44
884.529	10000.47
884.846	9895.84
885.164	9953.24
885.481	9950.98
885.798	9901.72
886.115	9834.6
886.432	9863.98
886.75	9853.58
887.067	9858.33
887.383	9786.01
887.7	9821.72
888.017	9722.51
888.334	9788.73
888.651	9725.68
888.967	9653.59
889.284	9625.11
889.6	9667.15
889.917	9549.18
890.233	9605.91
890.55	9567.26
890.866	9567.49
891.182	9494.95
891.498	9472.12
891.815	9446.59
892.131	9407.27
892.447	9373.14
892.763	9421.73
893.079	9385.35
893.395	9355.97
893.71	9301.73
894.026	9202.3
894.342	9233.49
894.657	9189.19
894.973	9154.84
895.289	9092.7
895.604	9094.73
895.92	9064.9
896.235	9052.02
896.55	9003.89
896.865	8989.2
897.181	8953.27
897.496	8942.65
897.811	8908.07
898.126	8927.05
898.441	8795.08
898.756	8820.84
899.071	8810.67
899.386	8727.06
899.7	8633.05
900.015	8621.07
900.33	8563.45
900.644	8627.4
900.959	8603.67
901.273	8539.04
901.588	8517.8
901.902	8488.87
902.216	8379.72
902.531	8417.91
902.845	8451.36
903.159	8355.09
903.473	8320.74
903.787	8227.41
904.101	8270.8
904.415	8248.65
904.729	8220.63
905.042	8163.01
905.356	8237.35
905.67	8126.85
905.984	8103.57
906.297	8073.29
906.611	7985.61
906.924	7986.51
907.237	8002.56
907.551	7909.68
907.864	7944.93
908.177	7906.29
908.491	7864.93
908.804	7819.96
909.117	7801.66
909.43	7710.14
909.743	7720.08
910.056	7732.96
910.368	7678.05
910.681	7636.24
910.994	7612.74
911.307	7564.83
911.619	7466.98
911.932	7581.55
912.244	7419.07
912.557	7431.05
912.869	7385.4
913.181	7387.43
913.494	7381.78
913.806	7330.94
914.118	7271.96
914.43	7245.97
914.742	7226.53
915.054	7253.65
915.366	7219.75
915.678	7171.17
915.99	7126.42
916.302	7045.07
916.613	7018.18
916.925	7074.22
917.236	7037.16
917.548	6979.99
917.859	6935.02
918.171	6907.67
918.482	6873.77
918.794	6859.09
919.105	6838.07
919.416	6802.82
919.727	6751.97
920.038	6719.43
920.349	6672.88
920.66	6669.49
920.971	6661.35
921.282	6631.07
921.593	6545.42
921.903	6542.48
922.214	6578.87
922.525	6551.52
922.835	6482.82
923.146	6468.36
923.456	6463.39
923.767	6420
924.077	6406.44
924.387	6338.65
924.697	6313.11
925.008	6318.76
925.318	6283.28
925.628	6233.11
925.938	6175.71
926.248	6130.97
926.558	6191.53
926.867	6118.99
927.177	6147.47
927.487	6053.91
927.796	6029.5
928.106	6013.23
928.416	5978.43
928.725	6014.36
929.034	5937.3
929.344	5931.43
929.653	5909.96
929.962	5864.54
930.271	5853.91
930.581	5849.85
930.89	5788.38
931.199	5755.84
931.508	5733.47
931.817	5744.54
932.125	5694.14
932.434	5692.11
932.743	5659.34
933.051	5619.34
933.36	5629.29
933.669	5584.77
933.977	5540.48
934.286	5521.95
934.594	5528.5
934.902	5481.49
935.21	5468.39
935.519	5447.37
935.827	5446.24
936.135	5404.21
936.443	5335.51
936.751	5330.09
937.059	5380.48
937.367	5275.4
937.674	5337.09
937.982	5299.8
938.29	5272.46
938.597	5215.74
938.905	5174.38
939.213	5149.53
939.52	5136.87
939.827	5189.3
940.135	5051.68
940.442	5054.84
940.749	5039.25
941.056	5092.58
941.363	5021.62
941.67	5018.46
941.977	4938.46
942.284	4935.75
942.591	4943.2
942.898	4945.46
943.205	4950.21
943.511	4885.35
943.818	4848.52
944.125	4821.17
944.431	4804.68
944.738	4788.86
945.044	4792.47
945.35	4781.17
945.657	4728.29
945.963	4717.22
946.269	4682.19
946.575	4680.16
946.881	4658.24
947.187	4659.59
947.493	4579.37
947.799	4583.21
948.105	4571.01
948.41	4564
948.716	4498.47
949.022	4558.58
949.327	4512.71
949.633	4477
949.938	4453.27
950.244	4444.69
950.549	4401.07
950.854	4418.25
951.16	4379.38
951.465	4348.87
951.77	4380.73
952.075	4309.1
952.38	4298.7
952.685	4291.24
952.99	4295.08
953.294	4249.66
953.599	4204.92
953.904	4232.71
954.209	4179.83
954.513	4217.35
954.818	4149.55
955.122	4118.37
955.426	4077.46
955.731	4071.59
956.035	4105.03
956.339	4040.4
956.643	4019.39
956.948	3994.3
957.252	3971.93
957.556	3994.75
957.86	3959.95
958.163	3945.49
958.467	3925.83
958.771	3902.1
959.075	3947.52
959.378	3853.97
959.682	3893.74
959.985	3846.96
960.289	3848.99
960.592	3809.22
960.896	3853.74
961.199	3780.52
961.502	3780.3
961.805	3782.1
962.108	3736.23
962.411	3737.59
962.714	3697.36
963.017	3685.38
963.32	3708.66
963.623	3648.32
963.926	3658.49
964.228	3658.94
964.531	3607.19
964.833	3592.05
965.136	3585.72
965.438	3604.03
965.741	3540.08
966.043	3547.53
966.345	3541.88
966.648	3547.76
966.95	3506.86
967.252	3465.73
967.554	3439.06
967.856	3451.94
968.158	3449.01
968.46	3445.16
968.761	3397.03
969.063	3387.31
969.365	3337.14
969.666	3317.71
969.968	3330.14
970.269	3313.19
970.571	3325.84
970.872	3324.26
971.174	3288.56
971.475	3244.72
971.776	3239.75
972.077	3235.68
972.378	3218.5
972.679	3215.57
972.98	3143.25
973.281	3169.69
973.582	3200.42
973.883	3166.75
974.183	3147.77
974.484	3109.35
974.785	3101.9
975.085	3093.99
975.386	3096.7
975.686	3089.92
975.986	3068.9
976.287	3048.34
976.587	3030.71
976.887	3033.2
977.187	3017.83
977.487	2994.78
977.787	2985.51
978.087	2955.68
978.387	2970.37
978.687	2931.5
978.987	2916.59
979.286	2907.32
979.586	2915.01
979.885	2880.88
980.185	2862.13
980.484	2832.98
980.784	2867.55
981.083	2825.07
981.382	2800.21
981.682	2835.24
981.981	2773.77
982.28	2814.22
982.579	2775.8
982.878	2762.47
983.177	2742.13
983.475	2736.71
983.774	2738.29
984.073	2712.98
984.372	2712.98
984.67	2678.18
984.969	2664.39
985.267	2715.69
985.566	2638.41
985.864	2630.27
986.162	2623.49
986.461	2628.24
986.759	2627.33
987.057	2579.65
987.355	2561.12
987.653	2569.93
987.951	2532.19
988.249	2522.7
988.547	2543.94
988.844	2510.27
989.142	2536.26
989.44	2509.82
989.737	2489.71
990.035	2480.67
990.332	2504.62
990.63	2499.65
990.927	2465.75
991.224	2433.89
991.521	2418.75
991.819	2399.54
992.116	2410.39
992.413	2406.09
992.71	2386.43
993.006	2386.21
993.303	2355.02
993.6	2359.32
993.897	2350.96
994.193	2340.33
994.49	2322.26
994.787	2285.65
995.083	2326.1
995.379	2276.38
995.676	2273.9
995.972	2252.88
996.268	2232.09
996.565	2242.26
996.861	2222.14
997.157	2210.62
997.453	2211.07
997.749	2174.24
998.044	2166.78
998.34	2192.77
998.636	2152.77
998.932	2169.94
999.227	2131.07
999.523	2132.66
999.818	2106.22
1000.114	2107.57
1000.409	2116.16
1000.704	2062.6
1001	2089.49
1001.295	2039.55
1001.59	2020.57
1001.885	2081.58
1002.18	2040.68
1002.475	2037.07
1002.77	1988.25
1003.065	1975.6
1003.359	1973.79
1003.654	1994.81
1003.949	1992.32
1004.243	1966.56
1004.538	1957.07
1004.832	1927.01
1005.127	1958.65
1005.421	1889.72
1005.715	1896.73
1006.009	1900.35
1006.304	1929.5
1006.598	1866.67
1006.892	1856.5
1007.186	1857.86
1007.48	1863.06
1007.773	1846.56
1008.067	1817.86
1008.361	1832.55
1008.655	1777.41
1008.948	1786.45
1009.242	1754.81
1009.535	1788.03
1009.829	1780.35
1010.122	1758.43
1010.415	1718.43
1010.708	1706.23
1011.001	1698.77
1011.295	1734.02
1011.588	1701.48
1011.881	1695.38
1012.173	1693.57
1012.466	1676.4
1012.759	1665.55
1013.052	1643.63
1013.344	1645.66
1013.637	1636.85
1013.93	1612.22
1014.222	1632.1
1014.514	1627.81
1014.807	1589.85
1015.099	1600.01
1015.391	1589.85
1015.683	1590.52
1015.976	1587.13
1016.268	1575.38
1016.56	1528.6
1016.851	1547.13
1017.143	1537.64
1017.435	1522.73
1017.727	1498.1
1018.018	1473.24
1018.31	1507.14
1018.602	1490.41
1018.893	1466.91
1019.185	1449.96
1019.476	1431.66
1019.767	1475.72
1020.058	1439.34
1020.35	1421.26
1020.641	1418.32
1020.932	1415.61
1021.223	1416.29
1021.514	1369.51
1021.804	1371.32
1022.095	1348.95
1022.386	1358.44
1022.677	1365.9
1022.967	1342.39
1023.258	1333.58
1023.548	1321.38
1023.839	1312.56
1024.129	1300.14
1024.419	1280.7
1024.709	1299.68
1025	1309.85
1025.29	1252.9
1025.58	1265.33
1025.87	1266.01
1026.16	1239.12
1026.449	1249.52
1026.739	1235.73
1027.029	1243.87
1027.319	1243.64
1027.608	1205.9
1027.898	1223.53
1028.187	1202.74
1028.477	1180.59
1028.766	1195.28
1029.055	1159.35
1029.344	1168.16
1029.634	1166.13
1029.923	1167.26
1030.212	1118.67
1030.501	1148.5
1030.79	1136.75
1031.078	1110.31
1031.367	1103.98
1031.656	1106.24
1031.945	1096.07
1032.233	1095.17
1032.522	1086.81
1032.81	1096.07
1033.099	1072.57
1033.387	1070.08
1033.675	1061.72
1033.963	1041.39
1034.251	1052.23
1034.54	1046.58
1034.828	1032.35
1035.116	1022.63
1035.403	992.57
1035.691	1012.23
1035.979	997.77
1036.267	1009.52
1036.554	1000.93
1036.842	978.56
1037.129	990.99
1037.417	950.31
1037.704	972.01
1037.992	942.18
1038.279	945.79
1038.566	976.08
1038.853	976.08
1039.14	976.08
