Data from hue_320_FLMS001491_64.txt Node
Date: Mon Feb 06 15:47:32 GMT 2017
User: dcchb
Spectrometer: FLMS00149
Trigger mode: 0
Integration Time (sec): 2.000000E-2
Scans to average: 10
Electric dark correction enabled: true
Nonlinearity correction enabled: false
Boxcar width: 0
XAxis mode: Wavelengths
Number of Pixels in Spectrum: 2048
>>>>>Begin Spectral Data<<<<<
341.393	-14.05
341.776	-14.05
342.16	-14.05
342.543	-80.94
342.927	-70.77
343.31	-74.39
343.693	-59.02
344.077	-65.35
344.46	-62.87
344.843	-61.28
345.226	-46.59
345.61	-28.06
345.993	-25.13
346.376	-17.22
346.759	16.23
347.142	27.75
347.525	35.66
347.908	77.47
348.291	79.05
348.674	78.15
349.057	125.6
349.44	139.39
349.823	138.26
350.206	176.45
350.588	165.15
350.971	212.83
351.354	231.82
351.737	258.71
352.119	261.87
352.502	253.96
352.884	278.59
353.267	276.56
353.65	289.44
354.032	294.19
354.414	295.54
354.797	307.29
355.179	304.58
355.562	328.99
355.944	321.31
356.326	315.66
356.709	314.3
357.091	327.18
357.473	324.24
357.855	318.82
358.238	349.78
358.62	340.51
359.002	343.9
359.384	332.6
359.766	361.3
360.148	329.44
360.53	339.61
360.912	343.45
361.294	319.05
361.676	316.56
362.057	343.23
362.439	321.98
362.821	325.37
363.203	312.49
363.584	325.82
363.966	307.29
364.348	327.18
364.729	286.73
365.111	315.2
365.493	318.59
365.874	304.13
366.256	309.55
366.637	310.46
367.019	289.22
367.4	337.35
367.781	310.46
368.163	322.21
368.544	313.62
368.925	296.22
369.306	316.11
369.688	329.89
370.069	302.77
370.45	308.88
370.831	292.15
371.212	298.48
371.593	296.45
371.974	291.25
372.355	320.85
372.736	288.99
373.117	311.14
373.498	309.33
373.879	282.44
374.26	304.81
374.641	313.85
375.021	308.2
375.402	309.1
375.783	312.04
376.163	341.64
376.544	318.59
376.925	315.2
377.305	316.11
377.686	316.11
378.066	310.91
378.447	331.02
378.827	319.5
379.208	331.02
379.588	329.67
379.968	322.44
380.349	315.43
380.729	344.58
381.109	336.9
381.489	316.33
381.87	340.06
382.25	333.73
382.63	318.59
383.01	334.41
383.39	350.23
383.77	341.42
384.15	311.81
384.53	336.67
384.91	324.92
385.29	334.86
385.67	341.87
386.049	353.17
386.429	301.19
386.809	345.71
387.189	331.47
387.568	315.66
387.948	355.65
388.328	339.16
388.707	332.83
389.087	344.81
389.466	365.6
389.846	352.49
390.225	374.64
390.605	347.52
390.984	351.13
391.363	344.58
391.743	327.41
392.122	332.83
392.501	345.71
392.881	360.63
393.26	357.69
393.639	377.35
394.018	366.28
394.397	332.38
394.776	354.98
395.155	352.26
395.534	375.54
395.913	358.37
396.292	369.67
396.671	370.57
397.05	380.96
397.429	358.37
397.808	371.25
398.186	378.03
398.565	393.17
398.944	379.61
399.323	367.41
399.701	382.55
400.08	388.87
400.458	405.14
400.837	373.51
401.215	376.67
401.594	384.58
401.972	384.13
402.351	397.01
402.729	399.95
403.107	388.87
403.486	383.22
403.864	378.93
404.242	398.82
404.62	397.91
404.999	400.4
405.377	418.93
405.755	397.24
406.133	413.28
406.511	412.83
406.889	401.3
407.267	427.29
407.645	436.78
408.023	412.83
408.401	424.13
408.779	434.97
409.156	465.48
409.534	459.61
409.912	447.63
410.29	444.01
410.667	474.97
411.045	454.18
411.422	468.87
411.8	474.3
412.178	509.55
412.555	492.15
412.933	478.36
413.31	498.7
413.687	489.21
414.065	468.42
414.442	506.84
414.819	541.19
415.197	510.68
415.574	524.69
415.951	535.08
416.328	511.81
416.705	554.52
417.082	562.65
417.46	536.67
417.837	566.5
418.214	589.32
418.591	581.41
418.967	578.93
419.344	584.58
419.721	611.92
420.098	600.39
420.475	613.5
420.852	591.35
421.228	637.23
421.605	634.07
421.982	608.53
422.358	650.34
422.735	633.16
423.111	638.13
423.488	662.31
423.864	638.81
424.241	645.59
424.617	649.21
424.994	654.4
425.37	680.62
425.746	685.59
426.123	704.35
426.499	710.45
426.875	719.03
427.251	713.39
427.627	725.14
428.003	725.14
428.379	723.78
428.756	734.85
429.132	739.15
429.507	772.14
429.883	776.66
430.259	770.11
430.635	785.02
431.011	780.5
431.387	776.21
431.763	807.85
432.138	829.09
432.514	819.15
432.89	849.65
433.265	821.4
433.641	844.46
434.016	852.14
434.392	843.1
434.767	875.41
435.143	864.57
435.518	865.92
435.894	889.2
436.269	906.83
436.644	924.68
437.02	943.89
437.395	912.02
437.77	923.32
438.145	948.86
438.52	943.89
438.895	959.71
439.271	959.71
439.646	974.17
440.021	994.96
440.395	968.75
440.77	987.95
441.145	979.59
441.52	1023.66
441.895	1047.61
442.27	1009.87
442.645	996.99
443.019	1026.6
443.394	1001.29
443.769	1032.47
444.143	1015.75
444.518	1033.38
444.892	1034.05
445.267	1034.51
445.641	1047.84
446.016	1037.22
446.39	1057.56
446.764	1056.88
447.139	1067.27
447.513	1034.51
447.887	1073.83
448.262	1085.13
448.636	1080.61
449.01	1094.39
449.384	1078.35
449.758	1111.57
450.132	1126.26
450.506	1113.15
450.88	1100.49
451.254	1093.04
451.628	1119.93
452.002	1150.89
452.376	1132.13
452.75	1122.64
453.123	1139.14
453.497	1153.6
453.871	1154.28
454.244	1174.62
454.618	1186.82
454.992	1185.46
455.365	1197.44
455.739	1194.5
456.112	1208.29
456.486	1229.08
456.859	1235.63
457.232	1244.9
457.606	1247.83
457.979	1237.21
458.352	1265.69
458.725	1273.6
459.099	1267.49
459.472	1280.15
459.845	1266.37
460.218	1281.51
460.591	1319.92
460.964	1276.31
461.337	1350.43
461.71	1360.15
462.083	1372.58
462.456	1359.24
462.829	1355.63
463.201	1368.96
463.574	1391.79
463.947	1378
464.32	1433.37
464.692	1397.89
465.065	1440.82
465.438	1461.61
465.81	1443.76
466.183	1456.42
466.555	1490.99
466.928	1500.94
467.3	1486.02
467.672	1497.32
468.045	1555.62
468.417	1529.86
468.789	1561.95
469.161	1516.75
469.534	1595.17
469.906	1617.09
470.278	1593.59
470.65	1629.97
471.022	1621.16
471.394	1658.67
471.766	1674.94
472.138	1687.82
472.51	1705.9
472.882	1733.47
473.253	1725.56
473.625	1749.29
473.997	1757.43
474.369	1804.43
474.74	1811.89
475.112	1801.72
475.484	1835.16
475.855	1843.98
476.227	1860.7
476.598	1899.57
476.97	1924.43
477.341	1942.05
477.713	1934.6
478.084	1952.9
478.455	1999.91
478.827	2015.27
479.198	2051.43
479.569	2051.88
479.94	2091.43
480.311	2106.79
480.682	2166
481.053	2216.17
481.424	2238.32
481.795	2206.91
482.166	2245.77
482.537	2262.72
482.908	2333.68
483.279	2316.73
483.65	2333
484.021	2356.51
484.391	2420.46
484.762	2418.2
485.133	2457.29
485.503	2452.77
485.874	2461.14
486.244	2512.89
486.615	2557.63
486.985	2603.96
487.356	2574.81
487.726	2602.83
488.097	2670.85
488.467	2672.2
488.837	2704.75
489.207	2725.31
489.578	2747.46
489.948	2787
490.318	2802.37
490.688	2813.44
491.058	2866.1
491.428	2873.55
491.798	2862.48
492.168	2927.11
492.538	2952.87
492.908	2973.21
493.278	3013.21
493.648	3009.37
494.017	3026.77
494.387	3059.31
494.757	3048.92
495.126	3114.9
495.496	3116.26
495.866	3146.09
496.235	3166.43
496.605	3132.3
496.974	3178.41
497.344	3234.9
497.713	3212.75
498.082	3214.79
498.452	3235.35
498.821	3255.47
499.19	3267.67
499.559	3327.55
499.928	3326.65
500.298	3289.81
500.667	3335.24
501.036	3319.19
501.405	3403.48
501.774	3361.68
502.143	3385.41
502.512	3382.02
502.88	3415.69
503.249	3416.36
503.618	3453.43
503.987	3430.83
504.356	3490.49
504.724	3471.28
505.093	3479.41
505.462	3517.83
505.83	3534.33
506.199	3537.72
506.567	3591.73
506.936	3542.69
507.304	3564.16
507.672	3584.04
508.041	3592.41
508.409	3612.97
508.777	3654.55
509.145	3657.04
509.514	3605.51
509.882	3660.2
510.25	3647.09
510.618	3692.74
510.986	3712.18
511.354	3740.2
511.722	3737.71
512.09	3756.02
512.458	3748.56
512.826	3765.51
513.193	3765.96
513.561	3800.76
513.929	3800.31
514.297	3786.98
514.664	3826.07
515.032	3796.24
515.4	3815.68
515.767	3857.94
516.135	3855.68
516.502	3871.95
516.869	3901.78
517.237	3901.32
517.604	3882.57
517.972	3850.48
518.339	3897.26
518.706	3928.89
519.073	3896.35
519.44	3871.95
519.808	3990.59
520.175	3941.1
520.542	3959.85
520.909	3991.94
521.276	3980.42
521.643	3985.62
522.009	4013.86
522.376	4008.67
522.743	4046.4
523.11	4076.23
523.477	4078.72
523.843	4122.11
524.21	4145.61
524.577	4109
524.943	4154.42
525.31	4135.44
525.676	4199.85
526.043	4237.36
526.409	4209.56
526.776	4220.19
527.142	4245.95
527.508	4291.37
527.874	4302.9
528.241	4314.87
528.607	4307.41
528.973	4347.87
529.339	4371.82
529.705	4406.62
530.071	4456.56
530.437	4459.28
530.803	4433.51
531.169	4515.09
531.535	4475.77
531.901	4437.13
532.267	4474.19
532.632	4516
532.998	4542.89
533.364	4569.1
533.73	4611.36
534.095	4656.33
534.461	4668.76
534.826	4608.2
535.192	4681.87
535.557	4694.98
535.923	4682.32
536.288	4744.92
536.653	4784.69
537.019	4768.42
537.384	4762.32
537.749	4806.38
538.114	4818.14
538.479	4805.03
538.845	4830.79
539.21	4833.95
539.575	4839.38
539.94	4872.6
540.305	4953.27
540.67	4920.51
541.034	4928.19
541.399	5004.12
541.764	4977
542.129	4997.79
542.494	5068.07
542.858	5021.29
543.223	5079.82
543.587	5081.86
543.952	5120.73
544.316	5108.3
544.681	5142.65
545.045	5108.75
545.41	5160.73
545.774	5204.34
546.138	5214.28
546.503	5214.51
546.867	5229.2
547.231	5323.21
547.595	5332.25
547.959	5340.16
548.324	5302.87
548.688	5297.67
549.052	5344.9
549.416	5386.71
549.779	5428.06
550.143	5432.58
550.507	5449.53
550.871	5484.11
551.235	5462.64
551.599	5507.84
551.962	5500.83
552.326	5573.14
552.689	5588.74
553.053	5536.31
553.417	5560.94
553.78	5636.19
554.143	5620.83
554.507	5604.78
554.87	5607.49
555.234	5679.36
555.597	5661.5
555.96	5698.11
556.323	5744.89
556.686	5662.41
557.05	5747.83
557.413	5760.48
557.776	5764.1
558.139	5789.64
558.502	5775.17
558.865	5832.57
559.228	5861.27
559.59	5891.78
559.953	5825.79
560.316	5922.74
560.679	5905.79
561.041	5965.68
561.404	5949.63
561.767	5975.85
562.129	5996.64
562.492	6063.08
562.854	5997.31
563.217	6014.49
563.579	6021.27
563.941	6081.38
564.304	6114.6
564.666	6110.98
565.028	6168.83
565.39	6138.78
565.753	6160.7
566.115	6192.11
566.477	6197.99
566.839	6202.05
567.201	6279.79
567.563	6278.21
567.925	6335.61
568.287	6336.06
568.648	6344.2
569.01	6371.54
569.372	6397.3
569.734	6426
570.095	6385.1
570.457	6419.68
570.819	6507.13
571.18	6464.19
571.542	6555.49
571.903	6638.43
572.265	6646.34
572.626	6635.04
572.987	6669.84
573.349	6711.42
573.71	6778.99
574.071	6789.61
574.432	6878.42
574.794	6887.23
575.155	6944.86
575.516	6947.8
575.877	7063.95
576.238	7081.13
576.599	7169.49
576.96	7216.27
577.32	7290.84
577.681	7379.65
578.042	7484.51
578.403	7474.34
578.763	7543.49
579.124	7733.99
579.485	7743.26
579.845	7890.6
580.206	7919.3
580.566	8031.84
580.927	8136.01
581.287	8322.45
581.648	8339.85
582.008	8547.98
582.368	8643.57
582.728	8813.96
583.089	8865.94
583.449	9040.4
583.809	9211.92
584.169	9444.91
584.529	9525.81
584.889	9788.63
585.249	9812.58
585.609	10128.96
585.969	10293.25
586.329	10422.73
586.688	10614.14
587.048	10892.78
587.408	11022.04
587.768	11295.48
588.127	11442.37
588.487	11703.38
588.846	12044.39
589.206	12085.97
589.565	12425.17
589.925	12671.94
590.284	12859.05
590.643	13156.22
591.003	13406.84
591.362	13682.76
591.721	14024.67
592.08	14246.81
592.44	14529.75
592.799	14803.18
593.158	15037.08
593.517	15248.6
593.876	15573.56
594.235	15879.31
594.593	16105.52
594.952	16468
595.311	16728.11
595.67	17047.42
596.029	17356.34
596.387	17566.73
596.746	17994.06
597.104	18090.33
597.463	18374.16
597.822	18719.69
598.18	19021.6
598.538	19239.45
598.897	19707.46
599.255	19804.41
599.613	20316.49
599.972	20506.31
600.33	20770.03
600.688	21031.95
601.046	21402.11
601.404	21646.17
601.762	21996.89
602.12	22222.88
602.478	22468.52
602.836	22791.67
603.194	22920.03
603.552	23155.06
603.91	23413.81
604.268	23675.95
604.625	23867.58
604.983	24169.27
605.341	24286.55
605.698	24649.93
606.056	24964.5
606.413	25067.1
606.771	25390.7
607.128	25758.83
607.485	25829.33
607.843	26081.76
608.2	26479.49
608.557	26717.9
608.914	26747.73
609.272	27171.9
609.629	27345.23
609.986	27546.35
610.343	27674.03
610.7	28115.6
611.057	28152.21
611.414	28372.09
611.771	28534.57
612.127	28780.44
612.484	28868.13
612.841	29142.02
613.198	29237.61
613.554	29395.79
613.911	29590.82
614.267	29835.11
614.624	29971.6
614.98	30278.71
615.337	30458.14
615.693	30551.02
616.05	30696.33
616.406	30971.8
616.762	30968.86
617.118	31115.07
617.475	31183.32
617.831	31493.37
618.187	31665.11
618.543	31805.9
618.899	32086.12
619.255	32061.26
619.611	32218.32
619.967	32329.96
620.323	32561.59
620.678	32630.51
621.034	32557.52
621.39	32740.57
621.746	32792.77
622.101	33360.89
622.457	32996.15
622.812	33205.86
623.168	33343.49
623.523	33355.01
623.879	33638.85
624.234	33396.37
624.589	33611.5
624.945	33809.46
625.3	33848.11
625.655	33964.04
626.01	34015.33
626.365	34166.06
626.72	33940.53
627.075	34150.25
627.43	34227.08
627.785	34228.44
628.14	34302.33
628.495	34484.47
628.85	34623.45
629.205	34392.73
629.559	34675.2
629.914	34619.84
630.269	34656
630.623	34596.56
630.978	34589.56
631.332	34865.93
631.687	34992.48
632.041	34792.26
632.396	34830.45
632.75	34794.75
633.104	34920.85
633.459	34820.29
633.813	34779.38
634.167	34867.06
634.521	34803.56
634.875	35037
635.229	34883.56
635.583	34860.96
635.937	34789.33
636.291	34857.12
636.645	34784.13
636.999	34789.55
637.352	34935.08
637.706	34701.87
638.06	34999.04
638.413	34787.74
638.767	34851.02
639.121	34960.17
639.474	34690.57
639.828	34896.44
640.181	34878.36
640.534	34872.04
640.888	34824.13
641.241	34759.5
641.594	34870
641.947	34954.07
642.301	34810.79
642.654	34909.32
643.007	34911.81
643.36	34926.04
643.713	34888.98
644.066	34950.23
644.419	34775.99
644.771	34552.95
645.124	34217.59
645.477	34117.48
645.83	34078.38
646.182	33884.72
646.535	33750.48
646.888	33867.54
647.24	33736.92
647.593	34001.55
647.945	33778.96
648.298	33744.83
648.65	33586.87
649.002	33635.68
649.355	33776.92
649.707	33775.57
650.059	33757.04
650.411	34154.54
650.763	34292.62
651.115	34676.11
651.467	34522.89
651.819	34508.43
652.171	34511.59
652.523	34514.98
652.875	34503.01
653.227	34313.63
653.578	34517.47
653.93	34448.54
654.282	34266.63
654.633	34308.43
654.985	34225.95
655.337	34241.54
655.688	34335.33
656.039	34412.84
656.391	34149.79
656.742	34263.92
657.094	34227.31
657.445	34360.86
657.796	34343.24
658.147	34218.49
658.498	34282.9
658.849	34341.43
659.2	34280.64
659.551	34153.86
659.902	34237.7
660.253	34110.47
660.604	34254.88
660.955	34114.31
661.306	34005.62
661.656	34051.72
662.007	34157.7
662.358	34152.96
662.708	34118.16
663.059	34113.18
663.409	33952.29
663.76	34127.2
664.11	34089.46
664.461	34262.11
664.811	34057.14
665.161	34121.55
665.511	34006.52
665.862	34134.88
666.212	34202.67
666.562	34177.59
666.912	34054.43
667.262	34069.34
667.612	34030.93
667.962	34110.02
668.312	33973.53
668.662	34153.18
669.011	33999.06
669.361	33949.12
669.711	34049.68
670.06	33931.72
670.41	33818.73
670.76	33857.37
671.109	34055.56
671.459	33863.47
671.808	33849.24
672.157	33898.5
672.507	33849.46
672.856	33792.06
673.205	33851.95
673.554	33841.33
673.904	33855.56
674.253	34084.71
674.602	33736.47
674.951	33441.79
675.3	33309.14
675.649	33693.08
675.998	33664.16
676.346	33718.17
676.695	33859.63
677.044	33579.19
677.393	33687.66
677.741	33783.02
678.09	33556.82
678.438	33526.53
678.787	33506.42
679.135	33584.16
679.484	33422.81
679.832	33402.7
680.181	33340.1
680.529	33343.04
680.877	33383.03
681.225	33267.78
681.573	33526.99
681.922	33161.12
682.27	33209.03
682.618	33085.42
682.966	33081.57
683.314	33097.84
683.661	33086.09
684.009	32929.26
684.357	32807.46
684.705	32755.25
685.053	32799.32
685.4	32700.34
685.748	32520.01
686.095	32593.22
686.443	32650.85
686.79	32420.57
687.138	32454.02
687.485	32454.02
687.832	32406.79
688.18	32314.81
688.527	32181.48
688.874	32299.67
689.221	32259
689.568	32052.9
689.915	31958.44
690.262	32056.52
690.609	31927.25
690.956	31896.07
691.303	31712.8
691.65	31659.69
691.997	31555.06
692.344	31492.46
692.69	31520.71
693.037	31374.5
693.383	31167.73
693.73	31175.64
694.077	31095.86
694.423	31161.17
694.769	31089.76
695.116	31002.76
695.462	30923.66
695.808	30890.9
696.155	30960.05
696.501	30777.45
696.847	30723.9
697.193	30483
697.539	30597.57
697.885	30293.85
698.231	30207.07
698.577	30338.14
698.923	30301.76
699.269	29981.09
699.614	29821.32
699.96	29878.27
700.306	29824.94
700.651	29804.15
700.997	29617.94
701.342	29694.77
701.688	29556.92
702.033	29497.71
702.379	29437.83
702.724	29453.65
703.069	29474.21
703.415	29121
703.76	29144.73
704.105	29203.94
704.45	29001.91
704.795	28859.99
705.14	28845.3
705.485	28847.33
705.83	28739.77
706.175	28757.17
706.52	28542.71
706.865	28574.57
707.209	28516.04
707.554	28412.32
707.899	28371.42
708.243	28300.23
708.588	28267.69
708.932	28189.05
709.277	28021.37
709.621	28090.07
709.966	27937.08
710.31	27930.3
710.654	27806.68
710.998	27853.24
711.342	27811.43
711.687	27781.83
712.031	27628.38
712.375	27521.04
712.719	27515.39
713.063	27538.22
713.407	27548.16
713.75	27370.54
714.094	27363.31
714.438	27390.2
714.782	27283.53
715.125	27109.98
715.469	27171.9
715.812	27042.18
716.156	26930.32
716.499	26872.25
716.843	26869.76
717.186	26841.29
717.53	26963.54
717.873	26807.61
718.216	26797.9
718.559	26793.6
718.902	26522.65
719.246	26547.96
719.589	26481.3
719.932	26530.56
720.275	26453.27
720.617	26435.65
720.96	26326.05
721.303	26344.35
721.646	26326.5
721.989	26136.45
722.331	26145.48
722.674	26154.52
723.016	26151.13
723.359	26004.25
723.701	26031.59
724.044	25915.66
724.386	25677.25
724.729	25934.64
725.071	25810.35
725.413	25830.01
725.755	25820.3
726.097	25557.25
726.439	25604.03
726.782	25664.82
727.124	25770.13
727.465	25474.77
727.807	25466.18
728.149	25485.39
728.491	25410.59
728.833	25349.35
729.175	25317.48
729.516	25353.64
729.858	25238.62
730.199	25279.97
730.541	25279.52
730.882	25246.07
731.224	25244.94
731.565	25036.59
731.906	24960.43
732.248	25145.29
732.589	24983.26
732.93	24910.04
733.271	24932.18
733.612	24950.26
733.953	24939.87
734.294	24621.23
734.635	24754.56
734.976	24791.17
735.317	24606.54
735.658	24668.24
735.999	24640.21
736.339	24545.98
736.68	24524.28
737.021	24512.76
737.361	24414.23
737.702	24539.43
738.042	24405.64
738.383	24385.08
738.723	24405.87
739.063	24338.98
739.404	24364.06
739.744	24280.22
740.084	24232.99
740.424	24195.71
740.764	24212.88
741.104	24252.43
741.444	24118.19
741.784	24027.8
742.124	24025.09
742.464	24002.49
742.804	23926.33
743.143	23917.52
743.483	23831.2
743.823	23847.47
744.162	23756.4
744.502	23790.07
744.841	23696.74
745.181	23708.03
745.52	23594.37
745.86	23656.96
746.199	23618.09
746.538	23560.24
746.877	23581.48
747.216	23524.76
747.556	23518.66
747.895	23511.43
748.234	23315.95
748.573	23298.33
748.911	23385.78
749.25	23317.54
749.589	23127.49
749.928	23260.36
750.267	23242.51
750.605	23086.81
750.944	23100.37
751.283	23126.81
751.621	23062.63
751.96	22911.45
752.298	22959.13
752.636	22871.67
752.975	22901.05
753.313	22738.34
753.651	22880.26
753.989	22683.43
754.327	22629.87
754.666	22538.35
755.004	22518.24
755.342	22621.28
755.679	22470.78
756.017	22382.87
756.355	22447.28
756.693	22461.06
757.031	22309.43
757.368	22174.52
757.706	22126.38
758.044	22156.21
758.381	22089.32
758.719	22075.31
759.056	22006.38
759.394	22038.25
759.731	21833.51
760.068	21825.6
760.405	21692.04
760.743	21684.59
761.08	21655.89
761.417	21610.46
761.754	21627.86
762.091	21534.53
762.428	21406.63
762.765	21237.37
763.102	21294.54
763.438	21213.64
763.775	21066.97
764.112	21187.42
764.449	21017.94
764.785	21006.64
765.122	20870.6
765.458	20756.93
765.795	20573.2
766.131	20746.98
766.467	20672.18
766.804	20606.42
767.14	20406.65
767.476	20448.23
767.812	20408.91
768.148	20393.77
768.485	20220.67
768.821	20212.53
769.157	20115.81
769.492	20049.83
769.828	20126.43
770.164	19837.18
770.5	19837.63
770.836	19776.61
771.171	19642.38
771.507	19633.34
771.842	19478.77
772.178	19498.88
772.513	19414.14
772.849	19348.83
773.184	19315.61
773.519	19275.16
773.855	19183.86
774.19	19062.73
774.525	19086.91
774.86	18999.01
775.195	18944.09
775.53	18924.88
775.865	18826.36
776.2	18743.65
776.535	18481.73
776.87	18539.13
777.205	18467.49
777.539	18331.9
777.874	18448.51
778.209	18330.32
778.543	18293.71
778.878	18033.83
779.212	18085.81
779.547	18042.65
779.881	17994.51
780.215	17887.62
780.55	17930.11
780.884	17772.82
781.218	17821.86
781.552	17743.9
781.886	17578.48
782.22	17474.75
782.554	17541.87
782.888	17317.24
783.222	17265.49
783.556	17251.71
783.889	17194.76
784.223	17060.07
784.557	17053.07
784.89	17063.69
785.224	16964.26
785.557	16816.92
785.891	16763.58
786.224	16789.8
786.558	16831.15
786.891	16591.84
787.224	16572.18
787.557	16425.06
787.891	16440.66
788.224	16410.6
788.557	16427.32
788.89	16255.8
789.223	16374.22
789.556	16124.28
789.888	16128.8
790.221	16133.32
790.554	15932.65
790.887	15948.92
791.219	15894.23
791.552	15840.22
791.884	15791.86
792.217	15623.95
792.549	15716.15
792.882	15633.67
793.214	15599.55
793.546	15487.46
793.879	15481.81
794.211	15369.95
794.543	15480
794.875	15335.37
795.207	15351.19
795.539	15354.81
795.871	15254.25
796.203	15091.54
796.535	15038.88
796.867	15085.89
797.198	14932.45
797.53	14993.46
797.862	14913.01
798.193	14865.1
798.525	14867.36
798.856	14823.75
799.188	14639.8
799.519	14649.97
799.85	14478.9
800.182	14618.78
800.513	14586.69
800.844	14412.23
801.175	14404.55
801.506	14460.14
801.837	14404.32
802.168	14268.06
802.499	14345.12
802.83	14154.61
803.161	14153.48
803.491	14164.78
803.822	14114.39
804.153	14030.55
804.483	13989.65
804.814	13900.38
805.145	13836.66
805.475	13884.34
805.805	13813.38
806.136	13809.99
806.466	13783.78
806.796	13778.13
807.126	13598.24
807.457	13598.47
807.787	13599.15
808.117	13619.71
808.447	13473.5
808.777	13520.96
809.107	13420.4
809.436	13388.98
809.766	13426.72
810.096	13356.67
810.426	13325.93
810.755	13290.91
811.085	13255.65
811.414	13222.21
811.744	13158.26
812.073	13140.18
812.403	13044.13
812.732	12973.63
813.061	13049.78
813.39	12923.91
813.719	12949
814.049	12948.32
814.378	12913.74
814.707	12810.47
815.036	12810.02
815.365	12768.21
815.693	12648.44
816.022	12620.64
816.351	12717.36
816.68	12586.29
817.008	12570.25
817.337	12525.73
817.665	12499.74
817.994	12571.6
818.322	12533.64
818.651	12438.27
818.979	12323.02
819.307	12476.69
819.636	12411.38
819.964	12352.4
820.292	12402.34
820.62	12342.68
820.948	12248.45
821.276	12297.71
821.604	12363.7
821.932	12263.82
822.259	12236.92
822.587	12197.15
822.915	12223.59
823.243	12273.08
823.57	12238.05
823.898	12256.58
824.225	12190.6
824.553	12220.65
824.88	12300.88
825.207	12273.53
825.535	12204.61
825.862	12224.72
826.189	12133.42
826.516	12296.58
826.843	12268.79
827.17	12265.4
827.497	12251.61
827.824	12249.13
828.151	12223.37
828.478	12171.61
828.805	12262.01
829.131	12152.41
829.458	12199.64
829.785	12058.62
830.111	12128
830.438	12238.73
830.764	12196.02
831.09	12118.06
831.417	12165.74
831.743	12215
832.069	12185.4
832.395	12063.14
832.722	12147.21
833.048	12107.44
833.374	12028.12
833.7	12008.46
834.026	12025.18
834.351	12097.27
834.677	12008.46
835.003	12058.17
835.329	11996.93
835.654	11981.11
835.98	11992.64
836.306	11990.15
836.631	11932.75
836.956	11925.52
837.282	11953.54
837.607	11850.27
837.932	11866.76
838.258	11814.34
838.583	11771.17
838.908	11737.05
839.233	11826.99
839.558	11776.82
839.883	11726.65
840.208	11683.94
840.533	11675.36
840.858	11807.56
841.182	11709.93
841.507	11601.01
841.832	11576.15
842.156	11625.87
842.481	11605.08
842.805	11482.37
843.13	11561.24
843.454	11446.89
843.778	11427
844.103	11382.94
844.427	11378.64
844.751	11367.12
845.075	11346.55
845.399	11231.3
845.723	11271.53
846.047	11268.81
846.371	11139.1
846.695	11182.71
847.019	11043.74
847.343	11029.05
847.666	11020.46
847.99	10890.07
848.313	10958.54
848.637	10862.27
848.96	10842.16
849.284	10848.94
849.607	10742.27
849.931	10737.08
850.254	10611.66
850.577	10622.05
850.9	10529.62
851.223	10470.87
851.546	10513.58
851.869	10423.86
852.192	10449.63
852.515	10355.39
852.838	10330.31
853.161	10293.92
853.483	10232.91
853.806	10237.2
854.129	10250.08
854.451	10112.91
854.774	10081.95
855.096	10114.04
855.419	10026.81
855.741	10045.34
856.063	9980.26
856.385	9945.23
856.708	9871.56
857.03	9893.26
857.352	9867.27
857.674	9837.89
857.996	9816.65
858.318	9787.04
858.64	9730.78
858.961	9714.96
859.283	9740.72
859.605	9649.42
859.926	9682.87
860.248	9658.69
860.57	9563.55
860.891	9601.51
861.212	9535.53
861.534	9495.08
861.855	9522.19
862.176	9546.83
862.498	9454.4
862.819	9492.14
863.14	9430.67
863.461	9448.07
863.782	9364.46
864.103	9369.88
864.424	9293.95
864.745	9348.19
865.065	9280.39
865.386	9252.82
865.707	9233.61
866.027	9315.42
866.348	9244.69
866.668	9286.04
866.989	9162.2
867.309	9114.52
867.63	9181.64
867.95	9129.21
868.27	9149.32
868.59	9178.25
868.91	9101.87
869.23	9090.79
869.55	9115.2
869.87	9109.55
870.19	9100.74
870.51	9035.65
870.83	9059.83
871.15	8968.99
871.469	8973.28
871.789	9011.7
872.109	8985.03
872.428	8973.28
872.748	8978.03
873.067	8948.65
873.386	8954.75
873.706	9000.85
874.025	8837.69
874.344	8863
874.663	8825.04
874.982	8863
875.301	8881.98
875.62	8803.12
875.939	8797.69
876.258	8737.13
876.577	8778.26
876.896	8715.66
877.214	8717.02
877.533	8741.42
877.852	8679.96
878.17	8682.44
878.489	8729.67
878.807	8702.78
879.125	8669.79
879.444	8711.14
879.762	8571.71
880.08	8611.93
880.398	8595.89
880.716	8583.01
881.034	8546.85
881.352	8619.84
881.67	8576.46
881.988	8518.6
882.306	8512.73
882.624	8449.23
882.941	8393.64
883.259	8437.48
883.577	8407.42
883.894	8380.98
884.212	8450.13
884.529	8401.77
884.846	8348.66
885.164	8386.86
885.481	8313.86
885.798	8299.63
886.115	8265.05
886.432	8269.12
886.75	8218.95
887.067	8219.85
887.383	8173.3
887.7	8228.89
888.017	8143.02
888.334	8142.12
888.651	8094.89
888.967	8084.04
889.284	8023.25
889.6	8086.3
889.917	7975.12
890.233	8046.98
890.55	7994.55
890.866	7986.19
891.182	7907.09
891.498	7905.06
891.815	7880.65
892.131	7823.48
892.447	7796.59
892.763	7771.73
893.079	7729.7
893.395	7692.41
893.71	7801.11
894.026	7700.55
894.342	7724.95
894.657	7595.24
894.973	7601.11
895.289	7668
895.604	7566.09
895.92	7571.51
896.235	7547.78
896.55	7546.43
896.865	7492.19
897.181	7478.41
897.496	7434.34
897.811	7382.14
898.126	7357.73
898.441	7335.36
898.756	7313.44
899.071	7258.98
899.386	7295.59
899.7	7229.6
900.015	7252.42
900.33	7168.36
900.644	7154.12
900.959	7176.04
901.273	7127.91
901.588	7085.65
901.902	7020.34
902.216	7021.69
902.531	7018.3
902.845	7010.17
903.159	6987.34
903.473	6949.15
903.787	6924.3
904.101	6882.26
904.415	6896.95
904.729	6885.43
905.042	6816.95
905.356	6821.02
905.67	6772.66
905.984	6768.82
906.297	6743.74
906.611	6747.58
906.924	6673
907.237	6658.09
907.551	6616.73
907.864	6581.03
908.177	6611.54
908.491	6556.85
908.804	6583.06
909.117	6545.32
909.43	6503.29
909.743	6479.56
910.056	6424.65
910.368	6397.08
910.681	6357.3
910.994	6339
911.307	6306.01
911.619	6278.21
911.932	6275.27
912.244	6246.12
912.557	6235.5
912.869	6197.99
913.181	6210.42
913.494	6177.2
913.806	6116.41
914.118	6099.01
914.43	6071.89
914.742	6089.97
915.054	6073.92
915.366	5982.4
915.678	6017.65
915.99	5929.97
916.302	5894.27
916.613	5961.38
916.925	5915.28
917.236	5845.23
917.548	5826.92
917.859	5864.44
918.171	5774.04
918.482	5779.69
918.794	5752.57
919.105	5738.34
919.416	5675.97
919.727	5664.89
920.038	5658.11
920.349	5583.54
920.66	5598.68
920.971	5606.36
921.282	5563.65
921.593	5516.42
921.903	5475.29
922.214	5459.7
922.525	5457.44
922.835	5416.09
923.146	5418.57
923.456	5431.91
923.767	5368.63
924.077	5347.39
924.387	5325.69
924.697	5286.82
925.008	5303.1
925.318	5275.53
925.628	5317.56
925.938	5221.52
926.248	5185.58
926.558	5185.81
926.867	5073.5
927.177	5149.88
927.487	5146.71
927.796	5005.25
928.106	5122.08
928.416	5075.08
928.725	4985.14
929.034	4977
929.344	4997.11
929.653	5006.38
929.962	4904.24
930.271	4913.05
930.581	4861.3
930.89	4898.59
931.199	4824.24
931.508	4842.32
931.817	4849.1
932.125	4834.63
932.434	4788.98
932.743	4762.09
933.051	4702.21
933.36	4673.51
933.669	4655.88
933.977	4690.46
934.286	4635.99
934.594	4658.37
934.902	4633.28
935.21	4601.64
935.519	4574.07
935.827	4546.73
936.135	4564.58
936.443	4523.68
936.751	4473.51
937.059	4459.95
937.367	4482.1
937.674	4435.77
937.982	4411.82
938.29	4407.53
938.597	4384.25
938.905	4331.6
939.213	4363.23
939.52	4316.45
939.827	4343.8
940.135	4265.83
940.442	4293.63
940.749	4246.63
941.056	4213.18
941.363	4211.6
941.67	4233.74
941.977	4145.39
942.284	4156.01
942.591	4178.15
942.898	4145.84
943.205	4124.82
943.511	4125.5
943.818	4077.36
944.125	4058.16
944.431	4067.42
944.738	4066.07
945.044	4037.82
945.35	4031.94
945.657	3976.58
945.963	3987.2
946.269	3942.9
946.575	3954.66
946.881	3910.14
947.187	3905.62
947.493	3875.11
947.799	3877.14
948.105	3867.2
948.41	3824.26
948.716	3834.43
949.022	3753.53
949.327	3814.55
949.633	3757.6
949.938	3767.99
950.244	3756.92
950.549	3698.17
950.854	3723.93
951.16	3698.17
951.465	3650.03
951.77	3623.82
952.075	3611.39
952.38	3613.42
952.685	3626.08
952.99	3582.24
953.294	3579.3
953.599	3545.4
953.904	3511.96
954.209	3539.3
954.513	3548.34
954.818	3500.43
955.122	3489.36
955.426	3473.54
955.731	3483.93
956.035	3432.86
956.339	3464.27
956.643	3443.93
956.948	3390.83
957.252	3368.23
957.556	3420.21
957.86	3362.13
958.163	3335.24
958.467	3359.64
958.771	3342.24
959.075	3296.59
959.378	3295.69
959.682	3270.15
959.985	3225.86
960.289	3246.65
960.592	3259.31
960.896	3228.57
961.199	3217.73
961.502	3206.88
961.805	3200.1
962.108	3144.06
962.411	3138.18
962.714	3108.12
963.017	3131.4
963.32	3093.89
963.623	3052.53
963.926	3123.27
964.228	3077.16
964.531	3065.41
964.833	3063.83
965.136	3034
965.438	3007.34
965.741	2988.58
966.043	3001.69
966.345	2994.91
966.648	2968.24
966.95	2914.91
967.252	2922.82
967.554	2905.64
967.856	2925.53
968.158	2934.12
968.46	2900.22
968.761	2897.51
969.063	2851.86
969.365	2869.71
969.666	2862.26
969.968	2851.86
970.269	2806.66
970.571	2798.08
970.872	2809.83
971.174	2745.42
971.475	2785.2
971.776	2785.2
972.077	2752.2
972.378	2756.72
972.679	2712.43
972.98	2734.57
973.281	2671.53
973.582	2670.62
973.883	2634.69
974.183	2672.2
974.484	2629.27
974.785	2638.98
975.085	2652.09
975.386	2601.47
975.686	2601.02
975.986	2600.34
976.287	2590.62
976.587	2601.92
976.887	2562.83
977.187	2584.75
977.487	2553.11
977.787	2553.34
978.087	2509.04
978.387	2519.89
978.687	2490.74
978.987	2488.03
979.286	2484.41
979.586	2464.98
979.885	2474.24
980.185	2445.32
980.484	2446.45
980.784	2434.47
981.083	2431.31
981.382	2399.67
981.682	2378.88
981.981	2336.85
982.28	2363.29
982.579	2368.93
982.878	2340.24
983.177	2336.62
983.475	2330.74
983.774	2318.09
984.073	2295.94
984.372	2286.9
984.67	2266.34
984.969	2291.65
985.267	2269.95
985.566	2250.97
985.864	2260.01
986.162	2256.62
986.461	2255.04
986.759	2251.88
987.057	2211.42
987.355	2218.66
987.653	2174.36
987.951	2188.15
988.249	2216.4
988.547	2189.28
988.844	2169.17
989.142	2142.73
989.44	2147.92
989.737	2140.47
990.035	2118.09
990.332	2079.9
990.63	2114.7
990.927	2108.38
991.224	2079.68
991.521	2056.17
991.819	2060.69
992.116	2065.89
992.413	2034.25
992.71	2010.98
993.006	2039.23
993.303	2010.3
993.6	1982.28
993.897	1982.96
994.193	2002.39
994.49	1993.35
994.787	1945.22
995.083	1986.35
995.379	1942.51
995.676	1947.48
995.972	1928.72
996.268	1903.41
996.565	1922.39
996.861	1934.6
997.157	1886.91
997.453	1906.57
997.749	1888.95
998.044	1862.28
998.34	1888.5
998.636	1842.4
998.932	1852.34
999.227	1820.47
999.523	1815.05
999.818	1810.53
1000.114	1822.06
1000.409	1796.29
1000.704	1797.65
1001	1781.83
1001.295	1785
1001.59	1782.28
1001.885	1750.19
1002.18	1749.97
1002.475	1737.54
1002.77	1723.53
1003.065	1693.7
1003.359	1698.9
1003.654	1721.27
1003.949	1704.77
1004.243	1658.22
1004.538	1647.15
1004.832	1669.07
1005.127	1679.01
1005.421	1635.17
1005.715	1637.65
1006.009	1630.42
1006.304	1659.35
1006.598	1597.88
1006.892	1581.61
1007.186	1596.07
1007.48	1571.89
1007.773	1557.43
1008.067	1553.36
1008.361	1543.42
1008.655	1539.13
1008.948	1553.82
1009.242	1529.86
1009.535	1535.06
1009.829	1539.58
1010.122	1500.48
1010.415	1522.4
1010.708	1494.61
1011.001	1478.79
1011.295	1481.05
1011.588	1458.45
1011.881	1465
1012.173	1434.27
1012.466	1446.02
1012.759	1427.49
1013.052	1437.66
1013.344	1440.37
1013.637	1410.99
1013.93	1426.13
1014.222	1400.37
1014.514	1389.07
1014.807	1368.96
1015.099	1369.64
1015.391	1384.78
1015.683	1385.68
1015.976	1350.88
1016.268	1356.53
1016.56	1373.93
1016.851	1356.76
1017.143	1329.41
1017.435	1330.09
1017.727	1296.87
1018.018	1308.85
1018.31	1317.66
1018.602	1285.57
1018.893	1272.92
1019.185	1255.07
1019.476	1282.41
1019.767	1252.58
1020.058	1226.82
1020.35	1225.46
1020.641	1244.44
1020.932	1229.98
1021.223	1222.75
1021.514	1236.99
1021.804	1206.03
1022.095	1156.09
1022.386	1199.25
1022.677	1189.3
1022.967	1130.32
1023.258	1174.62
1023.548	1133.04
1023.839	1153.83
1024.129	1131.91
1024.419	1147.72
1024.709	1127.39
1025	1137.1
1025.29	1113.83
1025.58	1106.14
1025.87	1115.86
1026.16	1059.82
1026.449	1119.25
1026.739	1068.4
1027.029	1072.02
1027.319	1061.62
1027.608	1063.43
1027.898	1061.4
1028.187	1034.05
1028.477	1034.73
1028.766	1050.55
1029.055	1016.88
1029.344	1023.66
1029.634	1047.39
1029.923	1012.13
1030.212	1004.23
1030.501	1013.94
1030.79	1003.1
1031.078	988.18
1031.367	984.11
1031.656	988.86
1031.945	975.3
1032.233	971.68
1032.522	962.42
1032.81	943.66
1033.099	968.07
1033.387	943.66
1033.675	936.2
1033.963	945.47
1034.251	930.33
1034.54	893.49
1034.828	904.57
1035.116	895.75
1035.403	918.35
1035.691	882.42
1035.979	893.49
1036.267	882.87
1036.554	875.87
1036.842	876.32
1037.129	871.35
1037.417	872.48
1037.704	869.54
1037.992	891.91
1038.279	832.7
1038.566	849.43
1038.853	849.43
1039.14	849.43
