Data from hue_20_FLMS001491_90.txt Node
Date: Mon Feb 06 15:34:48 GMT 2017
User: dcchb
Spectrometer: FLMS00149
Trigger mode: 0
Integration Time (sec): 2.000000E-2
Scans to average: 10
Electric dark correction enabled: true
Nonlinearity correction enabled: false
Boxcar width: 0
XAxis mode: Wavelengths
Number of Pixels in Spectrum: 2048
>>>>>Begin Spectral Data<<<<<
341.393	-6.23
341.776	-6.23
342.16	-6.23
342.543	-55.04
342.927	-63.63
343.31	-71.54
343.693	-76.74
344.077	-63.85
344.46	-56.62
344.843	-69.28
345.226	-43.52
345.61	-31.09
345.993	-19.11
346.376	-2.16
346.759	21.79
347.142	7.78
347.525	34
347.908	58.85
348.291	88.46
348.674	94.33
349.057	128.68
349.44	133.43
349.823	150.38
350.206	164.61
350.588	207.33
350.971	221.34
351.354	243.03
351.737	223.14
352.119	243.48
352.502	269.92
352.884	266.08
353.267	301.11
353.65	298.17
354.032	300.2
354.414	316.7
354.797	320.09
355.179	327.1
355.562	299.3
355.944	356.47
356.326	343.37
356.709	339.98
357.091	335.91
357.473	339.98
357.855	331.39
358.238	354.67
358.62	335.91
359.002	343.14
359.384	342.91
359.766	360.77
360.148	310.83
360.53	343.82
360.912	340.88
361.294	334.78
361.676	340.88
362.057	316.47
362.439	334.1
362.821	352.18
363.203	322.8
363.584	317.83
363.966	322.8
364.348	311.96
364.729	327.1
365.111	319.86
365.493	314.21
365.874	332.75
366.256	330.26
366.637	313.76
367.019	326.19
367.4	316.25
367.781	313.54
368.163	305.85
368.544	316.47
368.925	313.08
369.306	314.44
369.688	313.99
370.069	309.24
370.45	299.07
370.831	305.63
371.212	290.49
371.593	309.47
371.974	320.32
372.355	303.59
372.736	318.96
373.117	325.06
373.498	318.73
373.879	330.26
374.26	316.93
374.641	306.76
375.021	301.33
375.402	319.19
375.783	311.28
376.163	336.36
376.544	317.15
376.925	347.21
377.305	319.41
377.686	316.25
378.066	326.87
378.447	331.39
378.827	342.01
379.208	349.92
379.588	310.6
379.968	330.71
380.349	352.63
380.729	325.29
381.109	332.97
381.489	332.29
381.87	318.73
382.25	345.17
382.63	337.94
383.01	335.91
383.39	345.63
383.77	352.41
384.15	362.35
384.53	335.46
384.91	352.63
385.29	347.66
385.67	357.15
386.049	354.21
386.429	345.63
386.809	347.21
387.189	363.71
387.568	358.28
387.948	350.6
388.328	345.63
388.707	345.63
389.087	361.22
389.466	370.03
389.846	356.02
390.225	369.81
390.605	374.1
390.984	378.39
391.363	373.65
391.743	375.46
392.122	375
392.501	362.58
392.881	375.68
393.26	384.27
393.639	375.68
394.018	389.92
394.397	366.19
394.776	372.52
395.155	378.62
395.534	375
395.913	376.81
396.292	385.17
396.671	391.28
397.05	399.86
397.429	397.83
397.808	391.73
398.186	391.28
398.565	390.37
398.944	396.7
399.323	384.27
399.701	373.42
400.08	398.96
400.458	396.47
400.837	395.12
401.215	405.06
401.594	406.42
401.972	392.18
402.351	416.81
402.729	413.42
403.107	419.75
403.486	412.97
403.864	416.81
404.242	423.14
404.62	419.07
404.999	422.91
405.377	429.24
405.755	414.33
406.133	425.17
406.511	417.04
406.889	433.53
407.267	438.28
407.645	443.03
408.023	442.57
408.401	436.92
408.779	430.6
409.156	440.54
409.534	442.57
409.912	450.93
410.29	446.19
410.667	436.92
411.045	464.72
411.422	452.74
411.8	461.1
412.178	459.3
412.555	462.46
412.933	463.82
413.31	466.98
413.687	464.27
414.065	488.22
414.442	477.15
414.819	484.83
415.197	491.84
415.574	476.24
415.951	469.24
416.328	500.65
416.705	504.72
417.082	498.62
417.46	517.6
417.837	506.3
418.214	496.13
418.591	518.5
418.967	511.27
419.344	498.62
419.721	518.05
420.098	503.59
420.475	500.65
420.852	528.9
421.228	537.26
421.605	516.02
421.982	514.66
422.358	531.38
422.735	560.08
423.111	542.01
423.488	553.98
423.864	534.1
424.241	545.17
424.617	558.73
424.994	544.94
425.37	547.2
425.746	554.66
426.123	552.85
426.499	567.77
426.875	570.25
427.251	591.5
427.627	591.27
428.003	589.24
428.379	584.26
428.756	591.72
429.132	586.07
429.507	616.13
429.883	602.79
430.259	603.47
430.635	620.42
431.011	605.73
431.387	636.01
431.763	619.97
432.138	633.3
432.514	653.87
432.89	632.85
433.265	644.38
433.641	658.61
434.016	655.22
434.392	664.04
434.767	669.01
435.143	671.72
435.518	698.39
435.894	688.67
436.269	672.85
436.644	699.06
437.02	681.89
437.395	695
437.77	703.36
438.145	714.2
438.52	706.52
438.895	735.45
439.271	712.4
439.646	727.09
440.021	723.92
440.395	736.58
440.77	756.24
441.145	720.08
441.52	754.43
441.895	753.98
442.27	766.63
442.645	767.99
443.019	771.83
443.394	765.73
443.769	782.68
444.143	797.82
444.518	771.15
444.892	793.75
445.267	784.49
445.641	808.44
446.016	811.83
446.39	796.91
446.764	795.56
447.139	796.69
447.513	795.78
447.887	807.76
448.262	818.61
448.636	812.73
449.01	821.32
449.384	828.55
449.758	838.49
450.132	831.49
450.506	854.09
450.88	875.33
451.254	866.06
451.628	849.57
452.002	899.96
452.376	862.45
452.75	879.4
453.123	881.88
453.497	896.35
453.871	942.9
454.244	909.68
454.618	923.01
454.992	921.2
455.365	929.34
455.739	963.24
456.112	949.45
456.486	965.95
456.859	966.4
457.232	967.98
457.606	995.55
457.979	977.02
458.352	1010.69
458.725	1022.44
459.099	1034.65
459.472	1050.01
459.845	1073.74
460.218	1080.3
460.591	1054.31
460.964	1059.28
461.337	1061.99
461.71	1099.96
462.083	1125.94
462.456	1096.57
462.829	1128.88
463.201	1150.13
463.574	1139.05
463.947	1163.68
464.32	1186.06
464.692	1185.38
465.065	1170.92
465.438	1199.39
465.81	1239.84
466.183	1242.55
466.555	1261.53
466.928	1276.9
467.3	1290.91
467.672	1310.57
468.045	1317.58
468.417	1311.93
468.789	1324.81
469.161	1358.48
469.534	1388.54
469.906	1410.46
470.278	1407.97
470.65	1415.2
471.022	1440.29
471.394	1480.29
471.766	1492.71
472.138	1473.28
472.51	1509.66
472.882	1540.4
473.253	1562.32
473.625	1620.4
473.997	1633.5
474.369	1616.78
474.74	1649.77
475.112	1702.43
475.484	1726.38
475.855	1727.51
476.227	1774.74
476.598	1779.94
476.97	1819.71
477.341	1875.76
477.713	1908.3
478.084	1938.58
478.455	1987.39
478.827	2002.53
479.198	2043.66
479.569	2043.21
479.94	2106.71
480.311	2135.41
480.682	2224.9
481.053	2275.29
481.424	2280.04
481.795	2316.2
482.166	2335.63
482.537	2374.27
482.908	2450.88
483.279	2493.14
483.65	2510.32
484.021	2587.83
484.391	2596.41
484.762	2580.82
485.133	2645.23
485.503	2700.59
485.874	2753.7
486.244	2794.38
486.615	2859.91
486.985	2922.06
487.356	2942.85
487.726	2979.91
488.097	3044.09
488.467	3071.43
488.837	3157.3
489.207	3211.09
489.578	3247.7
489.948	3288.83
490.318	3328.82
490.688	3388.94
491.058	3417.64
491.428	3423.74
491.798	3522.49
492.168	3580.34
492.538	3566.11
492.908	3624.18
493.278	3664.86
493.648	3672.77
494.017	3717.97
494.387	3762.49
494.757	3797.06
495.126	3882.93
495.496	3903.27
495.866	3919.54
496.235	4019.2
496.605	3993.21
496.974	4040.22
497.344	4090.84
497.713	4116.37
498.082	4187.79
498.452	4199.76
498.821	4214.23
499.19	4201.8
499.559	4268.24
499.928	4317.27
500.298	4342.81
500.667	4389.81
501.036	4380.32
501.405	4417.84
501.774	4430.94
502.143	4470.94
502.512	4471.62
502.88	4507.32
503.249	4548.91
503.618	4548.23
503.987	4545.29
504.356	4593.42
504.724	4645.63
505.093	4649.69
505.462	4672.07
505.83	4757.04
506.199	4781.44
506.567	4828.67
506.936	4822.12
507.304	4840.42
507.672	4856.47
508.041	4891.04
508.409	4846.75
508.777	4917.26
509.145	5017.37
509.514	4957.93
509.882	5051.49
510.25	5024.6
510.618	5027.09
510.986	5091.72
511.354	5084.26
511.722	5118.61
512.09	5208.32
512.458	5153.86
512.826	5202.22
513.193	5234.09
513.561	5237.25
513.929	5279.51
514.297	5269.56
514.664	5327.42
515.032	5308.66
515.4	5350.47
515.767	5385.72
516.135	5382.1
516.502	5373.29
516.869	5409.22
517.237	5463.01
517.604	5471.37
517.972	5522.44
518.339	5504.81
518.706	5522.89
519.073	5597.01
519.44	5611.48
519.808	5595.43
520.175	5616.45
520.542	5635.88
520.909	5713.17
521.276	5673.4
521.643	5766.73
522.009	5741.19
522.376	5764.92
522.743	5840.4
523.11	5887.85
523.477	5912.49
523.843	5896.67
524.21	6018.47
524.577	6005.82
524.943	6038.58
525.31	6100.05
525.676	6072.03
526.043	6168.98
526.409	6149.99
526.776	6192.7
527.142	6234.29
527.508	6235.19
527.874	6280.61
528.241	6339.14
528.607	6372.13
528.973	6348.41
529.339	6396.99
529.705	6466.82
530.071	6490.55
530.437	6547.72
530.803	6580.94
531.169	6549.98
531.535	6592.47
531.901	6622.3
532.267	6645.57
532.632	6649.42
532.998	6731
533.364	6746.59
533.73	6757.44
534.095	6823.87
534.461	6827.04
534.826	6879.69
535.192	6876.3
535.557	6940.48
535.923	6923.76
536.288	6910.88
536.653	6993.59
537.019	7020.25
537.384	7048.73
537.749	7133.02
538.114	7095.05
538.479	7102.29
538.845	7132.57
539.21	7163.3
539.575	7176.63
539.94	7185.9
540.305	7227.48
540.67	7233.13
541.034	7330.08
541.399	7280.36
541.764	7388.61
542.129	7391.99
542.494	7438.77
542.858	7414.59
543.223	7499.34
543.587	7513.8
543.952	7578.66
544.316	7593.57
544.681	7603.06
545.045	7628.82
545.41	7664.3
545.774	7672.67
546.138	7653.68
546.503	7763.51
546.867	7814.36
547.231	7826.56
547.595	7807.35
547.959	7826.11
548.324	7895.71
548.688	7914.69
549.052	7965.31
549.416	7928.7
549.779	7976.61
550.143	8007.35
550.507	7992.21
550.871	8060.9
551.235	8039.21
551.599	8120.79
551.962	8132.09
552.326	8187.91
552.689	8224.52
553.053	8192.65
553.417	8281.46
553.78	8339.54
554.143	8257.73
554.507	8314
554.87	8370.5
555.234	8409.82
555.597	8384.74
555.96	8433.55
556.323	8487.79
556.686	8518.74
557.05	8546.54
557.413	8568.24
557.776	8575.92
558.139	8578.63
558.502	8618.63
558.865	8690.94
559.228	8708.57
559.59	8762.35
559.953	8721.23
560.316	8765.29
560.679	8803.94
561.041	8839.41
561.404	8881
561.767	8951.73
562.129	8903.14
562.492	8972.74
562.854	9043.93
563.217	8978.39
563.579	9053.42
563.941	9093.65
564.304	9094.55
564.666	9148.78
565.028	9194.21
565.39	9169.8
565.753	9287.54
566.115	9266.07
566.477	9312.85
566.839	9415.9
567.201	9459.74
567.563	9471.71
567.925	9507.87
568.287	9516.68
568.648	9570.69
569.01	9593.52
569.372	9621.77
569.734	9665.16
570.095	9643.01
570.457	9744.7
570.819	9745.15
571.18	9792.84
571.542	9845.26
571.903	9929.56
572.265	9920.06
572.626	9977.46
572.987	10052.26
573.349	10079.38
573.71	10141.08
574.071	10167.74
574.432	10283.67
574.794	10322.31
575.155	10393.95
575.516	10397.11
575.877	10477.11
576.238	10499.48
576.599	10602.53
576.96	10692.25
577.32	10720.27
577.681	10889.53
578.042	10910.55
578.403	11017.44
578.763	11068.51
579.124	11150.09
579.485	11262.63
579.845	11399.8
580.206	11499.46
580.566	11524.77
580.927	11715.5
581.287	11913.01
581.648	11989.61
582.008	12114.58
582.368	12317.74
582.728	12355.25
583.089	12590.95
583.449	12737.62
583.809	12868.91
584.169	13093.99
584.529	13187.55
584.889	13512.29
585.249	13684.71
585.609	13838.15
585.969	14037.02
586.329	14321.08
586.688	14522.43
587.048	14780.5
587.408	14958.8
587.768	15186.82
588.127	15486.47
588.487	15662.29
588.846	16014.14
589.206	16137.75
589.565	16540.23
589.925	16787.23
590.284	16985.41
590.643	17323.71
591.003	17679.86
591.362	17945.62
591.721	18250.47
592.08	18585.6
592.44	18894.52
592.799	19250.21
593.158	19460.6
593.517	19721.61
593.876	20173.35
594.235	20445.89
594.593	20772.66
594.952	21162.25
595.311	21418.52
595.67	21861.9
596.029	22237.48
596.387	22525.16
596.746	22948.65
597.104	23107.51
597.463	23378.47
597.822	23958.34
598.18	24149.52
598.538	24462.28
598.897	24972.78
599.255	25014.58
599.613	25699.76
599.972	25820.66
600.33	26271.95
600.688	26476.01
601.046	26934.31
601.404	27261.98
601.762	27575.87
602.12	28022.19
602.478	28289.98
602.836	28561.38
603.194	28809.96
603.552	29173.34
603.91	29430.51
604.268	29762.93
604.625	29974
604.983	30452.86
605.341	30512.97
605.698	31028.66
606.056	31437.92
606.413	31653.28
606.771	31930.56
607.128	32326.71
607.485	32387.72
607.843	32776.86
608.2	33149.74
608.557	33432.44
608.914	33573.23
609.272	34041.24
609.629	34266.32
609.986	34462.24
610.343	34692.52
610.7	35235.78
611.057	35329.57
611.414	35415.21
611.771	35579.05
612.127	36049.77
612.484	36306.49
612.841	36537.22
613.198	36595.29
613.554	36844.33
613.911	37166.58
614.267	37307.82
614.624	37482.05
614.98	37720.69
615.337	38074.35
615.693	38163.62
616.05	38201.35
616.406	38545.53
616.762	38580.55
617.118	38783.26
617.475	39008.56
617.831	39450.59
618.187	39393.19
618.543	39565.84
618.899	40028.65
619.255	40064.81
619.611	40230
619.967	40246.72
620.323	40525.36
620.678	40488.75
621.034	40470.22
621.39	40706.15
621.746	40912.92
622.101	41430.42
622.457	41130.54
622.812	41299.58
623.168	41443.3
623.523	41621.83
623.879	41755.39
624.234	41643.75
624.589	41952.89
624.945	42038.77
625.3	42100.69
625.655	42157.86
626.01	42241.25
626.365	42432.2
626.72	42378.87
627.075	42472.88
627.43	42508.36
627.785	42605.08
628.14	42705.64
628.495	42755.13
628.85	42735.7
629.205	42697.96
629.559	43014.11
629.914	42925.98
630.269	42999.42
630.623	42842.81
630.978	43016.37
631.332	43077.16
631.687	43241.9
632.041	43056.59
632.396	43123.48
632.75	43116.93
633.104	43184.73
633.459	43041.23
633.813	43152.64
634.167	43189.92
634.521	43258.85
634.875	43295.68
635.229	43259.98
635.583	43091.85
635.937	43280.09
636.291	43163.94
636.645	43288.68
636.999	43076.71
637.352	43298.62
637.706	43170.72
638.06	43345.63
638.413	43312.18
638.767	43195.57
639.121	43205.06
639.474	43088.91
639.828	43121.45
640.181	43241
640.534	43194.44
640.888	43141.11
641.241	42954.68
641.594	43168.46
641.947	43222.47
642.301	43048.46
642.654	43143.82
643.007	43108.8
643.36	43102.69
643.713	43021.79
644.066	43272.63
644.419	43021.34
644.771	42760.33
645.124	42309.27
645.477	42259.55
645.83	42084.64
646.182	41909.28
646.535	41783.63
646.888	42057.98
647.24	41741.6
647.593	42046.68
647.945	41931.2
648.298	41778.89
648.65	41771.66
649.002	41657.76
649.355	41757.64
649.707	41750.19
650.059	41854.82
650.411	42288.7
650.763	42380.91
651.115	42836.26
651.467	42729.14
651.819	42664.74
652.171	42559.66
652.523	42587
652.875	42582.48
653.227	42405.31
653.578	42754.91
653.93	42547.45
654.282	42507.68
654.633	42329.61
654.985	42582.71
655.337	42430.4
655.688	42505.65
656.039	42638.53
656.391	42287.8
656.742	42250.97
657.094	42353.11
657.445	42468.13
657.796	42293.9
658.147	42363.05
658.498	42355.6
658.849	42386.33
659.2	42277.41
659.551	42297.52
659.902	42493.67
660.253	42223.62
660.604	42380.23
660.955	42064.98
661.306	42261.13
661.656	42296.39
662.007	42143.17
662.358	42197.18
662.708	42187.24
663.059	42229.72
663.409	41820.92
663.76	42139.56
664.11	42246.67
664.461	42290.51
664.811	42202.38
665.161	42214.36
665.511	42071.99
665.862	42125.32
666.212	42203.06
666.562	42239.44
666.912	42048.71
667.262	42117.86
667.612	42149.05
667.962	42147.01
668.312	41987.02
668.662	42291.87
669.011	42097.3
669.361	42121.48
669.711	41972.1
670.06	41912.22
670.41	41817.3
670.76	41880.58
671.109	42044.19
671.459	42048.71
671.808	41845.78
672.157	42028.15
672.507	41736.18
672.856	41777.53
673.205	41844.42
673.554	41817.76
673.904	41872.22
674.253	42023.85
674.602	41929.39
674.951	41318.79
675.3	41051.45
675.649	41775.27
675.998	41837.19
676.346	41715.39
676.695	41893.01
677.044	41528.05
677.393	41651.89
677.741	41626.12
678.09	41646.24
678.438	41399.24
678.787	41536.41
679.135	41447.37
679.484	41252.12
679.832	41452.12
680.181	41094.61
680.529	41420.7
680.877	41269.52
681.225	41047.16
681.573	41452.12
681.922	41136.42
682.27	41001.28
682.618	41109.53
682.966	40905.69
683.314	41069.53
683.661	40976.87
684.009	40726.49
684.357	40731.23
684.705	40585.47
685.053	40664.79
685.4	40500.73
685.748	40326.72
686.095	40345.48
686.443	40331.24
686.79	40259.15
687.138	40266.16
687.485	40182.55
687.832	40055.09
688.18	40034.98
688.527	39980.74
688.874	39951.36
689.221	39811.48
689.568	39830.01
689.915	39605.84
690.262	39531.49
690.609	39681.32
690.956	39389.57
691.303	39392.06
691.65	39296.24
691.997	39120.88
692.344	38921.34
692.69	38929.7
693.037	39056.02
693.383	38672.08
693.73	38865.07
694.077	38609.48
694.423	38604.28
694.769	38559.99
695.116	38334.23
695.462	38426.66
695.808	38157.74
696.155	38321.8
696.501	38086.33
696.847	38038.87
697.193	37692.22
697.539	37884.3
697.885	37667.81
698.231	37534.71
698.577	37616.28
698.923	37388.49
699.269	37324.09
699.614	37079.8
699.96	36972.69
700.306	37124.32
700.651	36816.76
700.997	36843.42
701.342	36709.42
701.688	36642.98
702.033	36631.23
702.379	36560.72
702.724	36421.51
703.069	36459.93
703.415	36045.48
703.76	36153.72
704.105	36217.68
704.45	36017.91
704.795	35824.02
705.14	35718.71
705.485	35746.28
705.83	35542.67
706.175	35781.08
706.52	35473.74
706.865	35414.08
707.209	35358.49
707.554	35150.59
707.899	35320.98
708.243	35172.73
708.588	35102.68
708.932	34870.82
709.277	34863.36
709.621	34773.87
709.966	34658.4
710.31	34824.27
710.654	34517.84
710.998	34476.25
711.342	34463.37
711.687	34274.23
712.031	34302.25
712.375	34201.69
712.719	34227.22
713.063	34185.19
713.407	34223.38
713.75	33970.51
714.094	33980.9
714.438	33813.9
714.782	33826.78
715.125	33612.55
715.469	33664.98
715.812	33434.02
716.156	33426.34
716.499	33487.35
716.843	33502.04
717.186	33242.61
717.53	33404.64
717.873	33333.01
718.216	33121.49
718.559	32970.31
718.902	32801.5
719.246	32905.22
719.589	32882.17
719.932	32662.06
720.275	32666.58
720.617	32738.45
720.96	32587.49
721.303	32458.23
721.646	32579.36
721.989	32412.13
722.331	32464.1
722.674	32491.67
723.016	32444.44
723.359	32344.33
723.701	32281.51
724.044	32110.22
724.386	31967.17
724.729	32155.64
725.071	32028.86
725.413	32045.13
725.755	32055.08
726.097	31906.83
726.439	31777.12
726.782	31800.84
727.124	31820.51
727.465	31749.32
727.807	31673.16
728.149	31520.4
728.491	31512.26
728.833	31548.87
729.175	31453.51
729.516	31404.7
729.858	31214.42
730.199	31395.21
730.541	31145.49
730.882	31292.61
731.224	31346.85
731.565	31018.94
731.906	31066.85
732.248	31065.95
732.589	30896.24
732.93	30852.17
733.271	30866.63
733.612	30886.74
733.953	30792.74
734.294	30666.41
734.635	30599.75
734.976	30798.84
735.317	30651.95
735.658	30635
735.999	30524.49
736.339	30408.11
736.68	30572.63
737.021	30360.66
737.361	30312.3
737.702	30470.03
738.042	30286.31
738.383	30239.98
738.723	30265.29
739.063	30132.41
739.404	30247.44
739.744	30214.45
740.084	30041.34
740.424	30029.82
740.764	29956.6
741.104	30063.26
741.444	29806.32
741.784	29919.54
742.124	29873.89
742.464	29797.28
742.804	29729.26
743.143	29685.87
743.483	29797.96
743.823	29539.66
744.162	29426.44
744.502	29541.02
744.841	29357.75
745.181	29506.89
745.52	29379.67
745.86	29417.4
746.199	29282.27
746.538	29248.14
746.877	29339.89
747.216	29258.54
747.556	29201.14
747.895	29215.15
748.234	29047.47
748.573	29014.93
748.911	29000.01
749.25	28876.4
749.589	28800.47
749.928	28884.09
750.267	28923.86
750.605	28796.4
750.944	28755.95
751.283	28746.01
751.621	28671.66
751.96	28509.63
752.298	28619.01
752.636	28493.59
752.975	28485
753.313	28291.56
753.651	28410.43
753.989	28311.44
754.327	28291.33
754.666	28110.09
755.004	28059.25
755.342	28080.49
755.679	28083.2
756.017	27892.47
756.355	27999.14
756.693	27744.91
757.031	27913.04
757.368	27796.43
757.706	27686.38
758.044	27521.41
758.381	27631.46
758.719	27432.6
759.056	27538.58
759.394	27458.13
759.731	27205.03
760.068	27287.74
760.405	27156.45
760.743	27080.52
761.08	27148.54
761.417	27065.83
761.754	26956.68
762.091	26906.96
762.428	26773.86
762.765	26672.39
763.102	26809.79
763.438	26624.71
763.775	26516.69
764.112	26524.6
764.449	26461.78
764.785	26294.55
765.122	26095.68
765.458	26177.94
765.795	26042.58
766.131	25976.37
766.467	25952.64
766.804	25695.69
767.14	25639.65
767.476	25667.45
767.812	25591.74
768.148	25558.3
768.485	25357.85
768.821	25300.68
769.157	25310.39
769.492	25286.67
769.828	25297.29
770.164	24952.89
770.5	24870.63
770.836	24981.36
771.171	24732.56
771.507	24687.59
771.842	24511.54
772.178	24529.62
772.513	24522.17
772.849	24354.03
773.184	24361.49
773.519	24202.63
773.855	24079.92
774.19	24108.84
774.525	23878.57
774.86	23823.88
775.195	23803.09
775.53	23698.23
775.865	23658.91
776.2	23497.11
776.535	23375.76
776.87	23339.6
777.205	23311.12
777.539	23068.19
777.874	23218.92
778.209	23032.04
778.543	22871.36
778.878	22830.91
779.212	22829.78
779.547	22623.91
779.881	22775.77
780.215	22482.22
780.55	22544.36
780.884	22384.82
781.218	22420.75
781.552	22345.5
781.886	22194.54
782.22	22151.83
782.554	21918.62
782.888	21809.02
783.222	21817.6
783.556	21660.32
783.889	21682.69
784.223	21410.61
784.557	21440.44
784.89	21498.74
785.224	21363.38
785.557	21273.66
785.891	21186.89
786.224	21223.04
786.558	21030.05
786.891	20855.14
787.224	20869.83
787.557	20777.18
787.891	20677.75
788.224	20713.45
788.557	20672.78
788.89	20609.05
789.223	20570.63
789.556	20405.66
789.888	20410.86
790.221	20339.68
790.554	20145.56
790.887	20046.58
791.219	20057.42
791.552	19964.77
791.884	19955.28
792.217	19861.5
792.549	19818.79
792.882	19641.39
793.214	19610.66
793.546	19532.24
793.879	19435.75
794.211	19380.15
794.543	19391.68
794.875	19252.47
795.207	19310.33
795.539	19265.81
795.871	19207.5
796.203	19016.77
796.535	18943.1
796.867	18973.84
797.198	18892.71
797.53	18756.44
797.862	18719.15
798.193	18766.39
798.525	18593.06
798.856	18722.54
799.188	18439.61
799.519	18437.13
799.85	18322.55
800.182	18340.41
800.513	18306.28
800.844	18136.8
801.175	18212.28
801.506	18134.99
801.837	18069.91
802.168	18035.33
802.499	17946.29
802.83	17744.72
803.161	17741.55
803.491	17821.1
803.822	17906.29
804.153	17718.73
804.483	17534.55
804.814	17525.74
805.145	17433.76
805.475	17501.11
805.805	17369.59
806.136	17430.6
806.466	17359.87
806.796	17241.45
807.126	17192.64
807.457	17166.65
807.787	17076.71
808.117	17102.7
808.447	17003.04
808.777	17027.22
809.107	16972.53
809.436	16942.48
809.766	16797.85
810.096	16892.31
810.426	16765.99
810.755	16748.81
811.085	16696.16
811.414	16716.95
811.744	16522.83
812.073	16529.16
812.403	16430.4
812.732	16328.48
813.061	16384.75
813.39	16288.26
813.719	16209.39
814.049	16363.51
814.378	16213.46
814.707	16124.87
815.036	16174.59
815.365	16002.16
815.693	15964.65
816.022	15904.31
816.351	15824.54
816.68	15731.89
817.008	15834.26
817.337	15732.57
817.665	15618.22
817.994	15691.89
818.322	15663.19
818.651	15560.82
818.979	15480.6
819.307	15557.66
819.636	15565.57
819.964	15481.5
820.292	15552.68
820.62	15501.16
820.948	15387.72
821.276	15548.39
821.604	15419.81
821.932	15456.64
822.259	15439.01
822.587	15398.56
822.915	15361.5
823.243	15466.58
823.57	15357.66
823.898	15349.98
824.225	15345.46
824.553	15390.43
824.88	15342.07
825.207	15428.17
825.535	15316.31
825.862	15378.9
826.189	15309.07
826.516	15405.34
826.843	15477.66
827.17	15378
827.497	15366.25
827.824	15341.62
828.151	15397.21
828.478	15343.42
828.805	15326.48
829.131	15285.57
829.458	15260.49
829.785	15175.97
830.111	15277.89
830.438	15319.24
830.764	15273.37
831.09	15338.45
831.417	15217.55
831.743	15263.43
832.069	15274.73
832.395	15222.98
832.722	15242.41
833.048	15192.47
833.374	15281.5
833.7	15225.69
834.026	15175.75
834.351	15157.67
834.677	15134.62
835.003	15260.94
835.329	15105.24
835.654	15093.49
835.98	15045.58
836.306	15110.44
836.631	15088.06
836.956	15099.14
837.282	15009.65
837.607	14997.9
837.932	14875.64
838.258	14872.7
838.583	14982.98
838.908	14790.44
839.233	14863.21
839.558	14796.77
839.883	14734.63
840.208	14699.15
840.533	14644.69
840.858	14760.61
841.182	14658.02
841.507	14609.66
841.832	14519.49
842.156	14531.24
842.481	14513.39
842.805	14461.87
843.13	14421.41
843.454	14429.55
843.778	14315.88
844.103	14385.71
844.427	14330.34
844.751	14263.68
845.075	14285.82
845.399	14213.74
845.723	14185.71
846.047	14231.14
846.371	14072.72
846.695	14067.3
847.019	13949.56
847.343	13966.96
847.666	13841.09
847.99	13792.73
848.313	13759.06
848.637	13619.63
848.96	13656.24
849.284	13661.66
849.607	13532.62
849.931	13474.55
850.254	13440.88
850.577	13400.88
850.9	13259.64
851.223	13227.1
851.546	13139.19
851.869	13033.88
852.192	13100.09
852.515	12993.43
852.838	12952.98
853.161	12958.18
853.483	12908.01
853.806	12861.91
854.129	12871.4
854.451	12734
854.774	12682.25
855.096	12655.36
855.419	12656.26
855.741	12607.45
856.063	12512.09
856.385	12559.77
856.708	12405.65
857.03	12389.6
857.352	12342.37
857.674	12371.75
857.996	12379.89
858.318	12161.36
858.64	12189.83
858.961	12127.24
859.283	12169.5
859.605	12029.16
859.926	12123.4
860.248	12083.62
860.57	11946.68
860.891	12059.44
861.212	11996.39
861.534	11953.91
861.855	12027.35
862.176	11883.85
862.498	11952.1
862.819	11860.13
863.14	11886.11
863.461	11835.27
863.782	11782.39
864.103	11766.34
864.424	11708.94
864.745	11655.16
865.065	11704.65
865.386	11688.38
865.707	11618.78
866.027	11597.31
866.348	11595.5
866.668	11531.1
866.989	11579.91
867.309	11373.13
867.63	11487.71
867.95	11471.44
868.27	11431.89
868.59	11441.38
868.91	11336.98
869.23	11333.36
869.55	11266.02
869.87	11384.88
870.19	11318.45
870.51	11344.43
870.83	11288.16
871.15	11304.43
871.469	11294.72
871.789	11348.95
872.109	11245
872.428	11155.51
872.748	11196.19
873.067	11165.91
873.386	11208.84
873.706	11184.21
874.025	11062.86
874.344	11078
874.663	11143.53
874.982	11099.69
875.301	11042.75
875.62	11055.18
875.939	10991
876.258	10961.39
876.577	10914.39
876.896	11010.66
877.214	10945.57
877.533	10876.2
877.852	10875.97
878.17	10905.8
878.489	10823.54
878.807	10840.04
879.125	10885.24
879.444	10725.92
879.762	10858.34
880.08	10823.54
880.398	10821.74
880.716	10792.58
881.034	10730.44
881.352	10694.96
881.67	10672.13
881.988	10621.29
882.306	10649.08
882.624	10620.84
882.941	10558.01
883.259	10573.15
883.577	10554.85
883.894	10516.43
884.212	10469.2
884.529	10464.46
884.846	10419.94
885.164	10355.31
885.481	10374.06
885.798	10355.98
886.115	10325.7
886.432	10282.99
886.75	10315.76
887.067	10286.83
887.383	10177.23
887.7	10239.38
888.017	10209.32
888.334	10166.61
888.651	10114.64
888.967	10150.34
889.284	10003.45
889.6	10052.72
889.917	9955.77
890.233	9971.14
890.55	9947.18
890.866	9969.78
891.182	9894.3
891.498	9835.55
891.815	9851.14
892.131	9800.29
892.447	9777.69
892.763	9706.96
893.079	9695.66
893.395	9651.82
893.71	9692.27
894.026	9648.88
894.342	9592.39
894.657	9562.56
894.973	9542.45
895.289	9580.41
895.604	9500.19
895.92	9478.72
896.235	9399.4
896.55	9405.73
896.865	9279.4
897.181	9340.87
897.496	9389.68
897.811	9287.76
898.126	9288.22
898.441	9135.9
898.756	9216.13
899.071	9127.32
899.386	9128.22
899.7	9024.27
900.015	9013.2
900.33	8993.76
900.644	9001.9
900.959	9004.61
901.273	8912.86
901.588	8882.8
901.902	8865.4
902.216	8864.95
902.531	8866.53
902.845	8798.29
903.159	8703.15
903.473	8703.37
903.787	8676.25
904.101	8642.13
904.415	8636.71
904.729	8532.76
905.042	8554
905.356	8479.42
905.67	8481.23
905.984	8436.71
906.297	8500.89
906.611	8358.75
906.924	8321.69
907.237	8285.08
907.551	8316.26
907.864	8294.8
908.177	8283.5
908.491	8219.54
908.804	8167.34
909.117	8159.66
909.43	8122.15
909.743	8076.27
910.056	8042.6
910.368	8056.61
910.681	7969.38
910.994	7947.69
911.307	7937.97
911.619	7853.9
911.932	7900.23
912.244	7828.37
912.557	7807.13
912.869	7718.31
913.181	7710.63
913.494	7708.14
913.806	7580.92
914.118	7568.71
914.43	7608.71
914.742	7543.4
915.054	7528.49
915.366	7427.02
915.678	7423.86
915.99	7406.68
916.302	7374.37
916.613	7375.27
916.925	7347.93
917.236	7316.29
917.548	7256.41
917.859	7244.88
918.171	7227.03
918.482	7179.57
918.794	7089.4
919.105	7119.01
919.416	7043.08
919.727	7075.62
920.038	7034.49
920.349	6988.62
920.66	6924.89
920.971	6910.43
921.282	6919.01
921.593	6839.47
921.903	6760.83
922.214	6857.55
922.525	6810.32
922.835	6731.22
923.146	6707.72
923.456	6681.51
923.767	6688.96
924.077	6642.64
924.387	6613.03
924.697	6585.01
925.008	6572.58
925.318	6557.89
925.628	6522.64
925.938	6477.89
926.248	6439.93
926.558	6407.16
926.867	6424.56
927.177	6371.46
927.487	6366.49
927.796	6278.35
928.106	6295.75
928.416	6308.86
928.725	6294.4
929.034	6193.16
929.344	6189.77
929.653	6181.18
929.962	6081.75
930.271	6130.33
930.581	6056.44
930.89	6080.62
931.199	6007.17
931.508	6046.27
931.817	5979.83
932.125	5973.95
932.434	5957.68
932.743	5865.71
933.051	5863.67
933.36	5850.34
933.669	5825.71
933.977	5768.99
934.286	5710.91
934.594	5759.95
934.902	5695.77
935.21	5706.62
935.519	5619.84
935.827	5630.46
936.135	5618.03
936.443	5570.57
936.751	5583.23
937.059	5584.13
937.367	5515.21
937.674	5514.08
937.982	5505.49
938.29	5467.53
938.597	5431.59
938.905	5406.51
939.213	5370.13
939.52	5332.84
939.827	5352.95
940.135	5352.27
940.442	5317.02
940.749	5335.1
941.056	5251.94
941.363	5229.34
941.67	5217.81
941.977	5117.7
942.284	5145.05
942.591	5118.61
942.898	5093.07
943.205	5079.97
943.511	5049.46
943.818	5013.07
944.125	5037.71
944.431	5037.93
944.738	4981.89
945.044	4992.06
945.35	4899.41
945.657	4947.09
945.963	4875.9
946.269	4872.29
946.575	4849.69
946.881	4803.14
947.187	4829.12
947.493	4847.88
947.799	4755.91
948.105	4786.19
948.41	4701.44
948.716	4721.56
949.022	4704.61
949.327	4677.94
949.633	4648.11
949.938	4612.63
950.244	4628.9
950.549	4598.17
950.854	4580.32
951.16	4564.95
951.465	4529.92
951.77	4514.56
952.075	4476.37
952.38	4476.14
952.685	4487.89
952.99	4397.95
953.294	4432.07
953.599	4370.83
953.904	4339.42
954.209	4327.44
954.513	4366.99
954.818	4323.83
955.122	4298.52
955.426	4284.51
955.731	4254
956.035	4246.09
956.339	4216.03
956.643	4236.37
956.948	4146.43
957.252	4189.37
957.556	4117.5
957.86	4136.04
958.163	4141.68
958.467	4070.5
958.771	4056.26
959.075	4049.94
959.378	4017.85
959.682	4037.51
959.985	4005.87
960.289	3960.9
960.592	3953.44
960.896	3935.81
961.199	3942.14
961.502	3948.47
961.805	3875.03
962.108	3900.11
962.411	3871.18
962.714	3862.82
963.017	3850.39
963.32	3808.13
963.623	3792.54
963.926	3753.45
964.228	3768.36
964.531	3773.33
964.833	3699.44
965.136	3723.62
965.438	3734.69
965.741	3674.35
966.043	3654.24
966.345	3652.88
966.648	3622.6
966.95	3651.75
967.252	3617.4
967.554	3587.58
967.856	3590.06
968.158	3571.3
968.46	3568.37
968.761	3522.94
969.063	3499.89
969.365	3523.4
969.666	3523.4
969.968	3458.99
970.269	3454.92
970.571	3424.19
970.872	3458.76
971.174	3402.5
971.475	3394.36
971.776	3409.95
972.077	3335.15
972.378	3336.51
972.679	3375.83
972.98	3302.38
973.281	3350.97
973.582	3297.19
973.883	3249.73
974.183	3283.18
974.484	3263.74
974.785	3225.55
975.085	3220.35
975.386	3201.37
975.686	3169.96
975.986	3134.93
976.287	3195.72
976.587	3109.62
976.887	3147.13
977.187	3089.28
977.487	3110.98
977.787	3083.18
978.087	3076.85
978.387	3033.92
978.687	3072.33
978.987	3032.11
979.286	3030.53
979.586	3010.64
979.885	2985.11
980.185	2992.79
980.484	2918.89
980.784	2928.16
981.083	2953.02
981.382	2949.63
981.682	2940.81
981.981	2904.2
982.28	2898.33
982.579	2851.32
982.878	2889.51
983.177	2858.78
983.475	2873.47
983.774	2828.05
984.073	2807.48
984.372	2792.34
984.67	2796.86
984.969	2781.04
985.267	2796.18
985.566	2739.24
985.864	2712.8
986.162	2735.85
986.461	2715.73
986.759	2707.82
987.057	2666.02
987.355	2683.19
987.653	2692.23
987.951	2674.15
988.249	2657.43
988.547	2647.03
988.844	2629.63
989.142	2628.5
989.44	2583.08
989.737	2616.08
990.035	2584.21
990.332	2547.6
990.63	2505.34
990.927	2524.78
991.224	2536.3
991.521	2520.26
991.819	2489.07
992.116	2494.95
992.413	2453.14
992.71	2478.68
993.006	2467.15
993.303	2435.97
993.6	2410.88
993.897	2440.49
994.193	2388.28
994.49	2398.91
994.787	2410.2
995.083	2353.26
995.379	2356.2
995.676	2360.04
995.972	2322.75
996.268	2286.82
996.565	2323.43
996.861	2337.66
997.157	2289.53
997.453	2292.02
997.749	2248.85
998.044	2245.69
998.34	2288.63
998.636	2256.76
998.932	2248.63
999.227	2238.91
999.523	2227.84
999.818	2198.69
1000.114	2168.4
1000.409	2198.69
1000.704	2150.1
1001	2128.86
1001.295	2115.52
1001.59	2109.42
1001.885	2146.48
1002.18	2093.83
1002.475	2071.91
1002.77	2071
1003.065	2059.03
1003.359	2059.93
1003.654	2029.65
1003.949	2055.19
1004.243	2025.81
1004.538	2002.53
1004.832	2005.02
1005.127	1988.75
1005.421	1994.17
1005.715	1947.84
1006.009	1946.49
1006.304	1958.92
1006.598	1929.31
1006.892	1916.43
1007.186	1885.25
1007.48	1892.93
1007.773	1894.96
1008.067	1866.94
1008.361	1853.84
1008.655	1849.77
1008.948	1817.68
1009.242	1816.32
1009.535	1820.84
1009.829	1786.27
1010.122	1811.58
1010.415	1786.72
1010.708	1786.27
1011.001	1780.17
1011.295	1783.78
1011.588	1756.21
1011.881	1716.66
1012.173	1716.21
1012.466	1752.82
1012.759	1743.1
1013.052	1717.79
1013.344	1700.85
1013.637	1683.9
1013.93	1690.9
1014.222	1664.24
1014.514	1644.8
1014.807	1665.14
1015.099	1617.46
1015.391	1606.61
1015.683	1629.66
1015.976	1606.16
1016.268	1572.03
1016.56	1581.53
1016.851	1585.59
1017.143	1574.52
1017.435	1561.19
1017.727	1555.31
1018.018	1555.31
1018.31	1535.88
1018.602	1543.11
1018.893	1508.31
1019.185	1492.04
1019.476	1504.24
1019.767	1508.08
1020.058	1482.77
1020.35	1470.79
1020.641	1436.67
1020.932	1445.94
1021.223	1432.6
1021.514	1435.99
1021.804	1403.45
1022.095	1445.48
1022.386	1369.78
1022.677	1403.45
1022.967	1373.62
1023.258	1380.85
1023.548	1344.24
1023.839	1403.68
1024.129	1368.88
1024.419	1341.08
1024.709	1319.16
1025	1298.82
1025.29	1329.56
1025.58	1304.7
1025.87	1289.78
1026.16	1299.05
1026.449	1277.35
1026.739	1260.4
1027.029	1273.96
1027.319	1253.85
1027.608	1247.52
1027.898	1219.5
1028.187	1216.11
1028.477	1238.94
1028.766	1197.81
1029.055	1201.2
1029.344	1176.34
1029.634	1195.55
1029.923	1176.79
1030.212	1182.89
1030.501	1180.63
1030.79	1151.48
1031.078	1163.23
1031.367	1160.97
1031.656	1134.98
1031.945	1139.73
1032.233	1153.29
1032.522	1142.67
1032.81	1139.05
1033.099	1110.35
1033.387	1116
1033.675	1092.27
1033.963	1064.48
1034.251	1100.63
1034.54	1069
1034.828	1061.99
1035.116	1042.11
1035.403	1058.38
1035.691	1040.98
1035.979	1049.79
1036.267	1030.35
1036.554	1016.57
1036.842	1026.29
1037.129	996.46
1037.417	998.49
1037.704	981.77
1037.992	999.39
1038.279	999.17
1038.566	965.27
1038.853	965.27
1039.14	965.27
