Data from hue_24_FLMS001491_00034.txt Node
Date: Tue Feb 07 17:12:11 GMT 2017
User: dcchb
Spectrometer: FLMS00149
Trigger mode: 0
Integration Time (sec): 2.000000E-2
Scans to average: 10
Electric dark correction enabled: true
Nonlinearity correction enabled: false
Boxcar width: 0
XAxis mode: Wavelengths
Number of Pixels in Spectrum: 2048
>>>>>Begin Spectral Data<<<<<
341.393	1.37
341.776	1.37
342.16	1.37
342.543	-63.94
342.927	-51.96
343.31	-57.16
343.693	-81.34
344.077	-58.06
344.46	-65.97
344.843	-55.8
345.226	-48.8
345.61	-48.12
345.993	-26.88
346.376	-21.23
346.759	2.27
347.142	26.91
347.525	66.23
347.908	67.58
348.291	97.64
348.674	89.73
349.057	113.01
349.44	130.86
349.823	148.03
350.206	181.93
350.588	194.81
350.971	190.07
351.354	256.73
351.737	247.92
352.119	250.18
352.502	246.56
352.884	276.84
353.267	311.64
353.65	304.41
354.032	306.67
354.414	305.54
354.797	317.75
355.179	320.68
355.562	320.91
355.944	332.43
356.326	337.41
356.709	347.8
357.091	322.72
357.473	352.32
357.855	345.09
358.238	333.56
358.62	348.71
359.002	341.47
359.384	347.58
359.766	322.94
360.148	336.05
360.53	347.12
360.912	335.15
361.294	329.05
361.676	320.46
362.057	320.01
362.439	334.92
362.821	333.34
363.203	327.46
363.584	323.62
363.966	344.41
364.348	342.38
364.729	324.53
365.111	325.2
365.493	329.72
365.874	323.17
366.256	315.49
366.637	341.7
367.019	306.9
367.4	311.42
367.781	312.32
368.163	328.14
368.544	327.24
368.925	302.38
369.306	320.01
369.688	313
370.069	321.36
370.45	336.05
370.831	316.39
371.212	331.53
371.593	322.49
371.974	318.65
372.355	331.98
372.736	312.77
373.117	334.92
373.498	314.81
373.879	317.75
374.26	329.05
374.641	327.92
375.021	336.5
375.402	346.22
375.783	333.11
376.163	343.06
376.544	324.53
376.925	349.84
377.305	338.99
377.686	343.06
378.066	324.75
378.447	329.5
378.827	345.54
379.208	334.69
379.588	324.75
379.968	347.12
380.349	341.25
380.729	334.92
381.109	360.46
381.489	343.51
381.87	361.13
382.25	361.59
382.63	357.52
383.01	334.92
383.39	366.78
383.77	381.92
384.15	350.97
384.53	352.77
384.91	365.65
385.29	343.96
385.67	371.53
386.049	357.52
386.429	374.92
386.809	348.48
387.189	366.33
387.568	366.56
387.948	363.62
388.328	374.47
388.707	378.99
389.087	359.55
389.466	370.85
389.846	358.87
390.225	368.37
390.605	381.25
390.984	368.82
391.363	378.31
391.743	379.44
392.122	379.21
392.501	377.18
392.881	389.16
393.26	385.09
393.639	388.93
394.018	403.39
394.397	392.77
394.776	376.28
395.155	385.99
395.534	393.9
395.913	384.41
396.292	399.78
396.671	406.78
397.05	398.87
397.429	420.79
397.808	398.2
398.186	407.01
398.565	402.04
398.944	412.66
399.323	398.65
399.701	410.85
400.08	404.07
400.458	420.34
400.837	422.38
401.215	395.71
401.594	437.06
401.972	428.48
402.351	423.28
402.729	426.67
403.107	430.74
403.486	432.77
403.864	435.48
404.242	437.06
404.62	430.06
404.999	433.22
405.377	456.5
405.755	429.61
406.133	444.75
406.511	425.77
406.889	450.85
407.267	452.88
407.645	444.07
408.023	457.63
408.401	462.83
408.779	455.6
409.156	456.27
409.534	476.16
409.912	478.19
410.29	448.14
410.667	479.55
411.045	481.81
411.422	493.56
411.8	497.63
412.178	484.75
412.555	495.82
412.933	484.97
413.31	505.31
413.687	515.71
414.065	508.48
414.442	506.89
414.819	503.96
415.197	522.94
415.574	505.31
415.951	518.19
416.328	509.38
416.705	536.05
417.082	539.89
417.46	517.97
417.837	519.1
418.214	544.63
418.591	535.14
418.967	535.82
419.344	525.65
419.721	555.71
420.098	535.59
420.475	556.16
420.852	562.71
421.228	552.77
421.605	551.64
421.982	588.02
422.358	582.6
422.735	564.75
423.111	593.44
423.488	574.46
423.864	564.75
424.241	586.44
424.617	613.33
424.994	583.95
425.37	592.09
425.746	605.2
426.123	583.28
426.499	590.06
426.875	603.39
427.251	595.25
427.627	592.54
428.003	626.21
428.379	628.02
428.756	637.06
429.132	631.18
429.507	638.64
429.883	654.46
430.259	656.27
430.635	675.7
431.011	653.56
431.387	675.25
431.763	696.04
432.138	688.36
432.514	702.14
432.89	706.44
433.265	698.07
433.641	710.73
434.016	706.89
434.392	727.9
434.767	742.37
435.143	752.99
435.518	747.34
435.894	739.66
436.269	754.12
436.644	774.91
437.02	767.68
437.395	750.28
437.77	784.4
438.145	761.8
438.52	785.76
438.895	783.72
439.271	787.79
439.646	817.62
440.021	809.48
440.395	820.78
440.77	811.52
441.145	820.78
441.52	842.7
441.895	837.96
442.27	832.08
442.645	855.58
443.019	849.26
443.394	833.44
443.769	875.47
444.143	867.79
444.518	864.85
444.892	865.53
445.267	857.39
445.641	874.34
446.016	867.79
446.39	877.73
446.764	895.13
447.139	886.09
447.513	912.76
447.887	892.42
448.262	931.52
448.636	911.63
449.01	925.41
449.384	950.95
449.758	944.85
450.132	949.82
450.506	944.62
450.88	964.28
451.254	965.86
451.628	968.58
452.002	984.4
452.376	995.24
452.75	984.62
453.123	997.95
453.497	1005.64
453.871	1020.1
454.244	1014.22
454.618	1051.29
454.992	1077.95
455.365	1061
455.739	1084.51
456.112	1066.2
456.486	1092.64
456.859	1118.4
457.232	1113.21
457.606	1132.19
457.979	1146.42
458.352	1148.91
458.725	1155.24
459.099	1164.28
459.472	1192.98
459.845	1222.13
460.218	1190.27
460.591	1231.62
460.964	1225.52
461.337	1240.66
461.71	1265.97
462.083	1273.43
462.456	1294.44
462.829	1311.62
463.201	1308
463.574	1306.87
463.947	1362.01
464.32	1364.5
464.692	1378.06
465.065	1375.8
465.438	1378.06
465.81	1398.17
466.183	1448.11
466.555	1475.23
466.928	1504.61
467.3	1478.62
467.672	1481.78
468.045	1512.74
468.417	1527.43
468.789	1539.18
469.161	1561.33
469.534	1600.2
469.906	1622.12
470.278	1640.2
470.65	1637.94
471.022	1698.95
471.394	1709.12
471.766	1707.77
472.138	1744.83
472.51	1773.98
472.882	1800.42
473.253	1829.8
473.625	1902.34
473.997	1909.79
474.369	1943.92
474.74	1941.66
475.112	1994.76
475.484	2009.23
475.855	2046.29
476.227	2057.81
476.598	2149.11
476.97	2151.82
477.341	2159.28
477.713	2225.04
478.084	2235.66
478.455	2334.19
478.827	2338.26
479.198	2418.03
479.569	2415.09
479.94	2456.22
480.311	2518.59
480.682	2559.72
481.053	2634.52
481.424	2672.03
481.795	2682.43
482.166	2774.18
482.537	2798.36
482.908	2857.34
483.279	2920.62
483.65	2929.88
484.021	2993.61
484.391	3020.27
484.762	3074.96
485.133	3139.14
485.503	3196.09
485.874	3286.26
486.244	3288.29
486.615	3341.85
486.985	3402.64
487.356	3502.07
487.726	3541.62
488.097	3622.52
488.467	3625.46
488.837	3703.87
489.207	3787.26
489.578	3843.75
489.948	3829.29
490.318	3942.51
490.688	3996.52
491.058	4026.57
491.428	4066.35
491.798	4127.36
492.168	4149.28
492.538	4253.24
492.908	4255.27
493.278	4335.72
493.648	4362.84
494.017	4418.2
494.387	4497.07
494.757	4492.33
495.126	4578.2
495.496	4543.62
495.866	4608.71
496.235	4682.6
496.605	4722.15
496.974	4761.92
497.344	4806.44
497.713	4843.73
498.082	4883.73
498.452	4925.31
498.821	4979.77
499.19	4985.87
499.559	5038.53
499.928	5096.6
500.298	5134.12
500.667	5153.1
501.036	5165.98
501.405	5229.48
501.774	5222.7
502.143	5317.16
502.512	5328.69
502.88	5398.52
503.249	5367.56
503.618	5352.19
503.987	5414.79
504.356	5457.95
504.724	5444.39
505.093	5556.03
505.462	5591.28
505.83	5569.13
506.199	5650.26
506.567	5664.5
506.936	5673.09
507.304	5783.36
507.672	5759.18
508.041	5819.3
508.409	5872.4
508.777	5849.13
509.145	5940.87
509.514	5905.85
509.882	5965.96
510.25	5973.42
510.618	5917.82
510.986	6020.19
511.354	6046.18
511.722	6107.88
512.09	6159.85
512.458	6156.69
512.826	6179.74
513.193	6183.58
513.561	6233.52
513.929	6295.89
514.297	6325.05
514.664	6332.5
515.032	6388.09
515.4	6419.51
515.767	6429.45
516.135	6486.4
516.502	6436.91
516.869	6585.6
517.237	6508.32
517.604	6468.09
517.972	6574.98
518.339	6619.05
518.706	6630.57
519.073	6728.88
519.44	6730.68
519.808	6735.88
520.175	6769.1
520.542	6801.87
520.909	6883.9
521.276	6828.08
521.643	6900.17
522.009	6881.64
522.376	7019.04
522.743	7053.84
523.11	7072.82
523.477	7155.08
523.843	7176.55
524.21	7225.36
524.577	7233.04
524.943	7296.32
525.31	7256.55
525.676	7340.84
526.043	7437.78
526.409	7394.17
526.776	7534.51
527.142	7541.74
527.508	7506.26
527.874	7609.31
528.241	7663.54
528.607	7691.79
528.973	7802.52
529.339	7752.35
529.705	7778.57
530.071	7868.73
530.437	7937.21
530.803	7946.02
531.169	7974.49
531.535	7955.06
531.901	8062.4
532.267	8094.04
532.632	8098.56
532.998	8146.24
533.364	8186.47
533.73	8254.94
534.095	8255.62
534.461	8242.28
534.826	8384.2
535.192	8337.87
535.557	8440.02
535.923	8440.24
536.288	8460.13
536.653	8502.62
537.019	8529.73
537.384	8546.46
537.749	8597.75
538.114	8582.16
538.479	8624.42
538.845	8681.59
539.21	8750.52
539.575	8729.95
539.94	8816.28
540.305	8822.61
540.67	8842.49
541.034	8900.8
541.399	8917.97
541.764	8971.53
542.129	9028.03
542.494	9004.75
542.858	9104.86
543.223	9069.61
543.587	9133.11
543.952	9151.86
544.316	9153.45
544.681	9160.68
545.045	9281.58
545.41	9324.97
545.774	9350.95
546.138	9305.53
546.503	9375.81
546.867	9383.04
547.231	9547.11
547.595	9524.96
547.959	9516.15
548.324	9578.29
548.688	9574
549.052	9605.19
549.416	9733.54
549.779	9682.25
550.143	9659.65
550.507	9794.11
550.871	9805.41
551.235	9731.28
551.599	9883.6
551.962	9875.46
552.326	9849.02
552.689	9963.14
553.053	9858.29
553.417	9944.39
553.78	10006.53
554.143	9977.6
554.507	10137.37
554.87	10133.53
555.234	10216.47
555.597	10153.87
555.96	10147.32
556.323	10310.25
556.686	10211.95
557.05	10376.24
557.413	10345.28
557.776	10348.89
558.139	10397.71
558.502	10451.72
558.865	10549.12
559.228	10605.61
559.59	10610.81
559.953	10612.16
560.316	10701.88
560.679	10687.64
561.041	10754.53
561.404	10848.54
561.767	10856.68
562.129	10839.5
562.492	10991.82
562.854	10927.18
563.217	10930.12
563.579	10940.97
563.941	11025.94
564.304	11077.01
564.666	11154.75
565.028	11192.71
565.39	11278.59
565.753	11233.17
566.115	11241.07
566.477	11311.13
566.839	11396.32
567.201	11429.32
567.563	11390.9
567.925	11517.23
568.287	11521.52
568.648	11536.89
569.01	11646.26
569.372	11745.47
569.734	11631.35
570.095	11804
570.457	11774.17
570.819	11803.09
571.18	11842.64
571.542	11891.45
571.903	11935.29
572.265	12027.27
572.626	12094.16
572.987	12123.54
573.349	12138
573.71	12290.54
574.071	12296.19
574.432	12396.52
574.794	12495.96
575.155	12452.34
575.516	12540.02
575.877	12634.03
576.238	12680.81
576.599	12794.71
576.96	12844.65
577.32	12907.47
577.681	13051.87
578.042	13107.01
578.403	13200.8
578.763	13295.03
579.124	13422.71
579.485	13471.98
579.845	13618.87
580.206	13718.75
580.566	13800.56
580.927	13941.12
581.287	14031.74
581.648	14130.94
582.008	14374.33
582.368	14469.69
582.728	14681.44
583.089	14704.94
583.449	14883.92
583.809	15051.6
584.169	15292.95
584.529	15348.54
584.889	15690.9
585.249	15762.09
585.609	15976.54
585.969	16200.04
586.329	16409.98
586.688	16637.77
587.048	16727.94
587.408	17111.88
587.768	17264.87
588.127	17445.88
588.487	17786.21
588.846	18060.56
589.206	18224.39
589.565	18547.32
589.925	18801.1
590.284	19041.32
590.643	19368.09
591.003	19734.86
591.362	19993.39
591.721	20236.77
592.08	20471.34
592.44	20868.62
592.799	21033.81
593.158	21316.52
593.517	21609.16
593.876	22023.16
594.235	22207.57
594.593	22481.68
594.952	23016.81
595.311	23158.28
595.67	23383.58
596.029	23902.89
596.387	24303.1
596.746	24497.68
597.104	24687.05
597.463	25115.29
597.822	25428.72
598.18	25643.86
598.538	25979.44
598.897	26338.76
599.255	26397.29
599.613	27282.01
599.972	27169.24
600.33	27602.68
600.688	27727.87
601.046	28244.7
601.404	28549.55
601.762	28870.67
602.12	29262.3
602.478	29443.53
602.836	29683.98
603.194	30019.79
603.552	30223.63
603.91	30413.45
604.268	30796.94
604.625	31123.72
604.983	31458.17
605.341	31547.21
605.698	31921.89
606.056	32257.7
606.413	32377.92
606.771	32771.36
607.128	32973.16
607.485	33139.03
607.843	33399.14
608.2	33767.26
608.557	34027.82
608.914	34209.96
609.272	34535.6
609.629	34879.32
609.986	35150.95
610.343	35273.21
610.7	35646.76
611.057	35811.05
611.414	35960.65
611.771	36191.6
612.127	36502.33
612.484	36535.32
612.841	36901.42
613.198	36985.71
613.554	37144.8
613.911	37613.04
614.267	37728.74
614.624	37856.42
614.98	37927.6
615.337	38248.5
615.693	38453.24
616.05	38526.46
616.406	38891.42
616.762	38881.25
617.118	39019.55
617.475	39252.77
617.831	39546.09
618.187	39617.96
618.543	39685.75
618.899	39896.59
619.255	40060.88
619.611	40127.09
619.967	40486.86
620.323	40631.49
620.678	40591.26
621.034	40766.63
621.39	40850.69
621.746	40880.07
622.101	41533.84
622.457	41205.94
622.812	41375.65
623.168	41563.22
623.523	41565.7
623.879	41692.03
624.234	41661.52
624.589	41782.42
624.945	41867.39
625.3	42062.41
625.655	42112.81
626.01	42166.14
626.365	42262.41
626.72	42212.46
627.075	42321.16
627.43	42358.45
627.785	42392.12
628.14	42632.34
628.495	42627.59
628.85	42642.06
629.205	42599.12
629.559	42927.7
629.914	42687.93
630.269	42803.86
630.623	42816.29
630.978	42780.81
631.332	42933.12
631.687	42937.19
632.041	42927.47
632.396	43190.97
632.75	43080.92
633.104	43103.97
633.459	42970.18
633.813	43089.95
634.167	43058.99
634.521	43085.66
634.875	43204.75
635.229	43096.96
635.583	42848.83
635.937	43047.7
636.291	43104.64
636.645	43054.25
636.999	42973.57
637.352	43204.3
637.706	42994.82
638.06	43376.95
638.413	43093.8
638.767	43131.31
639.121	43145.55
639.474	43043.18
639.828	43078.88
640.181	43117.75
640.534	42990.97
640.888	42862.39
641.241	42814.93
641.594	43075.94
641.947	43146.68
642.301	43056.74
642.654	42940.81
643.007	42995.04
643.36	43007.24
643.713	42883.63
644.066	43051.99
644.419	42817.65
644.771	42539.91
645.124	42340.82
645.477	42334.49
645.83	42118.91
646.182	42014.05
646.535	41699.26
646.888	41978.12
647.24	41692.93
647.593	42017.44
647.945	41783.55
648.298	41708.07
648.65	41503.56
649.002	41423.56
649.355	41702.87
649.707	41581.75
650.059	41746.71
650.411	42327.94
650.763	42185.8
651.115	42681.15
651.467	42533.36
651.819	42709.4
652.171	42470.99
652.523	42366.58
652.875	42469.18
653.227	42396.64
653.578	42575.39
653.93	42562.51
654.282	42298.79
654.633	42278
654.985	42452.91
655.337	42334.72
655.688	42433.02
656.039	42575.84
656.391	42199.13
656.742	42320.94
657.094	42285.23
657.445	42470.76
657.796	42392.12
658.147	42209.07
658.498	42230.54
658.849	42269.86
659.2	42299.69
659.551	42099.02
659.902	42403.87
660.253	42143.99
660.604	42318.68
660.955	42126.59
661.306	42273.25
661.656	42270.32
662.007	42201.16
662.358	42119.13
662.708	42209.75
663.059	42230.09
663.409	42007.95
663.76	42160.71
664.11	42187.83
664.461	42149.87
664.811	42204.55
665.161	42369.07
665.511	42179.47
665.862	42109.42
666.212	42166.82
666.562	42280.71
666.912	42098.12
667.262	42004.79
667.612	42069.64
667.962	42198.9
668.312	42040.49
668.662	42201.62
669.011	42093.37
669.361	42003.43
669.711	42030.1
670.06	41972.7
670.41	41913.94
670.76	41881.4
671.109	42115.06
671.459	41880.72
671.808	41920.95
672.157	41894.51
672.507	41746.71
672.856	41835.75
673.205	41910.55
673.554	42068.29
673.904	41741.06
674.253	42200.94
674.602	41953.26
674.951	41318.02
675.3	41035.77
675.649	41791.01
675.998	41732.25
676.346	41857.9
676.695	41908.29
677.044	41682.53
677.393	41749.2
677.741	41717.34
678.09	41636.89
678.438	41477.34
678.787	41524.35
679.135	41520.5
679.484	41237.12
679.832	41315.99
680.181	41168.88
680.529	41337.91
680.877	41153.06
681.225	41178.37
681.573	41443.67
681.922	41110.57
682.27	41007.52
682.618	41061.53
682.966	40962.55
683.314	40964.81
683.661	40747.19
684.009	40598.72
684.357	40791.48
684.705	40769.11
685.053	40828.09
685.4	40653.18
685.748	40455.9
686.095	40537.93
686.443	40442.79
686.79	40244.61
687.138	40368.44
687.485	40415.67
687.832	40154.44
688.18	40323.02
688.527	40114.44
688.874	40023.37
689.221	40042.35
689.568	39731.4
689.915	39740.89
690.262	39849.14
690.609	39618.63
690.956	39520.56
691.303	39356.49
691.65	39352.65
691.997	39220.9
692.344	39071.76
692.69	39055.48
693.037	38964.87
693.383	38746.11
693.73	38909.27
694.077	38682.16
694.423	38551.09
694.769	38451.43
695.116	38441.94
695.462	38393.81
695.808	38186.35
696.155	38452.11
696.501	38036.53
696.847	38044.66
697.193	37818
697.539	37853.93
697.885	37762.86
698.231	37749.3
698.577	37585.69
698.923	37539.37
699.269	37358.35
699.614	37159.72
699.96	37209.88
700.306	37262.54
700.651	37086.72
700.997	36951.13
701.342	36867.97
701.688	36836.79
702.033	36774.87
702.379	36634.53
702.724	36575.55
703.069	36603.8
703.415	36201.32
703.76	36195.45
704.105	36182.79
704.45	36146.63
704.795	36016.24
705.14	35759.53
705.485	35808.11
705.83	35688.57
706.175	35803.59
706.52	35668.45
706.865	35614.44
707.209	35637.72
707.554	35312.53
707.899	35630.72
708.243	35252.19
708.588	35170.84
708.932	35062.14
709.277	34946.89
709.621	34982.6
709.966	34795.71
710.31	34853.33
710.654	34482.95
710.998	34582.83
711.342	34563.63
711.687	34589.61
712.031	34412.67
712.375	34148.95
712.719	34275.05
713.063	34088.61
713.407	34277.98
713.75	34093.35
714.094	34046.58
714.438	33972
714.782	33969.29
715.125	33768.39
715.469	33863.08
715.812	33662.86
716.156	33491.34
716.499	33481.17
716.843	33645.91
717.186	33254.51
717.53	33466.03
717.873	33496.99
718.216	33320.95
718.559	33238.91
718.902	33021.52
719.246	33138.58
719.589	33021.74
719.932	32820.17
720.275	32890.45
720.617	32822.65
720.96	32729.78
721.303	32748.98
721.646	32816.33
721.989	32553.73
722.331	32495.66
722.674	32465.38
723.016	32593.51
723.359	32476.45
723.701	32491.36
724.044	32327.3
724.386	32086.18
724.729	32409.56
725.071	32280.97
725.413	32139.51
725.755	32175.89
726.097	32059.06
726.439	31970.25
726.782	31937.48
727.124	31873.75
727.465	31797.37
727.807	31794.43
728.149	31635.11
728.491	31680.09
728.833	31685.96
729.175	31571.61
729.516	31629.24
729.858	31520.77
730.199	31550.15
730.541	31496.59
730.882	31387.89
731.224	31400.54
731.565	31299.53
731.906	31160.1
732.248	31185.18
732.589	31082.81
732.93	31047.33
733.271	31161.23
733.612	31120.1
733.953	30999.2
734.294	30928.69
734.635	30914.46
734.976	31026.32
735.317	30693.22
735.658	30791.97
735.999	30689.6
736.339	30674.01
736.68	30783.16
737.021	30676.95
737.361	30498.42
737.702	30713.56
738.042	30475.82
738.383	30468.37
738.723	30485.54
739.063	30297.97
739.404	30261.82
739.744	30337.97
740.084	30300.46
740.424	30314.02
740.764	30293.91
741.104	30228.6
741.444	30144.53
741.784	30030.64
742.124	30057.08
742.464	30168.26
742.804	29986.12
743.143	29806.24
743.483	29859.57
743.823	29763.07
744.162	29806.91
744.502	29864.09
744.841	29619.8
745.181	29723.98
745.52	29650.31
745.86	29652.79
746.199	29620.25
746.538	29603.08
746.877	29530.99
747.216	29672.23
747.556	29472.01
747.895	29441.27
748.234	29377.09
748.573	29223.2
748.911	29189.3
749.25	29312.46
749.589	29157.89
749.928	29202.18
750.267	29017.78
750.605	29093.94
750.944	29034.28
751.283	28976.2
751.621	29069.76
751.96	28905.92
752.298	28886.03
752.636	28846.94
752.975	28806.49
753.313	28623.89
753.651	28808.52
753.989	28660.73
754.327	28580.28
754.666	28369.44
755.004	28237.01
755.342	28504.8
755.679	28366.27
756.017	28318.14
756.355	28443.33
756.693	28225.26
757.031	28186.17
757.368	28155.43
757.706	27977.58
758.044	27847.64
758.381	27932.61
758.719	27879.06
759.056	27947.53
759.394	27743.47
759.731	27657.82
760.068	27547.76
760.405	27449.69
760.743	27389.12
761.08	27381.44
761.417	27354.55
761.754	27317.04
762.091	27203.59
762.428	27151.62
762.765	26948.46
763.102	27158.62
763.438	26903.04
763.775	26821
764.112	26799.76
764.449	26847.67
764.785	26701.68
765.122	26597.73
765.458	26363.61
765.795	26497.4
766.131	26329.72
766.467	26196.84
766.804	26114.36
767.14	26106.67
767.476	25940.8
767.812	25911.65
768.148	25878.88
768.485	25811.76
768.821	25647.93
769.157	25659.23
769.492	25497.87
769.828	25556.4
770.164	25280.48
770.5	25299.46
770.836	25227.83
771.171	24876.2
771.507	24989.64
771.842	24795.07
772.178	24788.06
772.513	24694.05
772.849	24609.99
773.184	24503.78
773.519	24538.58
773.855	24395.3
774.19	24281.64
774.525	24212.48
774.86	24309.21
775.195	24162.77
775.53	23968.2
775.865	23925.94
776.2	23751.03
776.535	23614.76
776.87	23501.54
777.205	23596.46
777.539	23453.86
777.874	23421.77
778.209	23268.1
778.543	23169.35
778.878	23018.39
779.212	23120.54
779.547	23017.26
779.881	23003.7
780.215	22815.91
780.55	22862.24
780.884	22626.76
781.218	22741.11
781.552	22585.86
781.886	22487.33
782.22	22358.97
782.554	22262.48
782.888	22260.45
783.222	21957.85
783.556	21937.52
783.889	21918.53
784.223	21766.67
784.557	21757.18
784.89	21794.7
785.224	21665.66
785.557	21508.38
785.891	21402.16
786.224	21500.24
786.558	21382.73
786.891	21304.09
787.224	21107.03
787.557	20939.12
787.891	21057.99
788.224	20995.17
788.557	20856.64
788.89	20937.09
789.223	20857.09
789.556	20733.71
789.888	20640.15
790.221	20535.07
790.554	20381.63
790.887	20417.56
791.219	20257.79
791.552	20245.81
791.884	20223.66
792.217	20139.15
792.549	20076.1
792.882	19926.04
793.214	19813.05
793.546	19908.64
793.879	19766.27
794.211	19622.1
794.543	19672.72
794.875	19595.66
795.207	19717.69
795.539	19453.74
795.871	19542.33
796.203	19308.21
796.535	19277.02
796.867	19226.18
797.198	19094.65
797.53	19124.71
797.862	19062.56
798.193	19057.37
798.525	18791.16
798.856	18911.38
799.188	18687.43
799.519	18636.13
799.85	18498.74
800.182	18599.07
800.513	18535.8
800.844	18416.48
801.175	18523.14
801.506	18372.64
801.837	18255.81
802.168	18252.87
802.499	18237.5
802.83	18108.24
803.161	18107.11
803.491	18098.52
803.822	18021.24
804.153	17890.39
804.483	17837.96
804.814	17714.35
805.145	17703.96
805.475	17657.63
805.805	17643.84
806.136	17677.97
806.466	17643.62
806.796	17574.69
807.126	17422.83
807.457	17372.89
807.787	17470.29
808.117	17342.83
808.447	17186
808.777	17272.33
809.107	17060.58
809.436	17132.22
809.766	17068.04
810.096	16931.77
810.426	16961.15
810.755	16959.79
811.085	16872.56
811.414	16853.58
811.744	16719.8
812.073	16766.58
812.403	16630.76
812.732	16611.1
813.061	16608.84
813.39	16460.37
813.719	16511.22
814.049	16523.87
814.378	16503.31
814.707	16388.28
815.036	16395.97
815.365	16342.64
815.693	16148.52
816.022	16213.37
816.351	16195.07
816.68	16111.23
817.008	16072.36
817.337	16017.67
817.665	15948.3
817.994	15989.88
818.322	15925.47
818.651	15949.88
818.979	15853.16
819.307	15888.18
819.636	15759.15
819.964	15706.95
820.292	15794.85
820.62	15717.11
820.948	15655.65
821.276	15616.78
821.604	15570.23
821.932	15694.52
822.259	15556.67
822.587	15653.16
822.915	15556.89
823.243	15619.04
823.57	15511.7
823.898	15570.9
824.225	15496.56
824.553	15621.07
824.88	15554.18
825.207	15632.37
825.535	15608.64
825.862	15603.45
826.189	15545.59
826.516	15585.82
826.843	15647.06
827.17	15582.66
827.497	15571.81
827.824	15658.36
828.151	15624.69
828.478	15588.3
828.805	15656.1
829.131	15590.56
829.458	15478.93
829.785	15487.74
830.111	15529.78
830.438	15581.53
830.764	15489.78
831.09	15598.25
831.417	15392.15
831.743	15514.18
832.069	15477.57
832.395	15488.65
832.722	15504.92
833.048	15412.49
833.374	15438.25
833.7	15332.27
834.026	15266.73
834.351	15443.22
834.677	15325.26
835.003	15402.55
835.329	15357.8
835.654	15318.26
835.98	15258.82
836.306	15261.76
836.631	15295.88
836.956	15289.78
837.282	15270.35
837.607	15207.3
837.932	15136.57
838.258	15199.39
838.583	15105.61
838.908	15069.45
839.233	15086.62
839.558	15060.18
839.883	14948.1
840.208	14894.54
840.533	14970.24
840.858	14920.3
841.182	14889.34
841.507	14910.36
841.832	14818.83
842.156	14778.16
842.481	14778.83
842.805	14694.99
843.13	14623.81
843.454	14691.38
843.778	14653.87
844.103	14591.04
844.427	14598.05
844.751	14506.75
845.075	14510.82
845.399	14457.49
845.723	14379.75
846.047	14418.84
846.371	14211.39
846.695	14259.3
847.019	14224.5
847.343	14182.69
847.666	14036.26
847.99	14036.93
848.313	13895.92
848.637	13889.59
848.96	13885.52
849.284	13828.35
849.607	13737.05
849.931	13652.99
850.254	13534.8
850.577	13540.22
850.9	13448.25
851.223	13442.15
851.546	13434.46
851.869	13236.05
852.192	13301.59
852.515	13238.54
852.838	13161.25
853.161	13137.97
853.483	13115.38
853.806	13018.65
854.129	13045.09
854.451	12970.29
854.774	12893.91
855.096	12848.49
855.419	12816.63
855.741	12818.89
856.063	12693.92
856.385	12676.52
856.708	12691.88
857.03	12566.69
857.352	12582.96
857.674	12555.84
857.996	12453.92
858.318	12439.01
858.64	12479.69
858.961	12414.38
859.283	12394.26
859.605	12330.76
859.926	12301.84
860.248	12304.32
860.57	12270.2
860.891	12214.16
861.212	12130.54
861.534	12127.15
861.855	12121.28
862.176	12126.25
862.498	12075.63
862.819	12090.09
863.14	12000.15
863.461	12045.35
863.782	11916.99
864.103	12047.83
864.424	11934.62
864.745	11892.13
865.065	11814.17
865.386	11768.97
865.707	11856.65
866.027	11823.66
866.348	11753.83
866.668	11795.64
866.989	11713.6
867.309	11629.09
867.63	11744.79
867.95	11728.97
868.27	11580.95
868.59	11580.95
868.91	11644.68
869.23	11611.69
869.55	11471.8
869.87	11643.1
870.19	11575.3
870.51	11487.17
870.83	11493.5
871.15	11473.84
871.469	11478.13
871.789	11539.6
872.109	11477.23
872.428	11406.95
872.748	11356.33
873.067	11336.67
873.386	11362.2
873.706	11425.7
874.025	11289.43
874.344	11275.65
874.663	11312.49
874.982	11285.14
875.301	11220.74
875.62	11197.23
875.939	11241.07
876.258	11167.63
876.577	11144.35
876.896	11126.28
877.214	11128.08
877.533	11129.21
877.852	11070.91
878.17	11027.29
878.489	11178.03
878.807	11021.65
879.125	10991.59
879.444	11007.41
879.762	10955.88
880.08	10990.01
880.398	10921.31
880.716	10895.77
881.034	10841.09
881.352	10932.38
881.67	10820.29
881.988	10813.06
882.306	10817.13
882.624	10821.88
882.941	10736.23
883.259	10724.48
883.577	10675.89
883.894	10682.22
884.212	10585.72
884.529	10659.85
884.846	10569.91
885.164	10648.32
885.481	10557.93
885.798	10529
886.115	10390.25
886.432	10472.73
886.75	10498.95
887.067	10436.58
887.383	10409.91
887.7	10404.26
888.017	10354.77
888.334	10444.26
888.651	10334.66
888.967	10306.64
889.284	10311.16
889.6	10280.2
889.917	10188.67
890.233	10188.67
890.55	10076.13
890.866	10143.7
891.182	10075.68
891.498	10089.92
891.815	9994.1
892.131	9922.24
892.447	10050.6
892.763	9955.23
893.079	9886.31
893.395	9830.49
893.71	9886.53
894.026	9819.64
894.342	9813.54
894.657	9695.8
894.973	9769.7
895.289	9734
895.604	9667.1
895.92	9576.49
896.235	9605.86
896.55	9643.83
896.865	9567.22
897.181	9466.43
897.496	9494.68
897.811	9451.29
898.126	9402.7
898.441	9386.21
898.756	9284.29
899.071	9247.45
899.386	9285.19
899.7	9296.04
900.015	9157.51
900.33	9136.95
900.644	9114.8
900.959	9129.04
901.273	9105.54
901.588	9050.62
901.902	9049.04
902.216	8977.41
902.531	8995.71
902.845	8944.19
903.159	8875.49
903.473	8820.35
903.787	8820.8
904.101	8816.73
904.415	8838.2
904.729	8753.46
905.042	8708.03
905.356	8732.89
905.67	8655.83
905.984	8642.27
906.297	8639.11
906.611	8591.43
906.924	8509.62
907.237	8473.46
907.551	8478.89
907.864	8433.24
908.177	8377.87
908.491	8385.33
908.804	8240.25
909.117	8230.08
909.43	8209.29
909.743	8189.63
910.056	8188.5
910.368	8165.68
910.681	8081.16
910.994	8055.85
911.307	8078.67
911.619	7984.44
911.932	7964.32
912.244	7885.91
912.557	7939.69
912.869	7828.73
913.181	7859.92
913.494	7822.86
913.806	7793.93
914.118	7744.22
914.43	7739.02
914.742	7721.39
915.054	7686.37
915.366	7656.76
915.678	7596.2
915.99	7600.72
916.302	7511.91
916.613	7452.47
916.925	7437.56
917.236	7441.4
917.548	7438.01
917.859	7403.89
918.171	7284.57
918.482	7334.51
918.794	7262.42
919.105	7267.39
919.416	7201.63
919.727	7248.64
920.038	7195.98
920.349	7089.77
920.66	7062.43
920.971	7073.27
921.282	7086.16
921.593	7028.3
921.903	6974.29
922.214	6948.53
922.525	6891.13
922.835	6888.65
923.146	6865.14
923.456	6883.45
923.767	6776.33
924.077	6740.18
924.387	6743.34
924.697	6742.21
925.008	6670.12
925.318	6666.96
925.628	6625.38
925.938	6583.8
926.248	6483.01
926.558	6510.35
926.867	6493.85
927.177	6531.14
927.487	6433.74
927.796	6404.59
928.106	6433.74
928.416	6384.71
928.725	6350.13
929.034	6288.89
929.344	6305.61
929.653	6299.28
929.962	6292.05
930.271	6221.77
930.581	6197.59
930.89	6164.6
931.199	6170.25
931.508	6164.6
931.817	6076.24
932.125	6054.54
932.434	6053.87
932.743	5962.8
933.051	5995.79
933.36	5982.46
933.669	5908.56
933.977	5887.99
934.286	5944.49
934.594	5872.63
934.902	5779.98
935.21	5796.7
935.519	5765.96
935.827	5739.3
936.135	5725.51
936.443	5708.56
936.751	5685.29
937.059	5647.55
937.367	5601.67
937.674	5640.54
937.982	5588.57
938.29	5605.29
938.597	5638.51
938.905	5485.97
939.213	5471.96
939.52	5397.84
939.827	5478.74
940.135	5427.22
940.442	5421.79
940.749	5370.04
941.056	5412.75
941.363	5307.22
941.67	5302.47
941.977	5250.05
942.284	5239.2
942.591	5255.47
942.898	5163.49
943.205	5225.64
943.511	5175.7
943.818	5164.85
944.125	5141.35
944.431	5127.11
944.738	5091.18
945.044	5019.09
945.35	5013.89
945.657	5017.74
945.963	4999.2
946.269	4961.01
946.575	4922.37
946.881	4924.18
947.187	4875.37
947.493	4891.41
947.799	4897.51
948.105	4824.52
948.41	4840.34
948.716	4819.77
949.022	4769.83
949.327	4732.55
949.633	4713.79
949.938	4724.86
950.244	4693.45
950.549	4664.3
950.854	4624.75
951.16	4632.89
951.465	4614.58
951.77	4632.43
952.075	4614.36
952.38	4543.85
952.685	4511.08
952.99	4548.6
953.294	4454.59
953.599	4452.33
953.904	4494.59
954.209	4440.8
954.513	4434.25
954.818	4379.33
955.122	4393.12
955.426	4334.36
955.731	4292.78
956.035	4308.38
956.339	4306.57
956.643	4325.55
956.948	4309.28
957.252	4248.26
957.556	4232.9
957.86	4164.42
958.163	4159
958.467	4175.72
958.771	4159
959.075	4171.43
959.378	4095.05
959.682	4107.7
959.985	4079.23
960.289	4061.83
960.592	4044.88
960.896	4039.91
961.199	3989.51
961.502	3966.46
961.805	3955.39
962.108	3941.15
962.411	3900.7
962.714	3891.66
963.017	3882.17
963.32	3898.89
963.623	3841.27
963.926	3878.33
964.228	3823.19
964.531	3817.99
964.833	3814.83
965.136	3786.36
965.438	3810.54
965.741	3786.36
966.043	3739.35
966.345	3731.67
966.648	3691.67
966.95	3705.45
967.252	3663.65
967.554	3677.21
967.856	3601.73
968.158	3604.21
968.46	3640.6
968.761	3612.12
969.063	3608.73
969.365	3580.03
969.666	3572.58
969.968	3511.33
970.269	3495.29
970.571	3536.87
970.872	3477.21
971.174	3458.68
971.475	3473.14
971.776	3422.97
972.077	3415.74
972.378	3406.48
972.679	3448.06
972.98	3368.29
973.281	3377.33
973.582	3377.1
973.883	3357.89
974.183	3335.97
974.484	3314.5
974.785	3318.12
975.085	3269.08
975.386	3284.45
975.686	3307.5
975.986	3236.09
976.287	3224.56
976.587	3215.07
976.887	3198.8
977.187	3213.04
977.487	3174.39
977.787	3161.51
978.087	3170.1
978.387	3100.5
978.687	3149.76
978.987	3087.62
979.286	3098.46
979.586	3051.23
979.885	3042.42
980.185	3058.01
980.484	3063.89
980.784	3006.26
981.083	3025.7
981.382	2994.29
981.682	2978.47
981.981	2932.59
982.28	2909.54
982.579	2952.7
982.878	2924.46
983.177	2880.62
983.475	2889.66
983.774	2888.3
984.073	2856.89
984.372	2834.97
984.67	2850.11
984.969	2814.18
985.267	2818.47
985.566	2762.65
985.864	2805.14
986.162	2794.06
986.461	2753.84
986.759	2778.92
987.057	2738.02
987.355	2759.72
987.653	2716.55
987.951	2719.04
988.249	2682.2
988.547	2689.21
988.844	2643.79
989.142	2677.91
989.44	2652.15
989.737	2658.93
990.035	2586.39
990.332	2591.13
990.63	2594.97
990.927	2604.24
991.224	2567.86
991.521	2545.26
991.819	2547.07
992.116	2525.82
992.413	2484.02
992.71	2505.71
993.006	2517.24
993.303	2509.33
993.6	2511.13
993.897	2468.65
994.193	2460.06
994.49	2418.48
994.787	2442.21
995.083	2412.83
995.379	2394.3
995.676	2383.45
995.972	2408.54
996.268	2383.45
996.565	2336
996.861	2338.94
997.157	2329.22
997.453	2313.4
997.749	2284.47
998.044	2295.55
998.34	2304.81
998.636	2297.35
998.932	2265.49
999.227	2205.83
999.523	2269.33
999.818	2231.82
1000.114	2212.39
1000.409	2198.6
1000.704	2183.91
1001	2187.98
1001.295	2180.52
1001.59	2174.19
1001.885	2146.62
1002.18	2124.25
1002.475	2126.74
1002.77	2105.27
1003.065	2136.91
1003.359	2083.58
1003.654	2101.2
1003.949	2076.34
1004.243	2053.97
1004.538	2028.66
1004.832	2024.37
1005.127	2021.43
1005.421	2023.24
1005.715	2002.22
1006.009	2033.41
1006.304	1977.14
1006.598	1947.76
1006.892	1974.88
1007.186	1947.99
1007.48	1940.3
1007.773	1943.47
1008.067	1917.03
1008.361	1898.95
1008.655	1881.32
1008.948	1874.32
1009.242	1877.7
1009.535	1867.08
1009.829	1874.99
1010.122	1841.32
1010.415	1853.07
1010.708	1831.6
1011.001	1814.43
1011.295	1790.25
1011.588	1812.4
1011.881	1787.99
1012.173	1784.37
1012.466	1769.69
1012.759	1722
1013.052	1750.7
1013.344	1728.56
1013.637	1725.84
1013.93	1701.89
1014.222	1715
1014.514	1681.1
1014.807	1680.2
1015.099	1658.5
1015.391	1689.69
1015.683	1657.37
1015.976	1650.82
1016.268	1636.81
1016.56	1597.49
1016.851	1595.9
1017.143	1606.3
1017.435	1603.81
1017.727	1591.84
1018.018	1572.63
1018.31	1574.44
1018.602	1528.56
1018.893	1549.58
1019.185	1537.6
1019.476	1514.78
1019.767	1518.17
1020.058	1474.55
1020.35	1531.73
1020.641	1482.01
1020.932	1474.78
1021.223	1502.35
1021.514	1435.91
1021.804	1415.57
1022.095	1434.33
1022.386	1409.69
1022.677	1408.79
1022.967	1401.33
1023.258	1411.73
1023.548	1398.62
1023.839	1384.84
1024.129	1402.92
1024.419	1369.7
1024.709	1369.92
1025	1364.05
1025.29	1335.12
1025.58	1316.82
1025.87	1341.22
1026.16	1319.53
1026.449	1272.52
1026.739	1305.97
1027.029	1292.18
1027.319	1284.73
1027.608	1304.84
1027.898	1293.54
1028.187	1223.94
1028.477	1255.8
1028.766	1234.78
1029.055	1218.06
1029.344	1209.47
1029.634	1227.33
1029.923	1206.54
1030.212	1190.72
1030.501	1183.03
1030.79	1201.79
1031.078	1168.8
1031.367	1155.24
1031.656	1166.76
1031.945	1157.72
1032.233	1153.66
1032.522	1133.77
1032.81	1145.75
1033.099	1139.42
1033.387	1092.64
1033.675	1082.47
1033.963	1111.17
1034.251	1091.51
1034.54	1068.23
1034.828	1083.6
1035.116	1062.59
1035.403	1064.39
1035.691	1054.22
1035.979	1060.1
1036.267	1037.05
1036.554	1040.66
1036.842	1033.21
1037.129	1006.32
1037.417	992.3
1037.704	1005.41
1037.992	1011.29
1038.279	1014.45
1038.566	983.27
1038.853	983.27
1039.14	983.27
