Data from hue_34_FLMS001491_00002.txt Node
Date: Tue Feb 07 17:25:07 GMT 2017
User: dcchb
Spectrometer: FLMS00149
Trigger mode: 0
Integration Time (sec): 2.000000E-2
Scans to average: 10
Electric dark correction enabled: true
Nonlinearity correction enabled: false
Boxcar width: 0
XAxis mode: Wavelengths
Number of Pixels in Spectrum: 2048
>>>>>Begin Spectral Data<<<<<
341.393	-4.94
341.776	-4.94
342.16	-4.94
342.543	-66.86
342.927	-70.03
343.31	-79.29
343.693	-75
344.077	-65.51
344.46	-51.72
344.843	-61.89
345.226	-50.14
345.61	-30.48
345.993	-26.41
346.376	-7.2
346.759	21.95
347.142	23.3
347.525	53.36
347.908	58.33
348.291	84.09
348.674	93.59
349.057	113.02
349.44	109.4
349.823	152.79
350.206	147.59
350.588	202.51
350.971	197.54
351.354	253.58
351.737	244.54
352.119	252.68
352.502	254.48
352.884	255.84
353.267	300.13
353.65	305.1
354.032	321.83
354.414	325.22
354.797	321.83
355.179	329.06
355.562	315.95
355.944	332.22
356.326	351.88
356.709	342.84
357.091	353.01
357.473	357.53
357.855	349.85
358.238	359.79
358.62	360.92
359.002	351.21
359.384	350.75
359.766	348.27
360.148	348.04
360.53	327.7
360.912	354.82
361.294	340.36
361.676	338.1
362.057	349.85
362.439	335.39
362.821	322.05
363.203	325.9
363.584	339.45
363.966	329.29
364.348	334.03
364.729	327.03
365.111	317.08
365.493	338.1
365.874	323.86
366.256	298.55
366.637	312.34
367.019	318.44
367.4	320.92
367.781	313.24
368.163	333.13
368.544	323.64
368.925	312.79
369.306	303.98
369.688	315.05
370.069	310.98
370.45	329.06
370.831	320.92
371.212	321.15
371.593	302.85
371.974	306.91
372.355	316.86
372.736	331.77
373.117	318.89
373.498	320.02
373.879	307.36
374.26	329.96
374.641	350.75
375.021	334.93
375.402	324.54
375.783	313.92
376.163	338.1
376.544	329.74
376.925	323.18
377.305	331.77
377.686	340.58
378.066	339.45
378.447	345.33
378.827	339.23
379.208	346.23
379.588	338.78
379.968	360.24
380.349	320.47
380.729	338.78
381.109	341.26
381.489	364.99
381.87	361.15
382.25	361.15
382.63	350.53
383.01	342.62
383.39	358.44
383.77	343.07
384.15	348.27
384.53	345.78
384.91	335.61
385.29	347.82
385.67	374.71
386.049	360.7
386.429	358.44
386.809	372.45
387.189	369.28
387.568	339.45
387.948	350.53
388.328	375.84
388.707	397.76
389.087	360.7
389.466	357.98
389.846	378.55
390.225	375.39
390.605	379.23
390.984	377.42
391.363	374.26
391.743	384.2
392.122	354.14
392.501	370.41
392.881	385.55
393.26	372.22
393.639	367.02
394.018	387.36
394.397	410.64
394.776	398.89
395.155	392.79
395.534	365.22
395.913	379.23
396.292	385.33
396.671	377.19
397.05	379.68
397.429	393.01
397.808	403.86
398.186	393.01
398.565	401.6
398.944	406.35
399.323	406.57
399.701	406.57
400.08	397.31
400.458	414.25
400.837	403.86
401.215	405.89
401.594	413.58
401.972	426.01
402.351	432.56
402.729	415.84
403.107	427.81
403.486	395.5
403.864	417.87
404.242	422.84
404.62	447.7
404.999	438.66
405.377	424.88
405.755	427.14
406.133	415.38
406.511	449.96
406.889	438.89
407.267	450.86
407.645	442.95
408.023	446.12
408.401	420.81
408.779	442.05
409.156	471.43
409.534	467.81
409.912	450.41
410.29	467.81
410.667	471.88
411.045	470.07
411.422	480.47
411.8	463.74
412.178	483.41
412.555	488.6
412.933	472.56
413.31	481.37
413.687	495.61
414.065	478.43
414.442	491.09
414.819	499.22
415.197	526.12
415.574	506.91
415.951	498.32
416.328	505.78
416.705	528.6
417.082	519.34
417.46	502.61
417.837	521.14
418.214	514.59
418.591	512.11
418.967	515.27
419.344	520.92
419.721	525.66
420.098	531.99
420.475	511.88
420.852	541.03
421.228	542.61
421.605	550.3
421.982	551.2
422.358	556.4
422.735	569.73
423.111	561.82
423.488	572.44
423.864	563.18
424.241	578.54
424.617	571.76
424.994	568.15
425.37	594.59
425.746	598.43
426.123	600.01
426.499	598.66
426.875	590.75
427.251	598.88
427.627	615.15
428.003	620.58
428.379	605.21
428.756	627.36
429.132	618.77
429.507	641.59
429.883	641.37
430.259	643.85
430.635	634.36
431.011	632.33
431.387	659.67
431.763	674.13
432.138	656.06
432.514	662.61
432.89	669.16
433.265	696.51
433.641	682.27
434.016	704.64
434.392	711.65
434.767	703.74
435.143	688.37
435.518	711.65
435.894	696.73
436.269	732.21
436.644	716.85
437.02	728.14
437.395	728.14
437.77	716.17
438.145	738.54
438.52	739.67
438.895	754.36
439.271	756.17
439.646	771.08
440.021	756.62
440.395	778.54
440.77	783.51
441.145	793.68
441.52	784.87
441.895	801.14
442.27	807.01
442.645	805.2
443.019	820.12
443.394	814.02
443.769	822.61
444.143	819.67
444.518	818.99
444.892	835.94
445.267	837.29
445.641	821.25
446.016	840.01
446.39	845.66
446.764	845.88
447.139	853.11
447.513	862.83
447.887	862.6
448.262	898.99
448.636	856.28
449.01	878.42
449.384	874.58
449.758	893.11
450.132	898.54
450.506	896.05
450.88	903.96
451.254	905.77
451.628	933.56
452.002	905.99
452.376	928.82
452.75	949.61
453.123	955.26
453.497	941.47
453.871	997.06
454.244	986.67
454.618	981.92
454.992	980.12
455.365	1011.53
455.739	1010.62
456.112	1030.96
456.486	1034.8
456.859	1048.36
457.232	1044.97
457.606	1062.6
457.979	1071.41
458.352	1082.26
458.725	1070.96
459.099	1085.65
459.472	1129.94
459.845	1137.63
460.218	1158.19
460.591	1159.77
460.964	1137.85
461.337	1171.97
461.71	1199.54
462.083	1218.98
462.456	1207
462.829	1222.37
463.201	1230.5
463.574	1247.45
463.947	1253.55
464.32	1291.97
464.692	1310.95
465.065	1296.49
465.438	1318.86
465.81	1334.91
466.183	1370.39
466.555	1386.43
466.928	1373.78
467.3	1418.52
467.672	1397.73
468.045	1436.6
468.417	1456.94
468.789	1475.7
469.161	1469.59
469.534	1508.92
469.906	1545.75
470.278	1563.6
470.65	1544.62
471.022	1641.34
471.394	1638.18
471.766	1664.39
472.138	1669.14
472.51	1708.01
472.882	1762.02
473.253	1772.64
473.625	1789.13
473.997	1841.79
474.369	1884.05
474.74	1899.41
475.112	1940.77
475.484	1955.46
475.855	1999.07
476.227	2039.75
476.598	2105.28
476.97	2134.89
477.341	2154.1
477.713	2222.79
478.084	2253.53
478.455	2333.07
478.827	2370.14
479.198	2441.32
479.569	2451.04
479.94	2526.97
480.311	2578.72
480.682	2663.69
481.053	2710.92
481.424	2794.08
481.795	2802.89
482.166	2896
482.537	2967.41
482.908	3032.26
483.279	3126.27
483.65	3131.25
484.021	3267.06
484.391	3289.89
484.762	3375.98
485.133	3432.93
485.503	3481.97
485.874	3577.79
486.244	3697.33
486.615	3765.8
486.985	3866.59
487.356	3899.36
487.726	3980.49
488.097	4044.22
488.467	4131.9
488.837	4246.47
489.207	4322.17
489.578	4438.56
489.948	4488.95
490.318	4562.39
490.688	4633.35
491.058	4718.32
491.428	4879.22
491.798	4937.53
492.168	5050.52
492.538	5113.11
492.908	5205.09
493.278	5289.83
493.648	5323.28
494.017	5464.07
494.387	5487.79
494.757	5589.94
495.126	5675.36
495.496	5724.62
495.866	5826.77
496.235	5911.29
496.605	6009.14
496.974	6091.39
497.344	6115.57
497.713	6222.01
498.082	6306.08
498.452	6430.82
498.821	6457.26
499.19	6492.29
499.559	6572.06
499.928	6645.73
500.298	6690.93
500.667	6763.92
501.036	6805.27
501.405	6899.06
501.774	6904.25
502.143	7027.64
502.512	7080.97
502.88	7165.49
503.249	7133.63
503.618	7300.18
503.987	7333.17
504.356	7396.9
504.724	7484.35
505.093	7559.38
505.462	7565.03
505.83	7720.05
506.199	7724.57
506.567	7788.98
506.936	7818.35
507.304	7923.89
507.672	8031.68
508.041	8008.41
508.409	8067.84
508.777	8196.2
509.145	8205.91
509.514	8279.81
509.882	8308.28
510.25	8369.53
510.618	8413.14
510.986	8530.88
511.354	8534.27
511.722	8600.93
512.09	8676.86
512.458	8743.08
512.826	8768.84
513.193	8835.28
513.561	8836.41
513.929	8946.91
514.297	9003.86
514.664	9136.74
515.032	9103.74
515.4	9144.19
515.767	9199.79
516.135	9233.01
516.502	9188.71
516.869	9367.92
517.237	9411.31
517.604	9421.7
517.972	9462.83
518.339	9594.8
518.706	9534.24
519.073	9638.42
519.44	9626.67
519.808	9788.47
520.175	9702.37
520.542	9896.72
520.909	9935.81
521.276	9915.02
521.643	10086.77
522.009	10072.08
522.376	10178.74
522.743	10197.05
523.11	10336.48
523.477	10377.83
523.843	10422.58
524.21	10549.36
524.577	10565.4
524.943	10681.78
525.31	10657.6
525.676	10806.75
526.043	10842.23
526.409	10869.8
526.776	10963.36
527.142	10947.31
527.508	11057.59
527.874	11147.53
528.241	11188.21
528.607	11246.06
528.973	11331.71
529.339	11353.63
529.705	11455.77
530.071	11520.86
530.437	11577.35
530.803	11622.32
531.169	11752.94
531.535	11633.39
531.901	11738.48
532.267	11783.22
532.632	11938.7
532.998	11905.48
533.364	12005.81
533.73	12002.42
534.095	12134.4
534.461	12241.29
534.826	12231.8
535.192	12267.05
535.557	12318.57
535.923	12360.16
536.288	12439.48
536.653	12564.67
537.019	12514.28
537.384	12541.17
537.749	12664.1
538.114	12748.85
538.479	12700.71
538.845	12789.97
539.21	12798.11
539.575	12872.46
539.94	12917.2
540.305	12959.24
540.67	12923.76
541.034	13038.56
541.399	13128.95
541.764	13152.22
542.129	13246.01
542.494	13247.14
542.858	13339.11
543.223	13335.95
543.587	13467.24
543.952	13426.12
544.316	13424.53
544.681	13511.76
545.045	13553.57
545.41	13634.47
545.774	13689.61
546.138	13727.58
546.503	13822.94
546.867	13800.57
547.231	13965.31
547.595	14025.42
547.959	14005.76
548.324	14045.99
548.688	14052.77
549.052	14145.87
549.416	14080.79
549.779	14266.55
550.143	14261.8
550.507	14315.81
550.871	14295.47
551.235	14432.64
551.599	14486.43
551.962	14525.07
552.326	14556.48
552.689	14591.96
553.053	14504.96
553.417	14651.62
553.78	14805.74
554.143	14751.73
554.507	14901.78
554.87	14928.68
555.234	14975.45
555.597	14895
555.96	15044.6
556.323	15040.31
556.686	14989.69
557.05	15215.45
557.413	15252.51
557.776	15220.87
558.139	15295.22
558.502	15439.17
558.865	15375.44
559.228	15536.34
559.59	15597.58
559.953	15560.75
560.316	15716.23
560.679	15753.06
561.041	15866.05
561.404	15886.39
561.767	16033.05
562.129	15953.51
562.492	16099.72
562.854	16072.37
563.217	16094.07
563.579	16211.13
563.941	16158.93
564.304	16196.89
564.666	16376.77
565.028	16416.77
565.39	16503.32
565.753	16530.89
566.115	16492.48
566.477	16684.34
566.839	16654.96
567.201	16892.47
567.563	16954.84
567.925	17022.41
568.287	17013.37
568.648	17093.82
569.01	17164.55
569.372	17221.04
569.734	17211.1
570.095	17276.64
570.457	17471.66
570.819	17441.83
571.18	17532.22
571.542	17559.57
571.903	17684.76
572.265	17735.83
572.626	17715.49
572.987	17847.02
573.349	17912.33
573.71	17950.29
574.071	18080.23
574.432	18271.86
574.794	18444.06
575.155	18379.21
575.516	18298.08
575.877	18574.46
576.238	18750.5
576.599	18844.05
576.96	18926.76
577.32	19042.92
577.681	19168.11
578.042	19340.99
578.403	19387.32
578.763	19553.19
579.124	19621.43
579.485	19793.18
579.845	20037.69
580.206	19961.31
580.566	20101.19
580.927	20358.36
581.287	20521.75
581.648	20595.42
582.008	20905.24
582.368	21027.05
582.728	21174.39
583.089	21385
583.449	21531.67
583.809	21662.06
584.169	21853.24
584.529	22052.78
584.889	22456.61
585.249	22417.97
585.609	22669.26
585.969	23038.74
586.329	23131.17
586.688	23348.11
587.048	23639.41
587.408	23795.56
587.768	24035.1
588.127	24264.7
588.487	24406.39
588.846	24977.22
589.206	24850.45
589.565	25181.51
589.925	25625.57
590.284	25734.49
590.643	25913.02
591.003	26158.21
591.362	26575.37
591.721	26689.95
592.08	26992.31
592.44	27287.45
592.799	27569.02
593.158	27810.6
593.517	27999.74
593.876	28209.46
594.235	28473.4
594.593	28598.15
594.952	29084.01
595.311	29209.66
595.67	29466.37
596.029	29848.51
596.387	30048.73
596.746	30344.77
597.104	30562.84
597.463	30694.36
597.822	31005.99
598.18	31233.56
598.538	31307
598.897	31900.43
599.255	31798.74
599.613	32519.85
599.972	32440.98
600.33	32739.28
600.688	32783.35
601.046	33226.5
601.404	33486.61
601.762	33438.25
602.12	33843.88
602.478	34102.63
602.836	34283.42
603.194	34261.27
603.552	34559.57
603.91	34749.62
604.268	35068.71
604.625	35150.52
604.983	35349.83
605.341	35383.28
605.698	35735.59
606.056	35957.95
606.413	35998.4
606.771	36478.17
607.128	36660.08
607.485	36505.06
607.843	36751.15
608.2	36997.47
608.557	37292.61
608.914	37330.57
609.272	37678.81
609.629	37793.84
609.986	38018.46
610.343	37983.21
610.7	38414.84
611.057	38338.23
611.414	38606.02
611.771	38652.35
612.127	38882.85
612.484	39125.1
612.841	39258.21
613.198	39261.37
613.554	39350.18
613.911	39586.56
614.267	39864.29
614.624	39812.77
614.98	40004.63
615.337	40299.53
615.693	40250.27
616.05	40223.83
616.406	40664.5
616.762	40649.81
617.118	40562.8
617.475	40821.1
617.831	40882.57
618.187	41059.97
618.543	40980.65
618.899	41307.19
619.255	41339.96
619.611	41425.15
619.967	41631.48
620.323	41728.42
620.678	41679.61
621.034	41818.36
621.39	41769.78
621.746	41774.52
622.101	42238.92
622.457	42029.43
622.812	42188.3
623.168	42260.61
623.523	42275.07
623.879	42532.7
624.234	42240.5
624.589	42448.63
624.945	42494.73
625.3	42731.33
625.655	42572.92
626.01	42741.5
626.365	42903.31
626.72	42775.17
627.075	42873.7
627.43	42842.07
627.785	42769.75
628.14	43042.74
628.495	42882.52
628.85	42931.55
629.205	43012
629.559	43121.61
629.914	42979.92
630.269	43064.43
630.623	42930.2
630.978	42934.49
631.332	43184.2
631.687	43272.11
632.041	43116.86
632.396	43117.09
632.75	43085.9
633.104	43221.49
633.459	42998.67
633.813	43056.07
634.167	43060.36
634.521	43038.67
634.875	43012.91
635.229	43085.22
635.583	42910.99
635.937	42991.89
636.291	42986.24
636.645	43039.8
636.999	42943.98
637.352	43216.07
637.706	42777.21
638.06	43188.95
638.413	43042.74
638.767	42903.53
639.121	42940.37
639.474	42816.3
639.828	42872.8
640.181	42844.78
640.534	42766.81
640.888	42755.29
641.241	42721.62
641.594	42722.52
641.947	42877.32
642.301	42724.55
642.654	42649.53
643.007	42731.11
643.36	42644.56
643.713	42473.71
644.066	42817.43
644.419	42398.01
644.771	42244.79
645.124	41914.18
645.477	41926.61
645.83	41723.22
646.182	41532.72
646.535	41346.06
646.888	41477.81
647.24	41263.12
647.593	41668.09
647.945	41409.79
648.298	41191.49
648.65	41249.11
649.002	41172.96
649.355	41365.72
649.707	41190.81
650.059	41516
650.411	42005.03
650.763	41971.58
651.115	42264.68
651.467	42112.37
651.819	42130.45
652.171	42172.25
652.523	42017.68
652.875	42079.6
653.227	41828.08
653.578	42069.88
653.93	41993.05
654.282	41873.96
654.633	41724.58
654.985	41890.68
655.337	41819.72
655.688	41845.48
656.039	42051.58
656.391	41726.39
656.742	41846.61
657.094	41787.63
657.445	41926.16
657.796	41810.91
658.147	41868.53
658.498	41761.42
658.849	41921.41
659.2	41901.07
659.551	41673.28
659.902	41678.25
660.253	41786.73
660.604	41816.1
660.955	41621.31
661.306	41778.59
661.656	41732.49
662.007	41753.28
662.358	41668.09
662.708	41567.52
663.059	41687.52
663.409	41367.3
663.76	41670.35
664.11	41616.79
664.461	41693.62
664.811	41753.96
665.161	41768.42
665.511	41579.5
665.862	41671.7
666.212	41669.67
666.562	41689.55
666.912	41542.89
667.262	41556.9
667.612	41526.62
667.962	41530.69
668.312	41605.71
668.662	41701.53
669.011	41623.34
669.361	41490.01
669.711	41433.52
670.06	41403.91
670.41	41308.32
670.76	41329.79
671.109	41423.35
671.459	41359.62
671.808	41291.82
672.157	41611.14
672.507	41185.84
672.856	41307.64
673.205	41252.95
673.554	41461.99
673.904	41193.3
674.253	41563.91
674.602	41465.15
674.951	40834.43
675.3	40533.88
675.649	41289.34
675.998	41077.82
676.346	41311.03
676.695	41278.04
677.044	40887.54
677.393	41039.85
677.741	41143.13
678.09	40974.32
678.438	40913.53
678.787	41005.05
679.135	41052.73
679.484	40659.75
679.832	40885.05
680.181	40510.38
680.529	40789.46
680.877	40694.78
681.225	40645.29
681.573	40832.4
681.922	40567.55
682.27	40514.67
682.618	40648.45
682.966	40396.71
683.314	40519.19
683.661	40348.57
684.009	40216.15
684.357	40017.96
684.705	40068.13
685.053	40069.03
685.4	40085.98
685.748	39975.93
686.095	39876.27
686.443	39742.49
686.79	39701.81
687.138	39828.36
687.485	39735.71
687.832	39662.26
688.18	39584.98
688.527	39402.83
688.874	39351.99
689.221	39236.06
689.568	39268.37
689.915	39155.61
690.262	39197.64
690.609	39162.84
690.956	38969.85
691.303	38965.56
691.65	38672.68
691.997	38715.85
692.344	38387.04
692.69	38424.55
693.037	38339.59
693.383	38245.35
693.73	38418.23
694.077	38102.08
694.423	38036.32
694.769	37991.35
695.116	37840.39
695.462	37783.67
695.808	37657.57
696.155	37764.68
696.501	37366.5
696.847	37481.08
697.193	37362.44
697.539	37417.12
697.885	37170.12
698.231	37195.21
698.577	37152.5
698.923	37144.59
699.269	36834.09
699.614	36708.22
699.96	36780.98
700.306	36593.42
700.651	36413.31
700.997	36358.62
701.342	36153.65
701.688	36188.23
702.033	36117.72
702.379	36082.92
702.724	36043.83
703.069	35913.21
703.415	35588.92
703.76	35641.8
704.105	35648.36
704.45	35569.04
704.795	35350.51
705.14	35421.02
705.485	35311.19
705.83	35184.64
706.175	35177.63
706.52	35089.5
706.865	35047.69
707.209	34980.35
707.554	34820.13
707.899	34973.35
708.243	34695.84
708.588	34645.67
708.932	34443.42
709.277	34416.3
709.621	34396.41
709.966	34155.29
710.31	34394.83
710.654	33921.17
710.998	34105.35
711.342	34078.91
711.687	33867.16
712.031	33731.57
712.375	33592.14
712.719	33798.46
713.063	33640.05
713.407	33639.37
713.75	33433.95
714.094	33595.76
714.438	33378.59
714.782	33393.73
715.125	33245.71
715.469	33212.94
715.812	33118.03
716.156	32886.85
716.499	33039.84
716.843	32925.04
717.186	32780.86
717.53	33037.58
717.873	32897.02
718.216	32833.74
718.559	32668.77
718.902	32444.82
719.246	32577.02
719.589	32469.23
719.932	32367.99
720.275	32321.89
720.617	32307.65
720.96	32329.35
721.303	32243.93
721.646	32199.86
721.989	32046.64
722.331	32156.02
722.674	32026.08
723.016	32011.16
723.359	31934.1
723.701	31949.02
724.044	31706.77
724.386	31615.02
724.729	31794.67
725.071	31728.91
725.413	31579.76
725.755	31641.23
726.097	31510.16
726.439	31434.91
726.782	31411.18
727.124	31581.34
727.465	31353.33
727.807	31329.6
728.149	31130.74
728.491	31128.48
728.833	31187.68
729.175	31072.88
729.516	31166.89
729.858	31058.42
730.199	31020.46
730.541	30927.35
730.882	30878.76
731.224	30907.46
731.565	30783.63
731.906	30782.5
732.248	30789.05
732.589	30527.14
732.93	30528.49
733.271	30497.98
733.612	30517.64
733.953	30506.12
734.294	30420.92
734.635	30456.85
734.976	30450.08
735.317	30176.64
735.658	30293.02
735.999	30222.28
736.339	30139.8
736.68	30272.68
737.021	30029.52
737.361	29994.72
737.702	30161.04
738.042	30133.93
738.383	29895.51
738.723	29893.48
739.063	29786.36
739.404	29826.59
739.744	29700.94
740.084	29634.28
740.424	29747.49
740.764	29606.48
741.104	29729.87
741.444	29508.18
741.784	29472.93
742.124	29509.08
742.464	29449.2
742.804	29513.6
743.143	29418.69
743.483	29374.62
743.823	29221.18
744.162	29190.67
744.502	29344.57
744.841	29193.84
745.181	29295.98
745.52	29084.01
745.86	29156.55
746.199	29182.09
746.538	29062.77
746.877	29018.7
747.216	29029.32
747.556	28945.48
747.895	28866.61
748.234	28745.04
748.573	28805.37
748.911	28707.3
749.25	28719.5
749.589	28559.5
749.928	28634.53
750.267	28754.07
750.605	28498.26
750.944	28494.65
751.283	28463.91
751.621	28485.38
751.96	28230.92
752.298	28115.22
752.636	28179.63
752.975	28129.23
753.313	28119.74
753.651	28124.94
753.989	28065.73
754.327	27926.53
754.666	27832.52
755.004	27840.43
755.342	27871.16
755.679	27860.09
756.017	27731.28
756.355	27740.09
756.693	27685.4
757.031	27608.34
757.368	27393.21
757.706	27524.5
758.044	27372.64
758.381	27342.36
758.719	27250.39
759.056	27274.11
759.394	27100.56
759.731	27050.39
760.068	26965.42
760.405	26788.93
760.743	26859.89
761.08	26861.24
761.417	26663.06
761.754	26614.7
762.091	26519.1
762.428	26503.06
762.765	26434.81
763.102	26309.39
763.438	26204.76
763.775	26114.6
764.112	26171.77
764.449	26062.62
764.785	26041.15
765.122	25817.65
765.458	25751.44
765.795	25796.64
766.131	25663.31
766.467	25524.78
766.804	25457.44
767.14	25304.45
767.476	25295.18
767.812	25303.54
768.148	25229.87
768.485	25113.27
768.821	25047.73
769.157	25006.15
769.492	24914.18
769.828	24821.97
770.164	24573.85
770.5	24562.09
770.836	24660.17
771.171	24432.61
771.507	24357.13
771.842	24112.16
772.178	24227.41
772.513	24176.79
772.849	24015.89
773.184	24041.43
773.519	23928.21
773.855	23827.88
774.19	23705.39
774.525	23612.06
774.86	23589.92
775.195	23504.27
775.53	23432.63
775.865	23358.28
776.2	23300.66
776.535	23066.54
776.87	22966.88
777.205	22980.44
777.539	22810.5
777.874	22811.63
778.209	22631.3
778.543	22667.68
778.878	22527.12
779.212	22543.84
779.547	22416.16
779.881	22396.73
780.215	22186.11
780.55	22313.79
780.884	22020.69
781.218	22138.66
781.552	22081.48
781.886	21953.12
782.22	21852.79
782.554	21772.11
782.888	21609.4
783.222	21448.73
783.556	21388.17
783.889	21354.04
784.223	21265.01
784.557	21194.27
784.89	21159.92
785.224	21010.78
785.557	20977.78
785.891	20985.69
786.224	20821.4
786.558	20859.82
786.891	20546.61
787.224	20588.19
787.557	20539.38
787.891	20566.49
788.224	20446.5
788.557	20404.46
788.89	20330.34
789.223	20391.58
789.556	20218.93
789.888	20026.39
790.221	20127.63
790.554	19812.39
790.887	19832.95
791.219	19775.78
791.552	19799.51
791.884	19639.74
792.217	19702.34
792.549	19520.64
792.882	19411.04
793.214	19315.9
793.546	19275.45
793.879	19241.1
794.211	19098.51
794.543	19143.03
794.875	19035.46
795.207	19074.33
795.539	18953.43
795.871	18971.05
796.203	18761.79
796.535	18718.41
796.867	18600.44
797.198	18631.18
797.53	18634.57
797.862	18588.24
798.193	18461.46
798.525	18336.95
798.856	18397.96
799.188	18263.28
799.519	18172.88
799.85	18118.87
800.182	18130.62
800.513	18029.84
800.844	17923.4
801.175	18041.14
801.506	17951.19
801.837	17869.84
802.168	17727.92
802.499	17724.08
802.83	17748.94
803.161	17645.44
803.491	17542.39
803.822	17512.79
804.153	17485.22
804.483	17362.28
804.814	17315.05
805.145	17340.59
805.475	17343.08
805.805	17141.5
806.136	17172.01
806.466	17102.18
806.796	17208.62
807.126	16962.52
807.457	17024.89
807.787	16948.51
808.117	16847.27
808.447	16852.47
808.777	16846.14
809.107	16683.21
809.436	16693.37
809.766	16697.67
810.096	16594.17
810.426	16571.57
810.755	16622.42
811.085	16411.57
811.414	16391.24
811.744	16293.61
812.073	16266.49
812.403	16272.59
812.732	16168.42
813.061	16151.92
813.39	16109.44
813.719	16024.01
814.049	16151.69
814.378	16059.04
814.707	15940.85
815.036	15957.35
815.365	15870.35
815.693	15773.85
816.022	15740.41
816.351	15780.86
816.68	15702.21
817.008	15650.92
817.337	15517.36
817.665	15495.89
817.994	15556
818.322	15504.71
818.651	15441.88
818.979	15387.87
819.307	15450.92
819.636	15378.38
819.964	15304.94
820.292	15429.45
820.62	15355.56
820.948	15172.28
821.276	15272.62
821.604	15158.73
821.932	15186.97
822.259	15268.33
822.587	15199.85
822.915	15146.97
823.243	15189.23
823.57	15117.37
823.898	15117.6
824.225	15063.14
824.553	15136.35
824.88	15180.42
825.207	15135.45
825.535	15232.17
825.862	15147.43
826.189	15128.22
826.516	15237.14
826.843	15250.93
827.17	15177.26
827.497	15219.74
827.824	15168.22
828.151	15212.06
828.478	15170.7
828.805	15208.89
829.131	15151.04
829.458	15160.53
829.785	15045.51
830.111	15163.7
830.438	15254.32
830.764	15066.52
831.09	15070.82
831.417	15017.94
831.743	15156.69
832.069	15168.44
832.395	14984.04
832.722	15068.11
833.048	15073.53
833.374	14984.04
833.7	14958.73
834.026	14985.4
834.351	15024.04
834.677	14962.12
835.003	14997.15
835.329	14965.06
835.654	14865.4
835.98	14891.84
836.306	14891.39
836.631	14883.03
836.956	14836.93
837.282	14757.61
837.607	14775.91
837.932	14732.97
838.258	14731.62
838.583	14688.46
838.908	14615.01
839.233	14662.69
839.558	14681.68
839.883	14543.37
840.208	14582.24
840.533	14514
840.858	14552.41
841.182	14479.65
841.507	14492.98
841.832	14363.27
842.156	14381.12
842.481	14297.28
842.805	14301.57
843.13	14327.34
843.454	14202.14
843.778	14250.05
844.103	14257.51
844.427	14109.49
844.751	14171.86
845.075	14199.43
845.399	14062.26
845.723	13979.1
846.047	14033.11
846.371	13924.86
846.695	13884.86
847.019	13770.74
847.343	13672.89
847.666	13677.41
847.99	13641.25
848.313	13627.24
848.637	13500.01
848.96	13472.89
849.284	13484.87
849.607	13349.73
849.931	13358.1
850.254	13168.04
850.577	13129.4
850.9	13100.7
851.223	13152
851.546	13058.22
851.869	12941.16
852.192	13021.83
852.515	12879.92
852.838	12795.4
853.161	12837.2
853.483	12729.19
853.806	12738.9
854.129	12649.41
854.451	12617.32
854.774	12519.93
855.096	12431.11
855.419	12446.71
855.741	12405.35
856.063	12382.3
856.385	12353.6
856.708	12297.78
857.03	12316.09
857.352	12246.03
857.674	12218.69
857.996	12238.58
858.318	12116.55
858.64	12094.4
858.961	12175.53
859.283	12032.25
859.605	11998.13
859.926	11978.7
860.248	11958.81
860.57	11881.07
860.891	11908.42
861.212	11856.67
861.534	11877
861.855	11823.22
862.176	11763.33
862.498	11801.53
862.819	11808.31
863.14	11674.3
863.461	11721.3
863.782	11701.42
864.103	11698.93
864.424	11624.58
864.745	11644.02
865.065	11636.56
865.386	11559.72
865.707	11620.06
866.027	11454.87
866.348	11556.11
866.668	11541.42
866.989	11489.22
867.309	11378.03
867.63	11388.66
867.95	11455.77
868.27	11301.88
868.59	11372.84
868.91	11337.36
869.23	11321.54
869.55	11223.69
869.87	11320.41
870.19	11195.67
870.51	11306.17
870.83	11317.02
871.15	11140.75
871.469	11129.68
871.789	11238.15
872.109	11204.71
872.428	11044.03
872.748	11127.87
873.067	11029.34
873.386	11081.32
873.706	11079.51
874.025	10975.11
874.344	10938.5
874.663	11018.04
874.982	10885.17
875.301	10909.8
875.62	10898.27
875.939	10874.32
876.258	10975.78
876.577	10782.12
876.896	10845.17
877.214	10793.64
877.533	10773.76
877.852	10843.36
878.17	10818.05
878.489	10768.78
878.807	10731.27
879.125	10766.07
879.444	10763.81
879.762	10747.32
880.08	10631.16
880.398	10619.18
880.716	10695.34
881.034	10605.85
881.352	10599.52
881.67	10594.55
881.988	10570.6
882.306	10556.36
882.624	10486.98
882.941	10397.04
883.259	10451.28
883.577	10440.43
883.894	10412.18
884.212	10394.78
884.529	10357.95
884.846	10370.83
885.164	10319.76
885.481	10291.74
885.798	10289.93
886.115	10181.91
886.432	10241.11
886.75	10107.56
887.067	10221.45
887.383	10126.77
887.7	10161.57
888.017	10068.92
888.334	10083.6
888.651	10024.17
888.967	10088.35
889.284	9985.98
889.6	9903.5
889.917	9875.02
890.233	9906.43
890.55	9837.96
890.866	9753.67
891.182	9815.82
891.498	9783.05
891.815	9709.38
892.131	9754.35
892.447	9761.35
892.763	9674.8
893.079	9673.9
893.395	9602.04
893.71	9557.97
894.026	9576.05
894.342	9550.96
894.657	9459.44
894.973	9487.91
895.289	9402.49
895.604	9465.54
895.92	9348.48
896.235	9323.17
896.55	9323.17
896.865	9284.3
897.181	9291.54
897.496	9279.78
897.811	9194.59
898.126	9146.23
898.441	9141.26
898.756	9134.7
899.071	9117.08
899.386	9043.41
899.7	8933.35
900.015	8990.98
900.33	8864.65
900.644	8879.12
900.959	8917.08
901.273	8871.21
901.588	8877.08
901.902	8766.8
902.216	8745.79
902.531	8707.82
902.845	8701.95
903.159	8635.06
903.473	8558.45
903.787	8599.12
904.101	8544.44
904.415	8595.51
904.729	8474.61
905.042	8446.13
905.356	8397.77
905.67	8447.04
905.984	8409.07
906.297	8380.15
906.611	8331.33
906.924	8303.09
907.237	8337.66
907.551	8176.08
907.864	8178.57
908.177	8139.7
908.491	8143.32
908.804	8077.33
909.117	8065.58
909.43	8029.42
909.743	7976.54
910.056	7987.61
910.368	7949.88
910.681	7932.25
910.994	7833.72
911.307	7830.33
911.619	7811.12
911.932	7820.61
912.244	7718.47
912.557	7740.84
912.869	7655.42
913.181	7664.91
913.494	7604.35
913.806	7568.42
914.118	7543.78
914.43	7519.15
914.742	7553.05
915.054	7426.27
915.366	7465.82
915.678	7405.94
915.99	7373.39
916.302	7351.25
916.613	7293.85
916.925	7301.76
917.236	7291.59
917.548	7190.35
917.859	7199.61
918.171	7170.24
918.482	7126.17
918.794	7061.99
919.105	7112.84
919.416	6991.26
919.727	6994.87
920.038	6982.22
920.349	6919.17
920.66	6888.21
920.971	6878.49
921.282	6886.85
921.593	6856.35
921.903	6786.29
922.214	6756.01
922.525	6683.47
922.835	6718.5
923.146	6645.5
923.456	6640.31
923.767	6600.31
924.077	6585.62
924.387	6557.6
924.697	6515.11
925.008	6512.17
925.318	6478.05
925.628	6483.7
925.938	6409.8
926.248	6372.52
926.558	6349.01
926.867	6306.76
927.177	6287.09
927.487	6287.32
927.796	6287.55
928.106	6230.15
928.416	6215.23
928.725	6202.35
929.034	6109.92
929.344	6152.41
929.653	6123.26
929.962	6052.07
930.271	6088.68
930.581	6024.5
930.89	5953.54
931.199	6019.76
931.508	5944.5
931.817	5954.9
932.125	5872.42
932.434	5900.66
932.743	5848.69
933.051	5831.51
933.36	5794.68
933.669	5740.44
933.977	5760.33
934.286	5753.78
934.594	5742.02
934.902	5643.27
935.21	5647.11
935.519	5633.1
935.827	5589.03
936.135	5593.1
936.443	5518.08
936.751	5531.63
937.059	5532.54
937.367	5468.13
937.674	5472.88
937.982	5491.18
938.29	5354.01
938.597	5386.55
938.905	5307.91
939.213	5287.57
939.52	5303.84
939.827	5342.94
940.135	5326.67
940.442	5239.89
940.749	5221.36
941.056	5260.23
941.363	5176.62
941.67	5142.49
941.977	5166.9
942.284	5093.23
942.591	5089.61
942.898	5086.22
943.205	5069.5
943.511	5018.2
943.818	5014.13
944.125	5053.23
944.431	4979.78
944.738	4975.04
945.044	4951.54
945.35	4892.55
945.657	4855.27
945.963	4883.06
946.269	4841.93
946.575	4864.31
946.881	4775.72
947.187	4777.98
947.493	4766.91
947.799	4713.12
948.105	4695.95
948.41	4669.96
948.716	4711.54
949.022	4676.29
949.327	4683.75
949.633	4601.26
949.938	4621.6
950.244	4654.37
950.549	4566.91
950.854	4502.96
951.16	4448.72
951.465	4482.4
951.77	4544.54
952.075	4439.69
952.38	4407.6
952.685	4449.4
952.99	4395.84
953.294	4393.13
953.599	4362.17
953.904	4326.92
954.209	4339.12
954.513	4317.88
954.818	4256.87
955.122	4291.67
955.426	4294.83
955.731	4202.18
956.035	4212.12
956.339	4171.67
956.643	4184.33
956.948	4186.58
957.252	4118.79
957.556	4128.06
957.86	4106.13
958.163	4108.39
958.467	4086.7
958.771	4054.16
959.075	4068.85
959.378	3984.33
959.682	3991.34
959.985	4014.84
960.289	3947.04
960.592	3978
960.896	3921.96
961.199	3910.43
961.502	3897.33
961.805	3902.3
962.108	3820.49
962.411	3844.45
962.714	3836.31
963.017	3843.32
963.32	3848.74
963.623	3804.45
963.926	3768.52
964.228	3762.42
964.531	3738.69
964.833	3715.18
965.136	3651.23
965.438	3677.67
965.741	3701.4
966.043	3647.16
966.345	3628.41
966.648	3626.37
966.95	3602.87
967.252	3592.02
967.554	3576.21
967.856	3566.49
968.158	3540.95
968.46	3537.34
968.761	3524.46
969.063	3469.77
969.365	3471.58
969.666	3447.4
969.968	3422.54
970.269	3442.42
970.571	3443.33
970.872	3406.04
971.174	3390
971.475	3361.3
971.776	3361.75
972.077	3317.91
972.378	3319.94
972.679	3325.14
972.98	3274.07
973.281	3268.64
973.582	3271.35
973.883	3279.72
974.183	3293.5
974.484	3223.67
974.785	3240.62
975.085	3210.79
975.386	3205.82
975.686	3210.11
975.986	3159.49
976.287	3121.08
976.587	3151.36
976.887	3117.01
977.187	3096.9
977.487	3119.72
977.787	3034.98
978.087	3024.36
978.387	3054.41
978.687	3032.94
978.987	3051.93
979.286	2993.4
979.586	3021.42
979.885	2963.79
980.185	2933.28
980.484	2958.37
980.784	2945.04
981.083	2940.29
981.382	2919.95
981.682	2912.04
981.981	2888.31
982.28	2871.59
982.579	2846.73
982.878	2871.14
983.177	2855.09
983.475	2823.46
983.774	2827.75
984.073	2782.78
984.372	2807.41
984.67	2808.77
984.969	2757.24
985.267	2748.2
985.566	2747.07
985.864	2742.1
986.162	2715.21
986.461	2719.96
986.759	2713.63
987.057	2629.34
987.355	2674.99
987.653	2640.64
987.951	2629.56
988.249	2642.22
988.547	2646.29
988.844	2582.56
989.142	2553.86
989.44	2602.9
989.737	2557.48
990.035	2527.19
990.332	2529.23
990.63	2558.15
990.927	2517.7
991.224	2517.48
991.521	2505.95
991.819	2514.76
992.116	2459.4
992.413	2496.01
992.71	2424.37
993.006	2423.02
993.303	2416.69
993.6	2408.55
993.897	2404.26
994.193	2383.02
994.49	2396.58
994.787	2392.96
995.083	2335.56
995.379	2358.38
995.676	2356.35
995.972	2348.44
996.268	2333.75
996.565	2319.97
996.861	2305.96
997.157	2261.89
997.453	2278.39
997.749	2268.9
998.044	2220.31
998.34	2249.23
998.636	2216.24
998.932	2215.11
999.227	2215.56
999.523	2202.23
999.818	2198.16
1000.114	2164.49
1000.409	2120.88
1000.704	2143.47
1001	2122.68
1001.295	2133.76
1001.59	2126.53
1001.885	2102.35
1002.18	2107.09
1002.475	2073.87
1002.77	2086.98
1003.065	2033.2
1003.359	2037.49
1003.654	2032.07
1003.949	2022.57
1004.243	2013.99
1004.538	2018.05
1004.832	1997.94
1005.127	1968.56
1005.421	1983.93
1005.715	1972.63
1006.009	1960.2
1006.304	1935.57
1006.598	1953.88
1006.892	1899.64
1007.186	1874.33
1007.48	1891.73
1007.773	1903.03
1008.067	1895.35
1008.361	1866.65
1008.655	1849.92
1008.948	1828
1009.242	1856.25
1009.535	1812.64
1009.829	1818.51
1010.122	1800.43
1010.415	1780.55
1010.708	1785.74
1011.001	1759.98
1011.295	1780.09
1011.588	1757.5
1011.881	1742.58
1012.173	1751.85
1012.466	1768.34
1012.759	1721.11
1013.052	1719.53
1013.344	1669.14
1013.637	1677.05
1013.93	1674.33
1014.222	1669.81
1014.514	1662.13
1014.807	1654.9
1015.099	1642.24
1015.391	1619.42
1015.683	1606.77
1015.976	1617.39
1016.268	1595.47
1016.56	1589.82
1016.851	1591.85
1017.143	1583.04
1017.435	1544.17
1017.727	1582.81
1018.018	1552.76
1018.31	1531.97
1018.602	1523.38
1018.893	1515.02
1019.185	1503.49
1019.476	1506.2
1019.767	1513.43
1020.058	1475.92
1020.35	1454.91
1020.641	1470.05
1020.932	1445.87
1021.223	1419.65
1021.514	1415.13
1021.804	1399.54
1022.095	1381.46
1022.386	1408.8
1022.677	1387.11
1022.967	1361.12
1023.258	1356.6
1023.548	1364.29
1023.839	1377.62
1024.129	1363.16
1024.419	1344.17
1024.709	1322.03
1025	1336.72
1025.29	1321.35
1025.58	1286.32
1025.87	1285.42
1026.16	1292.42
1026.449	1258.75
1026.739	1261.24
1027.029	1268.24
1027.319	1223.72
1027.608	1261.46
1027.898	1234.57
1028.187	1233.22
1028.477	1234.12
1028.766	1230.28
1029.055	1197.51
1029.344	1197.74
1029.634	1192.54
1029.923	1169.49
1030.212	1183.95
1030.501	1192.99
1030.79	1150.96
1031.078	1174.69
1031.367	1116.16
1031.656	1163.16
1031.945	1131.3
1032.233	1124.74
1032.522	1124.07
1032.81	1140.34
1033.099	1099.89
1033.387	1075.03
1033.675	1101.24
1033.963	1079.1
1034.251	1071.86
1034.54	1050.85
1034.828	1062.83
1035.116	1054.69
1035.403	1070.73
1035.691	1029.38
1035.979	1052.43
1036.267	1028.25
1036.554	1010.4
1036.842	1025.09
1037.129	1021.47
1037.417	984.64
1037.704	998.87
1037.992	985.31
1038.279	974.92
1038.566	986.67
1038.853	986.67
1039.14	986.67
