Data from hue_20_FLMS001491_60.txt Node
Date: Mon Feb 06 15:34:20 GMT 2017
User: dcchb
Spectrometer: FLMS00149
Trigger mode: 0
Integration Time (sec): 2.000000E-2
Scans to average: 10
Electric dark correction enabled: true
Nonlinearity correction enabled: false
Boxcar width: 0
XAxis mode: Wavelengths
Number of Pixels in Spectrum: 2048
>>>>>Begin Spectral Data<<<<<
341.393	-0.62
341.776	-0.62
342.16	-0.62
342.543	-65.48
342.927	-71.81
343.31	-61.41
343.693	-84.69
344.077	-49.89
344.46	-41.98
344.843	-44.91
345.226	-52.15
345.61	-22.99
345.993	-49.43
346.376	-14.63
346.759	15.88
347.142	39.38
347.525	41.64
347.908	52.48
348.291	58.81
348.674	99.94
349.057	113.95
349.44	124.35
349.823	153.95
350.206	171.35
350.588	194.63
350.971	221.75
351.354	241.41
351.737	224.68
352.119	257.45
352.502	254.29
352.884	304.23
353.267	303.33
353.65	300.61
354.032	291.12
354.414	309.2
354.797	306.04
355.179	328.18
355.562	335.64
355.944	327.51
356.326	333.16
356.709	348.07
357.091	322.76
357.473	342.19
357.855	330.9
358.238	347.39
358.62	341.74
359.002	337
359.384	329.09
359.766	330.9
360.148	373.15
360.53	360.27
360.912	340.61
361.294	340.84
361.676	342.87
362.057	329.77
362.439	332.7
362.821	332.25
363.203	346.26
363.584	312.36
363.966	322.99
364.348	331.12
364.729	325.02
365.111	332.93
365.493	334.74
365.874	336.77
366.256	323.21
366.637	311.23
367.019	324.57
367.4	301.74
367.781	330.22
368.163	329.99
368.544	321.4
368.925	323.66
369.306	328.41
369.688	338.8
370.069	308.52
370.45	335.87
370.831	321.4
371.212	336.09
371.593	315.3
371.974	338.13
372.355	313.49
372.736	345.58
373.117	320.5
373.498	310.56
373.879	327.73
374.26	322.31
374.641	322.99
375.021	325.02
375.402	331.35
375.783	315.75
376.163	341.29
376.544	347.62
376.925	330.67
377.305	332.48
377.686	314.4
378.066	354.62
378.447	345.13
378.827	343.32
379.208	343.78
379.588	340.39
379.968	326.6
380.349	317.34
380.729	349.43
381.109	340.84
381.489	357.56
381.87	347.84
382.25	358.24
382.63	357.56
383.01	338.8
383.39	344.45
383.77	364.79
384.15	354.85
384.53	349.43
384.91	353.49
385.29	370.22
385.67	360.95
386.049	364.11
386.429	345.36
386.809	381.06
387.189	361.18
387.568	362.98
387.948	368.18
388.328	370.67
388.707	386.26
389.087	379.71
389.466	366.37
389.846	363.89
390.225	367.28
390.605	370.44
390.984	378.8
391.363	369.76
391.743	370.44
392.122	373.38
392.501	393.94
392.881	384.23
393.26	392.81
393.639	401.4
394.018	369.99
394.397	393.04
394.776	386.49
395.155	410.67
395.534	392.59
395.913	386.04
396.292	407.5
396.671	401.4
397.05	416.99
397.429	404.79
397.808	399.37
398.186	404.79
398.565	416.09
398.944	422.19
399.323	425.36
399.701	416.99
400.08	430.78
400.458	401.4
400.837	416.09
401.215	412.02
401.594	414.96
401.972	436.88
402.351	415.64
402.729	437.79
403.107	435.3
403.486	430.33
403.864	438.46
404.242	422.19
404.62	429.42
404.999	456.32
405.377	442.3
405.755	448.86
406.133	442.3
406.511	449.76
406.889	437.56
407.267	450.44
407.645	449.99
408.023	475.98
408.401	456.54
408.779	462.42
409.156	454.73
409.534	430.1
409.912	447.05
410.29	465.13
410.667	471.91
411.045	476.2
411.422	481.17
411.8	498.8
412.178	498.35
412.555	481.4
412.933	541.06
413.31	492.47
413.687	478.46
414.065	508.52
414.442	516.65
414.819	508.74
415.197	527.5
415.574	516.2
415.951	516.88
416.328	510.78
416.705	534.05
417.082	509.65
417.46	534.73
417.837	540.38
418.214	526.14
418.591	509.87
418.967	535.86
419.344	562.53
419.721	545.8
420.098	528.18
420.475	545.13
420.852	568.4
421.228	544
421.605	546.93
421.982	566.6
422.358	570.89
422.735	566.6
423.111	579.93
423.488	595.75
423.864	584.9
424.241	586.71
424.617	609.31
424.994	604.11
425.37	600.72
425.746	592.58
426.123	614.28
426.499	610.89
426.875	617.89
427.251	621.06
427.627	633.49
428.003	636.2
428.379	649.53
428.756	637.1
429.132	635.97
429.507	654.95
429.883	654.5
430.259	629.64
430.635	656.54
431.011	661.51
431.387	689.98
431.763	682.98
432.138	691.79
432.514	700.15
432.89	686.59
433.265	711.22
433.641	718.68
434.016	736.31
434.392	733.37
434.767	710.77
435.143	723.2
435.518	730.43
435.894	744.9
436.269	751
436.644	756.65
437.02	775.18
437.395	758.68
437.77	780.15
438.145	776.31
438.52	787.38
438.895	781.28
439.271	787.15
439.646	805.23
440.021	810.66
440.395	811.33
440.77	800.26
441.145	819.02
441.52	842.97
441.895	851.56
442.27	864.67
442.645	856.98
443.019	836.42
443.394	838.9
443.769	855.4
444.143	860.82
444.518	860.37
444.892	864.67
445.267	851.56
445.641	882.29
446.016	919.81
446.39	885.23
446.764	880.26
447.139	892.46
447.513	888.17
447.887	907.38
448.262	915.74
448.636	906.93
449.01	917.55
449.384	920.48
449.758	932.91
450.132	926.36
450.506	937.88
450.88	962.74
451.254	949.86
451.628	953.7
452.002	979.24
452.376	965.45
452.75	980.14
453.123	968.39
453.497	983.31
453.871	1024.89
454.244	1035.06
454.618	1019.01
454.992	1076.41
455.365	1057.43
455.739	1057.43
456.112	1046.81
456.486	1072.8
456.859	1092.23
457.232	1094.94
457.606	1110.31
457.979	1153.7
458.352	1145.11
458.725	1153.7
459.099	1162.06
459.472	1171.1
459.845	1182.4
460.218	1169.52
460.591	1211.1
460.964	1212.45
461.337	1203.19
461.71	1230.53
462.083	1260.14
462.456	1254.49
462.829	1302.62
463.201	1287.71
463.574	1287.03
463.947	1317.99
464.32	1349.85
464.692	1342.39
465.065	1359.57
465.438	1382.84
465.81	1420.58
466.183	1405.67
466.555	1448.61
466.928	1428.27
467.3	1463.75
467.672	1473.69
468.045	1518.43
468.417	1523.86
468.789	1513.01
469.161	1536.51
469.534	1576.74
469.906	1556.17
470.278	1582.16
470.65	1613.35
471.022	1657.19
471.394	1682.72
471.766	1673.23
472.138	1694.93
472.51	1748.03
472.882	1770.63
473.253	1800.24
473.625	1811.08
473.997	1865.32
474.369	1857.18
474.74	1894.47
475.112	1929.05
475.484	1960.46
475.855	1986.67
476.227	2012.43
476.598	2036.16
476.97	2061.92
477.341	2082.26
477.713	2157.29
478.084	2137.63
478.455	2230.96
478.827	2239.09
479.198	2317.96
479.569	2300.33
479.94	2420.56
480.311	2398.41
480.682	2458.52
481.053	2512.76
481.424	2556.83
481.795	2584.17
482.166	2645.64
482.537	2648.57
482.908	2753.66
483.279	2768.8
483.65	2842.24
484.021	2883.14
484.391	2887.44
484.762	2981.45
485.133	2957.04
485.503	3048.79
485.874	3094.21
486.244	3138.28
486.615	3216.7
486.985	3199.07
487.356	3299.4
487.726	3313.64
488.097	3399.52
488.467	3416.01
488.837	3490.13
489.207	3540.75
489.578	3597.02
489.948	3585.5
490.318	3712.05
490.688	3742.78
491.058	3769.45
491.428	3796.34
491.798	3851.48
492.168	3931.03
492.538	3944.59
492.908	4013.96
493.278	4013.74
493.648	4030.23
494.017	4148.42
494.387	4181.19
494.757	4208.53
495.126	4267.51
495.496	4264.13
495.866	4307.97
496.235	4364.46
496.605	4394.52
496.974	4434.06
497.344	4440.39
497.713	4473.84
498.082	4472.26
498.452	4573.5
498.821	4622.99
499.19	4643.55
499.559	4683.55
499.928	4677.67
500.298	4759.48
500.667	4798.12
501.036	4775.3
501.405	4836.54
501.774	4839.48
502.143	4854.39
502.512	4931.68
502.88	4979.59
503.249	4971.45
503.618	5022.52
503.987	5007.83
504.356	5033.37
504.724	5125.57
505.093	5101.39
505.462	5132.58
505.83	5189.3
506.199	5191.11
506.567	5241.73
506.936	5253.25
507.304	5274.95
507.672	5381.84
508.041	5307.04
508.409	5410.76
508.777	5395.39
509.145	5433.59
509.514	5424.32
509.882	5492.12
510.25	5541.15
510.618	5595.62
510.986	5563.3
511.354	5611.66
511.722	5645.11
512.09	5709.06
512.458	5681.72
512.826	5743.63
513.193	5782.05
513.561	5773.69
513.929	5816.85
514.297	5859.56
514.664	5842.39
515.032	5909.73
515.4	5902.5
515.767	5917.64
516.135	5950.63
516.502	5965.78
516.869	6110.63
517.237	6100.24
517.604	6018.43
517.972	6111.53
518.339	6158.09
518.706	6124.19
519.073	6140.69
519.44	6215.94
519.808	6301.59
520.175	6242.83
520.542	6362.83
520.909	6376.39
521.276	6385.2
521.643	6428.14
522.009	6504.74
522.376	6500.45
522.743	6545.42
523.11	6567.79
523.477	6630.39
523.843	6661.8
524.21	6713.78
524.577	6749.26
524.943	6775.02
525.31	6827
525.676	6924.39
526.043	6882.14
526.409	6904.28
526.776	6984.28
527.142	7008.91
527.508	7027.22
527.874	7082.13
528.241	7128.91
528.607	7097.27
528.973	7148.57
529.339	7187.21
529.705	7295.46
530.071	7296.14
530.437	7344.04
530.803	7317.15
531.169	7415.23
531.535	7364.61
531.901	7455
532.267	7457.49
532.632	7546.52
532.998	7546.75
533.364	7651.15
533.73	7685.05
534.095	7760.3
534.461	7716.92
534.826	7844.14
535.192	7824.26
535.557	7903.13
535.923	7846.4
536.288	7925.5
536.653	7948.32
537.019	7882.79
537.384	7970.47
537.749	8100.41
538.114	8004.59
538.479	8027.87
538.845	8105.61
539.21	8081.43
539.575	8167.75
539.94	8162.55
540.305	8219.73
540.67	8184.02
541.034	8303.12
541.399	8306.05
541.764	8330.91
542.129	8408.2
542.494	8440.29
542.858	8369.1
543.223	8370.23
543.587	8526.84
543.952	8477.57
544.316	8513.73
544.681	8551.7
545.045	8523.45
545.41	8687.51
545.774	8743.1
546.138	8747.17
546.503	8714.86
546.867	8745.82
547.231	8758.24
547.595	8861.52
547.959	8910.56
548.324	8874.85
548.688	8863.1
549.052	8958.47
549.416	8928.64
549.779	9024.45
550.143	9071.68
550.507	9094.96
550.871	9168.85
551.235	9079.14
551.599	9176.99
551.962	9154.17
552.326	9274.61
552.689	9266.25
553.053	9327.49
553.417	9242.07
553.78	9378.11
554.143	9357.55
554.507	9387.61
554.87	9429.41
555.234	9531.78
555.597	9447.27
555.96	9537.21
556.323	9560.94
556.686	9531.78
557.05	9706.02
557.413	9698.78
557.776	9632.35
558.139	9728.39
558.502	9795.96
558.865	9817.88
559.228	9901.49
559.59	9855.39
559.953	9878.44
560.316	10061.49
560.679	10030.75
561.041	10126.12
561.404	10067.59
561.767	10140.58
562.129	10091.32
562.492	10260.13
562.854	10211.99
563.217	10269.84
563.579	10321.14
563.941	10344.87
564.304	10380.12
564.666	10445.43
565.028	10499.44
565.39	10462.61
565.753	10549.61
566.115	10522.04
566.477	10553.9
566.839	10627.8
567.201	10654.24
567.563	10647.69
567.925	10739.66
568.287	10796.61
568.648	10748.25
569.01	10891.07
569.372	11012.42
569.734	10893.78
570.095	10999.54
570.457	11025.3
570.819	11175.81
571.18	11143.72
571.542	11204.73
571.903	11277.95
572.265	11245.86
572.626	11381.45
572.987	11319.08
573.349	11363.15
573.71	11451.28
574.071	11506.65
574.432	11535.12
574.794	11710.48
575.155	11752.29
575.516	11693.99
575.877	11872.51
576.238	11822.57
576.599	11983.7
576.96	11995.67
577.32	12056.01
577.681	12247.87
578.042	12272.28
578.403	12414.42
578.763	12386.62
579.124	12465.27
579.485	12556.11
579.845	12712.49
580.206	12795.65
580.566	12764.92
580.927	12915.88
581.287	13100.05
581.648	13185.02
582.008	13325.81
582.368	13379.37
582.728	13548.4
583.089	13653.71
583.449	13811.9
583.809	13909.07
584.169	14120.59
584.529	14240.59
584.889	14497.98
585.249	14633.57
585.609	14696.39
585.969	14900.46
586.329	15026.1
586.688	15327.56
587.048	15493.89
587.408	15670.83
587.768	15939.07
588.127	16140.2
588.487	16378.38
588.846	16565.5
589.206	16826.05
589.565	16906.96
589.925	17276.89
590.284	17562.53
590.643	17809.31
591.003	17987.61
591.362	18347.14
591.721	18561.38
592.08	18859.67
592.44	19116.62
592.799	19364.97
593.158	19554.8
593.517	19864.17
593.876	20220.32
594.235	20496.92
594.593	20711.15
594.952	20944.14
595.311	21165.83
595.67	21611.24
596.029	21937.11
596.387	22250.09
596.746	22577.09
597.104	22763.98
597.463	22963.75
597.822	23405.54
598.18	23589.27
598.538	23915.59
598.897	24387.89
599.255	24407.1
599.613	25092.73
599.972	25102.9
600.33	25589.21
600.688	25668.53
601.046	26082.53
601.404	26482.52
601.762	26728.62
602.12	26982.17
602.478	27273.01
602.836	27567.02
603.194	27721.36
603.552	28059.21
603.91	28235.25
604.268	28573.32
604.625	28773.09
604.983	29126.3
605.341	29153.64
605.698	29632.27
606.056	29979.83
606.413	30277.23
606.771	30508.41
607.128	30741.17
607.485	30813.94
607.843	31092.12
608.2	31623.41
608.557	31763.29
608.914	31850.29
609.272	32246.21
609.629	32469.03
609.986	32812.98
610.343	32853.88
610.7	33354.21
611.057	33370.7
611.414	33602.11
611.771	33885.95
612.127	34117.13
612.484	34327.06
612.841	34637.11
613.198	34666.72
613.554	34835.3
613.911	35161.84
614.267	35342.86
614.624	35429.41
614.98	35578.1
615.337	35914.37
615.693	36000.69
616.05	36221.03
616.406	36386.22
616.762	36416.5
617.118	36654.46
617.475	36734.68
617.831	36967.67
618.187	37306.42
618.543	37390.94
618.899	37529.47
619.255	37699.63
619.611	37707.77
619.967	37987.53
620.323	38253.51
620.678	38107.98
621.034	38118.38
621.39	38358.6
621.746	38466.84
622.101	39023.66
622.457	38886.49
622.812	38964.91
623.168	39024.34
623.523	39089.2
623.879	39466.36
624.234	39151.57
624.589	39420.04
624.945	39495.97
625.3	39522.18
625.655	39696.41
626.01	39820.7
626.365	39736.86
626.72	39875.62
627.075	39908.16
627.43	39952
627.785	40124.88
628.14	40088.27
628.495	40232.44
628.85	40333.69
629.205	40127.59
629.559	40526.9
629.914	40338.43
630.269	40531.42
630.623	40370.07
630.978	40393.34
631.332	40598.54
631.687	40576.84
632.041	40500.46
632.396	40640.8
632.75	40424.53
633.104	40704.97
633.459	40414.14
633.813	40619.33
634.167	40554.47
634.521	40664.98
634.875	40844.41
635.229	40853.67
635.583	40640.12
635.937	40556.96
636.291	40588.14
636.645	40714.92
636.999	40530.97
637.352	40736.84
637.706	40573.68
638.06	40809.15
638.413	40513.34
638.767	40616.62
639.121	40611.64
639.474	40410.52
639.828	40561.25
640.181	40553.34
640.534	40571.65
640.888	40543.85
641.241	40353.12
641.594	40462.27
641.947	40535.49
642.301	40328.49
642.654	40457.75
643.007	40526
643.36	40498.88
643.713	40567.58
644.066	40589.05
644.419	40332.33
644.771	40076.06
645.124	39899.12
645.477	39822.06
645.83	39552.69
646.182	39467.72
646.535	39352.24
646.888	39433.6
647.24	39195.64
647.593	39386.37
647.945	39441.73
648.298	39146.37
648.65	39126.03
649.002	39113.6
649.355	39155.64
649.707	39003.55
650.059	39272.92
650.411	39755.85
650.763	39767.6
651.115	40092.56
651.467	40098.44
651.819	40046.69
652.171	39940.02
652.523	40004.2
652.875	39929.18
653.227	39891.44
653.578	39985.45
653.93	39973.92
654.282	39882.17
654.633	39718.56
654.985	39729.18
655.337	39820.25
655.688	39750.42
656.039	40039.23
656.391	39618
656.742	39840.82
657.094	39746.58
657.445	39791.55
657.796	39789.07
658.147	39634.72
658.498	39605.57
658.849	39691.89
659.2	39704.78
659.551	39598.79
659.902	39834.72
660.253	39602.41
660.604	39652.8
660.955	39584.33
661.306	39760.14
661.656	39541.62
662.007	39628.17
662.358	39500.71
662.708	39444.67
663.059	39454.39
663.409	39350.21
663.76	39604.89
664.11	39698.22
664.461	39611.67
664.811	39635.4
665.161	39614.38
665.511	39430.66
665.862	39532.35
666.212	39569.41
666.562	39712.46
666.912	39525.8
667.262	39496.87
667.612	39352.24
667.962	39534.61
668.312	39455.52
668.662	39561.05
669.011	39557.43
669.361	39373.03
669.711	39467.49
670.06	39280.38
670.41	39352.47
670.76	39255.3
671.109	39416.87
671.459	39335.75
671.808	39241.74
672.157	39361.51
672.507	39058.24
672.856	39226.37
673.205	39224.11
673.554	39274.05
673.904	39067.73
674.253	39275.63
674.602	39120.61
674.951	38797.91
675.3	38472.27
675.649	39095.75
675.998	39098.46
676.346	39068.86
676.695	39224.56
677.044	38985.47
677.393	39095.98
677.741	39101.85
678.09	39047.84
678.438	38793.39
678.787	38925.13
679.135	38898.92
679.484	38636.78
679.832	38959.71
680.181	38685.59
680.529	38847.85
680.877	38677.91
681.225	38612.15
681.573	38815.76
681.922	38379.61
682.27	38410.12
682.618	38415.32
682.966	38304.81
683.314	38274.3
683.661	38345.71
684.009	38052.84
684.357	38089.9
684.705	37977.81
685.053	37982.79
685.4	38017.36
685.748	37799.74
686.095	37828.89
686.443	37645.62
686.79	37643.59
687.138	37747.99
687.485	37643.13
687.832	37532.63
688.18	37506.87
688.527	37428
688.874	37329.92
689.221	37378.51
689.568	37253.77
689.915	37079.76
690.262	37163.37
690.609	37075.47
690.956	36743.27
691.303	36767
691.65	36751.41
691.997	36683.84
692.344	36477.29
692.69	36386.9
693.037	36499.21
693.383	36251.76
693.73	36271.87
694.077	36129.5
694.423	36050.86
694.769	35859.45
695.116	35879.11
695.462	35809.96
695.808	35710.98
696.155	35765.9
696.501	35566.35
696.847	35516.41
697.193	35339.01
697.539	35574.04
697.885	35095.63
698.231	34923.21
698.577	35099.47
698.923	34960.04
699.269	34815.86
699.614	34644.34
699.96	34584.91
700.306	34633.04
700.651	34501.52
700.997	34353.05
701.342	34293.62
701.688	34240.06
702.033	34078.03
702.379	34222.21
702.724	34086.84
703.069	34087.3
703.415	33606.63
703.76	33647.31
704.105	33747.87
704.45	33729.57
704.795	33419.97
705.14	33347.43
705.485	33301.78
705.83	33208.22
706.175	33218.62
706.52	33059.07
706.865	33118.51
707.209	32923.03
707.554	32941.11
707.899	32985.18
708.243	32812.3
708.588	32688.46
708.932	32515.81
709.277	32444.18
709.621	32604.17
709.966	32215.25
710.31	32387
710.654	32058.2
710.998	32194.01
711.342	32140
711.687	32018.2
712.031	31818.88
712.375	31840.12
712.719	31773.68
713.063	31668.15
713.407	31895.49
713.75	31595.16
714.094	31634.48
714.438	31488.27
714.782	31656.17
715.125	31345.22
715.469	31460.47
715.812	31194.26
716.156	31184.77
716.499	31225.68
716.843	31280.82
717.186	31041.73
717.53	31216.86
717.873	31228.84
718.216	30919.92
718.559	30843.54
718.902	30672.02
719.246	30766.03
719.589	30698.46
719.932	30545.02
720.275	30594.96
720.617	30498.01
720.96	30332.59
721.303	30371.24
721.646	30394.96
721.989	30195.42
722.331	30353.61
722.674	30234.29
723.016	30240.84
723.359	30138.02
723.701	30193.61
724.044	29964.24
724.386	29887.41
724.729	30043.33
725.071	29963.79
725.413	29862.77
725.755	29933.96
726.097	29704.13
726.439	29577.13
726.782	29565.61
727.124	29715.89
727.465	29564.48
727.807	29529.9
728.149	29401.09
728.491	29329
728.833	29371.49
729.175	29332.62
729.516	29217.14
729.858	29226.86
730.199	29257.37
730.541	29146.18
730.882	29113.87
731.224	29094.43
731.565	28882.46
731.906	29033.64
732.248	29045.85
732.589	28829.58
732.93	28666.65
733.271	28756.36
733.612	28912.97
733.953	28670.94
734.294	28618.97
734.635	28591.85
734.976	28670.49
735.317	28461.23
735.658	28430.72
735.999	28478.4
736.339	28408.12
736.68	28504.84
737.021	28381.91
737.361	28299.43
737.702	28377.84
738.042	28130.84
738.383	28225.3
738.723	28386.43
739.063	28172.65
739.404	28265.75
739.744	28065.08
740.084	27998.87
740.424	28143.5
740.764	28014.01
741.104	28000.45
741.444	27764.52
741.784	27833.45
742.124	27898.76
742.464	27847.01
742.804	27875.93
743.143	27593.23
743.483	27749.38
743.823	27549.84
744.162	27637.3
744.502	27511.88
744.841	27501.03
745.181	27499.45
745.52	27398.88
745.86	27436.17
746.199	27393.69
746.538	27253.35
746.877	27368.15
747.216	27348.94
747.556	27181.49
747.895	27283.18
748.234	27134.26
748.573	27180.58
748.911	27135.84
749.25	26990.31
749.589	27019.91
749.928	27012.91
750.267	26892
750.605	26910.99
750.944	26853.14
751.283	26761.61
751.621	26775.17
751.96	26635.06
752.298	26582.86
752.636	26631.67
752.975	26471.68
753.313	26453.82
753.651	26581.96
753.989	26538.12
754.327	26355.75
754.666	26313.49
755.004	26261.96
755.342	26229.88
755.679	26265.13
756.017	26180.61
756.355	26255.19
756.693	26016.77
757.031	26115.3
757.368	25871.47
757.706	25878.92
758.044	25768.42
758.381	25900.17
758.719	25714.86
759.056	25816.1
759.394	25548.99
759.731	25460.86
760.068	25496.56
760.405	25435.55
760.743	25198.72
761.08	25360.75
761.417	25200.3
761.754	25158.72
762.091	25080.53
762.428	25068.78
762.765	24881.89
763.102	24895.22
763.438	24811.61
763.775	24701.78
764.112	24608
764.449	24779.29
764.785	24612.74
765.122	24483.93
765.458	24276.25
765.795	24245.52
766.131	24176.6
766.467	24186.77
766.804	24076.71
767.14	23949.26
767.476	24004.4
767.812	23902.25
768.148	23894.12
768.485	23744.29
768.821	23578.42
769.157	23588.36
769.492	23504.52
769.828	23534.8
770.164	23358.76
770.5	23292.55
770.836	23288.03
771.171	23005.33
771.507	23057.76
771.842	22888.72
772.178	22950.41
772.513	22796.52
772.849	22808.04
773.184	22727.37
773.519	22644.43
773.855	22533.25
774.19	22514.49
774.525	22455.06
774.86	22398.79
775.195	22291.45
775.53	22138.23
775.865	22079.25
776.2	21907.05
776.535	21769.65
776.87	21788.18
777.205	21691.46
777.539	21618.92
777.874	21608.53
778.209	21418.25
778.543	21393.39
778.878	21260.29
779.212	21243.11
779.547	21147.3
779.881	21297.12
780.215	21034.76
780.55	21041.54
780.884	20905.95
781.218	20793.18
781.552	20795.89
781.886	20747.99
782.22	20677.7
782.554	20580.98
782.888	20359.75
783.222	20379.18
783.556	20239.75
783.889	20218.96
784.223	19991.4
784.557	20009.47
784.89	20037.72
785.224	19890.38
785.557	19870.95
785.891	19753.21
786.224	19835.24
786.558	19739.42
786.891	19527.45
787.224	19409.04
787.557	19477.96
787.891	19347.8
788.224	19362.49
788.557	19308.7
788.89	19193.9
789.223	19230.96
789.556	19004.98
789.888	18967.02
790.221	18906.68
790.554	18750.07
790.887	18823.52
791.219	18662.84
791.552	18604.31
791.884	18598.66
792.217	18541.94
792.549	18453.13
792.882	18411.1
793.214	18347.82
793.546	18212.46
793.879	18131.11
794.211	18111.9
794.543	18125.23
794.875	17958.23
795.207	18112.8
795.539	17884.33
795.871	17902.18
796.203	17747.61
796.535	17631.68
796.867	17601.85
797.198	17606.83
797.53	17577.67
797.862	17378.58
798.193	17471.46
798.525	17351.24
798.856	17417.23
799.188	17194.41
799.519	17189.89
799.85	17061.08
800.182	17079.38
800.513	17120.28
800.844	16910.12
801.175	17017.69
801.506	16984.47
801.837	16893.62
802.168	16862.66
802.499	16863.34
802.83	16678.49
803.161	16559.62
803.491	16651.37
803.822	16655.44
804.153	16531.83
804.483	16433.3
804.814	16382.22
805.145	16302.45
805.475	16393.98
805.805	16304.26
806.136	16270.59
806.466	16361.21
806.796	16156.47
807.126	15982.01
807.457	16006.19
807.787	16002.8
808.117	15973.42
808.447	15907.66
808.777	15909.92
809.107	15828.11
809.436	15808
809.766	15799.87
810.096	15713.09
810.426	15618.85
810.755	15624.96
811.085	15595.58
811.414	15485.98
811.744	15443.49
812.073	15465.64
812.403	15362.14
812.732	15377.73
813.061	15315.13
813.39	15263.16
813.719	15231.97
814.049	15271.97
814.378	15179.54
814.707	15079.21
815.036	15088.47
815.365	15055.93
815.693	14899.1
816.022	14958.99
816.351	14882.15
816.68	14768.26
817.008	14852.32
817.337	14669.73
817.665	14657.98
817.994	14698.88
818.322	14619.79
818.651	14610.75
818.979	14518.77
819.307	14572.1
819.636	14482.84
819.964	14428.83
820.292	14482.84
820.62	14449.39
820.948	14412.56
821.276	14416.17
821.604	14398.77
821.932	14449.85
822.259	14429.96
822.587	14366.01
822.915	14385.89
823.243	14447.36
823.57	14359.23
823.898	14433.8
824.225	14261.38
824.553	14321.49
824.88	14376.63
825.207	14448.72
825.535	14295.95
825.862	14351.09
826.189	14302.73
826.516	14373.24
826.843	14416.85
827.17	14373.01
827.497	14356.52
827.824	14386.12
828.151	14389.28
828.478	14390.86
828.805	14410.98
829.131	14320.36
829.458	14253.92
829.785	14294.6
830.111	14276.52
830.438	14363.29
830.764	14368.94
831.09	14262.73
831.417	14241.72
831.743	14303.64
832.069	14298.66
832.395	14205.11
832.722	14271.09
833.048	14239
833.374	14208.04
833.7	14096.41
834.026	14242.62
834.351	14218.21
834.677	14200.81
835.003	14099.12
835.329	14170.08
835.654	14112.23
835.98	13995.17
836.306	14148.61
836.631	13954.94
836.956	14030.65
837.282	14051.21
837.607	14039.01
837.932	13926.24
838.258	13838.11
838.583	13940.93
838.908	13879.69
839.233	13886.02
839.558	13821.61
839.883	13769.64
840.208	13727.15
840.533	13793.82
840.858	13796.98
841.182	13746.59
841.507	13666.82
841.832	13622.3
842.156	13627.95
842.481	13578.23
842.805	13510.66
843.13	13600.6
843.454	13488.74
843.778	13430.21
844.103	13446.26
844.427	13402.87
844.751	13451
845.075	13372.81
845.399	13321.97
845.723	13287.39
846.047	13303.21
846.371	13085.81
846.695	13113.84
847.019	13097.34
847.343	12945.48
847.666	12921.07
847.99	12846.95
848.313	12869.77
848.637	12835.43
848.96	12738.93
849.284	12713.62
849.607	12580.52
849.931	12613.96
850.254	12467.3
850.577	12470.24
850.9	12386.17
851.223	12428.88
851.546	12355.44
851.869	12225.72
852.192	12287.42
852.515	12152.96
852.838	12108.21
853.161	12140.3
853.483	12060.98
853.806	11974.88
854.129	11982.79
854.451	11985.05
854.774	11885.62
855.096	11806.3
855.419	11835
855.741	11873.42
856.063	11729.92
856.385	11733.31
856.708	11690.14
857.03	11593.2
857.352	11652.63
857.674	11548.68
857.996	11548.68
858.318	11381
858.64	11472.3
858.961	11522.47
859.283	11404.05
859.605	11338.06
859.926	11351.17
860.248	11355.01
860.57	11226.2
860.891	11262.59
861.212	11270.49
861.534	11203.83
861.855	11160.22
862.176	11133.55
862.498	11165.41
862.819	11172.19
863.14	11112.53
863.461	11068.24
863.782	11001.58
864.103	11097.39
864.424	10906.66
864.745	10976.94
865.065	10950.95
865.386	10871.18
865.707	10837.74
866.027	10931.29
866.348	10901.01
866.668	10835.93
866.989	10849.49
867.309	10716.84
867.63	10760.68
867.95	10754.58
868.27	10682.26
868.59	10702.37
868.91	10772.43
869.23	10645.65
869.55	10600.46
869.87	10734.92
870.19	10637.74
870.51	10643.84
870.83	10696.5
871.15	10493.57
871.469	10541.93
871.789	10561.36
872.109	10562.94
872.428	10513
872.748	10600
873.067	10562.26
873.386	10487.46
873.706	10410.63
874.025	10471.19
874.344	10386
874.663	10398.65
874.982	10380.8
875.301	10472.32
875.62	10380.35
875.939	10353.46
876.258	10303.06
876.577	10281.59
876.896	10342.84
877.214	10298.32
877.533	10265.55
877.852	10249.28
878.17	10285.44
878.489	10227.81
878.807	10161.6
879.125	10130.64
879.444	10204.53
879.762	10153.24
880.08	10066.46
880.398	10084.54
880.716	10181.48
881.034	10061.94
881.352	9986.91
881.67	10014.48
881.988	9982.62
882.306	9974.03
882.624	9974.71
882.941	9908.72
883.259	9901.04
883.577	9929.96
883.894	9840.93
884.212	9797.99
884.529	9902.39
884.846	9791.89
885.164	9830.08
885.481	9763.19
885.798	9769.74
886.115	9728.39
886.432	9711.21
886.75	9696.75
887.067	9720.48
887.383	9541.27
887.7	9680.03
888.017	9597.54
888.334	9595.28
888.651	9500.15
888.967	9460.82
889.284	9445.91
889.6	9431.22
889.917	9421.05
890.233	9348.74
890.55	9329.08
890.866	9368.85
891.182	9341.73
891.498	9268.51
891.815	9285.46
892.131	9183.09
892.447	9196.65
892.763	9182.64
893.079	9054.28
893.395	9080.5
893.71	9129.08
894.026	9084.79
894.342	9094.96
894.657	9017.22
894.973	8986.49
895.289	8975.41
895.604	9006.83
895.92	8840.73
896.235	8816.77
896.55	8800.5
896.865	8813.38
897.181	8739.71
897.496	8758.24
897.811	8734.97
898.126	8665.82
898.441	8626.27
898.756	8646.83
899.071	8567.51
899.386	8551.7
899.7	8540.17
900.015	8486.61
900.33	8422.43
900.644	8455.65
900.959	8446.61
901.273	8384.92
901.588	8359.84
901.902	8298.82
902.216	8291.59
902.531	8307.18
902.845	8259.95
903.159	8175.66
903.473	8113.06
903.787	8148.77
904.101	8115.78
904.415	8129.33
904.729	8031.71
905.042	8057.92
905.356	8033.29
905.67	7972.73
905.984	7870.36
906.297	7914.42
906.611	7834.88
906.924	7858.83
907.237	7808.21
907.551	7768.44
907.864	7756.01
908.177	7754.88
908.491	7710.59
908.804	7663.13
909.117	7646.18
909.43	7616.81
909.743	7551.95
910.056	7510.59
910.368	7470.82
910.681	7480.54
910.994	7453.65
911.307	7343.59
911.619	7385.17
911.932	7373.87
912.244	7286.42
912.557	7277.83
912.869	7265.4
913.181	7260.88
913.494	7227.89
913.806	7195.12
914.118	7154.22
914.43	7094.56
914.742	7152.64
915.054	7105.86
915.366	7058.4
915.678	7022.92
915.99	6965.07
916.302	6977.27
916.613	6918.29
916.925	6874
917.236	6858.18
917.548	6844.62
917.859	6858.63
918.171	6740.9
918.482	6770.95
918.794	6711.07
919.105	6722.82
919.416	6619.77
919.727	6662.93
920.038	6677.62
920.349	6570.96
920.66	6556.49
920.971	6535.48
921.282	6484.86
921.593	6461.81
921.903	6458.64
922.214	6447.34
922.525	6389.04
922.835	6381.58
923.146	6291.19
923.456	6339.1
923.767	6286.22
924.077	6284.86
924.387	6241.25
924.697	6223.62
925.008	6234.69
925.318	6159.44
925.628	6200.35
925.938	6129.16
926.248	6090.52
926.558	6073.34
926.867	6029.28
927.177	6031.08
927.487	5965.78
927.796	5927.81
928.106	5937.3
928.416	5893.01
928.725	5882.39
929.034	5853.01
929.344	5858.43
929.653	5803.52
929.962	5786.8
930.271	5738.44
930.581	5741.83
930.89	5725.1
931.199	5661.6
931.508	5665.67
931.817	5661.83
932.125	5594.49
932.434	5592
932.743	5590.19
933.051	5515.62
933.36	5514.94
933.669	5476.52
933.977	5441.5
934.286	5458.44
934.594	5412.12
934.902	5363.31
935.21	5350.88
935.519	5346.13
935.827	5311.33
936.135	5264.78
936.443	5272.91
936.751	5306.36
937.059	5236.75
937.367	5189.3
937.674	5187.04
937.982	5186.36
938.29	5136.42
938.597	5165.12
938.905	5102.07
939.213	5063.43
939.52	5057.32
939.827	5086.7
940.135	5038.34
940.442	4995.41
940.749	4943.2
941.056	5005.12
941.363	4876.09
941.67	4907.95
941.977	4836.09
942.284	4855.07
942.591	4869.53
942.898	4827.73
943.205	4853.71
943.511	4782.3
943.818	4786.37
944.125	4716.32
944.431	4719.48
944.738	4707.5
945.044	4664.34
945.35	4633.83
945.657	4641.97
945.963	4585.47
946.269	4637.9
946.575	4593.83
946.881	4549.32
947.187	4568.07
947.493	4524.91
947.799	4515.87
948.105	4465.48
948.41	4499.37
948.716	4440.62
949.022	4415.99
949.327	4426.15
949.633	4358.59
949.938	4378.7
950.244	4365.59
950.549	4341.41
950.854	4259.83
951.16	4315.42
951.465	4241.53
951.77	4229.1
952.075	4274.07
952.38	4234.97
952.685	4224.35
952.99	4200.17
953.294	4169.21
953.599	4164.92
953.904	4154.75
954.209	4114.07
954.513	4135.99
954.818	4082.66
955.122	4081.98
955.426	4040.85
955.731	4030.46
956.035	3980.06
956.339	3987.52
956.643	4006.5
956.948	3945.72
957.252	3912.72
957.556	3949.78
957.86	3924.93
958.163	3911.37
958.467	3845.83
958.771	3928.31
959.075	3841.99
959.378	3819.39
959.682	3769.22
959.985	3799.05
960.289	3763.8
960.592	3752.05
960.896	3755.44
961.199	3698.49
961.502	3705.04
961.805	3684.03
962.108	3665.72
962.411	3630.92
962.714	3651.71
963.017	3623.46
963.32	3618.49
963.623	3569.23
963.926	3569
964.228	3575.78
964.531	3570.58
964.833	3552.05
965.136	3523.58
965.438	3540.98
965.741	3471.83
966.043	3487.65
966.345	3486.52
966.648	3451.72
966.95	3444.49
967.252	3391.61
967.554	3444.71
967.856	3393.19
968.158	3355.45
968.46	3353.19
968.761	3367.88
969.063	3264.6
969.365	3338.95
969.666	3284.72
969.968	3272.06
970.269	3279.74
970.571	3271.16
970.872	3284.72
971.174	3205.4
971.475	3203.81
971.776	3203.81
972.077	3220.99
972.378	3212.85
972.679	3149.13
972.98	3178.96
973.281	3142.35
973.582	3143.7
973.883	3073.87
974.183	3074.55
974.484	3107.55
974.785	3074.33
975.085	3055.57
975.386	3030.03
975.686	3046.3
975.986	3027.1
976.287	3027.77
976.587	2986.87
976.887	2979.41
977.187	2964.05
977.487	2923.37
977.787	2946.19
978.087	2927.44
978.387	2926.99
978.687	2910.94
978.987	2887.66
979.286	2835.24
979.586	2823.94
979.885	2815.8
980.185	2853.77
980.484	2826.87
980.784	2809.93
981.083	2795.46
981.382	2792.3
981.682	2760.21
981.981	2733.32
982.28	2731.74
982.579	2722.7
982.878	2737.61
983.177	2723.83
983.475	2708.46
983.774	2686.99
984.073	2671.85
984.372	2628.01
984.67	2629.59
984.969	2629.59
985.267	2663.49
985.566	2608.8
985.864	2583.94
986.162	2612.19
986.461	2571.29
986.759	2570.84
987.057	2543.94
987.355	2542.81
987.653	2561.8
987.951	2527.22
988.249	2535.13
988.547	2485.19
988.844	2453.78
989.142	2498.97
989.44	2510.05
989.737	2463.95
990.035	2449.94
990.332	2432.08
990.63	2410.39
990.927	2416.72
991.224	2425.3
991.521	2414.23
991.819	2409.71
992.116	2384.17
992.413	2383.27
992.71	2383.5
993.006	2318.19
993.303	2343.95
993.6	2312.76
993.897	2293.33
994.193	2289.71
994.49	2302.37
994.787	2258.53
995.083	2258.75
995.379	2248.36
995.676	2240.45
995.972	2203.39
996.268	2200
996.565	2230.73
996.861	2197.74
997.157	2181.92
997.453	2179.66
997.749	2181.69
998.044	2161.58
998.34	2153.45
998.636	2136.95
998.932	2108.7
999.227	2131.53
999.523	2089.95
999.818	2121.58
1000.114	2088.36
1000.409	2056.95
1000.704	2043.84
1001	2073.67
1001.295	2042.94
1001.59	1995.71
1001.885	2033.68
1002.18	1994.58
1002.475	1979.89
1002.77	1996.84
1003.065	1982.6
1003.359	1969.04
1003.654	1963.85
1003.949	1971.08
1004.243	1936.05
1004.538	1899.22
1004.832	1928.14
1005.127	1910.51
1005.421	1887.01
1005.715	1886.33
1006.009	1885.66
1006.304	1862.38
1006.598	1844.3
1006.892	1833.23
1007.186	1811.53
1007.48	1816.73
1007.773	1802.95
1008.067	1809.05
1008.361	1781.03
1008.655	1783.96
1008.948	1760.91
1009.242	1789.16
1009.535	1772.89
1009.829	1740.12
1010.122	1735.6
1010.415	1734.47
1010.708	1700.8
1011.001	1699.45
1011.295	1719.33
1011.588	1666.23
1011.881	1668.71
1012.173	1687.92
1012.466	1627.58
1012.759	1630.07
1013.052	1662.84
1013.344	1632.56
1013.637	1635.04
1013.93	1605.44
1014.222	1589.62
1014.514	1593.46
1014.807	1572.44
1015.099	1611.31
1015.391	1597.53
1015.683	1561.15
1015.976	1536.51
1016.268	1535.38
1016.56	1508.04
1016.851	1524.99
1017.143	1506.01
1017.435	1483.86
1017.727	1504.88
1018.018	1478.66
1018.31	1454.03
1018.602	1479.11
1018.893	1435.72
1019.185	1445.67
1019.476	1458.78
1019.767	1438.66
1020.058	1424.2
1020.35	1392.11
1020.641	1397.53
1020.932	1378.1
1021.223	1385.78
1021.514	1378.1
1021.804	1365.44
1022.095	1361.83
1022.386	1342.62
1022.677	1312.79
1022.967	1311.43
1023.258	1338.55
1023.548	1312.56
1023.839	1311.43
1024.129	1282.96
1024.419	1294.26
1024.709	1269.18
1025	1274.15
1025.29	1256.52
1025.58	1247.71
1025.87	1233.02
1026.16	1251.77
1026.449	1224.21
1026.739	1228.27
1027.029	1230.31
1027.319	1195.05
1027.608	1200.93
1027.898	1194.6
1028.187	1185.56
1028.477	1153.02
1028.766	1160.48
1029.055	1157.31
1029.344	1150.53
1029.634	1154.38
1029.923	1146.47
1030.212	1136.3
1030.501	1117.32
1030.79	1103.98
1031.078	1115.28
1031.367	1108.5
1031.656	1089.52
1031.945	1099.46
1032.233	1087.03
1032.522	1122.51
1032.81	1068.05
1033.099	1041.61
1033.387	1041.61
1033.675	1061.05
1033.963	1047.49
1034.251	1048.62
1034.54	1033.7
1034.828	1025.11
1035.116	1028.05
1035.403	1010.88
1035.691	1008.62
1035.979	1015.4
1036.267	974.04
1036.554	1003.19
1036.842	960.94
1037.129	983.53
1037.417	993.7
1037.704	961.16
1037.992	945.57
1038.279	955.51
1038.566	956.64
1038.853	956.64
1039.14	956.64
