Data from hue_80_FLMS001491_59.txt Node
Date: Mon Feb 06 15:23:15 GMT 2017
User: dcchb
Spectrometer: FLMS00149
Trigger mode: 0
Integration Time (sec): 2.000000E-2
Scans to average: 10
Electric dark correction enabled: true
Nonlinearity correction enabled: false
Boxcar width: 0
XAxis mode: Wavelengths
Number of Pixels in Spectrum: 2048
>>>>>Begin Spectral Data<<<<<
341.393	-1.95
341.776	-1.95
342.16	-1.95
342.543	-65.22
342.927	-62.74
343.31	-72.68
343.693	-55.51
344.077	-63.64
344.46	-63.87
344.843	-68.84
345.226	-42.85
345.61	-9.18
345.993	-7.82
346.376	0.31
346.759	14.1
347.142	29.91
347.525	43.7
347.908	37.6
348.291	71.04
348.674	80.99
349.057	106.75
349.44	128.44
349.823	141.1
350.206	168.89
350.588	183.58
350.971	205.05
351.354	199.18
351.737	243.24
352.119	256.35
352.502	259.74
352.884	266.74
353.267	278.5
353.65	277.82
354.032	286.4
354.414	316.69
354.797	324.14
355.179	323.69
355.562	319.17
355.944	342.9
356.326	328.44
356.709	323.01
357.091	340.41
357.473	349.68
357.855	318.49
358.238	346.06
358.62	318.27
359.002	337.93
359.384	366.18
359.766	330.7
360.148	321.21
360.53	334.09
360.912	329.34
361.294	310.36
361.676	327.99
362.057	334.31
362.439	327.76
362.821	318.72
363.203	339.51
363.584	314.65
363.966	320.08
364.348	326.86
364.729	327.76
365.111	320.98
365.493	348.1
365.874	302.68
366.256	297.7
366.637	324.6
367.019	320.98
367.4	311.71
367.781	328.66
368.163	310.13
368.544	299.06
368.925	301.32
369.306	302.22
369.688	308.1
370.069	320.53
370.45	307.2
370.831	310.59
371.212	312.39
371.593	306.52
371.974	301.77
372.355	325.73
372.736	300.87
373.117	324.82
373.498	327.99
373.879	297.25
374.26	300.19
374.641	308.78
375.021	328.89
375.402	316.91
375.783	323.01
376.163	319.4
376.544	336.12
376.925	316.23
377.305	330.47
377.686	308.78
378.066	309.46
378.447	344.48
378.827	341.54
379.208	327.31
379.588	326.63
379.968	314.2
380.349	318.72
380.729	318.27
381.109	328.21
381.489	324.82
381.87	349.23
382.25	335.22
382.63	346.74
383.01	359.85
383.39	326.63
383.77	349.23
384.15	329.12
384.53	334.77
384.91	334.54
385.29	336.57
385.67	335.44
386.049	358.04
386.429	348.78
386.809	329.34
387.189	330.47
387.568	335.44
387.948	352.62
388.328	356.23
388.707	331.6
389.087	348.55
389.466	338.38
389.846	376.57
390.225	355.33
390.605	348.1
390.984	364.82
391.363	354.88
391.743	367.31
392.122	347.19
392.501	360.98
392.881	362.79
393.26	349.91
393.639	369.79
394.018	380.64
394.397	390.36
394.776	360.98
395.155	363.01
395.534	351.94
395.913	377.02
396.292	381.54
396.671	359.62
397.05	375.22
397.429	377.7
397.808	388.32
398.186	366.63
398.565	384.93
398.944	364.37
399.323	396.23
399.701	404.82
400.08	384.71
400.458	404.37
400.837	381.54
401.215	394.42
401.594	406.18
401.972	376.12
402.351	412.73
402.729	391.94
403.107	422.67
403.486	407.08
403.864	423.8
404.242	421.77
404.62	404.37
404.999	416.57
405.377	417.02
405.755	426.74
406.133	410.02
406.511	415.67
406.889	414.31
407.267	415.67
407.645	421.32
408.023	412.96
408.401	431.49
408.779	412.5
409.156	434.42
409.534	439.85
409.912	428.77
410.29	453.18
410.667	437.59
411.045	457.02
411.422	451.82
411.8	458.38
412.178	464.25
412.555	451.82
412.933	468.55
413.31	442.78
413.687	472.84
414.065	477.36
414.442	453.41
414.819	476.23
415.197	474.2
415.574	455.67
415.951	471.94
416.328	489.34
416.705	478.04
417.082	480.52
417.46	494.99
417.837	477.81
418.214	508.77
418.591	521.2
418.967	507.87
419.344	507.64
419.721	492.5
420.098	510.58
420.475	544.93
420.852	517.81
421.228	527.08
421.605	523.46
421.982	534.76
422.358	549.67
422.735	532.05
423.111	536.12
423.488	534.53
423.864	550.35
424.241	561.88
424.617	583.12
424.994	538.83
425.37	556.23
425.746	554.65
426.123	560.97
426.499	562.78
426.875	581.54
427.251	575.44
427.627	588.09
428.003	574.08
428.379	589.22
428.756	575.44
429.132	603.23
429.507	598.94
429.883	600.75
430.259	597.58
430.635	586.96
431.011	607.3
431.387	616.79
431.763	617.47
432.138	633.74
432.514	642.1
432.89	631.03
433.265	659.95
433.641	651.82
434.016	675.1
434.392	694.98
434.767	670.35
435.143	672.16
435.518	684.59
435.894	682.33
436.269	669.45
436.644	697.02
437.02	715.77
437.395	712.83
437.77	720.97
438.145	706.73
438.52	736.34
438.895	716.9
439.271	711.93
439.646	744.47
440.021	751.25
440.395	744.92
440.77	734.75
441.145	753.29
441.52	780.86
441.895	797.35
442.27	777.92
442.645	783.34
443.019	774.98
443.394	789.22
443.769	769.56
444.143	780.18
444.518	790.8
444.892	792.38
445.267	821.08
445.641	799.39
446.016	807.97
446.39	813.4
446.764	816.56
447.139	825.15
447.513	812.72
447.887	850.46
448.262	825.15
448.636	852.27
449.01	860.18
449.384	848.42
449.758	859.72
450.132	859.27
450.506	872.83
450.88	879.61
451.254	881.87
451.628	915.99
452.002	885.94
452.376	919.83
452.75	930.68
453.123	905.82
453.497	936.56
453.871	942.66
454.244	949.66
454.618	960.29
454.992	953.05
455.365	979.27
455.739	983.11
456.112	1010
456.486	987.4
456.859	1034.63
457.232	1026.05
457.606	1042.77
457.979	1070.34
458.352	1060.62
458.725	1081.86
459.099	1108.98
459.472	1078.25
459.845	1069.89
460.218	1132.48
460.591	1150.11
460.964	1130.9
461.337	1163.22
461.71	1197.12
462.083	1198.25
462.456	1196.66
462.829	1206.38
463.201	1197.57
463.574	1219.49
463.947	1263.33
464.32	1274.4
464.692	1274.4
465.065	1323.67
465.438	1327.96
465.81	1359.6
466.183	1375.64
466.555	1400.73
466.928	1411.57
467.3	1396.21
467.672	1461.06
468.045	1472.59
468.417	1493.6
468.789	1507.16
469.161	1511.68
469.534	1551.91
469.906	1593.04
470.278	1599.82
470.65	1630.55
471.022	1676.88
471.394	1722.98
471.766	1743.77
472.138	1749.42
472.51	1784.67
472.882	1854.5
473.253	1854.05
473.625	1900.6
473.997	1962.52
474.369	1978.56
474.74	2018.79
475.112	2103.31
475.484	2085.91
475.855	2172.23
476.227	2220.37
476.598	2271.66
476.97	2307.59
477.341	2369.29
477.713	2448.61
478.084	2490.19
478.455	2584.65
478.827	2619.45
479.198	2734.48
479.569	2777.86
479.94	2866.45
480.311	2919.78
480.682	3044.07
481.053	3122.94
481.424	3203.62
481.795	3272.32
482.166	3336.72
482.537	3448.13
482.908	3524.06
483.279	3669.14
483.65	3695.81
484.021	3874.33
484.391	3936.48
484.762	4016.48
485.133	4123.37
485.503	4216.02
485.874	4404.04
486.244	4484.26
486.615	4574.88
486.985	4719.73
487.356	4874.98
487.726	4903.91
488.097	5133.06
488.467	5209.21
488.837	5396.33
489.207	5475.2
489.578	5643.55
489.948	5708.18
490.318	5928.74
490.688	5964
491.058	6128.96
491.428	6314.04
491.798	6429.07
492.168	6633.81
492.538	6750.19
492.908	6799.91
493.278	6933.01
493.648	7110.86
494.017	7341.81
494.387	7452.09
494.757	7573.9
495.126	7669.04
495.496	7784.74
495.866	7919.65
496.235	8078.06
496.605	8209.13
496.974	8329.81
497.344	8531.61
497.713	8628.78
498.082	8713.3
498.452	8896.57
498.821	9017.93
499.19	9153.97
499.559	9266.73
499.928	9341.08
500.298	9479.84
500.667	9713.05
501.036	9701.07
501.405	9852.26
501.774	9916.89
502.143	10079.14
502.512	10111.91
502.88	10358.68
503.249	10343.99
503.618	10456.98
503.987	10552.35
504.356	10676.64
504.724	10787.37
505.093	10937.2
505.462	10954.82
505.83	11149.62
506.199	11208.38
506.567	11386.45
506.936	11375.83
507.304	11567.92
507.672	11695.37
508.041	11717.06
508.409	11874.8
508.777	11971.75
509.145	12019.66
509.514	12032.99
509.882	12177.17
510.25	12275.92
510.618	12347.33
510.986	12395.24
511.354	12608.34
511.722	12762.24
512.09	12820.99
512.458	12806.75
512.826	12962.23
513.193	12999.52
513.561	13043.81
513.929	13205.16
514.297	13318.83
514.664	13305.27
515.032	13422.1
515.4	13491.26
515.767	13632.27
516.135	13714.75
516.502	13634.3
516.869	13903
517.237	13865.93
517.604	13882.43
517.972	14062.99
518.339	14123.33
518.706	14164.68
519.073	14159.26
519.44	14176.44
519.808	14368.29
520.175	14385.47
520.542	14505.24
520.909	14592.24
521.276	14594.28
521.643	14723.31
522.009	14790.2
522.376	14851.22
522.743	14886.92
523.11	15094.6
523.477	15150.87
523.843	15156.3
524.21	15331.66
524.577	15414.82
524.943	15424.99
525.31	15427.02
525.676	15604.42
526.043	15676.73
526.409	15791.76
526.776	15800.35
527.142	15821.82
527.508	15912.43
527.874	15935.48
528.241	15995.14
528.607	16051.19
528.973	16112.2
529.339	16121.92
529.705	16219.77
530.071	16351.97
530.437	16352.65
530.803	16337.96
531.169	16486.88
531.535	16460.44
531.901	16427.45
532.267	16454.34
532.632	16574.34
532.998	16561.46
533.364	16716.71
533.73	16629.25
534.095	16641.68
534.461	16738.4
534.826	16731.85
535.192	16879.41
535.557	16781.34
535.923	16811.17
536.288	16751.73
536.653	16841.45
537.019	16845.52
537.384	16892.75
537.749	16858.62
538.114	16864.73
538.479	16881.45
538.845	16889.13
539.21	16842.58
539.575	16775.24
539.94	16871.28
540.305	16912.41
540.67	16885.74
541.034	16946.98
541.399	16856.14
541.764	16932.07
542.129	16951.05
542.494	16932.29
542.858	16901.11
543.223	16909.24
543.587	16905.63
543.952	16922.13
544.316	16895.01
544.681	16889.36
545.045	16848.23
545.41	16923.71
545.774	16819.3
546.138	16885.97
546.503	16962.12
546.867	16870.6
547.231	16939.53
547.595	16855.46
547.959	16920.77
548.324	16887.78
548.688	16843.48
549.052	16952.86
549.416	16904.05
549.779	16834.44
550.143	16897.95
550.507	16893.65
550.871	16918.06
551.235	16903.14
551.599	17000.99
551.962	16901.79
552.326	16880.09
552.689	16930.49
553.053	16838.51
553.417	16950.6
553.78	17015
554.143	16782.92
554.507	16946.31
554.87	16911.73
555.234	16992.63
555.597	16868.57
555.96	16952.18
556.323	16916.25
556.686	16979.07
557.05	16938.17
557.413	17019.52
557.776	17035.8
558.139	17080.77
558.502	17016.36
558.865	17044.38
559.228	17165.28
559.59	17117.83
559.953	17064.72
560.316	17343.13
560.679	17240.54
561.041	17356.69
561.404	17308.78
561.767	17433.98
562.129	17292.06
562.492	17496.12
562.854	17323.02
563.217	17363.02
563.579	17456.57
563.941	17577.48
564.304	17517.59
564.666	17592.39
565.028	17597.59
565.39	17673.74
565.753	17711.71
566.115	17689.11
566.477	17739.51
566.839	17710.13
567.201	17901.31
567.563	17817.02
567.925	17884.13
568.287	17953.06
568.648	17811.14
569.01	17991.7
569.372	18062.66
569.734	17953.74
570.095	18080.74
570.457	18167.74
570.819	18182.21
571.18	18123.22
571.542	18151.02
571.903	18170.23
572.265	18206.84
572.626	18205.26
572.987	18278.93
573.349	18274.86
573.71	18339.26
574.071	18388.3
574.432	18466.04
574.794	18511.24
575.155	18453.38
575.516	18380.62
575.877	18421.07
576.238	18409.54
576.599	18520.5
576.96	18566.6
577.32	18518.92
577.681	18536.09
578.042	18597.79
578.403	18639.59
578.763	18619.26
579.124	18619.93
579.485	18728.41
579.845	18692.02
580.206	18643.89
580.566	18622.19
580.927	18675.3
581.287	18674.4
581.648	18678.46
582.008	18779.03
582.368	18639.82
582.728	18611.57
583.089	18708.52
583.449	18572.03
583.809	18662.19
584.169	18736.99
584.529	18599.37
584.889	18704
585.249	18600.5
585.609	18586.26
585.969	18707.62
586.329	18603.21
586.688	18657.45
587.048	18555.3
587.408	18707.39
587.768	18619.03
588.127	18582.87
588.487	18483.89
588.846	18649.76
589.206	18532.03
589.565	18592.14
589.925	18668.52
590.284	18588.97
590.643	18515.53
591.003	18664.68
591.362	18632.14
591.721	18541.74
592.08	18588.3
592.44	18513.5
592.799	18602.99
593.158	18438.24
593.517	18560.27
593.876	18583.78
594.235	18402.09
594.593	18507.17
594.952	18575.19
595.311	18405.02
595.67	18515.08
596.029	18567.05
596.387	18600.27
596.746	18556.21
597.104	18574.96
597.463	18413.61
597.822	18587.17
598.18	18458.58
598.538	18479.15
598.897	18575.87
599.255	18392.82
599.613	18672.36
599.972	18510.11
600.33	18655.87
600.688	18427.17
601.046	18516.89
601.404	18681.63
601.762	18539.26
602.12	18637.11
602.478	18570.9
602.836	18560.27
603.194	18471.01
603.552	18486.83
603.91	18483.44
604.268	18572.03
604.625	18488.86
604.983	18533.38
605.341	18509.2
605.698	18625.58
606.056	18634.17
606.413	18617.22
606.771	18632.59
607.128	18597.11
607.485	18537.9
607.843	18591.69
608.2	18742.87
608.557	18728.63
608.914	18624.91
609.272	18793.94
609.629	18800.27
609.986	18846.82
610.343	18651.57
610.7	18931.11
611.057	18805.01
611.414	18833.26
611.771	18865.35
612.127	18932.02
612.484	18928.4
612.841	18955.97
613.198	18921.4
613.554	18957.33
613.911	19069.64
614.267	19001.39
614.624	18989.42
614.98	19006.82
615.337	18986.25
615.693	19096.98
616.05	19081.16
616.406	19225.57
616.762	19080.71
617.118	19080.49
617.475	19037.32
617.831	19170.43
618.187	19061.96
618.543	19149.86
618.899	19319.8
619.255	19174.5
619.611	19201.39
619.967	19205.68
620.323	19365
620.678	19213.14
621.034	19096.53
621.39	19189.41
621.746	19175.63
622.101	19422.17
622.457	19226.92
622.812	19244.55
623.168	19382.17
623.523	19322.29
623.879	19475.28
624.234	19223.08
624.589	19310.99
624.945	19342.85
625.3	19292.68
625.655	19362.29
626.01	19318.67
626.365	19351.67
626.72	19290.42
627.075	19350.76
627.43	19308.73
627.785	19247.04
628.14	19270.99
628.495	19258.56
628.85	19309.86
629.205	19214.95
629.559	19352.12
629.914	19241.61
630.269	19240.03
630.623	19214.04
630.978	19092.01
631.332	19212.91
631.687	19235.74
632.041	19054.72
632.396	19169.52
632.75	19163.65
633.104	19031.67
633.459	19075.29
633.813	19068.06
634.167	19009.75
634.521	19060.15
634.875	19034.84
635.229	19048.4
635.583	18958.46
635.937	18960.04
636.291	18907.84
636.645	18977.89
636.999	18953.94
637.352	18915.07
637.706	18854.96
638.06	18905.35
638.413	18843.88
638.767	18809.76
639.121	18809.76
639.474	18726.6
639.828	18698.35
640.181	18680.5
640.534	18714.17
640.888	18690.89
641.241	18649.99
641.594	18711.91
641.947	18721.4
642.301	18699.71
642.654	18613.83
643.007	18653.61
643.36	18613.61
643.713	18628.3
644.066	18683.66
644.419	18476.66
644.771	18435.31
645.124	18314.41
645.477	18186.95
645.83	18182.66
646.182	18098.59
646.535	17945.15
646.888	17991.93
647.24	17923.68
647.593	18047.52
647.945	18003.91
648.298	17897.02
648.65	17859.95
649.002	17846.4
649.355	17986.73
649.707	17821.54
650.059	18004.81
650.411	18199.15
650.763	18274.18
651.115	18447.96
651.467	18313.05
651.819	18381.07
652.171	18388.08
652.523	18318.93
652.875	18417
653.227	18180.17
653.578	18516.89
653.93	18293.84
654.282	18231.24
654.633	18260.17
654.985	18270.56
655.337	18264.92
655.688	18368.87
656.039	18500.16
656.391	18241.64
656.742	18208.42
657.094	18264.01
657.445	18376.32
657.796	18341.75
658.147	18370.9
658.498	18388.75
658.849	18310.11
659.2	18307.17
659.551	18324.12
659.902	18305.14
660.253	18286.84
660.604	18272.6
660.955	18282.32
661.306	18281.41
661.656	18333.61
662.007	18306.72
662.358	18309.89
662.708	18450.67
663.059	18361.64
663.409	18245.93
663.76	18370
664.11	18342.65
664.461	18479.37
664.811	18364.8
665.161	18338.81
665.511	18322.99
665.862	18389.21
666.212	18451.58
666.562	18338.81
666.912	18346.5
667.262	18337
667.612	18317.57
667.962	18342.88
668.312	18355.99
668.662	18414.06
669.011	18339.26
669.361	18275.99
669.711	18346.04
670.06	18275.08
670.41	18297.23
670.76	18289.32
671.109	18302.88
671.459	18250
671.808	18167.97
672.157	18279.38
672.507	18165.93
672.856	18171.36
673.205	18194.18
673.554	18148.08
673.904	18076.45
674.253	18268.3
674.602	18166.84
674.951	17901.08
675.3	17822.67
675.649	18088.42
675.998	18147.18
676.346	18095.43
676.695	18107.86
677.044	18086.61
677.393	18061.53
677.741	18018.82
678.09	18065.37
678.438	17934.98
678.787	18003.23
679.135	18022.66
679.484	17917.81
679.832	17922.1
680.181	17807.3
680.529	17811.14
680.877	17875.77
681.225	17725.27
681.573	17966.84
681.922	17788.32
682.27	17687.76
682.618	17647.76
682.966	17612.95
683.314	17702.67
683.661	17690.47
684.009	17527.76
684.357	17548.32
684.705	17463.35
685.053	17494.09
685.4	17360.76
685.748	17333.64
686.095	17315.56
686.443	17187.43
686.79	17263.36
687.138	17196.69
687.485	17216.81
687.832	17164.83
688.18	17146.53
688.527	17045.51
688.874	17027.89
689.221	16974.55
689.568	16925.29
689.915	16836.03
690.262	16856.36
690.609	16817.95
690.956	16686.43
691.303	16717.84
691.65	16654.11
691.997	16684.84
692.344	16463.83
692.69	16448.92
693.037	16482.59
693.383	16349.71
693.73	16402.59
694.077	16400.56
694.423	16325.53
694.769	16188.81
695.116	16209.6
695.462	16173.44
695.808	16099.77
696.155	16061.36
696.501	15917.63
696.847	15890.74
697.193	15785.21
697.539	15852.32
697.885	15753.34
698.231	15704.98
698.577	15674.47
698.923	15675.6
699.269	15505.21
699.614	15399.91
699.96	15506.8
700.306	15347.7
700.651	15337.53
700.997	15235.39
701.342	15125.56
701.688	15197.43
702.033	15153.13
702.379	15069.75
702.724	15074.94
703.069	14956.98
703.415	14855.51
703.76	14888.96
704.105	14874.04
704.45	14815.97
704.795	14699.59
705.14	14687.61
705.485	14663.43
705.83	14626.14
706.175	14612.13
706.52	14528.74
706.865	14579.81
707.209	14407.39
707.554	14370.78
707.899	14560.61
708.243	14305.47
708.588	14271.8
708.932	14237.45
709.277	14195.19
709.621	14178.92
709.966	14056.66
710.31	14127.85
710.654	14049.66
710.998	13966.5
711.342	14005.59
711.687	13915.65
712.031	13895.31
712.375	13785.71
712.719	13858.7
713.063	13851.47
713.407	13915.65
713.75	13747.29
714.094	13768.08
714.438	13607.86
714.782	13679.95
715.125	13616.45
715.469	13648.99
715.812	13531.03
716.156	13479.28
716.499	13514.53
716.843	13557.92
717.186	13454.19
717.53	13449.45
717.873	13497.36
718.216	13423.69
718.559	13426.17
718.902	13392.73
719.246	13378.72
719.589	13364.71
719.932	13284.26
720.275	13242.45
720.617	13252.39
720.96	13227.76
721.303	13158.16
721.646	13218.72
721.989	13135.78
722.331	13157.93
722.674	13188.89
723.016	13154.77
723.359	13116.12
723.701	13059.18
724.044	13093.53
724.386	12985.05
724.729	13048.78
725.071	13068.89
725.413	13019.18
725.755	12980.08
726.097	13019.4
726.439	12951.16
726.782	12985.96
727.124	12939.63
727.465	12997.03
727.807	12973.75
728.149	12933.08
728.491	12900.31
728.833	12913.19
729.175	12875.68
729.516	12849.46
729.858	12820.09
730.199	12801.33
730.541	12789.58
730.882	12858.5
731.224	12845.62
731.565	12835
731.906	12790.03
732.248	12837.49
732.589	12761.33
732.93	12682.69
733.271	12714.55
733.612	12667.32
733.953	12729.69
734.294	12742.12
734.635	12746.42
734.976	12749.58
735.317	12659.41
735.658	12688.11
735.999	12716.36
736.339	12691.95
736.68	12770.6
737.021	12691.73
737.361	12646.31
737.702	12704.38
738.042	12704.38
738.383	12768.79
738.723	12780.99
739.063	12727.43
739.404	12793.87
739.744	12658.06
740.084	12778.28
740.424	12745.06
740.764	12773.76
741.104	12791.84
741.444	12762.46
741.784	12818.96
742.124	12808.56
742.464	12830.26
742.804	12872.29
743.143	12855.57
743.483	12919.97
743.823	12839.3
744.162	12843.14
744.502	12961.1
744.841	12936.02
745.181	12991.38
745.52	13049.46
745.86	13105.5
746.199	13129.23
746.538	13111.38
746.877	13198.38
747.216	13166.52
747.556	13221.43
747.895	13264.14
748.234	13286.74
748.573	13411.48
748.911	13347.08
749.25	13471.14
749.589	13442.67
749.928	13555.21
750.267	13619.84
750.605	13695.32
750.944	13779.61
751.283	13741.87
751.621	13924.69
751.96	13961.53
752.298	14084.01
752.636	14098.47
752.975	14194.51
753.313	14239.48
753.651	14399.48
753.989	14415.3
754.327	14482.42
754.666	14575.07
755.004	14685.35
755.342	14900.94
755.679	14887.6
756.017	14946.13
756.355	15142.74
756.693	15201.72
757.031	15314.26
757.368	15372.79
757.706	15498.21
758.044	15585.44
758.381	15739.33
758.719	15833.57
759.056	15977.97
759.394	15980.23
759.731	16061.81
760.068	16152.88
760.405	16340.9
760.743	16401.69
761.08	16507
761.417	16700.21
761.754	16675.35
762.091	16813.2
762.428	16973.2
762.765	16888
763.102	17199.63
763.438	17163.7
763.775	17134.32
764.112	17341.78
764.449	17413.86
764.785	17659.06
765.122	17494.09
765.458	17566.4
765.795	17687.53
766.131	17739.05
766.467	17804.81
766.804	17950.12
767.14	17915.32
767.476	18069.44
767.812	18142.21
768.148	18162.55
768.485	18211.58
768.821	18166.61
769.157	18184.92
769.492	18294.29
769.828	18323.44
770.164	18345.37
770.5	18335.2
770.836	18312.82
771.171	18430.56
771.507	18494.06
771.842	18461.52
772.178	18425.14
772.513	18476.21
772.849	18532.03
773.184	18446.83
773.519	18602.76
773.855	18396.89
774.19	18440.5
774.525	18507.85
774.86	18459.71
775.195	18519.6
775.53	18586.04
775.865	18421.75
776.2	18334.29
776.535	18339.49
776.87	18453.61
777.205	18373.16
777.539	18384.46
777.874	18396.44
778.209	18371.13
778.543	18369.32
778.878	18216.55
779.212	18275.08
779.547	18218.14
779.881	18302.43
780.215	18171.13
780.55	18204.13
780.884	18071.25
781.218	18078.93
781.552	18139.95
781.886	18116.9
782.22	18000.74
782.554	17956.9
782.888	17847.07
783.222	17760.75
783.556	17783.8
783.889	17850.91
784.223	17619.96
784.557	17692.95
784.89	17633.52
785.224	17635.78
785.557	17581.09
785.891	17502.9
786.224	17593.97
786.558	17513.3
786.891	17337.93
787.224	17346.3
787.557	17322.34
787.891	17339.97
788.224	17346.07
788.557	17275.79
788.89	17213.42
789.223	17207.54
789.556	17041.22
789.888	17005.06
790.221	17022.69
790.554	16903.37
790.887	16902.92
791.219	16783.37
791.552	16753.54
791.884	16677.39
792.217	16656.14
792.549	16644.84
792.882	16567.33
793.214	16535.47
793.546	16611.63
793.879	16474
794.211	16347.45
794.543	16511.52
794.875	16320.56
795.207	16361.24
795.539	16266.32
795.871	16270.62
796.203	16117.85
796.535	16156.04
796.867	16004.86
797.198	16042.83
797.53	16002.15
797.862	15918.54
798.193	15976.84
798.525	15903.4
798.856	15923.73
799.188	15679.9
799.519	15639
799.85	15605.55
800.182	15569.84
800.513	15642.84
800.844	15482.62
801.175	15500.24
801.506	15540.69
801.837	15389.06
802.168	15388.15
802.499	15396.74
802.83	15231.77
803.161	15187.03
803.491	15192
803.822	15229.74
804.153	15020.48
804.483	15076.98
804.814	14998.56
805.145	14997.43
805.475	14963.08
805.805	14826.81
806.136	14915.85
806.466	14854.61
806.796	14863.2
807.126	14676.99
807.457	14655.07
807.787	14646.93
808.117	14643.54
808.447	14525.13
808.777	14646.25
809.107	14571.23
809.436	14433.38
809.766	14470.21
810.096	14474.96
810.426	14440.61
810.755	14439.25
811.085	14252.82
811.414	14327.84
811.744	14211.69
812.073	14230.22
812.403	14200.62
812.732	14110.67
813.061	14140.96
813.39	13988.87
813.719	14015.31
814.049	14105.93
814.378	13971.24
814.707	13973.5
815.036	13893.05
815.365	13952.03
815.693	13751.59
816.022	13761.53
816.351	13820.96
816.68	13684.47
817.008	13739.84
817.337	13604.02
817.665	13625.72
817.994	13558.15
818.322	13628.2
818.651	13503.01
818.979	13458.26
819.307	13514.53
819.636	13479.96
819.964	13351.6
820.292	13516.11
820.62	13413.07
820.948	13391.6
821.276	13412.16
821.604	13408.32
821.932	13418.04
822.259	13470.24
822.587	13363.8
822.915	13344.59
823.243	13403.8
823.57	13334.65
823.898	13368.77
824.225	13266.4
824.553	13280.87
824.88	13359.96
825.207	13368.55
825.535	13358.83
825.862	13372.84
826.189	13259.62
826.516	13309.57
826.843	13354.08
827.17	13356.8
827.497	13381.43
827.824	13387.98
828.151	13396.34
828.478	13337.36
828.805	13374.65
829.131	13317.7
829.458	13370.58
829.785	13254.43
830.111	13316.34
830.438	13341.88
830.764	13248.1
831.09	13379.17
831.417	13256.46
831.743	13227.53
832.069	13349.79
832.395	13304.37
832.722	13361.99
833.048	13246.29
833.374	13251.94
833.7	13198.61
834.026	13202
834.351	13231.15
834.677	13118.61
835.003	13196.35
835.329	13244.48
835.654	13153.19
835.98	13128.33
836.306	13129.46
836.631	13041.1
836.956	13164.71
837.282	13137.14
837.607	12980.53
837.932	13035.45
838.258	12986.64
838.583	12969.91
838.908	12975.11
839.233	12934.21
839.558	12920.65
839.883	12843.14
840.208	12844.27
840.533	12891.72
840.858	12836.36
841.182	12834.32
841.507	12822.57
841.832	12735.34
842.156	12672.29
842.481	12733.76
842.805	12634.33
843.13	12661.9
843.454	12642.92
843.778	12574.44
844.103	12577.38
844.427	12553.2
844.751	12520.66
845.075	12522.47
845.399	12459.19
845.723	12382.58
846.047	12394.34
846.371	12279.76
846.695	12268.01
847.019	12176.26
847.343	12114.79
847.666	12108.01
847.99	12089.03
848.313	12000.9
848.637	11919.09
848.96	11967.68
849.284	11858.76
849.607	11785.54
849.931	11790.96
850.254	11711.19
850.577	11640.68
850.9	11584.41
851.223	11560.68
851.546	11531.08
851.869	11411.54
852.192	11484.08
852.515	11323.4
852.838	11328.15
853.161	11294.7
853.483	11289.51
853.806	11210.64
854.129	11132.9
854.451	11180.13
854.774	11080.25
855.096	11100.58
855.419	11063.07
855.741	11055.84
856.063	10946.69
856.385	10930.87
856.708	10884.32
857.03	10854.26
857.352	10857.2
857.674	10819.24
857.996	10820.82
858.318	10716.87
858.64	10751.44
858.961	10738.79
859.283	10661.5
859.605	10588.28
859.926	10670.09
860.248	10631.9
860.57	10603.87
860.891	10568.62
861.212	10473.26
861.534	10480.94
861.855	10488.85
862.176	10473.93
862.498	10456.53
862.819	10373.82
863.14	10412.92
863.461	10382.64
863.782	10295.86
864.103	10292.7
864.424	10271.23
864.745	10317.78
865.065	10228.29
865.386	10194.17
865.707	10228.74
866.027	10225.8
866.348	10240.27
866.668	10157.78
866.989	10138.8
867.309	10100.61
867.63	10118.69
867.95	10078.01
868.27	10031.69
868.59	10035.3
868.91	10018.8
869.23	9966.38
869.55	9946.26
869.87	9982.65
870.19	9915.08
870.51	9964.57
870.83	9929.77
871.15	9893.84
871.469	9911.69
871.789	9948.75
872.109	9910.33
872.428	9842.09
872.748	9778.13
873.067	9868.75
873.386	9793.5
873.706	9823.33
874.025	9762.99
874.344	9711.69
874.663	9726.83
874.982	9663.11
875.301	9681.19
875.62	9700.17
875.939	9612.71
876.258	9630.11
876.577	9584.24
876.896	9636.67
877.214	9621.98
877.533	9602.54
877.852	9628.53
878.17	9615.43
878.489	9624.01
878.807	9621.75
879.125	9485.94
879.444	9526.39
879.762	9484.13
880.08	9521.42
880.398	9493.62
880.716	9457.24
881.034	9402.1
881.352	9364.58
881.67	9410.46
881.988	9355.54
882.306	9337.69
882.624	9336.56
882.941	9300.63
883.259	9226.73
883.577	9263.12
883.894	9217.24
884.212	9153.97
884.529	9217.47
884.846	9185.61
885.164	9155.55
885.481	9091.37
885.798	9096.57
886.115	9036.68
886.432	9102.44
886.75	9049.34
887.067	9086.4
887.383	8953.97
887.7	9042.56
888.017	8922.56
888.334	8944.93
888.651	8941.77
888.967	8912.62
889.284	8823.81
889.6	8848.21
889.917	8784.49
890.233	8741.55
890.55	8729.35
890.866	8727.54
891.182	8762.11
891.498	8703.81
891.815	8669.01
892.131	8640.31
892.447	8593.08
892.763	8517.15
893.079	8562.35
893.395	8523.25
893.71	8483.48
894.026	8503.59
894.342	8432.86
894.657	8429.92
894.973	8422.91
895.289	8347.66
895.604	8343.59
895.92	8322.35
896.235	8276.25
896.55	8330.49
896.865	8205.07
897.181	8252.3
897.496	8164.16
897.811	8206.65
898.126	8137.27
898.441	8135.92
898.756	8108.35
899.071	8018.86
899.386	8048.91
899.7	7963.49
900.015	7955.58
900.33	7927.56
900.644	7806.43
900.959	7913.32
901.273	7845.08
901.588	7842.14
901.902	7738.64
902.216	7772.08
902.531	7710.39
902.845	7702.03
903.159	7681.92
903.473	7642.6
903.787	7622.94
904.101	7553.56
904.415	7622.26
904.729	7537.06
905.042	7454.8
905.356	7476.95
905.67	7472.88
905.984	7404.41
906.297	7420
906.611	7359.44
906.924	7326.67
907.237	7330.06
907.551	7303.4
907.864	7212.55
908.177	7195.38
908.491	7209.16
908.804	7164.19
909.117	7108.15
909.43	7100.91
909.743	7071.31
910.056	7040.35
910.368	7041.03
910.681	6998.09
910.994	6989.96
911.307	6909.51
911.619	6886.91
911.932	6839.68
912.244	6794.48
912.557	6843.07
912.869	6822.05
913.181	6807.36
913.494	6729.63
913.806	6726.46
914.118	6654.15
914.43	6656.41
914.742	6633.58
915.054	6630.19
915.366	6554.49
915.678	6556.97
915.99	6527.6
916.302	6450.54
916.613	6460.03
916.925	6478.78
917.236	6476.3
917.548	6423.64
917.859	6390.88
918.171	6356.75
918.482	6328.73
918.794	6273.82
919.105	6304.55
919.416	6285.8
919.727	6251.45
920.038	6235.85
920.349	6152.01
920.66	6121.51
920.971	6138.91
921.282	6114.05
921.593	6052.35
921.903	6014.16
922.214	5985.46
922.525	5980.94
922.835	5971.23
923.146	5956.31
923.456	5946.14
923.767	5881.29
924.077	5870.44
924.387	5824.11
924.697	5814.17
925.008	5785.24
925.318	5747.5
925.628	5802.64
925.938	5749.09
926.248	5692.82
926.558	5689.43
926.867	5640.39
927.177	5629.54
927.487	5564.68
927.796	5570.11
928.106	5553.16
928.416	5527.4
928.725	5499.83
929.034	5494.63
929.344	5477.23
929.653	5484.46
929.962	5425.48
930.271	5416.21
930.581	5369.66
930.89	5325.37
931.199	5277.91
931.508	5297.12
931.817	5283.11
932.125	5240.62
932.434	5283.56
932.743	5181.64
933.051	5170.34
933.36	5200.4
933.669	5132.15
933.977	5121.08
934.286	5109.33
934.594	5127.63
934.902	5043.34
935.21	5028.65
935.519	4982.55
935.827	4988.88
936.135	4994.98
936.443	4925.83
936.751	4891.03
937.059	4884.7
937.367	4843.12
937.674	4879.05
937.982	4857.13
938.29	4835.21
938.597	4846.96
938.905	4752.95
939.213	4761.32
939.52	4776.46
939.827	4722.67
940.135	4715.67
940.442	4678.83
940.749	4658.27
941.056	4639.06
941.363	4605.84
941.67	4655.56
941.977	4603.81
942.284	4495.56
942.591	4502.57
942.898	4540.08
943.205	4540.98
943.511	4494.43
943.818	4493.3
944.125	4421.89
944.431	4439.74
944.738	4386.18
945.044	4390.03
945.35	4393.42
945.657	4359.74
945.963	4333.53
946.269	4315.68
946.575	4315.23
946.881	4289.01
947.187	4268.67
947.493	4209.24
947.799	4212.4
948.105	4258.5
948.41	4182.8
948.716	4219.41
949.022	4136.7
949.327	4165.85
949.633	4119.98
949.938	4099.86
950.244	4097.38
950.549	4058.74
950.854	4038.4
951.16	4041.33
951.465	4016.02
951.77	4027.1
952.075	3947.1
952.38	3976.93
952.685	3942.81
952.99	3942.81
953.294	3947.55
953.599	3914.56
953.904	3891.28
954.209	3901.45
954.513	3864.84
954.818	3847.67
955.122	3811.51
955.426	3782.58
955.731	3786.65
956.035	3751.4
956.339	3760.66
956.643	3738.74
956.948	3733.77
957.252	3723.83
957.556	3708.69
957.86	3703.72
958.163	3642.93
958.467	3661.23
958.771	3636.15
959.075	3646.09
959.378	3575.13
959.682	3582.82
959.985	3578.52
960.289	3592.76
960.592	3536.49
960.896	3544.62
961.199	3498.52
961.502	3492.87
961.805	3459.65
962.108	3456.04
962.411	3449.71
962.714	3469.15
963.017	3412.88
963.32	3414.01
963.623	3356.15
963.926	3393.89
964.228	3376.72
964.531	3329.26
964.833	3322.26
965.136	3282.94
965.438	3291.75
965.741	3252.65
966.043	3244.75
966.345	3266.21
966.648	3252.43
966.95	3223.73
967.252	3222.6
967.554	3178.08
967.856	3183.28
968.158	3119.55
968.46	3154.58
968.761	3154.58
969.063	3138.08
969.365	3116.16
969.666	3086.56
969.968	3103.05
970.269	3080.91
970.571	3066.9
970.872	3057.63
971.174	3065.77
971.475	3007.46
971.776	3009.72
972.077	3017.63
972.378	2985.99
972.679	2965.43
972.98	2972.66
973.281	2936.5
973.582	2994.36
973.883	2913.45
974.183	2907.58
974.484	2924.75
974.785	2861.25
975.085	2909.61
975.386	2856.51
975.686	2848.6
975.986	2849.5
976.287	2797.75
976.587	2810.41
976.887	2803.4
977.187	2801.37
977.487	2795.04
977.787	2743.97
978.087	2749.39
978.387	2764.53
978.687	2740.8
978.987	2703.29
979.286	2699.9
979.586	2728.15
979.885	2694.7
980.185	2662.39
980.484	2665.55
980.784	2638.43
981.083	2639.34
981.382	2614.71
981.682	2615.16
981.981	2586.01
982.28	2597.3
982.579	2559.34
982.878	2559.34
983.177	2549.17
983.475	2545.78
983.774	2529.06
984.073	2496.52
984.372	2456.52
984.67	2482.96
984.969	2439.79
985.267	2478.89
985.566	2483.86
985.864	2466.23
986.162	2459
986.461	2449.51
986.759	2435.5
987.057	2442.51
987.355	2390.08
987.653	2437.76
987.951	2387.82
988.249	2355.73
988.547	2350.53
988.844	2353.47
989.142	2307.82
989.44	2336.52
989.737	2335.39
990.035	2305.33
990.332	2304.43
990.63	2254.04
990.927	2269.86
991.224	2244.32
991.521	2254.04
991.819	2238.22
992.116	2248.39
992.413	2239.12
992.71	2201.38
993.006	2233.02
993.303	2211.33
993.6	2207.03
993.897	2191.21
994.193	2156.64
994.49	2154.83
994.787	2131.33
995.083	2104.66
995.379	2125.9
995.676	2110.54
995.972	2097.88
996.268	2086.58
996.565	2103.53
996.861	2052.23
997.157	2021.05
997.453	2052.91
997.749	2078.45
998.044	2008.85
998.34	2031.44
998.636	2011.56
998.932	2012.46
999.227	1996.42
999.523	1982.63
999.818	1958.45
1000.114	1966.59
1000.409	1953.03
1000.704	1962.75
1001	1926.81
1001.295	1909.64
1001.59	1903.09
1001.885	1875.52
1002.18	1907.61
1002.475	1883.2
1002.77	1871.9
1003.065	1833.26
1003.359	1855.18
1003.654	1866.48
1003.949	1832.13
1004.243	1809.53
1004.538	1829.42
1004.832	1818.79
1005.127	1766.14
1005.421	1801.85
1005.715	1756.87
1006.009	1753.48
1006.304	1752.81
1006.598	1765.69
1006.892	1755.52
1007.186	1742.41
1007.48	1698.35
1007.773	1716.42
1008.067	1694.28
1008.361	1674.62
1008.655	1680.94
1008.948	1662.19
1009.242	1673.04
1009.535	1677.78
1009.829	1630.1
1010.122	1618.8
1010.415	1621.29
1010.708	1604.79
1011.001	1611.12
1011.295	1591.91
1011.588	1568.18
1011.881	1562.3
1012.173	1550.55
1012.466	1571.79
1012.759	1538.58
1013.052	1540.38
1013.344	1527.28
1013.637	1499.48
1013.93	1494.06
1014.222	1506.03
1014.514	1498.35
1014.807	1507.84
1015.099	1463.55
1015.391	1457
1015.683	1454.06
1015.976	1485.47
1016.268	1433.04
1016.56	1433.04
1016.851	1429.43
1017.143	1422.65
1017.435	1403.21
1017.727	1378.81
1018.018	1387.39
1018.31	1394.62
1018.602	1362.31
1018.893	1389.2
1019.185	1378.58
1019.476	1342.42
1019.767	1337.45
1020.058	1325.25
1020.35	1347.85
1020.641	1324.57
1020.932	1320.73
1021.223	1299.94
1021.514	1287.96
1021.804	1299.03
1022.095	1308.3
1022.386	1295.42
1022.677	1239.15
1022.967	1232.14
1023.258	1256.77
1023.548	1222.43
1023.839	1232.37
1024.129	1242.31
1024.419	1210.67
1024.709	1226.49
1025	1211.35
1025.29	1207.96
1025.58	1180.17
1025.87	1156.44
1026.16	1160.28
1026.449	1180.39
1026.739	1146.95
1027.029	1155.31
1027.319	1117.12
1027.608	1132.94
1027.898	1125.25
1028.187	1135.2
1028.477	1130.9
1028.766	1140.85
1029.055	1118.25
1029.344	1116.89
1029.634	1056.33
1029.923	1094.97
1030.212	1061.3
1030.501	1067.4
1030.79	1044.35
1031.078	1065.14
1031.367	1041.87
1031.656	1024.92
1031.945	1052.26
1032.233	1018.82
1032.522	1016.56
1032.81	1031.92
1033.099	1002.32
1033.387	1004.13
1033.675	992.83
1033.963	992.83
1034.251	975.88
1034.54	968.42
1034.828	970.91
1035.116	968.65
1035.403	963.22
1035.691	948.53
1035.979	944.92
1036.267	969.1
1036.554	948.99
1036.842	940.17
1037.129	922.32
1037.417	909.89
1037.704	909.89
1037.992	912.83
1038.279	916.22
1038.566	885.71
1038.853	885.71
1039.14	885.71
