Data from hue_60_FLMS001491_86.txt Node
Date: Mon Feb 06 15:18:03 GMT 2017
User: dcchb
Spectrometer: FLMS00149
Trigger mode: 0
Integration Time (sec): 2.000000E-2
Scans to average: 10
Electric dark correction enabled: true
Nonlinearity correction enabled: false
Boxcar width: 0
XAxis mode: Wavelengths
Number of Pixels in Spectrum: 2048
>>>>>Begin Spectral Data<<<<<
341.393	-11.61
341.776	-11.61
342.16	-11.61
342.543	-67.65
342.927	-61.33
343.31	-90.03
343.693	-57.71
344.077	-57.94
344.46	-51.38
344.843	-39.86
345.226	-53.42
345.61	-27.43
345.993	-17.94
346.376	7.82
346.759	6.02
347.142	22.06
347.525	43.53
347.908	68.16
348.291	73.59
348.674	72.23
349.057	102.29
349.44	128.95
349.823	136.18
350.206	187.71
350.588	192
350.971	232.68
351.354	217.76
351.737	229.51
352.119	247.14
352.502	274.03
352.884	270.42
353.267	292.11
353.65	313.58
354.032	306.8
354.414	328.72
354.797	320.13
355.179	334.82
355.562	322.39
355.944	332.56
356.326	326.91
356.709	350.64
357.091	337.76
357.473	347.7
357.855	341.38
358.238	328.72
358.62	348.38
359.002	345.44
359.384	324.65
359.766	329.17
360.148	329.85
360.53	357.42
360.912	357.19
361.294	340.92
361.676	332.34
362.057	334.6
362.439	337.31
362.821	349.74
363.203	339.57
363.584	328.04
363.966	333.47
364.348	322.84
364.729	315.61
365.111	321.94
365.493	326.01
365.874	336.63
366.256	340.47
366.637	328.49
367.019	331.43
367.4	356.06
367.781	327.14
368.163	332.34
368.544	329.62
368.925	320.13
369.306	326.69
369.688	327.82
370.069	306.57
370.45	309.96
370.831	329.4
371.212	348.15
371.593	316.74
371.974	316.07
372.355	308.16
372.736	345.22
373.117	330.98
373.498	310.19
373.879	326.23
374.26	320.58
374.641	339.79
375.021	311.55
375.402	321.94
375.783	321.49
376.163	320.81
376.544	343.41
376.925	330.08
377.305	324.65
377.686	332.79
378.066	347.02
378.447	330.75
378.827	352
379.208	325.1
379.588	348.83
379.968	313.13
380.349	320.58
380.729	335.95
381.109	323.52
381.489	337.53
381.87	338.66
382.25	326.69
382.63	333.47
383.01	338.66
383.39	330.98
383.77	352
384.15	325.56
384.53	337.76
384.91	342.73
385.29	338.89
385.67	350.41
386.049	348.61
386.429	360.81
386.809	365.78
387.189	349.06
387.568	347.7
387.948	343.41
388.328	345.22
388.707	359.68
389.087	362.62
389.466	386.8
389.846	377.98
390.225	369.62
390.605	367.82
390.984	375.95
391.363	363.75
391.743	380.7
392.122	362.84
392.501	364.2
392.881	375.05
393.26	374.37
393.639	370.3
394.018	388.15
394.397	373.24
394.776	397.87
395.155	375.95
395.534	382.73
395.913	362.84
396.292	396.51
396.671	382.96
397.05	376.63
397.429	371.2
397.808	386.35
398.186	375.27
398.565	378.89
398.944	358.32
399.323	385.67
399.701	413.01
400.08	399.23
400.458	402.16
400.837	386.8
401.215	373.01
401.594	390.64
401.972	382.96
402.351	393.13
402.729	380.7
403.107	415.27
403.486	373.69
403.864	392.22
404.242	403.75
404.62	413.69
404.999	415.5
405.377	406.91
405.755	413.46
406.133	416.4
406.511	414.82
406.889	422.05
407.267	428.38
407.645	441.03
408.023	446.68
408.401	414.59
408.779	433.12
409.156	435.61
409.534	449.62
409.912	424.54
410.29	423.18
410.667	439.45
411.045	437.87
411.422	437.64
411.8	453.24
412.178	452.56
412.555	452.11
412.933	439.9
413.31	444.88
413.687	488.49
414.065	472.9
414.442	472.67
414.819	472.45
415.197	482.61
415.574	476.51
415.951	471.32
416.328	480.58
416.705	471.54
417.082	499.11
417.46	480.58
417.837	471.99
418.214	474.48
418.591	500.02
418.967	499.11
419.344	504.99
419.721	496.63
420.098	504.53
420.475	500.47
420.852	521.94
421.228	519
421.605	492.56
421.982	517.19
422.358	514.25
422.735	515.38
423.111	515.83
423.488	533.46
423.864	519
424.241	538.43
424.617	535.27
424.994	538.66
425.37	534.82
425.746	535.49
426.123	543.18
426.499	535.27
426.875	558.54
427.251	563.52
427.627	559.67
428.003	565.55
428.379	559.9
428.756	548.15
429.132	548.15
429.507	589.73
429.883	593.12
430.259	588.15
430.635	594.48
431.011	608.94
431.387	594.25
431.763	597.64
432.138	597.87
432.514	603.74
432.89	596.51
433.265	632.44
433.641	619.56
434.016	643.29
434.392	620.92
434.767	632.67
435.143	638.09
435.518	648.94
435.894	636.73
436.269	627.02
436.644	641.71
437.02	663.63
437.395	637.86
437.77	671.99
438.145	660.91
438.52	678.54
438.895	681.25
439.271	678.77
439.646	690.74
440.021	686.45
440.395	693.91
440.77	662.5
441.145	697.07
441.52	718.31
441.895	725.32
442.27	724.64
442.645	721.48
443.019	718.99
443.394	711.99
443.769	741.14
444.143	715.83
444.518	742.27
444.892	738.88
445.267	765.32
445.641	764.19
446.016	756.96
446.39	748.37
446.764	748.82
447.139	752.66
447.513	789.72
447.887	771.42
448.262	768.48
448.636	781.59
449.01	796.05
449.384	792.89
449.758	772.78
450.132	788.14
450.506	808.48
450.88	800.35
451.254	789.05
451.628	822.04
452.002	831.76
452.376	845.54
452.75	830.63
453.123	850.06
453.497	838.09
453.871	860.23
454.244	862.72
454.618	896.39
454.992	887.12
455.365	876.95
455.739	914.92
456.112	906.56
456.486	919.67
456.859	910.63
457.232	928.93
457.606	954.47
457.979	967.35
458.352	961.92
458.725	959.21
459.099	958.08
459.472	994.69
459.845	1040.34
460.218	1004.41
460.591	1051.64
460.964	1036.27
461.337	1062.26
461.71	1045.54
462.083	1078.53
462.456	1072.88
462.829	1090.96
463.201	1107.91
463.574	1103.84
463.947	1128.93
464.32	1156.5
464.692	1137.74
465.065	1208.25
465.438	1176.16
465.81	1210.73
466.183	1241.24
466.555	1258.64
466.928	1258.87
467.3	1267
467.672	1288.24
468.045	1288.24
468.417	1319.88
468.789	1343.61
469.161	1361.24
469.534	1415.92
469.906	1401.23
470.278	1424.28
470.65	1452.31
471.022	1502.02
471.394	1536.15
471.766	1547.22
472.138	1584.96
472.51	1589.7
472.882	1640.1
473.253	1675.58
473.625	1727.55
473.997	1735.69
474.369	1768.91
474.74	1803.03
475.112	1869.02
475.484	1895.01
475.855	1963.03
476.227	1987.21
476.598	2049.13
476.97	2051.16
477.341	2157.37
477.713	2200.76
478.084	2260.87
478.455	2389.68
478.827	2392.85
479.198	2433.75
479.569	2482.79
479.94	2610.47
480.311	2698.38
480.682	2733.63
481.053	2847.07
481.424	2909.44
481.795	2972.04
482.166	3054.52
482.537	3159.83
482.908	3227.4
483.279	3343.56
483.65	3471.01
484.021	3546.94
484.391	3649.31
484.762	3713.72
485.133	3833.03
485.503	3957.1
485.874	4127.49
486.244	4170.2
486.615	4325.23
486.985	4475.73
487.356	4591.21
487.726	4680.92
488.097	4835.72
488.467	4941.03
488.837	5111.65
489.207	5260.57
489.578	5365.65
489.948	5493.33
490.318	5639.99
490.688	5785.98
491.058	5914.34
491.428	6092.18
491.798	6247.21
492.168	6358.17
492.538	6541.89
492.908	6704.82
493.278	6833.63
493.648	6921.32
494.017	7155.21
494.387	7283.79
494.757	7425.03
495.126	7613.95
495.496	7756.32
495.866	7867.28
496.235	8053.26
496.605	8232.92
496.974	8329.19
497.344	8513.14
497.713	8635.39
498.082	8804.43
498.452	9075.16
498.821	9089.39
499.19	9164.19
499.559	9408.71
499.928	9610.28
500.298	9685.99
500.667	9911.07
501.036	9940.67
501.405	10183.15
501.774	10245.3
502.143	10432.86
502.512	10532.97
502.88	10772.29
503.249	10793.3
503.618	10966.18
503.987	11132.5
504.356	11254.31
504.724	11387.86
505.093	11555.32
505.462	11610.68
505.83	11847.51
506.199	11851.13
506.567	12200.5
506.936	12238.46
507.304	12385.13
507.672	12538.34
508.041	12730.65
508.409	12817.43
508.777	13022.62
509.145	13185.56
509.514	13149.85
509.882	13348.49
510.25	13481.59
510.618	13708.03
510.986	13760.01
511.354	13933.33
511.722	14037.74
512.09	14270.27
512.458	14317.73
512.826	14543.26
513.193	14576.93
513.561	14652.41
513.929	14860.54
514.297	14938.51
514.664	15159.74
515.032	15257.82
515.4	15460.53
515.767	15515.21
516.135	15740.97
516.502	15613.29
516.869	15938.25
517.237	15991.59
517.604	16086.5
517.972	16216.44
518.339	16413.95
518.706	16496.2
519.073	16577.78
519.44	16716.99
519.808	17007.6
520.175	16959.92
520.542	17298.67
520.909	17316.3
521.276	17359.23
521.643	17674.25
522.009	17743.63
522.376	17882.38
522.743	17984.75
523.11	18319.43
523.477	18398.08
523.843	18591.74
524.21	18754.22
524.577	18923.71
524.943	19036.7
525.31	19130.03
525.676	19219.75
526.043	19476.24
526.409	19624.94
526.776	19817.02
527.142	19796.68
527.508	20000.97
527.874	20211.14
528.241	20272.6
528.607	20487.96
528.973	20670.11
529.339	20636.43
529.705	20843.66
530.071	20913.04
530.437	21013.37
530.803	21181.28
531.169	21329.98
531.535	21290.2
531.901	21402.29
532.267	21541.04
532.632	21660.81
532.998	21726.12
533.364	21929.06
533.73	21964.99
534.095	22089.96
534.461	22278.65
534.826	22364.75
535.192	22384.41
535.557	22570.17
535.923	22520
536.288	22588.7
536.653	22768.81
537.019	22816.26
537.384	22851.74
537.749	23035.69
538.114	23129.02
538.479	23125.18
538.845	23296.93
539.21	23338.28
539.575	23437.27
539.94	23494.44
540.305	23678.84
540.67	23620.09
541.034	23794.32
541.399	23834.99
541.764	23955.9
542.129	24042.67
542.494	23962.45
542.858	24156.34
543.223	24175.78
543.587	24265.49
543.952	24285.6
544.316	24369.9
544.681	24368.31
545.045	24550.91
545.41	24687.18
545.774	24684.69
546.138	24766.27
546.503	24872.93
546.867	24986.83
547.231	25170.78
547.595	25109.09
547.959	25243.09
548.324	25325.58
548.688	25359.47
549.052	25499.13
549.416	25520.83
549.779	25608.28
550.143	25656.42
550.507	25846.47
550.871	25795.62
551.235	25881.49
551.599	26038.78
551.962	26138.44
552.326	26262.05
552.689	26445.1
553.053	26278.09
553.417	26530.74
553.78	26725.09
554.143	26641.25
554.507	26770.28
554.87	26781.36
555.234	27149.03
555.597	26958.98
555.96	27025.19
556.323	27237.39
556.686	27340.67
557.05	27483.71
557.413	27523.26
557.776	27634.22
558.139	27809.35
558.502	27881.89
558.865	27881.44
559.228	28113.98
559.59	28163.92
559.953	28335.67
560.316	28573.18
560.679	28617.47
561.041	28726.84
561.404	28922.32
561.767	29018.14
562.129	28984.24
562.492	29347.84
562.854	29325.02
563.217	29341.74
563.579	29504.9
563.941	29577.22
564.304	29874.61
564.666	29967.26
565.028	30080.25
565.39	30178.78
565.753	30331.1
566.115	30428.27
566.477	30499.68
566.839	30620.13
567.201	30891.76
567.563	30784.64
567.925	31109.15
568.287	31084.75
568.648	31079.1
569.01	31260.34
569.372	31553.66
569.734	31519.76
570.095	31807.21
570.457	31855.12
570.819	31859.87
571.18	31822.81
571.542	32056.25
571.903	32123.36
572.265	32285.62
572.626	32345.73
572.987	32370.59
573.349	32608.78
573.71	32591.15
574.071	32716.8
574.432	32750.69
574.794	33051.93
575.155	33113.39
575.516	33117.01
575.877	32989.33
576.238	33213.96
576.599	33238.14
576.96	33305.03
577.32	33400.39
577.681	33521.29
578.042	33519.49
578.403	33612.59
578.763	33742.08
579.124	33800.83
579.485	33919.48
579.845	33955.18
580.206	33962.86
580.566	33913.37
580.927	33944.33
581.287	34122.86
581.648	34003.54
582.008	34127.83
582.368	34072.24
582.728	34136.64
583.089	34199.02
583.449	34206.25
583.809	34332.35
584.169	34313.36
584.529	34183.88
584.889	34530.76
585.249	34363.53
585.609	34279.01
585.969	34374.38
586.329	34523.98
586.688	34438.11
587.048	34392.01
587.408	34287.38
587.768	34224.33
588.127	34458.44
588.487	34406.47
588.846	34563.07
589.206	34395.4
589.565	34315.62
589.925	34592.45
590.284	34441.95
590.643	34456.18
591.003	34773.01
591.362	34850.75
591.721	34796.29
592.08	34614.6
592.44	34768.94
592.799	34888.04
593.158	34712.67
593.517	34742.73
593.876	34872.22
594.235	34768.27
594.593	34685.56
594.952	34840.58
595.311	34788.83
595.67	34971.2
596.029	35046.23
596.387	35140.46
596.746	35298.2
597.104	35094.81
597.463	35060.24
597.822	35238.76
598.18	35143.4
598.538	35019.56
598.897	35264.3
599.255	34947.92
599.613	35555.82
599.972	35223.17
600.33	35328.7
600.688	35210.74
601.046	35467.91
601.404	35565.99
601.762	35481.02
602.12	35689.82
602.478	35667.45
602.836	35723.72
603.194	35436.05
603.552	35640.11
603.91	35626.55
604.268	35841.23
604.625	35651.18
604.983	35970.72
605.341	35827
605.698	35928.69
606.056	36002.81
606.413	35969.59
606.771	36230.15
607.128	36245.97
607.485	36061.57
607.843	36328.9
608.2	36328.68
608.557	36303.82
608.914	36287.1
609.272	36416.58
609.629	36630.82
609.986	36720.76
610.343	36458.39
610.7	36816.12
611.057	36872.84
611.414	36830.36
611.771	36862.67
612.127	37029.68
612.484	37054.08
612.841	37110.58
613.198	37076.23
613.554	37125.72
613.911	37285.26
614.267	37312.61
614.624	37312.38
614.98	37352.61
615.337	37547.18
615.693	37542.2
616.05	37583.56
616.406	37744.91
616.762	37689.55
617.118	37647.96
617.475	37640.28
617.831	37841.86
618.187	37848.64
618.543	37875.53
618.899	38066.03
619.255	38115.98
619.611	38048.18
619.967	38149.87
620.323	38228.51
620.678	38154.62
621.034	38102.42
621.39	38095.41
621.746	38199.81
622.101	38563.42
622.457	38237.55
622.812	38299.02
623.168	38444.55
623.523	38398.68
623.879	38468.96
624.234	38338.12
624.589	38403.43
624.945	38499.47
625.3	38605.23
625.655	38592.35
626.01	38592.35
626.365	38657.66
626.72	38636.64
627.075	38678.9
627.43	38664.66
627.785	38563.65
628.14	38751.44
628.495	38761.61
628.85	38692.68
629.205	38527.94
629.559	38824.66
629.914	38675.06
630.269	38695.17
630.623	38566.81
630.978	38603.19
631.332	38848.39
631.687	38701.27
632.041	38616.98
632.396	38751.21
632.75	38484.55
633.104	38611.78
633.459	38413.82
633.813	38464.67
634.167	38444.1
634.521	38414.72
634.875	38516.64
635.229	38324.11
635.583	38324.11
635.937	38334.05
636.291	38370.66
636.645	38327.72
636.999	38316.87
637.352	38370.66
637.706	38159.82
638.06	38361.39
638.413	38251.34
638.767	38095.64
639.121	38272.81
639.474	37920.95
639.828	38057.45
640.181	38007.96
640.534	38094.51
640.888	38198.01
641.241	37911.91
641.594	37985.81
641.947	38049.99
642.301	38052.7
642.654	37984.45
643.007	37896.55
643.36	37999.59
643.713	37910.33
644.066	38000.27
644.419	37652.26
644.771	37413.62
645.124	37065.61
645.477	37071.26
645.83	36938.83
646.182	36803.02
646.535	36776.35
646.888	36780.42
647.24	36626.75
647.593	36734.54
647.945	36725.73
648.298	36521.44
648.65	36512.4
649.002	36405.96
649.355	36564.15
649.707	36437.15
650.059	36604.38
650.411	37030.35
650.763	37130.46
651.115	37452.72
651.467	37361.19
651.819	37152.61
652.171	37247.52
652.523	37165.94
652.875	37275.32
653.227	37066.74
653.578	37286.39
653.93	37183.57
654.282	36905.84
654.633	37027.87
654.985	37030.35
655.337	37080.75
655.688	36981.09
656.039	37129.79
656.391	36684.37
656.742	36966.85
657.094	36925.27
657.445	36958.27
657.796	36971.15
658.147	36891.37
658.498	36893.86
658.849	36921.43
659.2	36891.15
659.551	36744.71
659.902	36918.27
660.253	36866.74
660.604	36960.98
660.955	36669.69
661.306	36776.12
661.656	36687.76
662.007	36763.24
662.358	36798.5
662.708	36720.76
663.059	36685.5
663.409	36597.15
663.76	36836.91
664.11	36722.57
664.461	36797.82
664.811	36728.22
665.161	36720.76
665.511	36628.78
665.862	36722.57
666.212	36786.52
666.562	36800.76
666.912	36553.76
667.262	36597.37
667.612	36687.31
667.962	36747.42
668.312	36586.3
668.662	36695.9
669.011	36561.89
669.361	36488.67
669.711	36610.93
670.06	36634.66
670.41	36393.99
670.76	36387.21
671.109	36644.6
671.459	36433.76
671.808	36400.77
672.157	36467.2
672.507	36249.13
672.856	36309.02
673.205	36363.25
673.554	36516.7
673.904	36202.58
674.253	36536.58
674.602	36387.43
674.951	35901.57
675.3	35655.02
675.649	36273.99
675.998	36314.67
676.346	36222.69
676.695	36300.66
677.044	35885.98
677.393	35961.91
677.741	36126.42
678.09	35920.55
678.438	35929.82
678.787	36022.47
679.135	35941.57
679.484	35885.53
679.832	35950.83
680.181	35652.09
680.529	35740.9
680.877	35874.23
681.225	35716.49
681.573	35984.73
681.922	35665.19
682.27	35446.67
682.618	35493.22
682.966	35522.37
683.314	35612.99
683.661	35414.58
684.009	35375.26
684.357	35154.7
684.705	35300.46
685.053	35263.62
685.4	35192.44
685.748	35030.63
686.095	35020.01
686.443	34874.03
686.79	34799.23
687.138	34998.77
687.485	34886.46
687.832	34844.87
688.18	34764.2
688.527	34675.39
688.874	34526.24
689.221	34557.42
689.568	34476.07
689.915	34318.11
690.262	34325.11
690.609	34259.81
690.956	33981.39
691.303	34058.23
691.65	34028.17
691.997	33921.74
692.344	33565.36
692.69	33725.13
693.037	33742.98
693.383	33607.17
693.73	33629.77
694.077	33422.99
694.423	33432.71
694.769	33415.99
695.116	33174.86
695.462	33248.76
695.808	33102.32
696.155	33047.63
696.501	32878.15
696.847	32903.68
697.193	32625.95
697.539	32753.18
697.885	32566.29
698.231	32487.87
698.577	32556.35
698.923	32362.23
699.269	32313.87
699.614	32119.3
699.96	32108.68
700.306	32187.32
700.651	31962.24
700.997	31945.06
701.342	31774
701.688	31761.34
702.033	31587.33
702.379	31522.25
702.724	31532.19
703.069	31555.7
703.415	31151.64
703.76	31225.08
704.105	31125.42
704.45	31178.98
704.795	30938.76
705.14	30849.05
705.485	30907.35
705.83	30778.09
706.175	30830.07
706.52	30722.95
706.865	30622.39
707.209	30502.62
707.554	30443.86
707.899	30513.92
708.243	30292.68
708.588	30371.55
708.932	30178.78
709.277	30140.82
709.621	30054.49
709.966	29973.36
710.31	29979.69
710.654	29722.98
710.998	29767.72
711.342	29847.04
711.687	29609.08
712.031	29534.73
712.375	29478.24
712.719	29414.06
713.063	29599.14
713.407	29544.68
713.75	29275.98
714.094	29242.54
714.438	29112.14
714.782	29204.35
715.125	29058.36
715.469	29149.88
715.812	28939.49
716.156	28784.24
716.499	28949.89
716.843	28814.98
717.186	28687.75
717.53	28737.92
717.873	28808.42
718.216	28780.85
718.559	28579.5
718.902	28363.24
719.246	28600.29
719.589	28496.57
719.932	28340.86
720.275	28375.44
720.617	28221.32
720.96	28330.92
721.303	28269.23
721.646	28097.26
721.989	28023.59
722.331	28039.18
722.674	28050.93
723.016	28045.51
723.359	27985.17
723.701	27894.1
724.044	27756.25
724.386	27673.09
724.729	27796.47
725.071	27749.69
725.413	27575.01
725.755	27623.14
726.097	27565.07
726.439	27316.71
726.782	27559.64
727.124	27532.98
727.465	27371.62
727.807	27272.64
728.149	27258.86
728.491	27232.19
728.833	27232.19
729.175	27206.21
729.516	27099.77
729.858	27152.2
730.199	27023.16
730.541	27042.59
730.882	26920.11
731.224	26961.47
731.565	26954.69
731.906	26881.69
732.248	26916.27
732.589	26682.83
732.93	26655.94
733.271	26663.39
733.612	26713.56
733.953	26656.16
734.294	26514.25
734.635	26451.2
734.976	26496.62
735.317	26344.08
735.658	26375.49
735.999	26339.79
736.339	26276.51
736.68	26347.92
737.021	26259.11
737.361	26211.2
737.702	26213.01
738.042	26112
738.383	26057.31
738.723	26201.49
739.063	26062.73
739.404	26001.49
739.744	25955.84
740.084	25942.06
740.424	25975.96
740.764	25889.18
741.104	25968.95
741.444	25759.01
741.784	25699.58
742.124	25702.97
742.464	25770.99
742.804	25631.11
743.143	25613.48
743.483	25518.34
743.823	25521.28
744.162	25495.29
744.502	25532.58
744.841	25453.94
745.181	25437.66
745.52	25281.74
745.86	25316.54
746.199	25301.17
746.538	25234.51
746.877	25313.37
747.216	25214.85
747.556	25198.8
747.895	25141.18
748.234	25036.77
748.573	25012.82
748.911	25001.74
749.25	24942.76
749.589	24827.06
749.928	24856.44
750.267	24845.14
750.605	24808.75
750.944	24664.58
751.283	24643.34
751.621	24705.48
751.96	24615.54
752.298	24502.32
752.636	24451.02
752.975	24333.74
753.313	24392.49
753.651	24515.88
753.989	24310.46
754.327	24206.28
754.666	24098.72
755.004	24149.34
755.342	24107.3
755.679	24067.98
756.017	23940.75
756.355	23977.36
756.693	23933.75
757.031	23792.74
757.368	23766.75
757.706	23756.58
758.044	23670.93
758.381	23637.03
758.719	23604.04
759.056	23429.13
759.394	23449.47
759.731	23352.52
760.068	23344.39
760.405	23213.09
760.743	23168.57
761.08	23224.84
761.417	23183.71
761.754	23003.15
762.091	22997.73
762.428	22783.72
762.765	22770.84
763.102	22755.93
763.438	22666.66
763.775	22577.17
764.112	22621.69
764.449	22607.91
764.785	22489.72
765.122	22386.67
765.458	22299.67
765.795	22183.29
766.131	22136.51
766.467	22120.92
766.804	22010.18
767.14	21947.13
767.476	21857.19
767.812	21870.53
768.148	21819
768.485	21700.36
768.821	21588.95
769.157	21568.61
769.492	21487.49
769.828	21410.88
770.164	21288.4
770.5	21211.11
770.836	21174.05
771.171	21096.54
771.507	21000.04
771.842	20871.68
772.178	20973.6
772.513	20850.44
772.849	20758.24
773.184	20699.48
773.519	20612.93
773.855	20495.87
774.19	20353.28
774.525	20428.3
774.86	20358.48
775.195	20286.39
775.53	20148.76
775.865	20113.74
776.2	19977.7
776.535	19825.83
776.87	19905.38
777.205	19723.24
777.539	19741.77
777.874	19789
778.209	19607.99
778.543	19502.45
778.878	19448.9
779.212	19437.6
779.547	19287.54
779.881	19353.08
780.215	19138.85
780.55	19084.84
780.884	19014.78
781.218	19032.86
781.552	18940.43
781.886	18780.66
782.22	18795.81
782.554	18745.64
782.888	18583.16
783.222	18596.26
783.556	18423.39
783.889	18341.81
784.223	18353.78
784.557	18303.61
784.89	18210.06
785.224	18111.3
785.557	18058.65
785.891	17966.22
786.224	17932.78
786.558	17961.48
786.891	17793.12
787.224	17744.08
787.557	17650.98
787.891	17604.2
788.224	17639.45
788.557	17615.95
788.89	17481.72
789.223	17568.27
789.556	17300.93
789.888	17336.41
790.221	17277.2
790.554	17095.74
790.887	17180.03
791.219	17054.38
791.552	17080.37
791.884	16918.34
792.217	16947.04
792.549	16870.21
792.882	16766.93
793.214	16638.8
793.546	16705.46
793.879	16503.89
794.211	16389.09
794.543	16556.54
794.875	16389.54
795.207	16450.1
795.539	16325.14
795.871	16350.45
796.203	16252.6
796.535	16120.4
796.867	16138.7
797.198	16124.91
797.53	16080.4
797.862	15939.38
798.193	16002.66
798.525	15830.46
798.856	15875.2
799.188	15628.88
799.519	15587.98
799.85	15500.52
800.182	15560.18
800.513	15631.59
800.844	15365.16
801.175	15416.01
801.506	15342.56
801.837	15305.5
802.168	15232.06
802.499	15304.82
802.83	15235.67
803.161	15116.58
803.491	15080.2
803.822	15107.31
804.153	15049.24
804.483	14915.91
804.814	14850.37
805.145	14853.76
805.475	14767.66
805.805	14736.25
806.136	14679.3
806.466	14752.52
806.796	14685.4
807.126	14584.39
807.457	14506.2
807.787	14558.4
808.117	14375.81
808.447	14475.47
808.777	14483.83
809.107	14295.13
809.436	14321.8
809.766	14318.86
810.096	14264.17
810.426	14231.63
810.755	14216.49
811.085	14133.33
811.414	14093.56
811.744	14011.52
812.073	14017.4
812.403	13944.63
812.732	13944.86
813.061	13887.69
813.39	13810.17
813.719	13750.29
814.049	13887.69
814.378	13747.35
814.707	13748.71
815.036	13815.15
815.365	13670.29
815.693	13535.83
816.022	13645.21
816.351	13503.51
816.68	13426.91
817.008	13509.62
817.337	13387.81
817.665	13385.55
817.994	13400.92
818.322	13303.75
818.651	13235.05
818.979	13277.08
819.307	13281.6
819.636	13214.71
819.964	13213.35
820.292	13197.76
820.62	13147.37
820.948	13202.05
821.276	13151.21
821.604	13138.1
821.932	13094.49
822.259	13069.63
822.587	13135.62
822.915	13069.85
823.243	13123.19
823.57	13140.81
823.898	13051.32
824.225	13012.45
824.553	13032.34
824.88	13066.92
825.207	13084.99
825.535	13054.04
825.862	13096.97
826.189	13000.7
826.516	13035.05
826.843	13121.83
827.17	13053.58
827.497	13017.65
827.824	13033.7
828.151	13086.58
828.478	12992.57
828.805	13047.03
829.131	13077.09
829.458	13013.13
829.785	12967.03
830.111	13032.57
830.438	13086.8
830.764	13009.52
831.09	13077.09
831.417	12902.17
831.743	12959.12
832.069	12988.73
832.395	12924.55
832.722	13002.96
833.048	12911.89
833.374	12948.05
833.7	12833.93
834.026	12905.79
834.351	12866.02
834.677	12927.26
835.003	12889.52
835.329	12856.53
835.654	12807.49
835.98	12716.64
836.306	12785.12
836.631	12716.64
836.956	12734.95
837.282	12772.23
837.607	12738.56
837.932	12692.91
838.258	12715.29
838.583	12662.86
838.908	12562.07
839.233	12670.09
839.558	12650.2
839.883	12622.86
840.208	12592.58
840.533	12437.1
840.858	12469.64
841.182	12510.55
841.507	12465.8
841.832	12365.01
842.156	12381.06
842.481	12408.18
842.805	12349.42
843.13	12261.51
843.454	12279.82
843.778	12248.63
844.103	12186.94
844.427	12221.74
844.751	12176.54
845.075	12126.15
845.399	12121.63
845.723	12123.66
846.047	12044.57
846.371	11911.47
846.695	11944.91
847.019	11805.48
847.343	11786.05
847.666	11712.38
847.99	11693.17
848.313	11701.08
848.637	11648.2
848.96	11637.8
849.284	11556.9
849.607	11463.34
849.931	11458.37
850.254	11325.49
850.577	11290.47
850.9	11244.37
851.223	11174.76
851.546	11182.67
851.869	11105.39
852.192	11089.12
852.515	11034.43
852.838	11044.6
853.161	10965.73
853.483	10870.14
853.806	10899.29
854.129	10924.83
854.451	10866.75
854.774	10750.14
855.096	10754.21
855.419	10748.11
855.741	10734.55
856.063	10628.56
856.385	10593.99
856.708	10623.36
857.03	10541.56
857.352	10611.61
857.674	10539.98
857.996	10487.1
858.318	10454.1
858.64	10403.94
858.961	10459.53
859.283	10347.44
859.605	10327.78
859.926	10291.85
860.248	10300.66
860.57	10262.47
860.891	10235.8
861.212	10239.87
861.534	10156.26
861.855	10144.28
862.176	10205.07
862.498	10169.37
862.819	10168.46
863.14	10114
863.461	10075.13
863.782	9997.39
864.103	10028.8
864.424	9949.48
864.745	10010.27
865.065	9919.43
865.386	9906.32
865.707	9892.99
866.027	9901.58
866.348	9919.2
866.668	9892.31
866.989	9854.57
867.309	9871.52
867.63	9826.32
867.95	9737.51
868.27	9782.03
868.59	9756.49
868.91	9784.74
869.23	9704.97
869.55	9636.27
869.87	9683.05
870.19	9680.34
870.51	9726.44
870.83	9619.78
871.15	9630.17
871.469	9608.7
871.789	9655.48
872.109	9625.88
872.428	9581.36
872.748	9575.48
873.067	9622.04
873.386	9637.85
873.706	9590.85
874.025	9490.29
874.344	9446.67
874.663	9476.28
874.982	9450.51
875.301	9393.11
875.62	9378.43
875.939	9335.94
876.258	9435.37
876.577	9313.12
876.896	9383.17
877.214	9323.74
877.533	9271.76
877.852	9276.51
878.17	9336.17
878.489	9295.72
878.807	9288.26
879.125	9234.7
879.444	9246.9
879.762	9234.93
880.08	9221.14
880.398	9151.77
880.716	9212.78
881.034	9172.78
881.352	9135.04
881.67	9153.8
881.988	9110.64
882.306	9083.29
882.624	9041.26
882.941	9042.16
883.259	8989.28
883.577	8988.38
883.894	8930.08
884.212	8928.95
884.529	8958.1
884.846	8903.18
885.164	8882.17
885.481	8907.25
885.798	8827.71
886.115	8794.03
886.432	8864.77
886.75	8767.59
887.067	8811.43
887.383	8723.53
887.7	8770.31
888.017	8641.5
888.334	8662.74
888.651	8708.16
888.967	8626.81
889.284	8601.5
889.6	8569.18
889.917	8509.75
890.233	8488.28
890.55	8444.44
890.866	8467.49
891.182	8474.95
891.498	8451.67
891.815	8436.08
892.131	8380.94
892.447	8370.54
892.763	8357.66
893.079	8350.88
893.395	8281.73
893.71	8314.72
894.026	8232.24
894.342	8226.37
894.657	8133.94
894.973	8170.55
895.289	8164.45
895.604	8070.44
895.92	8088.52
896.235	8062.3
896.55	8070.89
896.865	8058.46
897.181	7973.72
897.496	7981.17
897.811	7872.48
898.126	7901.85
898.441	7874.96
898.756	7903.21
899.071	7804
899.386	7835.87
899.7	7802.87
900.015	7735.98
900.33	7693.05
900.644	7653.5
900.959	7680.39
901.273	7690.79
901.588	7513.84
901.902	7566.04
902.216	7543.22
902.531	7499.61
902.845	7556.1
903.159	7416.67
903.473	7442.88
903.787	7391.59
904.101	7324.92
904.415	7379.83
904.729	7352.26
905.042	7275.2
905.356	7239.5
905.67	7206.51
905.984	7255.09
906.297	7227.97
906.611	7099.39
906.924	7135.77
907.237	7085.38
907.551	7082.89
907.864	7059.16
908.177	7057.36
908.491	7024.36
908.804	6924.93
909.117	6950.92
909.43	6921.09
909.743	6874.76
910.056	6863.46
910.368	6856.01
910.681	6768.1
910.994	6780.3
911.307	6756.12
911.619	6710.7
911.932	6754.09
912.244	6671.15
912.557	6691.49
912.869	6584.37
913.181	6598.39
913.494	6591.38
913.806	6529.91
914.118	6512.51
914.43	6451.95
914.742	6454.66
915.054	6439.97
915.366	6401.33
915.678	6400.65
915.99	6399.97
916.302	6305.96
916.613	6279.52
916.925	6310.94
917.236	6278.17
917.548	6192.75
917.859	6216.7
918.171	6154.33
918.482	6170.6
918.794	6067.1
919.105	6106.42
919.416	6051.96
919.727	6054.22
920.038	6031.4
920.349	6016.25
920.66	5958.85
920.971	5970.38
921.282	5884.28
921.593	5879.76
921.903	5841.8
922.214	5790.05
922.525	5816.03
922.835	5804.73
923.146	5750.27
923.456	5809.93
923.767	5738.97
924.077	5665.98
924.387	5665.3
924.697	5671.86
925.008	5645.42
925.318	5582.59
925.628	5639.09
925.938	5584.85
926.248	5502.37
926.558	5515.48
926.867	5502.14
927.177	5458.3
927.487	5445.2
927.796	5386.44
928.106	5380.11
928.416	5382.82
928.725	5380.79
929.034	5338.76
929.344	5328.59
929.653	5338.98
929.962	5286.1
930.271	5226.67
930.581	5204.52
930.89	5210.85
931.199	5218.31
931.508	5141.7
931.817	5114.58
932.125	5136.5
932.434	5115.03
932.743	5050.63
933.051	5029.61
933.36	5034.13
933.669	5006.79
933.977	4967.24
934.286	4920.69
934.594	4934.93
934.902	4928.6
935.21	4941.25
935.519	4896.74
935.827	4880.01
936.135	4857.19
936.443	4824.42
936.751	4763.41
937.059	4738.1
937.367	4738.1
937.674	4695.61
937.982	4724.54
938.29	4684.99
938.597	4702.16
938.905	4636.63
939.213	4631.66
939.52	4594.37
939.827	4623.3
940.135	4595.05
940.442	4562.06
940.749	4521.38
941.056	4538.1
941.363	4479.8
941.67	4488.61
941.977	4469.63
942.284	4440.25
942.591	4434.83
942.898	4422.4
943.205	4361.38
943.511	4397.09
943.818	4355.28
944.125	4334.72
944.431	4320.25
944.738	4289.52
945.044	4266.24
945.35	4234.61
945.657	4235.51
945.963	4237.09
946.269	4144.21
946.575	4191.22
946.881	4168.39
947.187	4122.52
947.493	4107.6
947.799	4123.2
948.105	4062.18
948.41	4056.53
948.716	4074.16
949.022	4046.14
949.327	4010.21
949.633	3955.74
949.938	3982.41
950.244	4004.1
950.549	3948.51
950.854	3957.33
951.16	3930.66
951.465	3896.08
951.77	3844.56
952.075	3859.02
952.38	3848.63
952.685	3871.23
952.99	3792.36
953.294	3825.35
953.599	3783.77
953.904	3748.52
954.209	3748.97
954.513	3703.32
954.818	3685.92
955.122	3701.51
955.426	3680.95
955.731	3633.49
956.035	3638.92
956.339	3641.85
956.643	3611.57
956.948	3610.89
957.252	3611.57
957.556	3599.14
957.86	3545.81
958.163	3553.27
958.467	3543.55
958.771	3536.77
959.075	3520.27
959.378	3520.73
959.682	3487.06
959.985	3471.69
960.289	3439.15
960.592	3442.08
960.896	3393.27
961.199	3444.34
961.502	3386.27
961.805	3344.46
962.108	3335.19
962.411	3364.35
962.714	3292.71
963.017	3338.36
963.32	3339.26
963.623	3298.81
963.926	3251.81
964.228	3213.62
964.531	3230.11
964.833	3249.55
965.136	3230.56
965.438	3158.25
965.741	3165.48
966.043	3165.26
966.345	3170.91
966.648	3125.93
966.95	3124.58
967.252	3148.53
967.554	3116.44
967.856	3108.76
968.158	3046.39
968.46	3027.18
968.761	3078.93
969.063	3026.5
969.365	2991.25
969.666	2977.46
969.968	3012.94
970.269	2977.24
970.571	2994.41
970.872	2973.85
971.174	2965.26
971.475	2949.44
971.776	2923.91
972.077	2902.44
972.378	2925.49
972.679	2857.02
972.98	2889.33
973.281	2833.06
973.582	2821.08
973.883	2811.82
974.183	2819.28
974.484	2823.34
974.785	2814.76
975.085	2759.39
975.386	2770.46
975.686	2735.21
975.986	2747.64
976.287	2697.47
976.587	2713.06
976.887	2687.75
977.187	2728.66
977.487	2679.84
977.787	2699.73
978.087	2678.04
978.387	2644.59
978.687	2629
978.987	2620.41
979.286	2611.37
979.586	2599.62
979.885	2584.93
980.185	2589.45
980.484	2589
980.784	2595.33
981.083	2553.52
981.382	2556.01
981.682	2522.56
981.981	2487.99
982.28	2515.1
982.579	2496.57
982.878	2478.72
983.177	2505.16
983.475	2458.38
983.774	2445.95
984.073	2435.33
984.372	2452.51
984.67	2403.47
984.969	2430.59
985.267	2394.65
985.566	2396.01
985.864	2398.72
986.162	2386.75
986.461	2346.75
986.759	2385.16
987.057	2317.82
987.355	2320.76
987.653	2338.61
987.951	2302.68
988.249	2304.94
988.547	2295
988.844	2278.5
989.142	2259.06
989.44	2257.71
989.737	2272.4
990.035	2249.12
990.332	2227.88
990.63	2196.69
990.927	2217.71
991.224	2184.26
991.521	2192.17
991.819	2153.98
992.116	2184.94
992.413	2152.85
992.71	2142.91
993.006	2138.62
993.303	2120.99
993.6	2129.35
993.897	2122.12
994.193	2110.59
994.49	2092.29
994.787	2104.72
995.083	2057.04
995.379	2076.47
995.676	2049.35
995.972	2055.23
996.268	2064.72
996.565	2001.22
996.861	2023.36
997.157	2000.99
997.453	2004.16
997.749	1997.83
998.044	1970.48
998.34	1956.02
998.636	1993.31
998.932	1963.71
999.227	1934.1
999.523	1926.42
999.818	1939.98
1000.114	1939.75
1000.409	1888.45
1000.704	1894.55
1001	1880.09
1001.295	1849.58
1001.59	1870.83
1001.885	1840.32
1002.18	1838.28
1002.475	1832.18
1002.77	1825.86
1003.065	1807.55
1003.359	1811.17
1003.654	1770.72
1003.949	1744.28
1004.243	1766.42
1004.538	1749.7
1004.832	1742.02
1005.127	1744.95
1005.421	1764.84
1005.715	1721.68
1006.009	1724.16
1006.304	1710.38
1006.598	1693.2
1006.892	1703.83
1007.186	1665.63
1007.48	1650.49
1007.773	1629.7
1008.067	1641.68
1008.361	1626.99
1008.655	1645.52
1008.948	1649.36
1009.242	1619.31
1009.535	1603.49
1009.829	1585.64
1010.122	1594.9
1010.415	1586.31
1010.708	1569.14
1011.001	1581.12
1011.295	1565.98
1011.588	1564.39
1011.881	1550.83
1012.173	1555.58
1012.466	1523.04
1012.759	1507.45
1013.052	1495.47
1013.344	1492.76
1013.637	1466.09
1013.93	1493.89
1014.222	1462.02
1014.514	1481.46
1014.807	1440.78
1015.099	1457.5
1015.391	1442.14
1015.683	1434.91
1015.976	1424.06
1016.268	1424.06
1016.56	1409.6
1016.851	1391.07
1017.143	1369.6
1017.435	1378.64
1017.727	1376.6
1018.018	1373.21
1018.31	1386.09
1018.602	1344.96
1018.893	1351.97
1019.185	1359.88
1019.476	1345.87
1019.767	1327.79
1020.058	1313.1
1020.35	1303.61
1020.641	1297.96
1020.932	1309.26
1021.223	1272.88
1021.514	1269.94
1021.804	1262.71
1022.095	1251.41
1022.386	1256.83
1022.677	1244.63
1022.967	1237.4
1023.258	1235.14
1023.548	1207.79
1023.839	1222.71
1024.129	1205.76
1024.419	1198.53
1024.709	1187.45
1025	1182.26
1025.29	1177.74
1025.58	1132.99
1025.87	1119.43
1026.16	1170.28
1026.449	1134.12
1026.739	1139.09
1027.029	1127.12
1027.319	1144.07
1027.608	1116.27
1027.898	1078.3
1028.187	1097.29
1028.477	1078.53
1028.766	1109.49
1029.055	1096.38
1029.344	1067.01
1029.634	1074.24
1029.923	1046.89
1030.212	1060
1030.501	1055.25
1030.79	1025.65
1031.078	1024.52
1031.367	1013.67
1031.656	1041.24
1031.945	1016.61
1032.233	996.05
1032.522	1004.86
1032.81	982.26
1033.099	962.83
1033.387	1007.12
1033.675	978.87
1033.963	947.46
1034.251	963.96
1034.54	955.14
1034.828	935.71
1035.116	971.64
1035.403	960.79
1035.691	937.97
1035.979	926.9
1036.267	932.55
1036.554	931.19
1036.842	928.7
1037.129	916.95
1037.417	886.9
1037.704	893
1037.992	889.16
1038.279	861.59
1038.566	874.02
1038.853	874.02
1039.14	874.02
