Data from hue_80_FLMS001491_95.txt Node
Date: Mon Feb 06 15:24:05 GMT 2017
User: dcchb
Spectrometer: FLMS00149
Trigger mode: 0
Integration Time (sec): 2.000000E-2
Scans to average: 10
Electric dark correction enabled: true
Nonlinearity correction enabled: false
Boxcar width: 0
XAxis mode: Wavelengths
Number of Pixels in Spectrum: 2048
>>>>>Begin Spectral Data<<<<<
341.393	6.88
341.776	6.88
342.16	6.88
342.543	-22.95
342.927	-66.11
343.31	-74.93
343.693	-58.88
344.077	-57.3
344.46	-58.43
344.843	-39.9
345.226	-43.29
345.61	-52.1
345.993	-23.18
346.376	-5.1
346.759	0.55
347.142	33.32
347.525	48.01
347.908	76.03
348.291	68.57
348.674	83.03
349.057	103.6
349.44	135.69
349.823	161.9
350.206	160.77
350.588	191.73
350.971	210.26
351.354	232.41
351.737	249.36
352.119	252.07
352.502	266.08
352.884	273.31
353.267	274.89
353.65	303.37
354.032	303.82
354.414	315.12
354.797	315.8
355.179	320.32
355.562	328.68
355.944	340.2
356.326	326.42
356.709	341.33
357.091	315.34
357.473	351.28
357.855	353.31
358.238	357.83
358.62	369.13
359.002	357.15
359.384	339.52
359.766	368.22
360.148	334.78
360.53	347.43
360.912	335.23
361.294	326.42
361.676	318.06
362.057	334.78
362.439	341.56
362.821	336.81
363.203	317.15
363.584	329.81
363.966	315.12
364.348	335.01
364.729	327.1
365.111	338.62
365.493	313.31
365.874	314.67
366.256	320.32
366.637	307.44
367.019	316.25
367.4	315.34
367.781	332.52
368.163	339.98
368.544	322.12
368.925	321.67
369.306	322.35
369.688	328.45
370.069	302.92
370.45	319.64
370.831	318.96
371.212	316.7
371.593	319.64
371.974	339.52
372.355	294.33
372.736	322.12
373.117	325.51
373.498	321.9
373.879	308.79
374.26	316.7
374.641	309.47
375.021	307.89
375.402	295.91
375.783	316.47
376.163	322.12
376.544	322.12
376.925	333.2
377.305	347.21
377.686	316.47
378.066	326.42
378.447	357.38
378.827	361.22
379.208	323.71
379.588	343.37
379.968	362.58
380.349	351.05
380.729	345.17
381.109	339.3
381.489	347.66
381.87	347.21
382.25	346.98
382.63	356.02
383.01	342.91
383.39	345.85
383.77	352.63
384.15	341.56
384.53	355.12
384.91	353.54
385.29	338.62
385.67	346.53
386.049	356.47
386.429	348.56
386.809	365.06
387.189	343.14
387.568	352.18
387.948	363.48
388.328	377.49
388.707	370.03
389.087	376.59
389.466	381.78
389.846	397.15
390.225	372.29
390.605	377.94
390.984	388.11
391.363	381.33
391.743	356.47
392.122	368.68
392.501	367.09
392.881	373.65
393.26	400.99
393.639	396.7
394.018	378.85
394.397	394.44
394.776	371.61
395.155	371.16
395.534	386.3
395.913	390.15
396.292	389.92
396.671	384.27
397.05	412.07
397.429	408.68
397.808	417.04
398.186	382.01
398.565	391.73
398.944	391.73
399.323	410.94
399.701	396.92
400.08	410.26
400.458	420.43
400.837	420.65
401.215	410.03
401.594	414.78
401.972	423.36
402.351	418.84
402.729	410.26
403.107	412.07
403.486	393.31
403.864	414.1
404.242	410.94
404.62	414.33
404.999	419.3
405.377	427.88
405.755	431.95
406.133	433.76
406.511	432.4
406.889	424.72
407.267	440.77
407.645	456.13
408.023	459.97
408.401	464.72
408.779	455.23
409.156	460.43
409.534	439.18
409.912	479.41
410.29	437.15
410.667	478.96
411.045	461.1
411.422	470.59
411.8	473.08
412.178	478.96
412.555	477.15
412.933	491.16
413.31	505.62
413.687	511.5
414.065	498.62
414.442	482.8
414.819	512.63
415.197	521.22
415.574	522.8
415.951	519.18
416.328	500.88
416.705	512.18
417.082	524.38
417.46	554.21
417.837	539.07
418.214	529.12
418.591	542.68
418.967	534.77
419.344	542.23
419.721	549.69
420.098	561.44
420.475	548.56
420.852	551.27
421.228	570.48
421.605	568.67
421.982	569.58
422.358	549.91
422.735	592.85
423.111	583.36
423.488	575.45
423.864	574.32
424.241	571.61
424.617	575
424.994	597.37
425.37	605.51
425.746	588.56
426.123	591.04
426.499	627.65
426.875	602.79
427.251	611.83
427.627	614.77
428.003	619.07
428.379	623.81
428.756	631.04
429.132	640.76
429.507	636.47
429.883	672.4
430.259	679.18
430.635	673.3
431.011	661.1
431.387	667.88
431.763	708.1
432.138	694.77
432.514	708.78
432.89	684.37
433.265	720.53
433.641	711.04
434.016	709.68
434.392	717.37
434.767	741.77
435.143	729.8
435.518	729.12
435.894	732.51
436.269	744.49
436.644	766.86
437.02	765.73
437.395	774.77
437.77	789.68
438.145	780.42
438.52	762.11
438.895	782.23
439.271	786.97
439.646	795.56
440.021	810.47
440.395	818.38
440.77	812.96
441.145	816.12
441.52	823.13
441.895	813.18
442.27	843.01
442.645	838.49
443.019	853.41
443.394	844.14
443.769	883.69
444.143	862.22
444.518	866.74
444.892	883.01
445.267	871.71
445.641	902.67
446.016	880.3
446.39	869.91
446.764	894.99
447.139	907.42
447.513	879.85
447.887	903.13
448.262	923.69
448.636	914.2
449.01	919.62
449.384	924.14
449.758	964.82
450.132	968.89
450.506	958.49
450.88	957.81
451.254	954.2
451.628	981.09
452.002	985.38
452.376	1009.11
452.75	1002.11
453.123	1010.92
453.497	1036.91
453.871	1029
454.244	1054.99
454.618	1064.48
454.992	1086.62
455.365	1092.95
455.739	1085.72
456.112	1100.18
456.486	1100.18
456.859	1123.69
457.232	1128.43
457.606	1115.1
457.979	1139.5
458.352	1170.69
458.725	1184.7
459.099	1196.68
459.472	1220.63
459.845	1240.29
460.218	1260.63
460.591	1249.11
460.964	1240.97
461.337	1280.74
461.71	1300.18
462.083	1315.09
462.456	1316.45
462.829	1299.05
463.201	1345.37
463.574	1366.39
463.947	1369.1
464.32	1399.84
464.692	1420.63
465.065	1433.28
465.438	1467.4
465.81	1473.96
466.183	1492.04
466.555	1524.35
466.928	1545.37
467.3	1570.45
467.672	1576.33
468.045	1595.09
468.417	1624.24
468.789	1638.93
469.161	1690.68
469.534	1712.82
469.906	1727.06
470.278	1751.47
470.65	1784.46
471.022	1859.71
471.394	1896.09
471.766	1859.26
472.138	1930.44
472.51	1974.96
472.882	1997.33
473.253	2039.37
473.625	2103.32
473.997	2110.33
474.369	2168.18
474.74	2222.41
475.112	2258.12
475.484	2313.94
475.855	2373.82
476.227	2395.52
476.598	2466.47
476.97	2511.45
477.341	2566.59
477.713	2660.82
478.084	2712.8
478.455	2768.61
478.827	2812.45
479.198	2914.15
479.569	2969.06
479.94	3080.47
480.311	3164.54
480.682	3258.54
481.053	3306.45
481.424	3456.28
481.795	3471.65
482.166	3617.63
482.537	3667.8
482.908	3790.51
483.279	3907.34
483.65	4001.12
484.021	4095.81
484.391	4185.3
484.762	4259.2
485.133	4360.44
485.503	4458.06
485.874	4615.57
486.244	4732.4
486.615	4851.5
486.985	5002.23
487.356	5140.98
487.726	5188.44
488.097	5384.82
488.467	5408.77
488.837	5627.75
489.207	5763.11
489.578	5916.55
489.948	5996.1
490.318	6145.25
490.688	6282.42
491.058	6375.3
491.428	6546.82
491.798	6661.84
492.168	6875.17
492.538	7016.86
492.908	7188.61
493.278	7304.99
493.648	7410.75
494.017	7606
494.387	7715.15
494.757	7857.29
495.126	8054.35
495.496	8143.16
495.866	8258.19
496.235	8411.86
496.605	8479.2
496.974	8591.96
497.344	8831.51
497.713	8928.45
498.082	9110.82
498.452	9318.05
498.821	9423.35
499.19	9451.6
499.559	9564.82
499.928	9720.3
500.298	9840.29
500.667	9924.81
501.036	9968.42
501.405	10215.42
501.774	10210.68
502.143	10378.81
502.512	10502.65
502.88	10634.4
503.249	10726.14
503.618	10872.58
503.987	10925.46
504.356	11092.24
504.724	11171.56
505.093	11204.55
505.462	11286.36
505.83	11451.1
506.199	11567.25
506.567	11726.12
506.936	11759.79
507.304	11997.52
507.672	12007.01
508.041	12099.67
508.409	12200
508.777	12307.8
509.145	12524.52
509.514	12501.47
509.882	12615.59
510.25	12687.67
510.618	12762.02
510.986	12836.6
511.354	13050.83
511.722	13067.1
512.09	13175.35
512.458	13206.08
512.826	13332.86
513.193	13444.94
513.561	13486.98
513.929	13623.92
514.297	13704.82
514.664	13804.48
515.032	13783.24
515.4	13906.17
515.767	13962.9
516.135	14119.5
516.502	14058.94
516.869	14257.58
517.237	14323.34
517.604	14287.18
517.972	14489.21
518.339	14503.22
518.706	14548.19
519.073	14632.48
519.44	14634.97
519.808	14820.95
520.175	14908.86
520.542	14999.25
520.909	15134.62
521.276	14976.2
521.643	15115.86
522.009	15262.52
522.376	15251.68
522.743	15412.35
523.11	15465.68
523.477	15672.23
523.843	15707.03
524.21	15806.69
524.577	15893.01
524.943	15890.3
525.31	15906.57
525.676	16137.53
526.043	16243.51
526.409	16229.73
526.776	16347.92
527.142	16494.58
527.508	16447.35
527.874	16533.68
528.241	16508.82
528.607	16564.64
528.973	16632.43
529.339	16600.34
529.705	16755.82
530.071	16867
530.437	16907.45
530.803	16879.2
531.169	16991.52
531.535	16892.99
531.901	17017.05
532.267	17035.36
532.632	17090.5
532.998	17154.68
533.364	17147.67
533.73	17174.79
534.095	17258.18
534.461	17282.81
534.826	17299.76
535.192	17289.81
535.557	17421.34
535.923	17288.23
536.288	17440.77
536.653	17374.33
537.019	17275.35
537.384	17443.93
537.749	17361.9
538.114	17362.81
538.479	17392.86
538.845	17415.23
539.21	17332.3
539.575	17405.74
539.94	17461.79
540.305	17586.98
540.67	17464.95
541.034	17498.17
541.399	17581.78
541.764	17458.85
542.129	17522.8
542.494	17533.65
542.858	17621.56
543.223	17495.23
543.587	17626.53
543.952	17464.27
544.316	17552.63
544.681	17481.67
545.045	17510.37
545.41	17577.94
545.774	17517.6
546.138	17605.29
546.503	17476.7
546.867	17463.14
547.231	17542.46
547.595	17497.27
547.959	17524.61
548.324	17440.77
548.688	17571.61
549.052	17532.52
549.416	17450.26
549.779	17520.77
550.143	17529.81
550.507	17497.27
550.871	17586.08
551.235	17489.36
551.599	17598.96
551.962	17564.83
552.326	17549.02
552.689	17675.34
553.053	17550.82
553.417	17513.76
553.78	17711.05
554.143	17672.85
554.507	17680.09
554.87	17597.15
555.234	17713.53
555.597	17523.03
555.96	17594.21
556.323	17614.55
556.686	17573.2
557.05	17720.54
557.413	17705.4
557.776	17765.28
558.139	17824.26
558.502	17713.53
558.865	17762.12
559.228	17943.36
559.59	17924.15
559.953	17826.97
560.316	17926.41
560.679	18028.1
561.041	18135.22
561.404	18043.01
561.767	18104.48
562.129	18067.87
562.492	18174.08
562.854	18151.49
563.217	18155.1
563.579	18196.46
563.941	18305.38
564.304	18359.39
564.666	18286.17
565.028	18355.1
565.39	18370.24
565.753	18502.21
566.115	18437.81
566.477	18474.64
566.839	18574.07
567.201	18651.13
567.563	18679.83
567.925	18756.89
568.287	18612.26
568.648	18687.52
569.01	18704.69
569.372	18860.17
569.734	18791.47
570.095	18889.09
570.457	18948.3
570.819	18923.9
571.18	18960.5
571.542	18984.68
571.903	19074.63
572.265	19080.28
572.626	19055.64
572.987	19081.63
573.349	19103.78
573.71	19209.54
574.071	19196.43
574.432	19289.54
574.794	19349.19
575.155	19297.67
575.516	19217.22
575.877	19418.57
576.238	19346.93
576.599	19426.03
576.96	19469.19
577.32	19315.52
577.681	19476.2
578.042	19505.57
578.403	19391.68
578.763	19371.34
579.124	19546.7
579.485	19593.03
579.845	19531.56
580.206	19595.52
580.566	19477.1
580.927	19438.01
581.287	19579.25
581.648	19567.72
582.008	19556.65
582.368	19511.45
582.728	19579.7
583.089	19573.37
583.449	19465.8
583.809	19490.89
584.169	19515.07
584.529	19413.83
584.889	19641.62
585.249	19490.43
585.609	19402.53
585.969	19630.54
586.329	19508.96
586.688	19557.1
587.048	19473.03
587.408	19469.19
587.768	19479.59
588.127	19335.18
588.487	19420.38
588.846	19531.79
589.206	19435.52
589.565	19429.42
589.925	19394.17
590.284	19343.32
590.643	19475.97
591.003	19544.9
591.362	19484.78
591.721	19453.82
592.08	19440.94
592.44	19384
592.799	19472.81
593.158	19478.68
593.517	19481.17
593.876	19409.98
594.235	19361.4
594.593	19316.65
594.952	19443.43
595.311	19372.24
595.67	19367.5
596.029	19451.34
596.387	19482.07
596.746	19438.01
597.104	19393.49
597.463	19273.26
597.822	19362.98
598.18	19388.52
598.538	19349.19
598.897	19454.73
599.255	19192.81
599.613	19559.81
599.972	19442.75
600.33	19500.6
600.688	19367.27
601.046	19395.07
601.404	19587.38
601.762	19443.2
602.12	19629.19
602.478	19526.82
602.836	19563.43
603.194	19398.46
603.552	19423.54
603.91	19320.49
604.268	19473.94
604.625	19426.93
604.983	19449.08
605.341	19381.28
605.698	19516.42
606.056	19616.31
606.413	19463.99
606.771	19486.14
607.128	19560.71
607.485	19532.69
607.843	19549.19
608.2	19589.64
608.557	19566.14
608.914	19646.81
609.272	19645.23
609.629	19699.02
609.986	19706.7
610.343	19642.07
610.7	19800.26
611.057	19797.32
611.414	19663.08
611.771	19815.4
612.127	19925.45
612.484	19800.03
612.841	19842.51
613.198	19838.22
613.554	19860.37
613.911	20012.68
614.267	19923.19
614.624	19866.7
614.98	19917.77
615.337	19890.65
615.693	19935.62
616.05	20002.74
616.406	20048.84
616.762	20011.78
617.118	20004.09
617.475	19909.63
617.831	20051.32
618.187	20051.55
618.543	20164.99
618.899	20232.11
619.255	20148.5
619.611	20163.86
619.967	20322.95
620.323	20187.59
620.678	20231.88
621.034	20098.1
621.39	20170.19
621.746	20080.25
622.101	20419.45
622.457	20121.6
622.812	20194.37
623.168	20314.14
623.523	20319.34
623.879	20370.18
624.234	20149.63
624.589	20249.28
624.945	20221.94
625.3	20238.21
625.655	20174.71
626.01	20200.7
626.365	20253.13
626.72	20288.83
627.075	20281.83
627.43	20276.4
627.785	20212.9
628.14	20255.61
628.495	20285.44
628.85	20259.68
629.205	20164.31
629.559	20238.44
629.914	20211.54
630.269	20316.17
630.623	20154.37
630.978	20084.99
631.332	20236.63
631.687	20111.21
632.041	20045.67
632.396	20129.29
632.75	20167.7
633.104	20118.89
633.459	19975.62
633.813	19942.17
634.167	19954.38
634.521	20006.13
634.875	20081.6
635.229	20035.05
635.583	19899.24
635.937	19837.32
636.291	19856.3
636.645	19863.76
636.999	19835.96
637.352	19879.8
637.706	19743.08
638.06	19781.73
638.413	19720.71
638.767	19675.97
639.121	19799.35
639.474	19646.81
639.828	19679.13
640.181	19655.85
640.534	19698.56
640.888	19654.27
641.241	19515.07
641.594	19547.61
641.947	19677.32
642.301	19609.75
642.654	19587.15
643.007	19560.49
643.36	19514.39
643.713	19484.11
644.066	19600.26
644.419	19524.78
644.771	19303.55
645.124	19122.76
645.477	19141.74
645.83	19063.1
646.182	18932.48
646.535	18878.02
646.888	18969.54
647.24	18863.11
647.593	18839.38
647.945	18862.2
648.298	18747.4
648.65	18779.27
649.002	18731.13
649.355	18781.07
649.707	18800.06
650.059	18838.7
650.411	19106.26
650.763	19108.52
651.115	19331.57
651.467	19250.67
651.819	19291.34
652.171	19294.51
652.523	19221.97
652.875	19295.64
653.227	19186.71
653.578	19194.62
653.93	19163.89
654.282	19184.91
654.633	19120.05
654.985	19162.31
655.337	19225.13
655.688	19212.93
656.039	19217.67
656.391	19073.95
656.742	19133.16
657.094	19089.54
657.445	19185.13
657.796	19013.38
658.147	19051.12
658.498	19107.17
658.849	19164.11
659.2	19182.65
659.551	19167.28
659.902	19243.43
660.253	19167.28
660.604	19224.23
660.955	19212.48
661.306	19179.48
661.656	19226.49
662.007	19202.76
662.358	19248.41
662.708	19159.6
663.059	19267.39
663.409	19055.64
663.76	19297.44
664.11	19340.83
664.461	19228.29
664.811	19238.69
665.161	19261.97
665.511	19206.83
665.862	19266.48
666.212	19371.11
666.562	19372.92
666.912	19221.29
667.262	19134.51
667.612	19265.36
667.962	19270.55
668.312	19198.69
668.662	19306.48
669.011	19138.13
669.361	19158.01
669.711	19224.68
670.06	19147.39
670.41	19153.04
670.76	19128.64
671.109	19169.99
671.459	19198.24
671.808	19215.64
672.157	19232.14
672.507	19093.83
672.856	19054.29
673.205	19083.66
673.554	19206.15
673.904	19088.18
674.253	19163.21
674.602	19158.92
674.951	18808.87
675.3	18648.65
675.649	18942.88
675.998	19022.88
676.346	18896.33
676.695	19009.77
677.044	18923.9
677.393	18934.29
677.741	18865.82
678.09	18863.33
678.438	18753.73
678.787	18765.26
679.135	18797.34
679.484	18680.06
679.832	18725.26
680.181	18693.39
680.529	18732.71
680.877	18646.16
681.225	18593.73
681.573	18640.06
681.922	18580.85
682.27	18416.11
682.618	18511.7
682.966	18547.63
683.314	18508.54
683.661	18500.63
684.009	18298.83
684.357	18363.91
684.705	18290.69
685.053	18338.6
685.4	18351.93
685.748	18199.85
686.095	18111.49
686.443	18115.55
686.79	17952.17
687.138	18044.82
687.485	18160.3
687.832	18025.39
688.18	17921.21
688.527	17900.65
688.874	17919.85
689.221	17758.73
689.568	17703.81
689.915	17746.52
690.262	17707.66
690.609	17639.18
690.956	17655.91
691.303	17519.86
691.65	17459.75
691.997	17469.92
692.344	17298.4
692.69	17328.46
693.037	17362.58
693.383	17201.91
693.73	17243.26
694.077	17162.59
694.423	17122.36
694.769	17037.17
695.116	17006.21
695.462	16954.23
695.808	16819.77
696.155	16894.34
696.501	16689.6
696.847	16710.39
697.193	16647.12
697.539	16630.4
697.885	16450.74
698.231	16393.79
698.577	16370.52
698.923	16393.57
699.269	16248.71
699.614	16214.59
699.96	16165.1
700.306	16149.05
700.651	16031.54
700.997	16006.68
701.342	16003.07
701.688	15961.04
702.033	15851.43
702.379	15876.29
702.724	15837.42
703.069	15853.69
703.415	15579.8
703.76	15642.85
704.105	15620.25
704.45	15614.6
704.795	15475.4
705.14	15432.01
705.485	15413.25
705.83	15380.26
706.175	15333.93
706.52	15264.1
706.865	15220.04
707.209	15198.8
707.554	15177.33
707.899	15092.36
708.243	15045.58
708.588	15118.57
708.932	14948.41
709.277	14872.48
709.621	14904.79
709.966	14902.98
710.31	14792.7
710.654	14651.01
710.998	14782.54
711.342	14747.06
711.687	14629.09
712.031	14571.92
712.375	14617.34
712.719	14576.66
713.063	14500.73
713.407	14543.22
713.75	14419.15
714.094	14406.05
714.438	14314.52
714.782	14382.09
715.125	14291.7
715.469	14317.69
715.812	14284.92
716.156	14212.15
716.499	14201.53
716.843	14237.92
717.186	14154.75
717.53	14211.48
717.873	14193.4
718.216	14069.56
718.559	14098.03
718.902	14020.07
719.246	13980.07
719.589	13997.47
719.932	13909.79
720.275	13950.01
720.617	13947.08
720.96	13877.25
721.303	13950.24
721.646	13984.59
721.989	13842.45
722.331	13952.73
722.674	13786.86
723.016	13818.04
723.359	13785.95
723.701	13863.24
724.044	13781.88
724.386	13650.36
724.729	13722.22
725.071	13735.78
725.413	13737.36
725.755	13700.76
726.097	13609.23
726.439	13569.69
726.782	13668.44
727.124	13667.31
727.465	13628.67
727.807	13638.84
728.149	13618.5
728.491	13484.49
728.833	13561.1
729.175	13556.35
729.516	13533.3
729.858	13525.39
730.199	13460.31
730.541	13537.37
730.882	13502.57
731.224	13553.19
731.565	13387.32
731.906	13478.61
732.248	13489.46
732.589	13481.33
732.93	13390.71
733.271	13408.79
733.612	13348.9
733.953	13438.84
734.294	13438.62
734.635	13379.86
734.976	13509.57
735.317	13351.39
735.658	13379.63
735.999	13376.92
736.339	13369.24
736.68	13409.24
737.021	13362.46
737.361	13289.69
737.702	13403.81
738.042	13346.19
738.383	13338.28
738.723	13402.01
739.063	13326.75
739.404	13411.72
739.744	13429.35
740.084	13406.75
740.424	13365.85
740.764	13347.77
741.104	13458.28
741.444	13411.05
741.784	13431.16
742.124	13481.1
742.464	13438.62
742.804	13518.39
743.143	13470.71
743.483	13558.39
743.823	13512.29
744.162	13514.55
744.502	13529.23
744.841	13515.68
745.181	13593.87
745.52	13627.76
745.86	13736.91
746.199	13733.98
746.538	13777.36
746.877	13807.42
747.216	13853.52
747.556	13955.44
747.895	13881.54
748.234	13950.24
748.573	13977.13
748.911	14045.38
749.25	14045.15
749.589	14088.99
749.928	14192.27
750.267	14270.01
750.605	14326.05
750.944	14378.48
751.283	14375.54
751.621	14539.83
751.96	14579.38
752.298	14642.2
752.636	14731.24
752.975	14722.42
753.313	14868.63
753.651	14974.17
753.989	15037.44
754.327	15074.96
754.666	15149.76
755.004	15334.38
755.342	15515.17
755.679	15518.33
756.017	15599.69
756.355	15705.67
756.693	15877.2
757.031	15885.1
757.368	16015.95
757.706	16036.06
758.044	16242.16
758.381	16307.47
758.719	16477.63
759.056	16502.26
759.394	16638.08
759.731	16619.32
760.068	16854.12
760.405	16852.31
760.743	16960.56
761.08	17236.48
761.417	17188.35
761.754	17335.01
762.091	17498.62
762.428	17540.88
762.765	17589.24
763.102	17776.13
763.438	17785.85
763.775	17835.34
764.112	17985.16
764.449	18113.75
764.785	18173.86
765.122	18173.41
765.458	18236
765.795	18316
766.131	18424.02
766.467	18432.83
766.804	18493.4
767.14	18496.56
767.476	18689.55
767.812	18682.55
768.148	18799.6
768.485	18694.75
768.821	18843.22
769.157	18939.04
769.492	18933.84
769.828	18966.83
770.164	18948.08
770.5	18976.32
770.836	19028.75
771.171	18999.15
771.507	19057
771.842	19014.97
772.178	19060.84
772.513	19071.91
772.849	19188.52
773.184	19101.74
773.519	19224.68
773.855	19126.6
774.19	19116.21
774.525	19133.83
774.86	19237.56
775.195	19239.14
775.53	19252.7
775.865	19090.9
776.2	18990.11
776.535	18930.9
776.87	18997.57
777.205	18953.95
777.539	18985.81
777.874	19063.1
778.209	18931.13
778.543	18941.07
778.878	18772.26
779.212	18898.36
779.547	18895.65
779.881	18814.97
780.215	18804.12
780.55	18778.59
780.884	18716.89
781.218	18704.24
781.552	18817.68
781.886	18800.96
782.22	18631.25
782.554	18604.36
782.888	18421.31
783.222	18344.25
783.556	18378.37
783.889	18434.42
784.223	18201.88
784.557	18215.21
784.89	18270.58
785.224	18183.12
785.557	18132.73
785.891	18189.45
786.224	18142.67
786.558	18124.59
786.891	17910.81
787.224	17898.16
787.557	17975.45
787.891	17808.44
788.224	17920.98
788.557	17852.28
788.89	17902.23
789.223	17723.93
789.556	17651.84
789.888	17652.97
790.221	17655.23
790.554	17451.84
790.887	17481.22
791.219	17464.05
791.552	17384.05
791.884	17312.19
792.217	17259.08
792.549	17268.57
792.882	17075.58
793.214	17044.85
793.546	17198.52
793.879	16954.23
794.211	16882.14
794.543	17011.63
794.875	16934.34
795.207	16990.61
795.539	16895.7
795.871	16831.52
796.203	16692.77
796.535	16755.82
796.867	16633.56
797.198	16549.04
797.53	16546.1
797.862	16482.15
798.193	16460.68
798.525	16443.51
798.856	16404.19
799.188	16174.59
799.519	16173.01
799.85	16117.42
800.182	16113.35
800.513	16076.06
800.844	15935.05
801.175	16021.6
801.506	16044.42
801.837	15937.08
802.168	15868.16
802.499	15815.73
802.83	15803.3
803.161	15701.15
803.491	15678.33
803.822	15697.99
804.153	15575.73
804.483	15453.25
804.814	15540.03
805.145	15405.8
805.475	15421.39
805.805	15432.46
806.136	15414.61
806.466	15281.5
806.796	15338.68
807.126	15164.22
807.457	15180.94
807.787	15143.43
808.117	15121.74
808.447	15014.39
808.777	15112.02
809.107	15004.22
809.436	14911.57
809.766	14999.03
810.096	14886.04
810.426	14886.26
810.755	14793.83
811.085	14843.1
811.414	14756.1
811.744	14771.69
812.073	14668.87
812.403	14751.35
812.732	14587.96
813.061	14584.12
813.39	14557.68
813.719	14446.5
814.049	14543.67
814.378	14471.13
814.707	14432.04
815.036	14363.56
815.365	14351.36
815.693	14224.58
816.022	14232.72
816.351	14155.21
816.68	14156.79
817.008	14236.11
817.337	14090.35
817.665	14046.28
817.994	14077.02
818.322	14011.48
818.651	13962.22
818.979	13996.12
819.307	14012.16
819.636	13985.04
819.964	13812.39
820.292	13861.66
820.62	13874.76
820.948	13769.68
821.276	13898.72
821.604	13824.59
821.932	13892.61
822.259	13907.3
822.587	13844.25
822.915	13857.81
823.243	13782.56
823.57	13823.92
823.898	13857.81
824.225	13828.21
824.553	13759.96
824.88	13787.53
825.207	13813.52
825.535	13751.38
825.862	13809.91
826.189	13808.55
826.516	13859.4
826.843	13766.29
827.17	13816.46
827.497	13788.21
827.824	13817.59
828.151	13865.27
828.478	13859.62
828.805	13854.65
829.131	13735.33
829.458	13788.21
829.785	13750.92
830.111	13805.39
830.438	13852.39
830.764	13744.82
831.09	13763.35
831.417	13746.63
831.743	13788.44
832.069	13759.96
832.395	13627.09
832.722	13730.36
833.048	13701.21
833.374	13693.3
833.7	13597.48
834.026	13617.59
834.351	13739.62
834.677	13657.37
835.003	13633.86
835.329	13619.63
835.654	13703.24
835.98	13516.58
836.306	13523.59
836.631	13580.31
836.956	13554.32
837.282	13599.29
837.607	13487.2
837.932	13471.16
838.258	13416.7
838.583	13482.68
838.908	13365.4
839.233	13394.77
839.558	13355.91
839.883	13264.16
840.208	13262.58
840.533	13401.55
840.858	13372.4
841.182	13286.08
841.507	13242.01
841.832	13220.77
842.156	13151.39
842.481	13119.53
842.805	13139.41
843.13	13139.41
843.454	13034.11
843.778	13019.87
844.103	13028.23
844.427	12963.15
844.751	12945.75
845.075	12786.66
845.399	12839.08
845.723	12811.06
846.047	12815.13
846.371	12701.01
846.695	12729.93
847.019	12555.25
847.343	12501.24
847.666	12535.36
847.99	12431.18
848.313	12412.43
848.637	12366.33
848.96	12342.15
849.284	12285.88
849.607	12198.65
849.931	12220.34
850.254	12095.37
850.577	12026
850.9	11951.2
851.223	11964.08
851.546	11894.93
851.869	11832.1
852.192	11918.66
852.515	11745.1
852.838	11779.22
853.161	11676.63
853.483	11759.56
853.806	11617.19
854.129	11631.88
854.451	11532.9
854.774	11515.95
855.096	11467.59
855.419	11377.2
855.741	11353.92
856.063	11429.4
856.385	11296.98
856.708	11257.2
857.03	11195.51
857.352	11220.37
857.674	11204.78
857.996	11196.41
858.318	11068.51
858.64	11170.43
858.961	11087.04
859.283	10980.83
859.605	10991.67
859.926	10992.8
860.248	10931.56
860.57	10894.73
860.891	10918.91
861.212	10774.05
861.534	10910.32
861.855	10827.38
862.176	10768.4
862.498	10776.54
862.819	10763.88
863.14	10772.02
863.461	10692.02
863.782	10617.22
864.103	10682.08
864.424	10666.71
864.745	10685.47
865.065	10567.05
865.386	10566.6
865.707	10523.21
866.027	10548.52
866.348	10521.4
866.668	10527.51
866.989	10417.68
867.309	10413.38
867.63	10423.55
867.95	10443.44
868.27	10307.85
868.59	10363.89
868.91	10343.56
869.23	10404.57
869.55	10306.27
869.87	10385.59
870.19	10336.1
870.51	10292.71
870.83	10340.39
871.15	10193.73
871.469	10195.09
871.789	10210.9
872.109	10218.36
872.428	10164.58
872.748	10229.43
873.067	10176.1
873.386	10128.65
873.706	10153.28
874.025	10122.54
874.344	10115.09
874.663	10119.61
874.982	10088.42
875.301	10067.4
875.62	10011.14
875.939	10012.49
876.258	9966.84
876.577	9948.09
876.896	9920.29
877.214	9909.67
877.533	9962.77
877.852	9867.86
878.17	9826.73
878.489	9851.59
878.807	9873.06
879.125	9854.08
879.444	9815.66
879.762	9809.11
880.08	9851.82
880.398	9790.8
880.716	9770.01
881.034	9691.82
881.352	9752.16
881.67	9720.75
881.988	9723.91
882.306	9640.75
882.624	9663.57
882.941	9586.74
883.259	9602.78
883.577	9544.48
883.894	9490.92
884.212	9541.77
884.529	9501.09
884.846	9458.83
885.164	9468.1
885.481	9439.4
885.798	9412.51
886.115	9347.42
886.432	9329.8
886.75	9340.64
887.067	9321.44
887.383	9283.47
887.7	9309.91
888.017	9213.87
888.334	9252.06
888.651	9252.74
888.967	9221.55
889.284	9211.38
889.6	9093.87
889.917	9035.57
890.233	9064.72
890.55	9025.17
890.866	9004.61
891.182	9031.73
891.498	8988.79
891.815	8964.38
892.131	8924.61
892.447	8931.16
892.763	8884.16
893.079	8817.04
893.395	8857.95
893.71	8779.08
894.026	8774.33
894.342	8764.84
894.657	8673.77
894.973	8688.23
895.289	8618.4
895.604	8650.94
895.92	8625.86
896.235	8568.91
896.55	8574.11
896.865	8510.38
897.181	8497.28
897.496	8424.28
897.811	8409.14
898.126	8379.54
898.441	8387.9
898.756	8306.32
899.071	8322.14
899.386	8311.97
899.7	8267.68
900.015	8221.8
900.33	8081.69
900.644	8204.85
900.959	8161.92
901.273	8085.76
901.588	8069.04
901.902	8071.98
902.216	8007.12
902.531	7974.35
902.845	7979.55
903.159	7898.42
903.473	7909.04
903.787	7903.85
904.101	7816.16
904.415	7792.21
904.729	7796.5
905.042	7732.1
905.356	7745.66
905.67	7688.26
905.984	7693
906.297	7699.33
906.611	7633.57
906.924	7598.09
907.237	7583.85
907.551	7519.9
907.864	7527.36
908.177	7451.65
908.491	7409.4
908.804	7376.18
909.117	7383.86
909.43	7280.13
909.743	7301.83
910.056	7291.43
910.368	7200.14
910.681	7247.59
910.994	7190.42
911.307	7145.9
911.619	7136.41
911.932	7174.6
912.244	7059.35
912.557	7092.12
912.869	7023.87
913.181	6995.85
913.494	7006.47
913.806	6997.88
914.118	6884.66
914.43	6866.58
914.742	6873.82
915.054	6825.46
915.366	6810.99
915.678	6730.54
915.99	6679.7
916.302	6713.14
916.613	6677.21
916.925	6691.22
917.236	6653.03
917.548	6561.28
917.859	6616.2
918.171	6559.93
918.482	6486.71
918.794	6484.9
919.105	6564.22
919.416	6437.44
919.727	6418.69
920.038	6444.45
920.349	6335.07
920.66	6350.89
920.971	6333.94
921.282	6264.11
921.593	6292.59
921.903	6201.07
922.214	6243.55
922.525	6188.41
922.835	6208.98
923.146	6144.34
923.456	6093.05
923.767	6069.77
924.077	6028.87
924.387	6038.58
924.697	5984.12
925.008	5963.78
925.318	5972.37
925.628	5960.39
925.938	5865.93
926.248	5891.02
926.558	5850.57
926.867	5832.71
927.177	5814.41
927.487	5750
927.796	5759.27
928.106	5774.86
928.416	5705.71
928.725	5674.53
929.034	5677.01
929.344	5664.36
929.653	5621.87
929.962	5620.97
930.271	5505.49
930.581	5532.61
930.89	5533.74
931.199	5486.73
931.508	5425.72
931.817	5446.74
932.125	5457.36
932.434	5422.56
932.743	5333.07
933.051	5340.52
933.36	5360.86
933.669	5295.1
933.977	5306.4
934.286	5263.92
934.594	5240.41
934.902	5222.79
935.21	5213.97
935.519	5174.43
935.827	5185.73
936.135	5093.07
936.443	5096.24
936.751	5096.46
937.059	5063.24
937.367	5041.1
937.674	5059.85
937.982	5026.18
938.29	5018.5
938.597	5013.07
938.905	4946.41
939.213	4915.68
939.52	4882
939.827	4904.15
940.135	4830.03
940.442	4837.03
940.749	4817.83
941.056	4875.68
941.363	4809.46
941.67	4785.06
941.977	4753.65
942.284	4666.64
942.591	4726.3
942.898	4696.25
943.205	4708.22
943.511	4643.37
943.818	4620.99
944.125	4610.15
944.431	4588
944.738	4549.58
945.044	4554.1
945.35	4557.49
945.657	4511.84
945.963	4563.82
946.269	4456.93
946.575	4428.68
946.881	4414.67
947.187	4403.37
947.493	4384.16
947.799	4386.88
948.105	4384.62
948.41	4336.93
948.716	4355.24
949.022	4298.29
949.327	4315.47
949.633	4213.32
949.938	4240.89
950.244	4196.37
950.549	4194.11
950.854	4200.67
951.16	4199.54
951.465	4156.83
951.77	4138.75
952.075	4120.89
952.38	4116.37
952.685	4137.17
952.99	4036.38
953.294	4079.99
953.599	4044.29
953.904	3997.06
954.209	3981.69
954.513	3991.63
954.818	3992.54
955.122	3967.68
955.426	3942.14
955.731	3879.32
956.035	3893.1
956.339	3857.17
956.643	3835.93
956.948	3836.61
957.252	3822.6
957.556	3818.3
957.86	3806.55
958.163	3771.98
958.467	3762.26
958.771	3783.5
959.075	3703.73
959.378	3704.18
959.682	3684.97
959.985	3696.95
960.289	3680.68
960.592	3654.69
960.896	3636.39
961.199	3663.96
961.502	3637.07
961.805	3604.07
962.108	3575.37
962.411	3529.72
962.714	3541.25
963.017	3503.28
963.32	3530.85
963.623	3512.32
963.926	3480.01
964.228	3501.02
964.531	3463.28
964.833	3493.79
965.136	3426
965.438	3383.51
965.741	3391.65
966.043	3371.08
966.345	3378.09
966.648	3331.54
966.95	3368.6
967.252	3278.66
967.554	3298.54
967.856	3296.28
968.158	3280.01
968.46	3268.04
968.761	3242.05
969.063	3204.76
969.365	3227.13
969.666	3213.8
969.968	3171.77
970.269	3182.84
970.571	3202.95
970.872	3143.52
971.174	3150.98
971.475	3088.61
971.776	3115.5
972.077	3100.81
972.378	3105.55
972.679	3082.28
972.98	3062.17
973.281	3054.48
973.582	3025.33
973.883	3055.39
974.183	2987.14
974.484	3008.38
974.785	2972.22
975.085	2986.91
975.386	2979.46
975.686	2931.32
975.986	2885.22
976.287	2936.74
976.587	2886.8
976.887	2906.24
977.187	2894.49
977.487	2905.11
977.787	2903.3
978.087	2852.91
978.387	2839.35
978.687	2840.7
978.987	2817.43
979.286	2810.65
979.586	2774.94
979.885	2788.73
980.185	2731.78
980.484	2747.6
980.784	2763.87
981.083	2733.36
981.382	2715.96
981.682	2662.85
981.981	2663.98
982.28	2672.8
982.579	2679.35
982.878	2648.39
983.177	2624.44
983.475	2618.11
983.774	2651.55
984.073	2629.41
984.372	2600.48
984.67	2543.31
984.969	2593.25
985.267	2541.73
985.566	2572.91
985.864	2511.45
986.162	2528.17
986.461	2514.61
986.759	2510.99
987.057	2457.66
987.355	2469.64
987.653	2442.29
987.951	2446.14
988.249	2455.4
988.547	2427.83
988.844	2428.74
989.142	2422.41
989.44	2391.67
989.737	2397.78
990.035	2349.19
990.332	2383.31
990.63	2383.77
990.927	2360.71
991.224	2376.31
991.521	2326.82
991.819	2293.37
992.116	2311.68
992.413	2320.94
992.71	2297.89
993.006	2275.29
993.303	2271.68
993.6	2263.54
993.897	2254.73
994.193	2240.49
994.49	2197.78
994.787	2194.62
995.083	2185.8
995.379	2200.04
995.676	2171.79
995.972	2165.47
996.268	2199.14
996.565	2170.44
996.861	2128.18
997.157	2140.61
997.453	2153.94
997.749	2099.7
998.044	2094.51
998.34	2092.7
998.636	2079.59
998.932	2061.97
999.227	2060.61
999.523	2046.37
999.818	2032.59
1000.114	2039.82
1000.409	2016.99
1000.704	2032.14
1001	1991.23
1001.295	2014.06
1001.59	1956.21
1001.885	1968.41
1002.18	1953.27
1002.475	1942.65
1002.77	1934.96
1003.065	1927.28
1003.359	1890.9
1003.654	1904.46
1003.949	1894.96
1004.243	1889.77
1004.538	1840.5
1004.832	1867.39
1005.127	1858.36
1005.421	1859.03
1005.715	1835.08
1006.009	1826.72
1006.304	1798.92
1006.598	1820.16
1006.892	1799.83
1007.186	1765.48
1007.48	1777.91
1007.773	1779.71
1008.067	1770
1008.361	1744.46
1008.655	1716.44
1008.948	1710.34
1009.242	1706.72
1009.535	1709.21
1009.829	1689.32
1010.122	1668.08
1010.415	1673.5
1010.708	1660.85
1011.001	1650
1011.295	1624.01
1011.588	1640.96
1011.881	1642.99
1012.173	1609.32
1012.466	1609.55
1012.759	1596.44
1013.052	1561.64
1013.344	1599.38
1013.637	1534.07
1013.93	1558.25
1014.222	1575.42
1014.514	1557.57
1014.807	1561.64
1015.099	1532.26
1015.391	1530
1015.683	1525.26
1015.976	1508.31
1016.268	1475.99
1016.56	1478.25
1016.851	1476.67
1017.143	1459.95
1017.435	1435.99
1017.727	1447.52
1018.018	1437.8
1018.31	1441.64
1018.602	1424.92
1018.893	1400.97
1019.185	1402.1
1019.476	1372.94
1019.767	1421.76
1020.058	1394.41
1020.35	1380.63
1020.641	1365.49
1020.932	1362.32
1021.223	1360.29
1021.514	1330.46
1021.804	1316.22
1022.095	1338.14
1022.386	1328.88
1022.677	1323.23
1022.967	1294.98
1023.258	1294.98
1023.548	1273.51
1023.839	1255.89
1024.129	1265.38
1024.419	1265.6
1024.709	1235.09
1025	1257.47
1025.29	1225.6
1025.58	1221.54
1025.87	1200.52
1026.16	1218.6
1026.449	1188.77
1026.739	1216.79
1027.029	1197.13
1027.319	1196.45
1027.608	1184.7
1027.898	1161.88
1028.187	1165.27
1028.477	1134.08
1028.766	1159.16
1029.055	1120.75
1029.344	1146.96
1029.634	1124.14
1029.923	1105.61
1030.212	1080.07
1030.501	1092.73
1030.79	1107.19
1031.078	1081.2
1031.367	1079.17
1031.656	1052.05
1031.945	1054.99
1032.233	1059.96
1032.522	1020.86
1032.81	1054.76
1033.099	1022.44
1033.387	1035.78
1033.675	1040.07
1033.963	1015.21
1034.251	971.37
1034.54	1012.05
1034.828	979.06
1035.116	1008.43
1035.403	977.93
1035.691	983.35
1035.979	970.24
1036.267	949.9
1036.554	964.14
1036.842	942.67
1037.129	953.97
1037.417	958.94
1037.704	920.75
1037.992	930.24
1038.279	932.05
1038.566	932.73
1038.853	932.73
1039.14	932.73
