Data from hue_22_FLMS001491_00055.txt Node
Date: Tue Feb 07 17:10:19 GMT 2017
User: dcchb
Spectrometer: FLMS00149
Trigger mode: 0
Integration Time (sec): 2.000000E-2
Scans to average: 10
Electric dark correction enabled: true
Nonlinearity correction enabled: false
Boxcar width: 0
XAxis mode: Wavelengths
Number of Pixels in Spectrum: 2048
>>>>>Begin Spectral Data<<<<<
341.393	-14.22
341.776	-14.22
342.16	-14.22
342.543	-73.88
342.927	-78.63
343.31	-64.39
343.693	-57.61
344.077	-59.19
344.46	-50.15
344.843	-46.54
345.226	-41.11
345.61	-26.2
345.993	-30.95
346.376	-8.57
346.759	9.28
347.142	28.94
347.525	28.71
347.908	56.06
348.291	73.23
348.674	74.14
349.057	114.36
349.44	117.53
349.823	135.15
350.206	146
350.588	197.98
350.971	221.93
351.354	220.35
351.737	233.45
352.119	245.88
352.502	271.65
352.884	280.91
353.267	274.58
353.65	307.35
354.032	312.77
354.414	293.11
354.797	323.17
355.179	315.26
355.562	332.89
355.944	329.72
356.326	315.26
356.709	339.44
357.091	327.92
357.473	334.02
357.855	327.24
358.238	338.99
358.62	348.93
359.002	333.11
359.384	329.95
359.766	342.83
360.148	329.27
360.53	350.74
360.912	330.63
361.294	326.79
361.676	336.95
362.057	336.28
362.439	312.1
362.821	332.21
363.203	320.91
363.584	313.9
363.966	324.98
364.348	324.75
364.729	302.83
365.111	348.71
365.493	303.28
365.874	323.85
366.256	310.97
366.637	317.97
367.019	311.42
367.4	310.06
367.781	301.02
368.163	309.84
368.544	289.05
368.925	312.77
369.306	324.98
369.688	297.18
370.069	331.08
370.45	311.64
370.831	332.89
371.212	315.71
371.593	310.06
371.974	323.62
372.355	301.02
372.736	327.01
373.117	314.36
373.498	312.55
373.879	292.21
374.26	318.42
374.641	322.94
375.021	308.48
375.402	324.3
375.783	319.55
376.163	334.24
376.544	328.37
376.925	327.92
377.305	332.21
377.686	341.93
378.066	338.08
378.447	347.8
378.827	333.34
379.208	334.92
379.588	338.08
379.968	334.69
380.349	335.6
380.729	342.38
381.109	334.24
381.489	344.19
381.87	337.86
382.25	339.89
382.63	323.17
383.01	334.02
383.39	327.24
383.77	342.6
384.15	340.12
384.53	366.11
384.91	356.61
385.29	354.58
385.67	372.21
386.049	352.55
386.429	345.99
386.809	340.57
387.189	344.86
387.568	358.42
387.948	350.51
388.328	381.92
388.707	375.37
389.087	373.56
389.466	365.2
389.846	384.18
390.225	372.89
390.605	375.82
390.984	374.02
391.363	362.72
391.743	361.59
392.122	378.31
392.501	345.99
392.881	387.35
393.26	387.8
393.639	389.61
394.018	373.11
394.397	377.41
394.776	379.67
395.155	390.51
395.534	390.06
395.913	401.13
396.292	398.2
396.671	396.84
397.05	396.61
397.429	376.5
397.808	388.7
398.186	386.67
398.565	410.17
398.944	391.64
399.323	409.72
399.701	421.92
400.08	390.74
400.458	414.69
400.837	390.06
401.215	411.75
401.594	395.94
401.972	420.57
402.351	413.34
402.729	411.75
403.107	407.69
403.486	414.69
403.864	415.37
404.242	421.47
404.62	414.47
404.999	418.08
405.377	416.73
405.755	422.15
406.133	441.58
406.511	418.99
406.889	424.18
407.267	430.96
407.645	396.84
408.023	442.94
408.401	437.52
408.779	458.31
409.156	450.85
409.534	461.24
409.912	453.56
410.29	473.45
410.667	465.76
411.045	458.31
411.422	449.49
411.8	480.45
412.178	456.95
412.555	455.37
412.933	460.34
413.31	479.55
413.687	477.97
414.065	508.93
414.442	495.82
414.819	491.3
415.197	492.88
415.574	481.13
415.951	493.11
416.328	497.4
416.705	497.4
417.082	514.8
417.46	514.58
417.837	482.94
418.214	494.69
418.591	517.97
418.967	528.36
419.344	547.12
419.721	515.25
420.098	542.6
420.475	530.17
420.852	539.66
421.228	540.34
421.605	534.69
421.982	564.52
422.358	541.69
422.735	552.32
423.111	527.23
423.488	540.34
423.864	553.9
424.241	553.67
424.617	564.52
424.994	567.68
425.37	554.58
425.746	553.67
426.123	564.07
426.499	581.02
426.875	541.69
427.251	582.82
427.627	587.57
428.003	578.08
428.379	609.49
428.756	614.46
429.132	611.07
429.507	611.07
429.883	610.17
430.259	634.12
430.635	635.48
431.011	613.33
431.387	636.16
431.763	615.14
432.138	647.91
432.514	632.99
432.89	655.14
433.265	665.53
433.641	688.36
434.016	682.03
434.392	687.45
434.767	695.36
435.143	680
435.518	698.98
435.894	707.57
436.269	720.67
436.644	691.97
437.02	726.1
437.395	710.05
437.77	718.41
438.145	729.26
438.52	730.39
438.895	720
439.271	722.26
439.646	699.43
440.021	749.82
440.395	767.23
440.77	767
441.145	771.29
441.52	780.11
441.895	782.14
442.27	772.65
442.645	779.43
443.019	805.64
443.394	774.01
443.769	804.74
444.143	785.53
444.518	805.42
444.892	778.07
445.267	799.99
445.641	806.55
446.016	818.75
446.39	839.77
446.764	814.91
447.139	802.93
447.513	826.89
447.887	835.47
448.262	855.58
448.636	850.84
449.01	835.47
449.384	862.59
449.758	881.57
450.132	867.11
450.506	889.03
450.88	873.44
451.254	876.83
451.628	895.36
452.002	910.72
452.376	912.76
452.75	911.85
453.123	932.87
453.497	915.7
453.871	947.56
454.244	947.79
454.618	949.59
454.992	975.13
455.365	983.49
455.739	990.95
456.112	1000.89
456.486	980.55
456.859	997.5
457.232	992.98
457.606	1038.86
457.979	1027.78
458.352	1034.11
458.725	1055.58
459.099	1050.83
459.472	1064.62
459.845	1104.17
460.218	1091.74
460.591	1100.78
460.964	1112.53
461.337	1146.2
461.71	1147.78
462.083	1145.29
462.456	1162.02
462.829	1195.46
463.201	1193.66
463.574	1164.73
463.947	1167.67
464.32	1228.91
464.692	1237.72
465.065	1271.17
465.438	1267.55
465.81	1273.2
466.183	1278.17
466.555	1331.05
466.928	1300.77
467.3	1297.16
467.672	1335.35
468.045	1374.67
468.417	1392.75
468.789	1398.4
469.161	1404.5
469.534	1423.03
469.906	1442.69
470.278	1483.14
470.65	1475.23
471.022	1533.31
471.394	1536.24
471.766	1515
472.138	1584.83
472.51	1612.63
472.882	1596.13
473.253	1626.19
473.625	1650.82
473.997	1697.37
474.369	1729.91
474.74	1738.05
475.112	1792.06
475.484	1761.32
475.855	1836.58
476.227	1872.73
476.598	1908.44
476.97	1908.89
477.341	1971.94
477.713	1984.59
478.084	1985.05
478.455	2023.46
478.827	2099.62
479.198	2136.68
479.569	2133.97
479.94	2181.65
480.311	2230.46
480.682	2315.43
481.053	2324.25
481.424	2367.18
481.795	2390.23
482.166	2453.28
482.537	2479.72
482.908	2549.1
483.279	2583.68
483.65	2633.84
484.021	2637.23
484.391	2743.22
484.762	2773.5
485.133	2747.51
485.503	2828.19
485.874	2905.02
486.244	2928.52
486.615	2967.62
486.985	3042.42
487.356	3093.04
487.726	3140.04
488.097	3187.5
488.467	3200.16
488.837	3285.13
489.207	3278.35
489.578	3380.94
489.948	3446.93
490.318	3488.06
490.688	3485.12
491.058	3552.24
491.428	3616.87
491.798	3651.9
492.168	3710.65
492.538	3730.54
492.908	3793.36
493.278	3867.94
493.648	3853.92
494.017	3940.7
494.387	3945
494.757	4024.09
495.126	4047.82
495.496	4012.11
495.866	4106.35
496.235	4150.87
496.605	4196.06
496.974	4242.61
497.344	4270.64
497.713	4310.41
498.082	4353.8
498.452	4388.15
498.821	4411.42
499.19	4398.54
499.559	4468.15
499.928	4536.39
500.298	4547.01
500.667	4609.84
501.036	4588.82
501.405	4606.45
501.774	4649.84
502.143	4671.98
502.512	4686.22
502.88	4756.27
503.249	4751.53
503.618	4732.77
503.987	4811.64
504.356	4817.97
504.724	4884.41
505.093	4855.71
505.462	4935.48
505.83	4941.81
506.199	4965.31
506.567	5004.18
506.936	5024.29
507.304	5117.62
507.672	5105.42
508.041	5120.56
508.409	5168.92
508.777	5154.91
509.145	5185.41
509.514	5225.87
509.882	5282.36
510.25	5270.84
510.618	5336.15
510.986	5358.74
511.354	5365.75
511.722	5448.91
512.09	5429.25
512.458	5445.29
512.826	5463.15
513.193	5499.3
513.561	5510.38
513.929	5540.21
514.297	5598.74
514.664	5647.78
515.032	5585.63
515.4	5671.28
515.767	5704.72
516.135	5730.03
516.502	5637.61
516.869	5746.08
517.237	5774.1
517.604	5729.58
517.972	5838.96
518.339	5855.68
518.706	5810.03
519.073	5838.96
519.44	5918.05
519.808	5935.9
520.175	5967.77
520.542	6061.78
520.909	6034.43
521.276	6077.14
521.643	6052.74
522.009	6125.73
522.376	6187.42
522.743	6185.16
523.11	6243.69
523.477	6219.74
523.843	6229.91
524.21	6363.01
524.577	6406.4
524.943	6387.42
525.31	6410.47
525.676	6515.32
526.043	6486.4
526.409	6496.79
526.776	6574.3
527.142	6624.47
527.508	6661.53
527.874	6641.42
528.241	6718.03
528.607	6713.96
528.973	6738.82
529.339	6779.04
529.705	6906.05
530.071	6901.98
530.437	6900.17
530.803	6982.43
531.169	7029.89
531.535	7021.98
531.901	7026.72
532.267	7035.31
532.632	7083.67
532.998	7167.06
533.364	7179.49
533.73	7196.66
534.095	7250.9
534.461	7298.35
534.826	7274.63
535.192	7369.09
535.557	7327.05
535.923	7365.47
536.288	7362.98
536.653	7455.19
537.019	7416.54
537.384	7472.81
537.749	7474.62
538.114	7568.63
538.479	7560.04
538.845	7659.47
539.21	7603.43
539.575	7623.99
539.94	7730.43
540.305	7750.32
540.67	7742.41
541.034	7818.34
541.399	7810.43
541.764	7886.36
542.129	7806.59
542.494	7927.04
542.858	7986.92
543.223	7972.46
543.587	7957.09
543.952	8024.66
544.316	7995.96
544.681	8081.38
545.045	8165.22
545.41	8179.23
545.774	8176.07
546.138	8222.4
546.503	8289.51
546.867	8265.56
547.231	8336.52
547.595	8321.38
547.959	8340.13
548.324	8375.39
548.688	8395.73
549.052	8456.97
549.416	8444.54
549.779	8436.63
550.143	8487.47
550.507	8567.47
550.871	8597.98
551.235	8600.47
551.599	8698.77
551.962	8669.84
552.326	8675.94
552.689	8786.22
553.053	8713.91
553.417	8702.84
553.78	8850.63
554.143	8912.55
554.507	8890.63
554.87	8956.61
555.234	8998.87
555.597	8964.52
555.96	9018.53
556.323	8961.13
556.686	9017.86
557.05	9094.69
557.413	9107.12
557.776	9115.48
558.139	9173.78
558.502	9184.41
558.865	9234.12
559.228	9301.92
559.59	9268.7
559.953	9297.85
560.316	9376.94
560.679	9411.97
561.041	9393.89
561.404	9423.27
561.767	9530.84
562.129	9528.58
562.492	9619.42
562.854	9670.95
563.217	9612.87
563.579	9760.89
563.941	9718.63
564.304	9688.57
564.666	9749.81
565.028	9828.23
565.39	9853.31
565.753	9906.65
566.115	9934.67
566.477	9958.62
566.839	9971.5
567.201	10095.34
567.563	10011.28
567.925	10133.53
568.287	10079.75
568.648	10206.3
569.01	10221.89
569.372	10306.41
569.734	10260.99
570.095	10386.63
570.457	10405.62
570.819	10421.89
571.18	10456.91
571.542	10488.78
571.903	10537.82
572.265	10595.67
572.626	10588.89
572.987	10647.64
573.349	10780.97
573.71	10868.88
574.071	10890.35
574.432	10891.48
574.794	11004.24
575.155	11015.54
575.516	11093.28
575.877	11138.48
576.238	11233.84
576.599	11324.69
576.96	11379.83
577.32	11434.06
577.681	11487.17
578.042	11614.4
578.403	11724.68
578.763	11751.57
579.124	11901.4
579.485	11941.4
579.845	12102.52
580.206	12191.78
580.566	12293.7
580.927	12436.3
581.287	12580.02
581.648	12709.96
582.008	12880.58
582.368	12987.92
582.728	13095.49
583.089	13195.6
583.449	13418.64
583.809	13567.57
584.169	13808.46
584.529	13830.61
584.889	14171.39
585.249	14311.05
585.609	14457.26
585.969	14724.15
586.329	14867.87
586.688	15176.56
587.048	15366.84
587.408	15548.76
587.768	15807.28
588.127	16025.13
588.487	16266.93
588.846	16569.75
589.206	16774.71
589.565	16967.25
589.925	17359.11
590.284	17535.15
590.643	17938.98
591.003	18047
591.362	18498.06
591.721	18640.2
592.08	19115.44
592.44	19298.72
592.799	19527.18
593.158	19924.01
593.517	20191.8
593.876	20544.56
594.235	20806.25
594.593	21112
594.952	21450.3
595.311	21644.87
595.67	22041.24
596.029	22474.68
596.387	22733.88
596.746	23149.69
597.104	23337.03
597.463	23574.76
597.822	23971.59
598.18	24285.25
598.538	24613.15
598.897	25080.94
599.255	25175.62
599.613	25705.78
599.972	25903.06
600.33	26313.67
600.688	26481.8
601.046	26778.07
601.404	27237.72
601.762	27449.24
602.12	27881.31
602.478	28216.22
602.836	28416.89
603.194	28642.2
603.552	28860.72
603.91	29127.61
604.268	29569.63
604.625	29636.07
604.983	30013.24
605.341	30257.52
605.698	30708.59
606.056	31052.3
606.413	31226.09
606.771	31609.35
607.128	31750.14
607.485	31910.36
607.843	32245.04
608.2	32636.9
608.557	32997.56
608.914	33035.98
609.272	33356.65
609.629	33589.41
609.986	33865.34
610.343	34011.32
610.7	34464.64
611.057	34640.69
611.414	34789.61
611.771	34980.56
612.127	35220.78
612.484	35527.44
612.841	35649.92
613.198	35811.95
613.554	35906.41
613.911	36452.84
614.267	36604.25
614.624	36757.01
614.98	36818.93
615.337	37200.84
615.693	37293.72
616.05	37423.21
616.406	37880.83
616.762	37762.64
617.118	37853.26
617.475	38053.93
617.831	38342.51
618.187	38566.46
618.543	38704.76
618.899	39012.55
619.255	38963.06
619.611	39031.98
619.967	39396.27
620.323	39557.62
620.678	39553.78
621.034	39549.71
621.39	39726.2
621.746	39980.21
622.101	40258.39
622.457	40143.14
622.812	40220.43
623.168	40463.58
623.523	40465.16
623.879	40770.47
624.234	40531.15
624.589	40756.68
624.945	41011.14
625.3	41146.5
625.655	41068.76
626.01	41307.85
626.365	41216.56
626.72	41261.98
627.075	41357.8
627.43	41405.93
627.785	41410
628.14	41470.79
628.495	41675.53
628.85	41563.89
629.205	41536.55
629.559	41932.7
629.914	41632.82
630.269	42002.3
630.623	41887.05
630.978	41683.44
631.332	42017.21
631.687	42143.99
632.041	42016.76
632.396	42048.63
632.75	42054.28
633.104	42206.14
633.459	42138.34
633.813	42071.45
634.167	42107.83
634.521	42171.33
634.875	42278.45
635.229	42233.03
635.583	42070.55
635.937	41965.01
636.291	42105.35
636.645	42202.52
636.999	42158.68
637.352	42266.02
637.706	42064.22
638.06	42381.05
638.413	42087.04
638.767	42062.18
639.121	42216.31
639.474	41900.61
639.828	42069.64
640.181	42213.82
640.534	42108.06
640.888	42002.98
641.241	41917.33
641.594	42041.85
641.947	42138.34
642.301	41889.99
642.654	42045.91
643.007	42073.48
643.36	41955.97
643.713	42085.91
644.066	42167.72
644.419	41925.69
644.771	41734.28
645.124	41330.23
645.477	41307.85
645.83	41077.35
646.182	40941.76
646.535	40786.51
646.888	40988.54
647.24	40810.92
647.593	41091.14
647.945	40905.83
648.298	40704.03
648.65	40699.73
649.002	40564.37
649.355	40701.99
649.707	40746.29
650.059	40861.99
650.411	41293.39
650.763	41494.29
651.115	41800.95
651.467	41568.86
651.819	41725.7
652.171	41618.81
652.523	41531.58
652.875	41512.14
653.227	41387.4
653.578	41752.81
653.93	41699.48
654.282	41424.24
654.633	41335.65
654.985	41393.95
655.337	41581.29
655.688	41552.37
656.039	41575.19
656.391	41290.23
656.742	41287.29
657.094	41482.99
657.445	41570.9
657.796	41407.06
658.147	41397.57
658.498	41320.06
658.849	41499.71
659.2	41400.73
659.551	41252.71
659.902	41418.59
660.253	41276.89
660.604	41478.02
660.955	41139.72
661.306	41348.76
661.656	41244.81
662.007	41313.05
662.358	41329.55
662.708	41334.07
663.059	41308.53
663.409	41133.17
663.76	41415.87
664.11	41406.38
664.461	41329.77
664.811	41397.34
665.161	41323.22
665.511	41088.2
665.862	41251.81
666.212	41287.52
666.562	41402.32
666.912	41177.24
667.262	41242.77
667.612	41177.01
667.962	41252.71
668.312	41124.58
668.662	41439.83
669.011	41173.17
669.361	40985.15
669.711	41075.77
670.06	41106.5
670.41	40987.19
670.76	41028.99
671.109	41128.65
671.459	41095.88
671.808	40994.42
672.157	41179.95
672.507	40908.77
672.856	41031.7
673.205	40977.24
673.554	41159.16
673.904	41011.37
674.253	41154.64
674.602	40946.28
674.951	40364.15
675.3	40272.18
675.649	40876.68
675.998	40854.76
676.346	40847.53
676.695	41078.71
677.044	40502.23
677.393	40811.37
677.741	40708.77
678.09	40660.87
678.438	40593.98
678.787	40648.44
679.135	40651.37
679.484	40451.61
679.832	40587.2
680.181	40348.78
680.529	40373.87
680.877	40303.36
681.225	40435.56
681.573	40618.61
681.922	40408.22
682.27	40219.07
682.618	40164.38
682.966	40144.27
683.314	40146.3
683.661	40015.46
684.009	39894.56
684.357	39862.02
684.705	39672.64
685.053	39884.62
685.4	39794.45
685.748	39543.83
686.095	39601.23
686.443	39323.5
686.79	39358.98
687.138	39424.97
687.485	39548.58
687.832	39271.98
688.18	39357.17
688.527	39084.18
688.874	39008.71
689.221	39012.55
689.568	38835.6
689.915	38840.12
690.262	39092.32
690.609	38847.81
690.956	38741.59
691.303	38569.62
691.65	38554.25
691.997	38432
692.344	38299.35
692.69	38078.56
693.037	38162.85
693.383	37916.31
693.73	38120.14
694.077	37845.8
694.423	37879.24
694.769	37675.86
695.116	37706.14
695.462	37627.27
695.808	37372.59
696.155	37536.88
696.501	37272.93
696.847	37276.1
697.193	36919.27
697.539	37125.37
697.885	36837.69
698.231	36799.5
698.577	36696.45
698.923	36706.62
699.269	36593.18
699.614	36389.57
699.96	36343.01
700.306	36458.04
700.651	36119.52
700.997	36203.13
701.342	36034.77
701.688	35983.47
702.033	35884.27
702.379	35811.95
702.724	35753.65
703.069	35796.36
703.415	35463.94
703.76	35491.74
704.105	35503.26
704.45	35444.73
704.795	35178.07
705.14	35073.67
705.485	35126.32
705.83	34919.77
706.175	34931.07
706.52	34821.7
706.865	34729.72
707.209	34684.75
707.554	34487.02
707.899	34648.59
708.243	34507.36
708.588	34334.25
708.932	34298.55
709.277	34145.11
709.621	34171.55
709.966	34044.32
710.31	34140.36
710.654	33778.34
710.998	33921.38
711.342	33906.69
711.687	33766.58
712.031	33671.67
712.375	33462.64
712.719	33676.19
713.063	33452.47
713.407	33635.51
713.75	33381.96
714.094	33258.35
714.438	33175.41
714.782	33302.19
715.125	33177.67
715.469	33244.11
715.812	33109.88
716.156	32947.4
716.499	32861.3
716.843	32812.94
717.186	32685.26
717.53	32848.19
717.873	32901.07
718.216	32748.53
718.559	32567.75
718.902	32222.9
719.246	32355.77
719.589	32190.13
719.932	32214.08
720.275	32177.7
720.617	32124.82
720.96	32061.77
721.303	32123.92
721.646	32003.01
721.989	31850.93
722.331	31944.26
722.674	31883.24
723.016	31879.4
723.359	31786.52
723.701	31760.31
724.044	31593.31
724.386	31521.9
724.729	31585.62
725.071	31517.83
725.413	31459.07
725.755	31509.24
726.097	31282.58
726.439	31165.97
726.782	31173.43
727.124	31296.14
727.465	31152.87
727.807	31149.93
728.149	30961.69
728.491	31100.67
728.833	30976.37
729.175	30894.34
729.516	30918.75
729.858	30821.12
730.199	30810.96
730.541	30660.9
730.882	30690.28
731.224	30692.54
731.565	30589.49
731.906	30756.95
732.248	30631.75
732.589	30441.7
732.93	30416.39
733.271	30308.37
733.612	30278.31
733.953	30327.58
734.294	30230.18
734.635	30142.05
734.976	30262.72
735.317	30194.47
735.658	30133.91
735.999	30129.17
736.339	30147.47
736.68	30137.53
737.021	30048.26
737.361	29903.18
737.702	30024.31
738.042	29855.73
738.383	29931.66
738.723	29766.46
739.063	29733.92
739.404	29745.45
739.744	29794.26
740.084	29633.59
740.424	29721.94
740.764	29434.49
741.104	29632.91
741.444	29560.59
741.784	29356.53
742.124	29426.36
742.464	29507.26
742.804	29360.15
743.143	29335.29
743.483	29238.34
743.823	29208.29
744.162	29265.23
744.502	29222.3
744.841	29080.61
745.181	29138.91
745.52	29004.9
745.86	29131.45
746.199	29034.96
746.538	28936.43
746.877	29059.59
747.216	29041.74
747.556	28866.15
747.895	28905.92
748.234	28671.35
748.573	28615.08
748.911	28702.08
749.25	28679.71
749.589	28603.56
749.928	28702.54
750.267	28627.51
750.605	28507.97
750.944	28359.95
751.283	28431.81
751.621	28385.26
751.96	28232.27
752.298	28203.79
752.636	28213.74
752.975	28191.36
753.313	28014.42
753.651	28141.65
753.989	28007.19
754.327	27859.17
754.666	27838.38
755.004	27900.98
755.342	27869.56
755.679	27776.23
756.017	27591.83
756.355	27775.1
756.693	27623.92
757.031	27631.15
757.368	27457.82
757.706	27436.35
758.044	27392.97
758.381	27284.72
758.719	27254.89
759.056	27216.7
759.394	27238.39
759.731	26993.43
760.068	27022.35
760.405	26908.91
760.743	26762.7
761.08	26885.86
761.417	26798.18
761.754	26639.54
762.091	26651.97
762.428	26533.55
762.765	26420.56
763.102	26476.83
763.438	26246.56
763.775	26297.63
764.112	26181.47
764.449	26247.46
764.785	26115.94
765.122	25868.71
765.458	25818.54
765.795	25833.01
766.131	25848.15
766.467	25739
766.804	25577.42
767.14	25444.09
767.476	25493.13
767.812	25367.93
768.148	25348.73
768.485	25155.96
768.821	24989.64
769.157	25003.42
769.492	24947.38
769.828	25048.17
770.164	24780.61
770.5	24611.12
770.836	24751
771.171	24473.49
771.507	24510.33
771.842	24217.23
772.178	24285.03
772.513	24222.2
772.849	24084.8
773.184	24012.94
773.519	24025.82
773.855	23848.88
774.19	23813.85
774.525	23693.85
774.86	23778.37
775.195	23560.75
775.53	23445.27
775.865	23286.18
776.2	23221.1
776.535	23048.9
776.87	23134.55
777.205	22931.16
777.539	22900.65
777.874	22992.86
778.209	22859.75
778.543	22680.32
778.878	22531.4
779.212	22556.26
779.547	22328.01
779.881	22513.55
780.215	22327.11
780.55	22318.98
780.884	22218.86
781.218	22081.69
781.552	22116.27
781.886	22030.85
782.22	21882.38
782.554	21777.52
782.888	21755.37
783.222	21595.83
783.556	21422.5
783.889	21515.83
784.223	21343.86
784.557	21304.99
784.89	21312
785.224	21077.2
785.557	21020.03
785.891	20961.95
786.224	20937.77
786.558	20879.24
786.891	20797.89
787.224	20697.55
787.557	20604.22
787.891	20603.31
788.224	20489.42
788.557	20528.29
788.89	20358.57
789.223	20407.61
789.556	20249.88
789.888	20111.35
790.221	20040.39
790.554	19866.61
790.887	19814.86
791.219	19875.65
791.552	19829.32
791.884	19678.14
792.217	19699.38
792.549	19623.45
792.882	19491.25
793.214	19355.66
793.546	19407.64
793.879	19301.88
794.211	19208.1
794.543	19205.61
794.875	19164.48
795.207	19169.91
795.539	19086.74
795.871	19086.07
796.203	18891.49
796.535	18870.48
796.867	18736.7
797.198	18705.96
797.53	18688.56
797.862	18580.32
798.193	18564.95
798.525	18447.21
798.856	18498.74
799.188	18356.82
799.519	18249.93
799.85	18010.16
800.182	18232.53
800.513	18095.58
800.844	18012.42
801.175	18181.68
801.506	18089.26
801.837	17874.8
802.168	17871.63
802.499	17818.53
802.83	17760.9
803.161	17720.45
803.491	17650.17
803.822	17658.98
804.153	17586.44
804.483	17452.89
804.814	17424.87
805.145	17376.73
805.475	17339.22
805.805	17240.24
806.136	17322.72
806.466	17196.17
806.796	17237.75
807.126	17083.41
807.457	16998.89
807.787	16999.57
808.117	17023.75
808.447	16852.68
808.777	16864.66
809.107	16784.43
809.436	16755.28
809.766	16858.78
810.096	16588.05
810.426	16568.39
810.755	16643.42
811.085	16560.26
811.414	16558.9
811.744	16412.46
812.073	16367.95
812.403	16365.69
812.732	16280.49
813.061	16190.55
813.39	16219.47
813.719	16157.1
814.049	16181.06
814.378	16120.04
814.707	16118.69
815.036	16039.37
815.365	15898.81
815.693	15850.67
816.022	15904.45
816.351	15767.06
816.68	15651.81
817.008	15807.51
817.337	15710.11
817.665	15596.21
817.994	15609.77
818.322	15644.57
818.651	15468.08
818.979	15517.8
819.307	15593.95
819.636	15497.23
819.964	15332.04
820.292	15447.07
820.62	15369.78
820.948	15295.88
821.276	15446.84
821.604	15279.61
821.932	15384.47
822.259	15371.59
822.587	15308.31
822.915	15289.1
823.243	15301.53
823.57	15258.14
823.898	15275.54
824.225	15319.16
824.553	15235.32
824.88	15262.44
825.207	15210.24
825.535	15177.92
825.862	15264.47
826.189	15336.33
826.516	15260.63
826.843	15346.73
827.17	15236.68
827.497	15283.68
827.824	15257.01
828.151	15276.9
828.478	15184.93
828.805	15207.07
829.131	15144.02
829.458	15221.99
829.785	15103.12
830.111	15103.8
830.438	15235.32
830.764	15206.85
831.09	15284.13
831.417	15191.03
831.743	15245.49
832.069	15111.93
832.395	15059.96
832.722	15230.8
833.048	15160.07
833.374	15136.34
833.7	15049.56
834.026	15041.88
834.351	15058.38
834.677	15050.92
835.003	15095.89
835.329	14998.04
835.654	14983.8
835.98	14958.49
836.306	14986.29
836.631	14932.95
836.956	14942.45
837.282	15024.7
837.607	14824.26
837.932	14797.59
838.258	14817.7
838.583	14809.57
838.908	14746.52
839.233	14757.59
839.558	14693.87
839.883	14511.5
840.208	14692.74
840.533	14670.81
840.858	14546.98
841.182	14591.04
841.507	14535.9
841.832	14493.19
842.156	14558.5
842.481	14404.38
842.805	14379.98
843.13	14406.87
843.454	14344.04
843.778	14266.08
844.103	14295.01
844.427	14241.45
844.751	14250.26
845.075	14131.39
845.399	14189.47
845.723	14099.76
846.047	14130.26
846.371	13937.73
846.695	13991.51
847.019	13831.97
847.343	13840.78
847.666	13765.98
847.99	13756.71
848.313	13660.22
848.637	13641.46
848.96	13492.99
849.284	13557.17
849.607	13446.44
849.931	13422.26
850.254	13290.74
850.577	13361.7
850.9	13197.86
851.223	13166
851.546	13154.02
851.869	13008.49
852.192	13053.23
852.515	12867.92
852.838	12956.51
853.161	12937.75
853.483	12839
853.806	12810.75
854.129	12739.11
854.451	12668.38
854.774	12634.26
855.096	12549.06
855.419	12641.26
855.741	12482.62
856.063	12439.24
856.385	12493.7
856.708	12372.8
857.03	12309.97
857.352	12343.87
857.674	12246.25
857.996	12290.99
858.318	12158.79
858.64	12235.4
858.961	12125.35
859.283	12054.61
859.605	12069.3
859.926	12066.14
860.248	12037.44
860.57	11930.1
860.891	12003.99
861.212	11817.33
861.534	11869.31
861.855	11790.66
862.176	11824.56
862.498	11855.97
862.819	11783.89
863.14	11752.47
863.461	11688.07
863.782	11696.88
864.103	11709.99
864.424	11658.69
864.745	11672.02
865.065	11584.79
865.386	11618.92
865.707	11619.14
866.027	11601.74
866.348	11573.27
866.668	11586.38
866.989	11507.51
867.309	11482.65
867.63	11460.05
867.95	11460.28
868.27	11359.26
868.59	11361.75
868.91	11382.77
869.23	11392.26
869.55	11313.39
869.87	11371.92
870.19	11283.56
870.51	11309.77
870.83	11361.75
871.15	11261.64
871.469	11248.08
871.789	11278.81
872.109	11218.25
872.428	11102.55
872.748	11173.51
873.067	11256.44
873.386	11154.52
873.706	11128.08
874.025	10945.04
874.344	11008.76
874.663	11042.21
874.982	10954.53
875.301	11065.94
875.62	11045.83
875.939	10898.03
876.258	10896.45
876.577	10961.53
876.896	10953.85
877.214	10911.14
877.533	10945.72
877.852	10848.77
878.17	10839.73
878.489	10851.48
878.807	10886.28
879.125	10889.22
879.444	10795.66
879.762	10748.66
880.08	10753.4
880.398	10653.75
880.716	10697.81
881.034	10675.44
881.352	10684.7
881.67	10670.47
881.988	10637.02
882.306	10630.92
882.624	10584.14
882.941	10500.53
883.259	10492.39
883.577	10441.55
883.894	10493.98
884.212	10507.53
884.529	10455.33
884.846	10383.24
885.164	10433.19
885.481	10340.31
885.798	10331.95
886.115	10341.66
886.432	10230.48
886.75	10216.02
887.067	10272.06
887.383	10215.79
887.7	10206.98
888.017	10173.08
888.334	10178.5
888.651	10111.16
888.967	10105.06
889.284	10044.04
889.6	10072.97
889.917	9922.01
890.233	10031.16
890.55	9902.35
890.866	9890.15
891.182	9895.12
891.498	9892.41
891.815	9845.18
892.131	9800.21
892.447	9741
892.763	9742.36
893.079	9717.95
893.395	9733.09
893.71	9649.25
894.026	9662.58
894.342	9614.9
894.657	9582.14
894.973	9479.09
895.289	9475.25
895.604	9498.52
895.92	9419.65
896.235	9376.26
896.55	9302.59
896.865	9339.43
897.181	9366.32
897.496	9335.14
897.811	9208.59
898.126	9270.28
898.441	9163.61
898.756	9224.4
899.071	9068.7
899.386	9140.56
899.7	9010.17
900.015	8989.16
900.33	8960.91
900.644	8949.38
900.959	8962.72
901.273	8904.41
901.588	8928.37
901.902	8862.61
902.216	8779.44
902.531	8796.62
902.845	8720.91
903.159	8746.9
903.473	8640.46
903.787	8678.88
904.101	8611.31
904.415	8608.6
904.729	8514.37
905.042	8474.59
905.356	8496.29
905.67	8501.49
905.984	8492.45
906.297	8436.85
906.611	8412
906.924	8364.54
907.237	8318.21
907.551	8275.73
907.864	8272.56
908.177	8222.62
908.491	8211.55
908.804	8127.48
909.117	8128.39
909.43	8036.64
909.743	8009.97
910.056	7996.64
910.368	7986.92
910.681	7960.48
910.994	7963.65
911.307	7873.03
911.619	7797.78
911.932	7840.49
912.244	7769.53
912.557	7751.9
912.869	7679.59
913.181	7722.52
913.494	7719.59
913.806	7616.09
914.118	7619.02
914.43	7568.85
914.742	7520.49
915.054	7472.59
915.366	7477.78
915.678	7418.58
915.99	7456.32
916.302	7358.46
916.613	7352.59
916.925	7328.86
917.236	7290.22
917.548	7253.38
917.859	7305.13
918.171	7219.71
918.482	7202.08
918.794	7125.02
919.105	7127.96
919.416	7055.42
919.727	7089.09
920.038	6978.81
920.349	6993.95
920.66	6931.13
920.971	6997.34
921.282	6893.17
921.593	6923.45
921.903	6789.44
922.214	6822.21
922.525	6798.25
922.835	6723.91
923.146	6703.11
923.456	6713.06
923.767	6635.77
924.077	6707.18
924.387	6624.7
924.697	6606.62
925.008	6591.03
925.318	6493.18
925.628	6531.14
925.938	6458.15
926.248	6438.04
926.558	6386.96
926.867	6414.31
927.177	6327.98
927.487	6327.76
927.796	6266.06
928.106	6266.52
928.416	6270.13
928.725	6262
929.034	6169.34
929.344	6161.66
929.653	6162.11
929.962	6102.23
930.271	6170.02
930.581	6027.43
930.89	6030.14
931.199	5983.36
931.508	5981.1
931.817	5991.72
932.125	5992.62
932.434	5933.42
932.743	5894.1
933.051	5869.69
933.36	5846.19
933.669	5808.67
933.977	5778.62
934.286	5782.01
934.594	5757.15
934.902	5715.57
935.21	5709.47
935.519	5668.11
935.827	5660.88
936.135	5618.85
936.443	5605.29
936.751	5599.19
937.059	5560.77
937.367	5514.9
937.674	5505.63
937.982	5486.42
938.29	5456.37
938.597	5447.55
938.905	5365.52
939.213	5367.78
939.52	5355.81
939.827	5345.41
940.135	5325.52
940.442	5306.09
940.749	5296.82
941.056	5289.82
941.363	5194.45
941.67	5158.52
941.977	5186.54
942.284	5150.16
942.591	5134.34
942.898	5065.87
943.205	5114
943.511	5074.46
943.818	5057.73
944.125	4965.76
944.431	5027.68
944.738	4976.38
945.044	4946.55
945.35	4934.35
945.657	4904.07
945.963	4873.11
946.269	4886.67
946.575	4865.65
946.881	4798.31
947.187	4856.38
947.493	4794.69
947.799	4775.93
948.105	4802.15
948.41	4717.63
948.716	4677.63
949.022	4683.28
949.327	4651.42
949.633	4623.62
949.938	4653.45
950.244	4650.06
950.549	4564.41
950.854	4571.19
951.16	4538.43
951.465	4479.9
951.77	4463.4
952.075	4471.53
952.38	4472.66
952.685	4477.41
952.99	4384.31
953.294	4381.82
953.599	4321.03
953.904	4385.44
954.209	4366
954.513	4329.17
954.818	4326.23
955.122	4318.77
955.426	4268.15
955.731	4255.27
956.035	4282.61
956.339	4225.67
956.643	4197.42
956.948	4164.42
957.252	4153.13
957.556	4140.47
957.86	4112.9
958.163	4110.64
958.467	4086.91
958.771	4064.99
959.075	4060.02
959.378	4044.65
959.682	4012.11
959.985	3986.8
960.289	3971.44
960.592	3972.57
960.896	3965.11
961.199	3948.84
961.502	3924.88
961.805	3915.17
962.108	3861.16
962.411	3904.09
962.714	3893.25
963.017	3846.69
963.32	3837.2
963.623	3798.11
963.926	3801.72
964.228	3778.9
964.531	3764.43
964.833	3722.85
965.136	3742.97
965.438	3689.41
965.741	3708.39
966.043	3649.41
966.345	3655.96
966.648	3661.39
966.95	3625.68
967.252	3582.52
967.554	3614.83
967.856	3583.2
968.158	3520.6
968.46	3578.45
968.761	3539.81
969.063	3528.51
969.365	3471.34
969.666	3519.02
969.968	3459.81
970.269	3463.2
970.571	3460.49
970.872	3439.92
971.174	3397.66
971.475	3378.68
971.776	3370.55
972.077	3367.61
972.378	3377.55
972.679	3326.03
972.98	3321.51
973.281	3285.35
973.582	3291
973.883	3267.05
974.183	3265.92
974.484	3287.16
974.785	3239.7
975.085	3223.66
975.386	3208.97
975.686	3180.27
975.986	3222.53
976.287	3179.14
976.587	3172.36
976.887	3133.49
977.187	3142.76
977.487	3117.22
977.787	3119.48
978.087	3066.15
978.387	3117.9
978.687	3090.78
978.987	3045.13
979.286	3003.1
979.586	3000.61
979.885	2977.56
980.185	3034.28
980.484	2981.4
980.784	2961.29
981.083	2916.32
981.382	2947.51
981.682	2926.26
981.981	2904.34
982.28	2893.27
982.579	2886.49
982.878	2835.65
983.177	2849.88
983.475	2863.22
983.774	2808.3
984.073	2822.54
984.372	2779.15
984.67	2776.21
984.969	2794.74
985.267	2754.07
985.566	2773.95
985.864	2709.1
986.162	2704.35
986.461	2729.66
986.759	2713.16
987.057	2677.23
987.355	2705.48
987.653	2677.91
987.951	2675.2
988.249	2623
988.547	2684.46
988.844	2603.34
989.142	2605.6
989.44	2564.01
989.737	2587.52
990.035	2582.32
990.332	2562.43
990.63	2539.38
990.927	2508.87
991.224	2516.56
991.521	2492.83
991.819	2489.21
992.116	2479.04
992.413	2472.04
992.71	2456.9
993.006	2474.98
993.303	2436.11
993.6	2446.5
993.897	2429.55
994.193	2426.62
994.49	2405.6
994.787	2367.18
995.083	2376.67
995.379	2368.77
995.676	2347.3
995.972	2336
996.268	2348.88
996.565	2296.68
996.861	2310.24
997.157	2340.97
997.453	2295.77
997.749	2274.08
998.044	2271.59
998.34	2266.85
998.636	2255.32
998.932	2206.06
999.227	2202.67
999.523	2222.33
999.818	2195.89
1000.114	2185.72
1000.409	2150.69
1000.704	2139.17
1001	2145.27
1001.295	2109.34
1001.59	2143.01
1001.885	2093.74
1002.18	2130.58
1002.475	2111.6
1002.77	2059.62
1003.065	2116.57
1003.359	2059.17
1003.654	2044.03
1003.949	2033.86
1004.243	2036.12
1004.538	2028.21
1004.832	1951.6
1005.127	2016.91
1005.421	2005.84
1005.715	1970.13
1006.009	1950.25
1006.304	1915.67
1006.598	1956.8
1006.892	1932.84
1007.186	1936.46
1007.48	1915.22
1007.773	1889.46
1008.067	1916.57
1008.361	1879.29
1008.655	1847.2
1008.948	1846.97
1009.242	1833.41
1009.535	1859.85
1009.829	1819.18
1010.122	1819.85
1010.415	1772.62
1010.708	1783.47
1011.001	1794.32
1011.295	1779.85
1011.588	1755.22
1011.881	1757.48
1012.173	1728.78
1012.466	1722.23
1012.759	1725.84
1013.052	1731.72
1013.344	1700.99
1013.637	1686.75
1013.93	1676.81
1014.222	1702.57
1014.514	1639.29
1014.807	1673.42
1015.099	1641.78
1015.391	1653.3
1015.683	1658.95
1015.976	1634.77
1016.268	1613.31
1016.56	1588.22
1016.851	1599.97
1017.143	1570.59
1017.435	1587.99
1017.727	1533.99
1018.018	1577.15
1018.31	1518.84
1018.602	1531.73
1018.893	1522.69
1019.185	1506.42
1019.476	1517.04
1019.767	1478.85
1020.058	1511.16
1020.35	1467.32
1020.641	1470.03
1020.932	1473.87
1021.223	1434.33
1021.514	1441.11
1021.804	1420.99
1022.095	1452.63
1022.386	1406.3
1022.677	1424.38
1022.967	1375.57
1023.258	1359.53
1023.548	1352.07
1023.839	1355.23
1024.129	1341
1024.419	1331.73
1024.709	1331.5
1025	1333.31
1025.29	1310.49
1025.58	1299.19
1025.87	1298.74
1026.16	1280.88
1026.449	1272.07
1026.739	1265.97
1027.029	1292.41
1027.319	1243.15
1027.608	1253.31
1027.898	1246.08
1028.187	1227.55
1028.477	1221.9
1028.766	1203.6
1029.055	1207.89
1029.344	1212.41
1029.634	1218.29
1029.923	1213.09
1030.212	1155.69
1030.501	1183.71
1030.79	1165.18
1031.078	1161.34
1031.367	1173.32
1031.656	1135.8
1031.945	1112.98
1032.233	1128.35
1032.522	1115.24
1032.81	1123.15
1033.099	1087.22
1033.387	1092.64
1033.675	1097.84
1033.963	1087.9
1034.251	1084.05
1034.54	1063.71
1034.828	1057.39
1035.116	1044.96
1035.403	1039.76
1035.691	1038.63
1035.979	1041.57
1036.267	1023.49
1036.554	1040.21
1036.842	1014.9
1037.129	1026.88
1037.417	1009.03
1037.704	987.11
1037.992	959.08
1038.279	1018.29
1038.566	979.65
1038.853	979.65
1039.14	979.65
