Data from hue_30_FLMS001491_82.txt Node
Date: Mon Feb 06 15:06:11 GMT 2017
User: dcchb
Spectrometer: FLMS00149
Trigger mode: 0
Integration Time (sec): 2.000000E-2
Scans to average: 10
Electric dark correction enabled: true
Nonlinearity correction enabled: false
Boxcar width: 0
XAxis mode: Wavelengths
Number of Pixels in Spectrum: 2048
>>>>>Begin Spectral Data<<<<<
341.393	-9.49
341.776	-9.49
342.16	-9.49
342.543	-56.5
342.927	-67.79
343.31	-59.43
343.693	-70.51
344.077	-61.92
344.46	-48.36
344.843	-53.33
345.226	-55.82
345.61	-17.4
345.993	-32.77
346.376	-2.03
346.759	-9.27
347.142	27.12
347.525	45.87
347.908	58.53
348.291	65.99
348.674	93.1
349.057	120.22
349.44	133.1
349.823	156.83
350.206	178.07
350.588	190.5
350.971	192.99
351.354	234.34
351.737	232.76
352.119	255.36
352.502	283.83
352.884	273.21
353.267	276.15
353.65	288.58
354.032	302.14
354.414	299.43
354.797	311.86
355.179	339.88
355.562	328.35
355.944	309.14
356.326	332.65
356.709	344.85
357.091	342.82
357.473	355.92
357.855	360.44
358.238	346.66
358.62	350.73
359.002	344.4
359.384	342.14
359.766	343.72
360.148	341.01
360.53	360.22
360.912	328.8
361.294	329.71
361.676	333.55
362.057	363.61
362.439	337.62
362.821	313.89
363.203	341.46
363.584	335.58
363.966	338.97
364.348	323.61
364.729	310.95
365.111	311.63
365.493	335.13
365.874	327.45
366.256	299.88
366.637	331.97
367.019	317.51
367.4	336.94
367.781	334.91
368.163	330.61
368.544	322.03
368.925	322.25
369.306	341.23
369.688	341.69
370.069	313.21
370.45	308.24
370.831	316.15
371.212	312.53
371.593	318.64
371.974	316.6
372.355	321.12
372.736	333.32
373.117	322.48
373.498	304.4
373.879	313.89
374.26	312.08
374.641	320.9
375.021	331.29
375.402	341.69
375.783	343.95
376.163	347.79
376.544	334.45
376.925	337.17
377.305	311.86
377.686	346.43
378.066	339.2
378.447	341.69
378.827	327.67
379.208	328.8
379.588	329.71
379.968	340.78
380.349	341.23
380.729	335.36
381.109	347.34
381.489	353.89
381.87	345.75
382.25	342.14
382.63	331.29
383.01	351.86
383.39	366.32
383.77	366.77
384.15	361.57
384.53	338.75
384.91	371.97
385.29	340.33
385.67	359.99
386.049	378.97
386.429	359.54
386.809	371.52
387.189	374
387.568	376.04
387.948	381.68
388.328	381.91
388.707	361.35
389.087	374.45
389.466	383.04
389.846	369.26
390.225	378.75
390.605	385.75
390.984	384.17
391.363	388.01
391.743	392.53
392.122	374.91
392.501	392.98
392.881	400.44
393.26	397.5
393.639	402.25
394.018	386.88
394.397	397.05
394.776	415.58
395.155	414.68
395.534	394.57
395.913	404.74
396.292	404.74
396.671	392.53
397.05	406.99
397.429	392.31
397.808	417.84
398.186	417.84
398.565	428.24
398.944	405.87
399.323	390.95
399.701	417.84
400.08	423.04
400.458	416.03
400.837	413.55
401.215	427.33
401.594	429.82
401.972	430.95
402.351	404.06
402.729	438.41
403.107	427.79
403.486	450.84
403.864	435.47
404.242	444.73
404.62	437.05
404.999	428.24
405.377	440.67
405.755	471.17
406.133	456.49
406.511	444.28
406.889	456.71
407.267	490.61
407.645	458.52
408.023	484.06
408.401	488.12
408.779	457.16
409.156	461.23
409.534	470.27
409.912	471.17
410.29	496.03
410.667	468.46
411.045	500.33
411.422	493.55
411.8	490.61
412.178	495.13
412.555	493.77
412.933	496.94
413.31	514.34
413.687	503.49
414.065	519.99
414.442	525.41
414.819	532.42
415.197	505.75
415.574	546.2
415.951	529.48
416.328	534.9
416.705	535.35
417.082	571.74
417.46	524.51
417.837	556.14
418.214	541.91
418.591	557.73
418.967	553.66
419.344	566.54
419.721	556.6
420.098	556.37
420.475	571.06
420.852	546.2
421.228	560.89
421.605	576.03
421.982	590.49
422.358	603.83
422.735	581.45
423.111	606.54
423.488	635.24
423.864	606.99
424.241	600.89
424.617	620.32
424.994	611.96
425.37	614.45
425.746	640.89
426.123	618.74
426.499	631.4
426.875	647.44
427.251	621.23
427.627	662.81
428.003	662.81
428.379	630.04
428.756	673.43
429.132	653.54
429.507	670.72
429.883	698.29
430.259	677.04
430.635	711.85
431.011	702.35
431.387	703.48
431.763	726.99
432.138	733.31
432.514	707.55
432.89	729.02
433.265	726.31
433.641	738.96
434.016	765.86
434.392	756.59
434.767	760.43
435.143	767.66
435.518	768.12
435.894	773.99
436.269	779.64
436.644	764.95
437.02	799.75
437.395	805.63
437.77	807.21
438.145	811.28
438.52	795.46
438.895	849.7
439.271	818.51
439.646	845.85
440.021	859.86
440.395	875.68
440.77	850.15
441.145	875.68
441.52	872.07
441.895	871.62
442.27	895.12
442.645	871.39
443.019	873.88
443.394	894.44
443.769	875.68
444.143	915.23
444.518	919.52
444.892	910.71
445.267	913.87
445.641	933.08
446.016	920.88
446.39	932.63
446.764	938.51
447.139	942.8
447.513	945.96
447.887	963.82
448.262	976.92
448.636	940.77
449.01	997.71
449.384	976.7
449.758	988
450.132	988.67
450.506	1011.95
450.88	973.76
451.254	998.84
451.628	1020.31
452.002	1043.36
452.376	1025.28
452.75	1056.47
453.123	1059.18
453.497	1077.94
453.871	1054.89
454.244	1081.33
454.618	1099.86
454.992	1109.12
455.365	1115.22
455.739	1159.97
456.112	1145.28
456.486	1147.31
456.859	1163.59
457.232	1190.03
457.606	1178.5
457.979	1202.91
458.352	1229.8
458.725	1218.05
459.099	1234.09
459.472	1276.58
459.845	1248.55
460.218	1281.32
460.591	1284.26
460.964	1307.99
461.337	1341.43
461.71	1329
462.083	1347.54
462.456	1361.77
462.829	1338.5
463.201	1396.12
463.574	1404.26
463.947	1438.61
464.32	1432.73
464.692	1434.99
465.065	1474.76
465.438	1464.37
465.81	1503.24
466.183	1538.04
466.555	1507.76
466.928	1578.49
467.3	1537.13
467.672	1569.9
468.045	1628.66
468.417	1607.87
468.789	1623.91
469.161	1677.02
469.534	1703.46
469.906	1716.11
470.278	1741.65
470.65	1747.75
471.022	1773.06
471.394	1815.32
471.766	1853.51
472.138	1856
472.51	1904.13
472.882	1937.12
473.253	1957.01
473.625	2015.77
473.997	2047.86
474.369	2082.66
474.74	2065.93
475.112	2112.71
475.484	2156.78
475.855	2183.67
476.227	2228.64
476.598	2299.37
476.97	2334.63
477.341	2360.16
477.713	2392.93
478.084	2450.11
478.455	2490.33
478.827	2539.14
479.198	2615.52
479.569	2634.06
479.94	2681.96
480.311	2754.05
480.682	2843.54
481.053	2881.28
481.424	2962.86
481.795	2986.14
482.166	3038.11
482.537	3103.2
482.908	3164.21
483.279	3229.07
483.65	3313.81
484.021	3345.22
484.391	3408.5
484.762	3474.03
485.133	3527.14
485.503	3570.08
485.874	3619.79
486.244	3728.94
486.615	3772.56
486.985	3826.57
487.356	3952.89
487.726	4014.36
488.097	4087.58
488.467	4128.48
488.837	4227.01
489.207	4286.44
489.578	4376.38
489.948	4462.48
490.318	4530.95
490.688	4538.86
491.058	4657.05
491.428	4760.33
491.798	4766.43
492.168	4886.88
492.538	4870.38
492.908	5023.82
493.278	5059.53
493.648	5101.11
494.017	5187.89
494.387	5267.88
494.757	5329.13
495.126	5390.82
495.496	5432.4
495.866	5452.51
496.235	5603.69
496.605	5633.98
496.974	5699.96
497.344	5752.17
497.713	5829.23
498.082	5910.81
498.452	5890.01
498.821	5958.04
499.19	5995.55
499.559	6048.88
499.928	6096.34
500.298	6083.23
500.667	6285.26
501.036	6223.79
501.405	6362.32
501.774	6341.3
502.143	6406.61
502.512	6491.13
502.88	6562.77
503.249	6605.93
503.618	6623.55
503.987	6646.15
504.356	6726.6
504.724	6784
505.093	6759.82
505.462	6840.72
505.83	6878.01
506.199	6984
506.567	7055.63
506.936	7013.6
507.304	7078.01
507.672	7190.55
508.041	7132.92
508.409	7205.69
508.777	7297.44
509.145	7291.11
509.514	7322.97
509.882	7405.91
510.25	7482.06
510.618	7470.99
510.986	7470.09
511.354	7574.94
511.722	7588.5
512.09	7715.28
512.458	7682.96
512.826	7740.81
513.193	7789.85
513.561	7798.89
513.929	7934.71
514.297	7927.48
514.664	8048.38
515.032	7994.37
515.4	8068.49
515.767	8128.83
516.135	8135.38
516.502	8102.61
516.869	8241.82
517.237	8264.19
517.604	8171.31
517.972	8353.23
518.339	8404.98
518.706	8356.62
519.073	8369.5
519.44	8455.14
519.808	8501.02
520.175	8560
520.542	8682.26
520.909	8649.72
521.276	8714.35
521.643	8751.18
522.009	8768.58
522.376	8836.6
522.743	8929.03
523.11	8917.73
523.477	9063.72
523.843	9102.59
524.21	9133.77
524.577	9235.24
524.943	9223.71
525.31	9274.33
525.676	9390.49
526.043	9440.88
526.409	9468.9
526.776	9549.58
527.142	9584.83
527.508	9621.89
527.874	9680.88
528.241	9727.88
528.607	9807.88
528.973	9893.53
529.339	9876.58
529.705	9999.51
530.071	10019.62
530.437	10131.49
530.803	10127.87
531.169	10189.56
531.535	10185.72
531.901	10221.2
532.267	10226.17
532.632	10299.16
532.998	10395.66
533.364	10430.91
533.73	10495.77
534.095	10595.65
534.461	10592.04
534.826	10598.59
535.192	10680.62
535.557	10752.03
535.923	10717.68
536.288	10812.6
536.653	10896.66
537.019	10878.58
537.384	10951.12
537.749	10990.45
538.114	10980.5
538.479	11013.5
538.845	11107.96
539.21	11105.24
539.575	11177.56
539.94	11202.64
540.305	11314.5
540.67	11305.47
541.034	11340.27
541.399	11348.4
541.764	11474.5
542.129	11496.87
542.494	11552.01
542.858	11601.73
543.223	11569.87
543.587	11714.49
543.952	11683.08
544.316	11735.74
544.681	11866.81
545.045	11789.97
545.41	11897.77
545.774	11879.24
546.138	11959.69
546.503	12026.35
546.867	12031.32
547.231	12089.63
547.595	12205.33
547.959	12175.27
548.324	12113.13
548.688	12270.41
549.052	12292.33
549.416	12364.87
549.779	12339.11
550.143	12469.05
550.507	12491.2
550.871	12565.77
551.235	12579.33
551.599	12634.02
551.962	12648.71
552.326	12715.6
552.689	12738.2
553.053	12757.86
553.417	12888.02
553.78	12895.71
554.143	12876.72
554.507	12902.49
554.87	13024.06
555.234	13103.16
555.597	13071.29
555.96	13114.46
556.323	13108.81
556.686	13222.7
557.05	13285.07
557.413	13328.01
557.776	13402.59
558.139	13437.84
558.502	13506.76
558.865	13437.16
559.228	13515.12
559.59	13570.72
559.953	13686.19
560.316	13830.37
560.679	13793.76
561.041	13796.93
561.404	13925.28
561.767	13982.68
562.129	13873.53
562.492	14071.95
562.854	13994.66
563.217	13932.29
563.579	14099.74
563.941	14104.49
564.304	14234.43
564.666	14362.56
565.028	14310.81
565.39	14371.15
565.753	14481.88
566.115	14471.48
566.477	14516.45
566.839	14603.68
567.201	14636.45
567.563	14626.73
567.925	14797.35
568.287	14768.65
568.648	14818.37
569.01	14971.36
569.372	14996.67
569.734	15072.6
570.095	15141.52
570.457	15128.87
570.819	15158.7
571.18	15269.65
571.542	15429.88
571.903	15407.05
572.265	15523.89
572.626	15589.87
572.987	15572.25
573.349	15648.18
573.71	15822.41
574.071	15716.87
574.432	15841.17
574.794	16057.66
575.155	16134.27
575.516	16033.02
575.877	16292.68
576.238	16318.44
576.599	16401.38
576.96	16452.45
577.32	16643.86
577.681	16722.95
578.042	16789.84
578.403	16838.2
578.763	17083.17
579.124	17173.56
579.485	17445.87
579.845	17486.32
580.206	17579.42
580.566	17727.44
580.927	17842.02
581.287	18066.42
581.648	18131.27
582.008	18440.65
582.368	18471.38
582.728	18708.43
583.089	18804.25
583.449	19018.48
583.809	19171.47
584.169	19357.91
584.529	19677.67
584.889	19865.47
585.249	20000.38
585.609	20096.42
585.969	20500.48
586.329	20646.24
586.688	21035.83
587.048	21220.23
587.408	21355.6
587.768	21575.48
588.127	21857.5
588.487	22051.4
588.846	22463.14
589.206	22538.84
589.565	22796.91
589.925	23141.31
590.284	23375.2
590.643	23587.63
591.003	24005.92
591.362	24344.44
591.721	24526.59
592.08	24779.01
592.44	25088.38
592.799	25474.36
593.158	25682.26
593.517	25907.79
593.876	26247.45
594.235	26502.81
594.593	26839.29
594.952	27178.27
595.311	27303.46
595.67	27653.51
596.029	28080.17
596.387	28398.58
596.746	28698.91
597.104	28852.35
597.463	29110.42
597.822	29553.8
598.18	29790.18
598.538	30003.5
598.897	30476.94
599.255	30536.37
599.613	31182.68
599.972	31204.38
600.33	31492.05
600.688	31658.38
601.046	31932.49
601.404	32447.96
601.762	32562.53
602.12	32995.52
602.478	33200.48
602.836	33562.73
603.194	33525.22
603.552	33922.5
603.91	33985.77
604.268	34404.97
604.625	34575.36
604.983	34884.73
605.341	34859.65
605.698	35320.88
606.056	35618.05
606.413	35698.04
606.771	36119.05
607.128	36371.92
607.485	36430.23
607.843	36568.76
608.2	37046.03
608.557	37445.12
608.914	37439.02
609.272	37747.71
609.629	37907.03
609.986	38303.63
610.343	38202.39
610.7	38654.35
611.057	38826.1
611.414	38994.91
611.771	39173.21
612.127	39344.28
612.484	39537.27
612.841	39833.08
613.198	39730.93
613.554	39943.58
613.911	40274.42
614.267	40241.2
614.624	40426.51
614.98	40633.06
615.337	40914.63
615.693	41045.7
616.05	41063.55
616.406	41390.78
616.762	41388.06
617.118	41463.99
617.475	41638.23
617.831	41815.4
618.187	41936.07
618.543	42132.9
618.899	42405.21
619.255	42445.21
619.611	42457.19
619.967	42800
620.323	42996.84
620.678	42786.22
621.034	42788.25
621.39	43051.98
621.746	42905.76
622.101	43498.52
622.457	43170.16
622.812	43422.81
623.168	43566.76
623.523	43399.99
623.879	43689.02
624.234	43526.31
624.589	43692.18
624.945	43898.96
625.3	43931.27
625.655	44020.76
626.01	43962.46
626.365	44152.29
626.72	44249.68
627.075	44225.96
627.43	44192.96
627.785	44267.08
628.14	44339.4
628.495	44463.46
628.85	44518.15
629.205	44420.07
629.559	44598.83
629.914	44407.65
630.269	44673.4
630.623	44620.3
630.978	44356.8
631.332	44631.37
631.687	44821.87
632.041	44518.38
632.396	44683.34
632.75	44467.76
633.104	44656.45
633.459	44500.07
633.813	44501.65
634.167	44526.74
634.521	44483.12
634.875	44578.26
635.229	44754.08
635.583	44436.57
635.937	44634.76
636.291	44538.72
636.645	44554.99
636.999	44565.38
637.352	44692.84
637.706	44377.82
638.06	44620.52
638.413	44573.52
638.767	44424.37
639.121	44609.45
639.474	44298.5
639.828	44375.1
640.181	44466.63
640.534	44474.99
640.888	44460.53
641.241	44154.55
641.594	44326.07
641.947	44299.85
642.301	44321.77
642.654	44319.96
643.007	44427.76
643.36	44274.54
643.713	44257.37
644.066	44476.34
644.419	44163.36
644.771	43807.44
645.124	43516.6
645.477	43608.8
645.83	43258.07
646.182	43154.57
646.535	43036.16
646.888	42987.12
647.24	42828.93
647.593	42996.84
647.945	42973.33
648.298	42916.61
648.65	42790.29
649.002	42702.83
649.355	42859.66
649.707	42831.19
650.059	42876.61
650.411	43443.15
650.763	43537.39
651.115	43985.51
651.467	43797.94
651.819	43807.89
652.171	43687.44
652.523	43733.77
652.875	43665.97
653.227	43527.44
653.578	43786.65
653.93	43591.17
654.282	43597.5
654.633	43463.04
654.985	43548.91
655.337	43363.83
655.688	43532.64
656.039	43508.91
656.391	43387.79
656.742	43258.75
657.094	43354.79
657.445	43582.81
657.796	43388.46
658.147	43174.01
658.498	43392.98
658.849	43563.83
659.2	43367
659.551	43220.33
659.902	43292.2
660.253	43357.05
660.604	43435.24
660.955	43050.17
661.306	43288.35
661.656	43318.41
662.007	43130.62
662.358	43263.5
662.708	43106.89
663.059	43228.24
663.409	42993.67
663.76	43342.36
664.11	43219.2
664.461	43299.2
664.811	43182.14
665.161	43261.91
665.511	43145.53
665.862	43150.96
666.212	43314.12
666.562	43164.51
666.912	43198.86
667.262	43067.79
667.612	43094.91
667.962	43149.15
668.312	43134.91
668.662	43206.77
669.011	43036.16
669.361	43052.65
669.711	43044.29
670.06	43000
670.41	42856.73
670.76	42868.03
671.109	42905.99
671.459	43048.81
671.808	42864.86
672.157	42950.28
672.507	42762.04
672.856	42640.91
673.205	42975.14
673.554	42833.22
673.904	42827.12
674.253	43052.43
674.602	42821.92
674.951	42219
675.3	42081.61
675.649	42811.53
675.998	42785.09
676.346	42838.87
676.695	42778.99
677.044	42451.31
677.393	42716.39
677.741	42755.03
678.09	42628.26
678.438	42521.82
678.787	42647.92
679.135	42554.81
679.484	42304.88
679.832	42436.85
680.181	42190.76
680.529	42310.98
680.877	42170.64
681.225	41990.08
681.573	42319.34
681.922	42040.93
682.27	42016.97
682.618	41992.79
682.966	41856.07
683.314	42038.22
683.661	41845.91
684.009	41751.44
684.357	41712.8
684.705	41577.44
685.053	41566.82
685.4	41524.33
685.748	41367.73
686.095	41309.42
686.443	41192.14
686.79	41231.23
687.138	41221.06
687.485	41227.84
687.832	40952.37
688.18	41018.81
688.527	40852.71
688.874	40869.89
689.221	40692.49
689.568	40727.06
689.915	40721.42
690.262	40602.55
690.609	40519.16
690.956	40363.23
691.303	40393.06
691.65	40221.54
691.997	40149.9
692.344	39877.37
692.69	39915.11
693.037	40076.23
693.383	39653.65
693.73	39747.43
694.077	39610.26
694.423	39615.68
694.769	39515.57
695.116	39331.85
695.462	39250.95
695.808	39113.32
696.155	39182.7
696.501	38984.51
696.847	38928.69
697.193	38621.36
697.539	38881.46
697.885	38582.94
698.231	38433.34
698.577	38385.21
698.923	38402.38
699.269	38137.98
699.614	37961.04
699.96	38069.51
700.306	37829.97
700.651	37819.57
700.997	37659.12
701.342	37678.11
701.688	37599.01
702.033	37484.21
702.379	37476.53
702.724	37345.46
703.069	37253.71
703.415	36802.65
703.76	37088.29
704.105	36991.8
704.45	36884.23
704.795	36535.99
705.14	36644.91
705.485	36389.1
705.83	36513.39
706.175	36530.56
706.52	36318.82
706.865	36303.45
707.209	36312.94
707.554	36071.59
707.899	36179.16
708.243	35977.36
708.588	35985.95
708.932	35707.54
709.277	35592.28
709.621	35690.36
709.966	35508.22
710.31	35644.71
710.654	35279.52
710.998	35379.41
711.342	35393.87
711.687	35173.09
712.031	35155.91
712.375	34916.14
712.719	35039.76
713.063	34810.61
713.407	35053.09
713.75	34737.17
714.094	34825.07
714.438	34632.08
714.782	34724.28
715.125	34530.62
715.469	34525.65
715.812	34314.35
716.156	34109.61
716.499	34148.03
716.843	34223.28
717.186	34013.12
717.53	34108.93
717.873	34220.57
718.216	33961.59
718.559	33849.51
718.902	33658.78
719.246	33911.65
719.589	33668.04
719.932	33490.64
720.275	33524.99
720.617	33513.7
720.96	33394.38
721.303	33422.17
721.646	33446.35
721.989	33351.67
722.331	33355.73
722.674	33179.01
723.016	33215.62
723.359	33133.14
723.701	33182.18
724.044	32896.08
724.386	32825.58
724.729	32930.89
725.071	32798.01
725.413	32864.67
725.755	32601.63
726.097	32662.19
726.439	32447.51
726.782	32430.11
727.124	32628.52
727.465	32299.72
727.807	32377.23
728.149	32384.91
728.491	32326.38
728.833	32369.09
729.175	32329.55
729.516	31953.28
729.858	32137.91
730.199	32154.41
730.541	32109.89
730.882	31983.57
731.224	32203.45
731.565	31916.9
731.906	31876
732.248	31836
732.589	31636.23
732.93	31529.79
733.271	31678.04
733.612	31635.55
733.953	31558.94
734.294	31502.67
734.635	31492.73
734.976	31517.82
735.317	31257.03
735.658	31292.28
735.999	31311.27
736.339	31244.83
736.68	31337.26
737.021	31169.58
737.361	31125.74
737.702	31295.22
738.042	31116.24
738.383	31043.93
738.723	31028.56
739.063	30908.57
739.404	30923.93
739.744	30946.98
740.084	30758.51
740.424	30750.38
740.764	30693.66
741.104	30885.74
741.444	30605.07
741.784	30473.78
742.124	30669.48
742.464	30497.28
742.804	30402.59
743.143	30435.13
743.483	30424.96
743.823	30189.94
744.162	30158.98
744.502	30157.63
744.841	30199.21
745.181	30284.85
745.52	30068.36
745.86	30118.53
746.199	30083.73
746.538	30050.51
746.877	29867.92
747.216	29948.37
747.556	29879.44
747.895	29961.7
748.234	29868.82
748.573	29786.11
748.911	29730.97
749.25	29673.12
749.589	29489.17
749.928	29726.9
750.267	29483.29
750.605	29414.59
750.944	29526
751.283	29366.69
751.621	29402.16
751.96	29185.45
752.298	29279
752.636	29232.9
752.975	29119.46
753.313	28913.36
753.651	29096.64
753.989	28954.94
754.327	28816.19
754.666	28709.98
755.004	28753.37
755.342	28875.85
755.679	28775.74
756.017	28564.45
756.355	28705.46
756.693	28444
757.031	28647.38
757.368	28452.13
757.706	28329.65
758.044	28279.48
758.381	28344.34
758.719	28290.78
759.056	28197.45
759.394	28178.92
759.731	27928.31
760.068	27812.38
760.405	27827.97
760.743	27679.27
761.08	27783
761.417	27601.99
761.754	27579.39
762.091	27530.35
762.428	27333.07
762.765	27192.51
763.102	27305.27
763.438	27174.88
763.775	27021.21
764.112	26999.52
764.449	27036.8
764.785	26951.83
765.122	26771.27
765.458	26595.46
765.795	26589.81
766.131	26693.99
766.467	26503.03
766.804	26357.27
767.14	26231.63
767.476	26235.24
767.812	26185.3
768.148	26080.67
768.485	25901.24
768.821	25810.85
769.157	25843.84
769.492	25724.52
769.828	25640.91
770.164	25442.04
770.5	25386
770.836	25334.93
771.171	25099.9
771.507	25146.68
771.842	25067.14
772.178	24943.3
772.513	24952.56
772.849	24903.53
773.184	24677.77
773.519	24612.23
773.855	24531.56
774.19	24447.49
774.525	24481.62
774.86	24443.43
775.195	24271.68
775.53	24286.37
775.865	24034.62
776.2	23999.14
776.535	23776.55
776.87	23812.26
777.205	23735.42
777.539	23626.95
777.874	23625.14
778.209	23493.62
778.543	23502.21
778.878	23376.33
779.212	23173.4
779.547	23125.95
779.881	23239.84
780.215	22954.42
780.55	22955.1
780.884	22831.49
781.218	22866.29
781.552	22717.82
781.886	22742.45
782.22	22535.45
782.554	22431.95
782.888	22252.07
783.222	22231.05
783.556	22168.91
783.889	22060.44
784.223	21921.68
784.557	21769.6
784.89	21888.69
785.224	21739.54
785.557	21587.23
785.891	21626.1
786.224	21529.6
786.558	21488.93
786.891	21308.14
787.224	21215.26
787.557	21127.81
787.891	21075.6
788.224	21070.41
788.557	21109.05
788.89	21017.75
789.223	20941.37
789.556	20810.3
789.888	20780.24
790.221	20672.9
790.554	20539.35
790.887	20533.7
791.219	20396.75
791.552	20377.54
791.884	20337.32
792.217	20253.48
792.549	20057.78
792.882	20113.6
793.214	19950.66
793.546	19992.92
793.879	19824.34
794.211	19755.19
794.543	19852.81
794.875	19736.88
795.207	19816.65
795.539	19711.8
795.871	19542.31
796.203	19453.5
796.535	19251.25
796.867	19303.45
797.198	19137.35
797.53	19178.7
797.862	19107.07
798.193	19137.35
798.525	19052.15
798.856	18987.07
799.188	18810.13
799.519	18742.56
799.85	18712.05
800.182	18723.58
800.513	18704.59
800.844	18531.26
801.175	18625.05
801.506	18543.02
801.837	18447.42
802.168	18468.44
802.499	18286.07
802.83	18253.53
803.161	18198.17
803.491	18136.7
803.822	18171.73
804.153	18037.27
804.483	17936.48
804.814	17893.54
805.145	17877.27
805.475	17749.59
805.805	17700.33
806.136	17773.32
806.466	17726.09
806.796	17745.07
807.126	17512.53
807.457	17429.37
807.787	17541.23
808.117	17413.78
808.447	17354.57
808.777	17390.96
809.107	17287
809.436	17199.77
809.766	17263.05
810.096	17176.5
810.426	17078.42
810.755	16982.38
811.085	16982.15
811.414	17007.01
811.744	16854.7
812.073	16889.27
812.403	16850.63
812.732	16697.19
813.061	16772.67
813.39	16602.5
813.719	16565.44
814.049	16667.58
814.378	16543.29
814.707	16531.32
815.036	16542.84
815.365	16317.54
815.693	16286.8
816.022	16316.18
816.351	16175.62
816.68	16138.56
817.008	16244.54
817.337	16032.8
817.665	15962.29
817.994	16064.66
818.322	15992.35
818.651	15959.35
818.979	15948.28
819.307	15988.51
819.636	15824.22
819.964	15786.48
820.292	15851.79
820.62	15848.17
820.948	15767.95
821.276	15856.53
821.604	15691.34
821.932	15749.42
822.259	15724.33
822.587	15727.27
822.915	15647.05
823.243	15645.01
823.57	15679.59
823.898	15654.28
824.225	15576.31
824.553	15605.01
824.88	15645.24
825.207	15671
825.535	15739.47
825.862	15623.77
826.189	15636.88
826.516	15674.84
826.843	15688.63
827.17	15718
827.497	15683.43
827.824	15685.92
828.151	15719.81
828.478	15570.44
828.805	15668.74
829.131	15584.67
829.458	15554.62
829.785	15488.63
830.111	15503.1
830.438	15711.45
830.764	15479.14
831.09	15599.59
831.417	15475.75
831.743	15529.54
832.069	15563.43
832.395	15536.09
832.722	15532.47
833.048	15544.68
833.374	15471.91
833.7	15409.31
834.026	15432.14
834.351	15438.92
834.677	15436.88
835.003	15460.84
835.329	15407.5
835.654	15355.98
835.98	15460.38
836.306	15337.45
836.631	15269.2
836.956	15296.09
837.282	15373.38
837.607	15179.71
837.932	15214.52
838.258	15202.09
838.583	15224.68
838.908	15063.33
839.233	15108.76
839.558	15127.06
839.883	15038.02
840.208	15040.73
840.533	15026.05
840.858	14920.06
841.182	15000.74
841.507	14988.98
841.832	14984.01
842.156	14846.84
842.481	14874.41
842.805	14792.38
843.13	14760.29
843.454	14735.88
843.778	14685.72
844.103	14646.62
844.427	14678.71
844.751	14621.54
845.075	14536.34
845.399	14511.26
845.723	14405.27
846.047	14445.95
846.371	14384.48
846.695	14324.6
847.019	14232.85
847.343	14209.12
847.666	14076.69
847.99	14105.84
848.313	14034.66
848.637	13880.76
848.96	13913.98
849.284	13757.15
849.607	13703.37
849.931	13677.38
850.254	13625.63
850.577	13653.2
850.9	13457.27
851.223	13436.26
851.546	13369.37
851.869	13383.6
852.192	13343.38
852.515	13325.53
852.838	13208.01
853.161	13150.84
853.483	13123.04
853.806	13081.46
854.129	13046.21
854.451	13024.74
854.774	12961.69
855.096	12906.78
855.419	12875.14
855.741	12857.29
856.063	12723.96
856.385	12768.93
856.708	12722.15
857.03	12710.85
857.352	12679.89
857.674	12619.33
857.996	12518.99
858.318	12508.15
858.64	12549.73
858.961	12493.23
859.283	12426.57
859.605	12366.68
859.926	12459.11
860.248	12439.45
860.57	12363.06
860.891	12282.16
861.212	12190.19
861.534	12303.63
861.855	12146.57
862.176	12179.79
862.498	12129.85
862.819	12073.81
863.14	11998.1
863.461	12043.53
863.782	11972.11
864.103	11974.37
864.424	12011.89
864.745	11938.9
865.065	11922.62
865.386	11866.35
865.707	11793.14
866.027	11883.08
866.348	11847.6
866.668	11866.81
866.989	11784.32
867.309	11650.09
867.63	11783.64
867.95	11727.38
868.27	11594.5
868.59	11691.22
868.91	11614.61
869.23	11672.46
869.55	11636.08
869.87	11595.63
870.19	11626.81
870.51	11644.89
870.83	11547.72
871.15	11514.05
871.469	11495.29
871.789	11429.98
872.109	11472.01
872.428	11437.44
872.748	11473.82
873.067	11411.45
873.386	11468.4
873.706	11472.69
874.025	11405.58
874.344	11232.7
874.663	11335.75
874.982	11325.8
875.301	11285.13
875.62	11307.95
875.939	11272.7
876.258	11263.66
876.577	11212.81
876.896	11177.56
877.214	11126.04
877.533	11169.2
877.852	11166.71
878.17	11123.55
878.489	11057.79
878.807	11142.98
879.125	11111.57
879.444	11079.03
879.762	11053.27
880.08	11004.46
880.398	10960.84
880.716	10984.34
881.034	10925.81
881.352	10919.26
881.67	10822.31
881.988	10877.23
882.306	10833.16
882.624	10870.9
882.941	10752.03
883.259	10696.44
883.577	10719.49
883.894	10727.63
884.212	10725.82
884.529	10695.09
884.846	10636.56
885.164	10600.17
885.481	10610.57
885.798	10554.98
886.115	10539.61
886.432	10556.11
886.75	10518.37
887.067	10494.64
887.383	10444.7
887.7	10431.14
888.017	10424.13
888.334	10385.26
888.651	10365.15
888.967	10338.94
889.284	10286.96
889.6	10253.97
889.917	10166.06
890.233	10214.19
890.55	10157.02
890.866	10209.45
891.182	10139.85
891.498	10108.21
891.815	10051.94
892.131	10059.85
892.447	9978.04
892.763	9939.85
893.079	9951.38
893.395	9922.68
893.71	9883.13
894.026	9796.13
894.342	9801.1
894.657	9775.11
894.973	9700.08
895.289	9752.74
895.604	9724.94
895.92	9570.6
896.235	9575.12
896.55	9572.63
896.865	9614.44
897.181	9555.91
897.496	9590.48
897.811	9468.68
898.126	9479.75
898.441	9437.04
898.756	9368.12
899.071	9375.57
899.386	9291.51
899.7	9277.5
900.015	9261.23
900.33	9170.61
900.644	9212.64
900.959	9185.97
901.273	9091.29
901.588	9044.73
901.902	8993.89
902.216	8989.14
902.531	9014
902.845	8964.51
903.159	8903.72
903.473	8931.74
903.787	8911.86
904.101	8834.8
904.415	8747.57
904.729	8737.62
905.042	8654.46
905.356	8623.28
905.67	8678.87
905.984	8641.35
906.297	8614.46
906.611	8587.12
906.924	8506.44
907.237	8536.05
907.551	8497.18
907.864	8428.48
908.177	8414.02
908.491	8367.46
908.804	8280.91
909.117	8271.87
909.43	8289.95
909.743	8232.55
910.056	8188.26
910.368	8151.2
910.681	8129.28
910.994	8050.64
911.307	8101.26
911.619	8040.69
911.932	8035.04
912.244	7989.85
912.557	7962.73
912.869	7922.5
913.181	7893.35
913.494	7920.24
913.806	7837.31
914.118	7793.47
914.43	7744.43
914.742	7683.64
915.054	7683.41
915.366	7640.93
915.678	7642.51
915.99	7598.22
916.302	7498.33
916.613	7468.73
916.925	7490.88
917.236	7489.97
917.548	7375.4
917.859	7431.44
918.171	7390.31
918.482	7315.51
918.794	7310.77
919.105	7247.95
919.416	7182.41
919.727	7185.35
920.038	7216.31
920.349	7140.15
920.66	7102.41
920.971	7133.82
921.282	7049.76
921.593	6981.06
921.903	7027.39
922.214	6978.35
922.525	6960.72
922.835	6927.95
923.146	6851.12
923.456	6784.68
923.767	6830.33
924.077	6805.92
924.387	6776.09
924.697	6788.75
925.008	6712.82
925.318	6732.25
925.628	6678.24
925.938	6637.57
926.248	6570.45
926.558	6522.09
926.867	6512.82
927.177	6518.47
927.487	6503.11
927.796	6442.99
928.106	6392.6
928.416	6432.6
928.725	6403.67
929.034	6343.79
929.344	6376.78
929.653	6304.47
929.962	6231.93
930.271	6233.28
930.581	6209.55
930.89	6231.25
931.199	6155.32
931.508	6162.1
931.817	6101.53
932.125	6098.37
932.434	6035.77
932.743	6002.78
933.051	5989.45
933.36	6002.33
933.669	5959.17
933.977	5935.66
934.286	5869.22
934.594	5847.76
934.902	5798.04
935.21	5791.49
935.519	5801.88
935.827	5751.71
936.135	5764.14
936.443	5635.33
936.751	5661.55
937.059	5634.43
937.367	5645.95
937.674	5631.26
937.982	5612.73
938.29	5581.77
938.597	5586.75
938.905	5472.4
939.213	5467.2
939.52	5477.6
939.827	5447.99
940.135	5414.09
940.442	5412.97
940.749	5357.6
941.056	5386.75
941.363	5323.93
941.67	5308.11
941.977	5287.54
942.284	5226.76
942.591	5243.93
942.898	5257.49
943.205	5236.25
943.511	5179.3
943.818	5198.06
944.125	5105.18
944.431	5085.97
944.738	5104.5
945.044	5078.28
945.35	5064.05
945.657	4987.21
945.963	5098.85
946.269	4962.36
946.575	4988.8
946.881	4961.9
947.187	4911.51
947.493	4880.78
947.799	4845.3
948.105	4859.99
948.41	4818.18
948.716	4825.86
949.022	4783.6
949.327	4788.57
949.633	4719.2
949.938	4742.47
950.244	4751.06
950.549	4663.15
950.854	4658.86
951.16	4665.87
951.465	4603.27
951.77	4648.24
952.075	4582.7
952.38	4551.07
952.685	4570.05
952.99	4494.35
953.294	4515.36
953.599	4457.74
953.904	4464.74
954.209	4445.08
954.513	4415.25
954.818	4424.74
955.122	4399.66
955.426	4350.17
955.731	4373.22
956.035	4294.8
956.339	4328.93
956.643	4322.6
956.948	4295.93
957.252	4231.3
957.556	4247.57
957.86	4219.32
958.163	4237.85
958.467	4152.89
958.771	4187.91
959.075	4137.52
959.378	4114.69
959.682	4145.2
959.985	4080.34
960.289	4100.46
960.592	4095.49
960.896	4025.43
961.199	3995.83
961.502	3975.71
961.805	3954.47
962.108	3964.64
962.411	3980.91
962.714	3958.77
963.017	3959.67
963.32	3920.35
963.623	3884.87
963.926	3882.84
964.228	3878.77
964.531	3859.11
964.833	3821.14
965.136	3815.27
965.438	3774.14
965.741	3769.84
966.043	3741.14
966.345	3727.59
966.648	3705.89
966.95	3718.55
967.252	3662.73
967.554	3678.32
967.856	3638.1
968.158	3633.35
968.46	3624.31
968.761	3603.97
969.063	3571.66
969.365	3533.69
969.666	3561.49
969.968	3529.85
970.269	3556.74
970.571	3502.73
970.872	3481.94
971.174	3443.07
971.475	3441.49
971.776	3469.97
972.077	3421.83
972.378	3413.02
972.679	3435.39
972.98	3401.49
973.281	3411.66
973.582	3356.3
973.883	3312.68
974.183	3341.83
974.484	3325.56
974.785	3324.66
975.085	3316.75
975.386	3280.59
975.686	3244.89
975.986	3271.1
976.287	3225.23
976.587	3215.06
976.887	3202.18
977.187	3214.83
977.487	3171.44
977.787	3136.41
978.087	3156.75
978.387	3131.9
978.687	3130.77
978.987	3086.47
979.286	3101.61
979.586	3082.86
979.885	3077.89
980.185	3046.7
980.484	3016.19
980.784	3031.56
981.083	3039.02
981.382	2982.75
981.682	2993.59
981.981	2990.88
982.28	2983.2
982.579	2924.22
982.878	2955.18
983.177	2890.77
983.475	2889.19
983.774	2875.4
984.073	2881.05
984.372	2869.3
984.67	2830.43
984.969	2845.35
985.267	2831.34
985.566	2834.05
985.864	2775.97
986.162	2788.18
986.461	2751.11
986.759	2744.56
987.057	2743.2
987.355	2748.63
987.653	2729.42
987.951	2705.92
988.249	2714.5
988.547	2713.37
988.844	2648.52
989.142	2692.13
989.44	2634.96
989.737	2653.72
990.035	2638.8
990.332	2604.9
990.63	2587.28
990.927	2631.34
991.224	2599.03
991.521	2598.8
991.819	2523.78
992.116	2577.56
992.413	2542.98
992.71	2513.15
993.006	2524
993.303	2525.81
993.6	2500.05
993.897	2469.31
994.193	2456.21
994.49	2462.08
994.787	2437.22
995.083	2383.44
995.379	2410.33
995.676	2417.79
995.972	2385.7
996.268	2357.23
996.565	2361.07
996.861	2367.17
997.157	2328.98
997.453	2333.72
997.749	2307.28
998.044	2298.02
998.34	2338.02
998.636	2286.72
998.932	2266.38
999.227	2261.86
999.523	2270.45
999.818	2236.33
1000.114	2218.25
1000.409	2231.81
1000.704	2194.29
1001	2195.65
1001.295	2163.56
1001.59	2149.1
1001.885	2174.63
1002.18	2141.41
1002.475	2131.92
1002.77	2140.28
1003.065	2091.47
1003.359	2100.74
1003.654	2090.57
1003.949	2100.51
1004.243	2066.61
1004.538	2037.69
1004.832	2053.51
1005.127	2041.3
1005.421	2008.53
1005.715	2013.73
1006.009	1981.42
1006.304	1976.67
1006.598	1975.77
1006.892	1987.07
1007.186	1990
1007.48	1944.81
1007.773	1947.07
1008.067	1908.65
1008.361	1914.75
1008.655	1888.31
1008.948	1883.79
1009.242	1887.86
1009.535	1881.76
1009.829	1849.44
1010.122	1849.89
1010.415	1851.25
1010.708	1819.84
1011.001	1821.42
1011.295	1841.31
1011.588	1774.42
1011.881	1781.87
1012.173	1754.98
1012.466	1773.74
1012.759	1744.36
1013.052	1770.35
1013.344	1761.54
1013.637	1696.9
1013.93	1711.82
1014.222	1704.59
1014.514	1702.55
1014.807	1695.1
1015.099	1685.83
1015.391	1687.64
1015.683	1644.48
1015.976	1663.46
1016.268	1632.5
1016.56	1632.95
1016.851	1632.27
1017.143	1636.79
1017.435	1619.39
1017.727	1589.11
1018.018	1570.81
1018.31	1568.09
1018.602	1572.84
1018.893	1547.3
1019.185	1537.13
1019.476	1527.64
1019.767	1537.59
1020.058	1519.51
1020.35	1463.69
1020.641	1491.49
1020.932	1489.45
1021.223	1467.08
1021.514	1443.8
1021.804	1431.37
1022.095	1453.52
1022.386	1418.49
1022.677	1449.45
1022.967	1428.44
1023.258	1390.25
1023.548	1366.07
1023.839	1357.25
1024.129	1382.79
1024.419	1371.26
1024.709	1347.99
1025	1351.38
1025.29	1370.36
1025.58	1309.12
1025.87	1332.39
1026.16	1319.51
1026.449	1312.96
1026.739	1272.51
1027.029	1313.41
1027.319	1275.67
1027.608	1269.35
1027.898	1288.33
1028.187	1270.25
1028.477	1250.14
1028.766	1233.41
1029.055	1230.7
1029.344	1252.17
1029.634	1193.87
1029.923	1218.73
1030.212	1210.59
1030.501	1191.61
1030.79	1178.5
1031.078	1189.35
1031.367	1159.07
1031.656	1168.33
1031.945	1157.03
1032.233	1150.7
1032.522	1158.61
1032.81	1154.09
1033.099	1098.95
1033.387	1110.25
1033.675	1085.85
1033.963	1109.58
1034.251	1099.41
1034.54	1079.29
1034.828	1062.34
1035.116	1056.02
1035.403	1065.06
1035.691	1049.24
1035.979	1065.06
1036.267	1051.5
1036.554	1031.39
1036.842	1035.45
1037.129	1035
1037.417	1002.91
1037.704	1030.48
1037.992	1022.12
1038.279	1012.63
1038.566	981.44
1038.853	981.44
1039.14	981.44
