Data from hue_290_FLMS001491_00001.txt Node
Date: Tue Feb 07 15:52:06 GMT 2017
User: dcchb
Spectrometer: FLMS00149
Trigger mode: 0
Integration Time (sec): 2.000000E-2
Scans to average: 10
Electric dark correction enabled: true
Nonlinearity correction enabled: false
Boxcar width: 0
XAxis mode: Wavelengths
Number of Pixels in Spectrum: 2048
>>>>>Begin Spectral Data<<<<<
341.393	-19.25
341.776	-19.25
342.16	-19.25
342.543	-36.65
342.927	-59.25
343.31	-75.75
343.693	-72.13
344.077	-72.36
344.46	-64.22
344.843	-65.35
345.226	-36.43
345.61	-31
345.993	-13.6
346.376	-8.63
346.759	1.31
347.142	22.1
347.525	48.54
347.908	63.23
348.291	96.68
348.674	91.93
349.057	115.66
349.44	113.85
349.823	149.33
350.206	132.84
350.588	185.26
350.971	214.19
351.354	224.13
351.737	219.84
352.119	228.65
352.502	259.16
352.884	277.92
353.267	251.02
353.65	280.63
354.032	315.43
354.414	302.77
354.797	302.32
355.179	324.02
355.562	322.44
355.944	314.07
356.326	337.35
356.709	313.85
357.091	331.02
357.473	332.83
357.855	341.87
358.238	349.55
358.62	358.59
359.002	328.76
359.384	321.76
359.766	328.76
360.148	334.41
360.53	339.61
360.912	348.42
361.294	325.37
361.676	320.85
362.057	315.88
362.439	333.28
362.821	327.63
363.203	320.18
363.584	331.47
363.966	333.96
364.348	312.94
364.729	318.59
365.111	318.37
365.493	334.86
365.874	319.27
366.256	329.21
366.637	317.01
367.019	302.55
367.4	310.68
367.781	302.77
368.163	293.06
368.544	310.01
368.925	305.03
369.306	346.16
369.688	312.04
370.069	316.33
370.45	326.95
370.831	324.02
371.212	329.67
371.593	298.25
371.974	317.92
372.355	319.72
372.736	314.3
373.117	326.73
373.498	310.46
373.879	332.15
374.26	318.59
374.641	324.24
375.021	314.98
375.402	320.18
375.783	322.44
376.163	328.54
376.544	331.02
376.925	322.21
377.305	307.07
377.686	319.05
378.066	305.94
378.447	329.67
378.827	325.37
379.208	310.46
379.588	317.69
379.968	340.74
380.349	345.26
380.729	326.5
381.109	334.86
381.489	336.67
381.87	336.67
382.25	330.34
382.63	345.94
383.01	327.63
383.39	334.19
383.77	338.48
384.15	343.68
384.53	354.07
384.91	362.21
385.29	349.78
385.67	356.56
386.049	345.71
386.429	344.13
386.809	368.99
387.189	378.48
387.568	345.03
387.948	353.39
388.328	364.47
388.707	374.86
389.087	375.99
389.466	368.08
389.846	358.14
390.225	375.54
390.605	391.59
390.984	366.95
391.363	370.8
391.743	393.62
392.122	364.24
392.501	362.43
392.881	365.82
393.26	386.84
393.639	380.96
394.018	397.24
394.397	402.21
394.776	380.96
395.155	405.37
395.534	379.61
395.913	385.26
396.292	399.5
396.671	412.38
397.05	390.23
397.429	373.96
397.808	413.73
398.186	410.12
398.565	408.76
398.944	393.39
399.323	412.6
399.701	418.48
400.08	397.69
400.458	397.91
400.837	416.22
401.215	408.53
401.594	406.5
401.972	414.64
402.351	423
402.729	419.16
403.107	429.1
403.486	446.73
403.864	430.45
404.242	438.82
404.62	464.35
404.999	439.27
405.377	456.67
405.755	459.15
406.133	452.6
406.511	473.84
406.889	462.09
407.267	482.88
407.645	475.88
408.023	477.69
408.401	485.82
408.779	508.42
409.156	494.63
409.534	519.04
409.912	519.04
410.29	515.2
410.667	539.83
411.045	526.27
411.422	528.98
411.8	565.82
412.178	554.29
412.555	589.32
412.933	568.76
413.31	586.16
413.687	590.22
414.065	599.26
414.442	587.06
414.819	595.42
415.197	622.77
415.574	623.44
415.951	608.76
416.328	625.48
416.705	656.21
417.082	651.01
417.46	655.76
417.837	680.17
418.214	669.32
418.591	709.09
418.967	697.57
419.344	693.95
419.721	681.52
420.098	729.88
420.475	710.22
420.852	725.36
421.228	727.62
421.605	748.86
421.982	745.93
422.358	751.12
422.735	774.85
423.111	789.99
423.488	779.37
423.864	784.12
424.241	804
424.617	805.13
424.994	814.85
425.37	813.5
425.746	838.13
426.123	849.43
426.499	854.62
426.875	865.25
427.251	871.35
427.627	865.02
428.003	890.1
428.379	907.05
428.756	922.19
429.132	935.3
429.507	949.76
429.883	938.24
430.259	983.89
430.635	978.24
431.011	988.41
431.387	1010.1
431.763	1019.59
432.138	1025.47
432.514	1054.17
432.89	1034.73
433.265	1057.33
433.641	1072.25
434.016	1079.03
434.392	1129.42
434.767	1124.67
435.143	1126.93
435.518	1132.13
435.894	1124.22
436.269	1171.68
436.644	1165.8
437.02	1178.68
437.395	1182.07
437.77	1194.5
438.145	1189.53
438.52	1212.58
438.895	1242.64
439.271	1244.9
439.646	1269.3
440.021	1298
440.395	1290.55
440.77	1300.26
441.145	1291.68
441.52	1335.52
441.895	1317.66
442.27	1337.55
442.645	1350.88
443.019	1348.85
443.394	1347.04
443.769	1373.25
444.143	1353.37
444.518	1373.71
444.892	1360.83
445.267	1368.06
445.641	1410.32
446.016	1411.45
446.39	1428.39
446.764	1413.71
447.139	1422.29
447.513	1415.97
447.887	1428.62
448.262	1430.88
448.636	1446.02
449.01	1473.37
449.384	1480.82
449.758	1478.34
450.132	1482.4
450.506	1501.84
450.88	1504.32
451.254	1521.05
451.628	1528.73
452.002	1518.11
452.376	1541.84
452.75	1546.81
453.123	1562.4
453.497	1589.97
453.871	1573.48
454.244	1622.29
454.618	1602.18
454.992	1619.8
455.365	1621.38
455.739	1654.15
456.112	1651.67
456.486	1681.5
456.859	1658.22
457.232	1705
457.606	1693.02
457.979	1717.43
458.352	1735.28
458.725	1758.1
459.099	1784.77
459.472	1777.09
459.845	1782.51
460.218	1811.44
460.591	1825.67
460.964	1834.26
461.337	1888.04
461.71	1903.18
462.083	1933.24
462.456	1910.42
462.829	1888.95
463.201	1942.05
463.574	1939.57
463.947	1959
464.32	1962.84
464.692	1996.06
465.065	2012.79
465.438	2045.33
465.81	2064.08
466.183	2050.3
466.555	2115.38
466.928	2109.51
467.3	2123.07
467.672	2149.51
468.045	2162.39
468.417	2175.04
468.789	2224.53
469.161	2210.07
469.534	2227.7
469.906	2252.55
470.278	2264.98
470.65	2293.68
471.022	2274.25
471.394	2329.84
471.766	2383.62
472.138	2377.97
472.51	2452.55
472.882	2439.44
473.253	2487.35
473.625	2466.79
473.997	2515.15
474.369	2520.34
474.74	2555.14
475.112	2580.23
475.484	2620.68
475.855	2624.07
476.227	2660.9
476.598	2740.9
476.97	2739.55
477.341	2803.05
477.713	2795.36
478.084	2842.59
478.455	2845.98
478.827	2889.15
479.198	2960.56
479.569	2961.69
479.94	3058.18
480.311	3057.96
480.682	3102.7
481.053	3146.99
481.424	3187.9
481.795	3192.64
482.166	3259.98
482.537	3262.92
482.908	3312.41
483.279	3353.77
483.65	3370.49
484.021	3416.36
484.391	3445.29
484.762	3485.74
485.133	3492.75
485.503	3508.57
485.874	3608
486.244	3618.62
486.615	3632.63
486.985	3708.33
487.356	3775
487.726	3733.87
488.097	3831.04
488.467	3823.13
488.837	3898.39
489.207	3909.01
489.578	3956.92
489.948	3998.27
490.318	4050.25
490.688	4007.76
491.058	4115.78
491.428	4076.23
491.798	4151.49
492.168	4254.99
492.538	4210.47
492.908	4286.17
493.278	4306.06
493.648	4343.57
494.017	4337.47
494.387	4396.23
494.757	4408.88
495.126	4415.89
495.496	4443.46
495.866	4484.13
496.235	4487.98
496.605	4518.26
496.974	4533.4
497.344	4560.74
497.713	4547.41
498.082	4617.92
498.452	4673.73
498.821	4694.07
499.19	4694.3
499.559	4733.84
499.928	4742.21
500.298	4717.35
500.667	4794.18
501.036	4789.66
501.405	4851.58
501.774	4808.87
502.143	4862.65
502.512	4903.33
502.88	4887.51
503.249	4904.24
503.618	4895.2
503.987	4908.76
504.356	4938.13
504.724	4948.53
505.093	5010.22
505.462	5012.48
505.83	5020.84
506.199	5051.8
506.567	5105.13
506.936	5082.31
507.304	5148.07
507.672	5177
508.041	5128.41
508.409	5195.98
508.777	5189.88
509.145	5239.82
509.514	5237.11
509.882	5227.84
510.25	5230.55
510.618	5276.66
510.986	5296.77
511.354	5344.68
511.722	5386.26
512.09	5403.88
512.458	5409.76
512.826	5402.53
513.193	5429.42
513.561	5438.46
513.929	5453.6
514.297	5483.88
514.664	5506.03
515.032	5570.66
515.4	5601.39
515.767	5554.39
516.135	5550.32
516.502	5549.42
516.869	5682.97
517.237	5643.65
517.604	5582.86
517.972	5677.77
518.339	5658.11
518.706	5737.21
519.073	5725.91
519.44	5734.95
519.808	5786.92
520.175	5734.27
520.542	5791.67
520.909	5812.91
521.276	5800.03
521.643	5851.1
522.009	5840.48
522.376	5895.85
522.743	5860.59
523.11	5994.6
523.477	5995.05
523.843	5994.15
524.21	6041.15
524.577	6052.91
524.943	6089.74
525.31	6112.79
525.676	6143.3
526.043	6168.83
526.409	6248.15
526.776	6208.61
527.142	6261.49
527.508	6282.96
527.874	6343.97
528.241	6374.03
528.607	6397.98
528.973	6391.65
529.339	6396.17
529.705	6490.18
530.071	6466.91
530.437	6503.97
530.803	6513.46
531.169	6550.07
531.535	6545.77
531.901	6617.64
532.267	6677.97
532.632	6599.78
532.998	6686.79
533.364	6704.87
533.73	6674.81
534.095	6728.14
534.461	6778.08
534.826	6852.21
535.192	6730.85
535.557	6801.36
535.923	6819.67
536.288	6853.34
536.653	6874.81
537.019	6865.31
537.384	6870.51
537.749	6928.81
538.114	6937.63
538.479	6943.5
538.845	7013.56
539.21	6929.72
539.575	7018.08
539.94	7064.18
540.305	7096.49
540.67	7024.86
541.034	7111.41
541.399	7083.16
541.764	7135.36
542.129	7163.16
542.494	7108.7
542.858	7235.02
543.223	7185.08
543.587	7306.88
543.952	7277.28
544.316	7244.74
544.681	7278.41
545.045	7318.41
545.41	7364.51
545.774	7314.57
546.138	7336.94
546.503	7386.88
546.867	7401.8
547.231	7431.63
547.595	7510.95
547.959	7481.57
548.324	7486.54
548.688	7458.97
549.052	7525.18
549.416	7571.28
549.779	7561.79
550.143	7581.68
550.507	7581.68
550.871	7602.02
551.235	7625.52
551.599	7653.99
551.962	7652.64
552.326	7675.46
552.689	7720.21
553.053	7694.44
553.417	7725.63
553.78	7811.96
554.143	7736.48
554.507	7790.04
554.87	7834.1
555.234	7907.09
555.597	7810.37
555.96	7875.91
556.323	7903.03
556.686	7852.63
557.05	7926.98
557.413	7963.59
557.776	7931.95
558.139	7983.7
558.502	7996.81
558.865	8017.6
559.228	8002.69
559.59	8164.04
559.953	8081.33
560.316	8165.17
560.679	8197.71
561.041	8219.85
561.404	8230.93
561.767	8254.88
562.129	8239.97
562.492	8316.58
562.854	8292.85
563.217	8303.02
563.579	8297.82
563.941	8316.58
564.304	8394.54
564.666	8528.09
565.028	8467.76
565.39	8506.63
565.753	8518.15
566.115	8611.26
566.477	8613.06
566.839	8674.08
567.201	8661.65
567.563	8632.27
567.925	8693.29
568.287	8752.72
568.648	8770.8
569.01	8858.03
569.372	8819.16
569.734	8862.55
570.095	8942.1
570.457	8996.33
570.819	8933.73
571.18	8985.48
571.542	9043.34
571.903	9033.39
572.265	9109.32
572.626	9124.24
572.987	9118.36
573.349	9190.9
573.71	9218.47
574.071	9236.78
574.432	9266.61
574.794	9347.73
575.155	9401.29
575.516	9343.44
575.877	9455.08
576.238	9484.91
576.599	9578.91
576.96	9581.63
577.32	9587.28
577.681	9668.63
578.042	9745.92
578.403	9740.49
578.763	9843.31
579.124	9938
579.485	10003.08
579.845	10044.44
580.206	10065
580.566	10111.56
580.927	10177.54
581.287	10365.33
581.648	10335.51
582.008	10501.6
582.368	10482.39
582.728	10663.86
583.089	10654.82
583.449	10802.16
583.809	10925.32
584.169	10936.85
584.529	10997.41
584.889	11182.71
585.249	11252.54
585.609	11380
585.969	11459.54
586.329	11518.07
586.688	11664.74
587.048	11824.96
587.408	11837.16
587.768	12021.56
588.127	12111.05
588.487	12259.3
588.846	12453.42
589.206	12424.49
589.565	12542.9
589.925	12789
590.284	12857.7
590.643	12982.22
591.003	13223.34
591.362	13364.13
591.721	13466.72
592.08	13518.47
592.44	13735.87
592.799	13938.12
593.158	13944.45
593.517	14136.54
593.876	14264.89
594.235	14400.48
594.593	14572.91
594.952	14615.17
595.311	14752.34
595.67	14852.9
596.029	15097.64
596.387	15226
596.746	15375.37
597.104	15463.96
597.463	15603.16
597.822	15712.09
598.18	15821.46
598.538	15935.58
598.897	16166.54
599.255	16174.45
599.613	16431.84
599.972	16522.24
600.33	16709.57
600.688	16691.72
601.046	16849.68
601.404	17056.23
601.762	17089.9
602.12	17295.1
602.478	17378.94
602.836	17462.78
603.194	17519.95
603.552	17598.14
603.91	17666.84
604.268	17865.93
604.625	17824.35
604.983	18050.56
605.341	18029.31
605.698	18226.6
606.056	18242.42
606.413	18420.72
606.771	18495.74
607.128	18636.08
607.485	18649.64
607.843	18654.61
608.2	18997.65
608.557	19007.59
608.914	18985.22
609.272	19119.23
609.629	19182.5
609.986	19371.65
610.343	19361.48
610.7	19559.9
611.057	19601.7
611.414	19624.53
611.771	19848.02
612.127	19787.01
612.484	19874.24
612.841	20004.18
613.198	19959.66
613.554	20052.54
613.911	20282.81
614.267	20108.58
614.624	20244.85
614.98	20300.67
615.337	20424.73
615.693	20574.78
616.05	20464.73
616.406	20723.25
616.762	20557.16
617.118	20640.54
617.475	20672.18
617.831	20868.79
618.187	20815.91
618.543	20896.36
618.899	21080.76
619.255	21050.93
619.611	21027.2
619.967	21119.63
620.323	21088.67
620.678	21122.57
621.034	21053.64
621.39	21267.65
621.746	21140.64
622.101	21440.75
622.457	21367.98
622.812	21426.74
623.168	21405.95
623.523	21570.69
623.879	21527.75
624.234	21491.82
624.589	21482.56
624.945	21656.56
625.3	21613.17
625.655	21607.53
626.01	21667.86
626.365	21685.49
626.72	21682.33
627.075	21647.52
627.43	21678.48
627.785	21729.78
628.14	21711.03
628.495	21663.34
628.85	21701.31
629.205	21664.7
629.559	21887.07
629.914	21676.68
630.269	21796.67
630.623	21674.64
630.978	21660.63
631.332	21823.56
631.687	21846.61
632.041	21669.22
632.396	21773.17
632.75	21646.17
633.104	21758.03
633.459	21515.32
633.813	21615.89
634.167	21674.19
634.521	21678.48
634.875	21611.82
635.229	21683
635.583	21539.96
635.937	21522.56
636.291	21469.22
636.645	21612.27
636.999	21574.53
637.352	21542.22
637.706	21396.01
638.06	21467.64
638.413	21450.02
638.767	21427.64
639.121	21477.81
639.474	21386.51
639.828	21419.73
640.181	21414.08
640.534	21393.75
640.888	21297.93
641.241	21316.46
641.594	21360.53
641.947	21424.93
642.301	21318.04
642.654	21415.67
643.007	21354.88
643.36	21336.35
643.713	21328.66
644.066	21419.28
644.419	21225.39
644.771	21277.82
645.124	20940.88
645.477	20982
645.83	20787.66
646.182	20814.1
646.535	20669.47
646.888	20741.56
647.24	20624.5
647.593	20803.48
647.945	20761.22
648.298	20643.71
648.65	20553.99
649.002	20558.74
649.355	20663.82
649.707	20635.57
650.059	20765.06
650.411	20881.89
650.763	21024.26
651.115	21156.92
651.467	21067.43
651.819	21096.8
652.171	21069.69
652.523	21076.92
652.875	21128.44
653.227	21009.12
653.578	21214.32
653.93	21185.39
654.282	21072.4
654.633	21088.44
654.985	20987.88
655.337	21102.23
655.688	21063.81
656.039	21245.95
656.391	21007.54
656.742	21061.32
657.094	21128.44
657.445	21293.86
657.796	21025.85
658.147	21085.05
658.498	20999.41
658.849	21245.73
659.2	20997.37
659.551	21129.8
659.902	21096.58
660.253	21109.69
660.604	21159.85
660.955	21146.29
661.306	21169.34
661.656	21133.19
662.007	21166.18
662.358	21075.56
662.708	21220.42
663.059	21164.37
663.409	21013.64
663.76	21235.33
664.11	21338.15
664.461	21220.19
664.811	21257.03
665.161	21132.51
665.511	21135.67
665.862	21239.85
666.212	21303.35
666.562	21276.69
666.912	21246.63
667.262	21242.34
667.612	21208.67
667.962	21264.48
668.312	21198.95
668.662	21301.32
669.011	21188.33
669.361	21268.32
669.711	21128.67
670.06	21151.94
670.41	21170.25
670.76	21091.15
671.109	21210.02
671.459	21062.23
671.808	21098.61
672.157	21070.36
672.507	20956.92
672.856	21030.14
673.205	21135
673.554	21106.97
673.904	20964.15
674.253	21133.19
674.602	21038.73
674.951	20711.05
675.3	20643.93
675.649	20955.34
675.998	20830.37
676.346	20886.87
676.695	20980.65
677.044	20781.33
677.393	20844.38
677.741	20841.9
678.09	20811.84
678.438	20799.64
678.787	20827.43
679.135	20830.37
679.484	20665.63
679.832	20755.34
680.181	20653.65
680.529	20720.32
680.877	20579.98
681.225	20554.67
681.573	20657.27
681.922	20582.24
682.27	20517.16
682.618	20485.07
682.966	20417.05
683.314	20421.57
683.661	20317.39
684.009	20222.25
684.357	20294.79
684.705	20198.75
685.053	20219.76
685.4	20151.07
685.748	20109.71
686.095	20075.59
686.443	19971.64
686.79	20010.05
687.138	19997.17
687.485	19942.48
687.832	19933.22
688.18	19961.69
688.527	19769.16
688.874	19748.36
689.221	19697.07
689.568	19739.33
689.915	19594.7
690.262	19554.47
690.609	19553.79
690.956	19509.05
691.303	19445.55
691.65	19407.58
691.997	19355.38
692.344	19192.22
692.69	19170.53
693.037	19211.88
693.383	18995.39
693.73	19101.15
694.077	18980.02
694.423	18985.22
694.769	18858.22
695.116	18865
695.462	18818.22
695.808	18649.41
696.155	18729.41
696.501	18548.4
696.847	18443.31
697.193	18389.3
697.539	18522.18
697.885	18354.73
698.231	18223.66
698.577	18309.08
698.923	18193.6
699.269	18122.87
699.614	17993.83
699.96	17998.58
700.306	17931.69
700.651	17920.84
700.997	17786.61
701.342	17759.94
701.688	17747.51
702.033	17694.41
702.379	17711.13
702.724	17531.7
703.069	17552.04
703.415	17476.79
703.76	17399.95
704.105	17436.11
704.45	17388.2
704.795	17196.34
705.14	17175.33
705.485	17166.74
705.83	17057.14
706.175	17000.64
706.52	16998.38
706.865	16963.35
707.209	16930.13
707.554	16799.52
707.899	16866.63
708.243	16719.07
708.588	16753.64
708.932	16625.74
709.277	16496.7
709.621	16613.08
709.966	16479.75
710.31	16489.47
710.654	16357.72
710.998	16349.81
711.342	16432.97
711.687	16332.64
712.031	16305.29
712.375	16095.35
712.719	16156.14
713.063	16186.88
713.407	16140.32
713.75	16070.04
714.094	16075.02
714.438	16124.28
714.782	16084.28
715.125	15931.52
715.469	15999.31
715.812	15945.53
716.156	15897.84
716.499	15916.6
716.843	15802.71
717.186	15709.15
717.53	15769.26
717.873	15875.02
718.216	15809.94
718.559	15668.7
718.902	15587.12
719.246	15635.7
719.589	15613.11
719.932	15496.73
720.275	15577.4
720.617	15535.14
720.96	15515.93
721.303	15522.26
721.646	15462.15
721.989	15441.81
722.331	15439.1
722.674	15380.8
723.016	15419.67
723.359	15362.49
723.701	15445.88
724.044	15240.01
724.386	15275.71
724.729	15351.42
725.071	15287.47
725.413	15310.06
725.755	15203.85
726.097	15212.21
726.439	15199.78
726.782	15164.3
727.124	15247.69
727.465	15121.14
727.807	15141.48
728.149	15120.46
728.491	15107.36
728.833	15146.45
729.175	15073.91
729.516	15045.21
729.858	15083.63
730.199	15068.71
730.541	15013.57
730.882	14985.78
731.224	15112.1
731.565	14930.64
731.906	15080.01
732.248	14953.91
732.589	14900.13
732.93	14929.96
733.271	14969.51
733.612	15103.29
733.953	15050.18
734.294	14982.61
734.635	15022.39
734.976	14961.6
735.317	14899.45
735.658	14989.39
735.999	15033.69
736.339	15001.82
736.68	14976.51
737.021	14904.42
737.361	14860.36
737.702	15062.61
738.042	14936.29
738.383	14983.52
738.723	14977.87
739.063	14995.72
739.404	14946.46
739.744	14982.84
740.084	14986.23
740.424	14931.32
740.764	14906.68
741.104	15017.87
741.444	14978.32
741.784	14924.08
742.124	15063.74
742.464	14964.76
742.804	14926.34
743.143	15057.87
743.483	14995.27
743.823	14982.16
744.162	15042.73
744.502	15134.7
744.841	15047.47
745.181	15079.79
745.52	15178.32
745.86	15216.28
746.199	15246.11
746.538	15241.14
746.877	15285.21
747.216	15404.98
747.556	15408.14
747.895	15489.72
748.234	15486.1
748.573	15615.59
748.911	15542.83
749.25	15596.38
749.589	15585.08
749.928	15712.76
750.267	15799.54
750.605	15910.73
750.944	15973.77
751.283	15986.88
751.621	16089.03
751.96	16164.05
752.298	16242.24
752.636	16319.3
752.975	16307.33
753.313	16414.89
753.651	16594.1
753.989	16721.1
754.327	16728.56
754.666	16719.97
755.004	16901.66
755.342	17093.75
755.679	17137.13
756.017	17109.34
756.355	17327.41
756.693	17392.27
757.031	17601.75
757.368	17605.6
757.706	17729.66
758.044	17851.69
758.381	18000.39
758.719	18025.7
759.056	18115.19
759.394	18232.47
759.731	18277.22
760.068	18441.51
760.405	18554.27
760.743	18670.88
761.08	18775.28
761.417	18808.05
761.754	18966.46
762.091	19012.34
762.428	19170.53
762.765	19215.05
763.102	19303.18
763.438	19313.35
763.775	19408.49
764.112	19619.33
764.449	19723.28
764.785	19797.4
765.122	19801.02
765.458	19858.19
765.795	19967.34
766.131	20046.21
766.467	20025.87
766.804	19995.36
767.14	20102.03
767.476	20075.59
767.812	20222.93
768.148	20349.48
768.485	20338.41
768.821	20263.38
769.157	20384.73
769.492	20329.82
769.828	20513.09
770.164	20389.7
770.5	20467.22
770.836	20462.92
771.171	20518.97
771.507	20551.73
771.842	20405.07
772.178	20511.51
772.513	20465.63
772.849	20457.27
773.184	20495.46
773.519	20680.54
773.855	20627.89
774.19	20462.47
774.525	20534.56
774.86	20548.8
775.195	20521.9
775.53	20365.98
775.865	20390.83
776.2	20293.66
776.535	20287.11
776.87	20262.25
777.205	20314
777.539	20225.64
777.874	20403.71
778.209	20184.06
778.543	20113.1
778.878	20159.2
779.212	20120.78
779.547	20122.82
779.881	20162.14
780.215	20049.6
780.55	20107.9
780.884	20003.5
781.218	19924.86
781.552	19974.35
781.886	19779.1
782.22	19775.48
782.554	19707.01
782.888	19672.43
783.222	19597.63
783.556	19561.7
783.889	19587.24
784.223	19396.51
784.557	19410.75
784.89	19442.38
785.224	19367.36
785.557	19227.47
785.891	19234.93
786.224	19256.17
786.558	19225.89
786.891	18940.02
787.224	19018.21
787.557	19016.86
787.891	19026.12
788.224	18949.74
788.557	18936.63
788.89	18921.04
789.223	18874.49
789.556	18739.8
789.888	18763.31
790.221	18622.97
790.554	18514.27
790.887	18490.32
791.219	18465.46
791.552	18395.63
791.884	18403.77
792.217	18468.17
792.549	18272.02
792.882	18183.89
793.214	18057.11
793.546	18129.42
793.879	18046.49
794.211	17934.85
794.543	17983.21
794.875	17918.58
795.207	18015.76
795.539	17808.75
795.871	17759.04
796.203	17741.41
796.535	17652.83
796.867	17571.92
797.198	17518.37
797.53	17551.59
797.862	17432.49
798.193	17500.29
798.525	17283.12
798.856	17384.81
799.188	17258.26
799.519	17103.46
799.85	17096.91
800.182	17129
800.513	17123.58
800.844	16929.68
801.175	17029.34
801.506	16991.15
801.837	16891.26
802.168	16809.69
802.499	16780.31
802.83	16737.37
803.161	16644.27
803.491	16736.47
803.822	16645.62
804.153	16538.96
804.483	16475.91
804.814	16435.91
805.145	16356.59
805.475	16397.94
805.805	16294.9
806.136	16353.88
806.466	16249.93
806.796	16225.07
807.126	16162.92
807.457	16095.58
807.787	16031.63
808.117	16076.15
808.447	15942.59
808.777	16034.56
809.107	15918.86
809.436	15889.94
809.766	15823.72
810.096	15739.66
810.426	15751.63
810.755	15704.18
811.085	15744.85
811.414	15636.83
811.744	15550.74
812.073	15574.92
812.403	15573.79
812.732	15503.28
813.061	15387.8
813.39	15319.1
813.719	15388.03
814.049	15402.04
814.378	15368.14
814.707	15239.78
815.036	15225.09
815.365	15078.21
815.693	14979.9
816.022	15057.19
816.351	15048.83
816.68	14955.04
817.008	14958.66
817.337	14852.45
817.665	14840.92
817.994	14909.4
818.322	14864.2
818.651	14733.36
818.979	14702.85
819.307	14809.29
819.636	14728.61
819.964	14607.71
820.292	14623.98
820.62	14663.07
820.948	14674.15
821.276	14658.1
821.604	14593.02
821.932	14594.6
822.259	14605.68
822.587	14661.72
822.915	14624.88
823.243	14593.47
823.57	14595.51
823.898	14609.97
824.225	14547.15
824.553	14562.29
824.88	14537.43
825.207	14635.73
825.535	14576.52
825.862	14589.18
826.189	14478.9
826.516	14630.08
826.843	14611.55
827.17	14631.89
827.497	14660.14
827.824	14573.36
828.151	14629.4
828.478	14587.6
828.805	14634.38
829.131	14621.72
829.458	14509.18
829.785	14411.56
830.111	14491.55
830.438	14569.74
830.764	14535.62
831.09	14589.18
831.417	14536.98
831.743	14511.21
832.069	14639.57
832.395	14507.82
832.722	14510.76
833.048	14448.39
833.374	14494.72
833.7	14347.6
834.026	14403.19
834.351	14437.54
834.677	14456.07
835.003	14411.33
835.329	14446.58
835.654	14435.28
835.98	14265.57
836.306	14380.37
836.631	14305.12
836.956	14311.67
837.282	14305.34
837.607	14236.19
837.932	14203.88
838.258	14329.75
838.583	14218.79
838.908	14021.06
839.233	14140.6
839.558	14093.15
839.883	13986.26
840.208	14026.48
840.533	14041.4
840.858	14027.39
841.182	14070.77
841.507	14054.73
841.832	13895.86
842.156	13921.63
842.481	13842.98
842.805	13837.56
843.13	13807.5
843.454	13873.49
843.778	13672.14
844.103	13673.95
844.427	13714.17
844.751	13629.88
845.075	13714.85
845.399	13613.84
845.723	13450.45
846.047	13520.51
846.371	13431.92
846.695	13433.95
847.019	13285.26
847.343	13252.94
847.666	13214.53
847.99	13111.25
848.313	13051.59
848.637	13012.5
848.96	13010.91
849.284	12960.29
849.607	12880.07
849.931	12846.85
850.254	12769.34
850.577	12747.19
850.9	12645.73
851.223	12548.33
851.546	12568.21
851.869	12485.51
852.192	12529.8
852.515	12406.19
852.838	12391.72
853.161	12394.43
853.483	12253.65
853.806	12230.14
854.129	12218.85
854.451	12159.41
854.774	12150.15
855.096	12056.82
855.419	12046.65
855.741	12079.87
856.063	11946.99
856.385	11984.05
856.708	11882.36
857.03	11854.79
857.352	11886.2
857.674	11828.57
857.996	11738.18
858.318	11702.47
858.64	11662.7
858.961	11634.45
859.283	11657.28
859.605	11599.65
859.926	11589.26
860.248	11595.13
860.57	11515.59
860.891	11517.39
861.212	11410.28
861.534	11357.85
861.855	11407.34
862.176	11393.1
862.498	11432.88
862.819	11389.94
863.14	11357.63
863.461	11301.36
863.782	11257.74
864.103	11316.04
864.424	11310.39
864.745	11231.07
865.065	11195.82
865.386	11114.69
865.707	11170.51
866.027	11111.08
866.348	11130.74
866.668	11202.83
866.989	11037.63
867.309	11095.26
867.63	11022.27
867.95	10992.44
868.27	10931.87
868.59	10975.71
868.91	10965.09
869.23	10944.08
869.55	10818.88
869.87	10930.29
870.19	10928.48
870.51	10922.83
870.83	10871.08
871.15	10789.5
871.469	10861.82
871.789	10851.42
872.109	10795.38
872.428	10695.95
872.748	10756.06
873.067	10722.84
873.386	10750.41
873.706	10691.65
874.025	10649.62
874.344	10608.49
874.663	10620.24
874.982	10604.2
875.301	10580.02
875.62	10607.36
875.939	10543.41
876.258	10596.06
876.577	10494.82
876.896	10455.5
877.214	10461.6
877.533	10446.46
877.852	10453.24
878.17	10457.99
878.489	10485.33
878.807	10429.06
879.125	10380.93
879.444	10324.43
879.762	10341.15
880.08	10391.1
880.398	10303.42
880.716	10307.48
881.034	10342.51
881.352	10204.21
881.67	10253.93
881.988	10272.68
882.306	10246.24
882.624	10125.34
882.941	10111.78
883.259	10052.57
883.577	10061.39
883.894	10116.3
884.212	10076.53
884.529	10060.94
884.846	10032.46
885.164	9993.59
885.481	9987.27
885.798	9949.07
886.115	9944.55
886.432	9877.89
886.75	9815.29
887.067	9843.77
887.383	9823.43
887.7	9796.31
888.017	9767.38
888.334	9764.67
888.651	9792.69
888.967	9696.88
889.284	9655.97
889.6	9648.07
889.917	9604.45
890.233	9588.86
890.55	9511.12
890.866	9557.9
891.182	9486.04
891.498	9429.54
891.815	9472.7
892.131	9436.09
892.447	9319.71
892.763	9359.26
893.079	9301.86
893.395	9265.02
893.71	9293.5
894.026	9182.32
894.342	9267.51
894.657	9152.49
894.973	9187.29
895.289	9146.61
895.604	9195.42
895.92	9039.95
896.235	8988.65
896.55	9058.02
896.865	9007.18
897.181	8989.1
897.496	9001.98
897.811	8944.13
898.126	8916.79
898.441	8854.41
898.756	8804.25
899.071	8756.34
899.386	8776.45
899.7	8652.61
900.015	8653.52
900.33	8622.33
900.644	8618.04
900.959	8611.71
901.273	8561.09
901.588	8531.48
901.902	8495.33
902.216	8420.08
902.531	8377.82
902.845	8374.65
903.159	8335.11
903.473	8286.52
903.787	8240.64
904.101	8263.02
904.415	8227.31
904.729	8156.13
905.042	8111.16
905.356	8095.11
905.67	8069.35
905.984	8143.7
906.297	8088.33
906.611	8011.5
906.924	8005.62
907.237	7986.87
907.551	7931.95
907.864	7911.16
908.177	7830.26
908.491	7931.5
908.804	7815.8
909.117	7819.19
909.43	7760.88
909.743	7737.83
910.056	7740.09
910.368	7669.59
910.681	7641.79
910.994	7567.22
911.307	7617.16
911.619	7564.28
911.932	7563.83
912.244	7436.6
912.557	7453.55
912.869	7430.95
913.181	7396.6
913.494	7378.07
913.806	7300.56
914.118	7286.55
914.43	7206.77
914.742	7211.75
915.054	7217.39
915.366	7141.24
915.678	7095.14
915.99	7143.27
916.302	7060.56
916.613	7007.23
916.925	7081.13
917.236	6956.38
917.548	6939.89
917.859	6951.19
918.171	6882.26
918.482	6866.67
918.794	6829.61
919.105	6824.18
919.416	6780.12
919.727	6773.34
920.038	6706.22
920.349	6723.17
920.66	6655.6
920.971	6652.44
921.282	6604.76
921.593	6633.91
921.903	6507.13
922.214	6551.88
922.525	6563.63
922.835	6473.69
923.146	6406.12
923.456	6443.63
923.767	6395.72
924.077	6403.86
924.387	6321.83
924.697	6317.53
925.008	6339
925.318	6241.83
925.628	6220.13
925.938	6183.75
926.248	6116.86
926.558	6153.92
926.867	6087.71
927.177	6140.59
927.487	6052.23
927.796	6036.64
928.106	5998.22
928.416	6007.71
928.725	5993.92
929.034	5943.98
929.344	6000.25
929.653	5933.59
929.962	5870.09
930.271	5876.41
930.581	5877.32
930.89	5782.18
931.199	5786.47
931.508	5802.52
931.817	5690.66
932.125	5730.65
932.434	5672.12
932.743	5636.42
933.051	5612.01
933.36	5640.49
933.669	5586.7
933.977	5577.21
934.286	5523.65
934.594	5571.11
934.902	5483.43
935.21	5437.1
935.519	5508.51
935.827	5446.37
936.135	5361.17
936.443	5352.59
936.751	5351.23
937.059	5336.99
937.367	5282.53
937.674	5294.73
937.982	5301.29
938.29	5220.16
938.597	5209.31
938.905	5162.76
939.213	5145.13
939.52	5133.16
939.827	5161.86
940.135	5101.52
940.442	5062.2
940.749	5098.81
941.056	5046.15
941.363	4984.69
941.67	5017.68
941.977	4939.49
942.284	4917.34
942.591	4951.47
942.898	4937
943.205	4878.25
943.511	4833.28
943.818	4853.16
944.125	4813.16
944.431	4780.62
944.738	4797.8
945.044	4776.56
945.35	4763.9
945.657	4692.72
945.963	4711.47
946.269	4642.55
946.575	4688.42
946.881	4631.7
947.187	4637.8
947.493	4587.86
947.799	4570.23
948.105	4564.81
948.41	4529.56
948.716	4532.04
949.022	4486.85
949.327	4509.67
949.633	4411.59
949.938	4424.25
950.244	4450.91
950.549	4364.14
950.854	4376.57
951.16	4343.8
951.465	4360.52
951.77	4330.47
952.075	4292.95
952.38	4281.43
952.685	4262.22
952.99	4235.78
953.294	4224.93
953.599	4218.6
953.904	4189.68
954.209	4156.23
954.513	4186.29
954.818	4137.25
955.122	4077.36
955.426	4087.99
955.731	4099.74
956.035	4075.56
956.339	4038.72
956.643	4059.96
956.948	4017.25
957.252	3996.01
957.556	3984.94
957.86	3966.18
958.163	3919.18
958.467	3960.76
958.771	3921.21
959.075	3933.19
959.378	3920.98
959.682	3894.54
959.985	3842.34
960.289	3866.07
960.592	3819.74
960.896	3823.81
961.199	3791.5
961.502	3774.1
961.805	3767.99
962.108	3748.11
962.411	3711.72
962.714	3672.4
963.017	3688.67
963.32	3663.36
963.623	3646.19
963.926	3680.76
964.228	3619.07
964.531	3638.96
964.833	3562.12
965.136	3592.18
965.438	3555.57
965.741	3563.03
966.043	3536.36
966.345	3517.83
966.648	3504.72
966.95	3468.34
967.252	3487.78
967.554	3477.61
967.856	3482.13
968.158	3416.59
968.46	3402.81
968.761	3370.49
969.063	3409.81
969.365	3373.43
969.666	3329.59
969.968	3343.82
970.269	3307.67
970.571	3289.81
970.872	3327.55
971.174	3257.95
971.475	3246.88
971.776	3243.71
972.077	3216.14
972.378	3222.25
972.679	3177.73
972.98	3206.65
973.281	3176.6
973.582	3189.93
973.883	3147.9
974.183	3130.04
974.484	3123.49
974.785	3133.89
975.085	3109.03
975.386	3112.42
975.686	3038.75
975.986	3047.34
976.287	2991.97
976.587	3010.27
976.887	3024.96
977.187	3019.77
977.487	3007.11
977.787	2953.33
978.087	2921.24
978.387	2945.87
978.687	2930.05
978.987	2912.88
979.286	2903.16
979.586	2862.93
979.885	2896.83
980.185	2872.88
980.484	2861.58
980.784	2833.56
981.083	2852.54
981.382	2802.37
981.682	2804.4
981.981	2780.9
982.28	2792.65
982.579	2743.84
982.878	2756.04
983.177	2761.69
983.475	2718.53
983.774	2700.9
984.073	2725.99
984.372	2672.88
984.67	2696.61
984.969	2667.91
985.267	2641.24
985.566	2627.69
985.864	2639.44
986.162	2629.04
986.461	2603.28
986.759	2589.95
987.057	2572.77
987.355	2552.88
987.653	2576.39
987.951	2533.9
988.249	2521.47
988.547	2535.94
988.844	2505.2
989.142	2516.28
989.44	2449.38
989.737	2450.97
990.035	2467.46
990.332	2455.71
990.63	2415.49
990.927	2448.93
991.224	2417.07
991.521	2400.8
991.819	2421.81
992.116	2382.72
992.413	2404.64
992.71	2356.73
993.006	2373
993.303	2338.43
993.6	2332.1
993.897	2328.48
994.193	2343.62
994.49	2268.6
994.787	2254.81
995.083	2276.06
995.379	2227.7
995.676	2228.6
995.972	2263.4
996.268	2254.14
996.565	2199.45
996.861	2213.46
997.157	2188.83
997.453	2193.12
997.749	2182.95
998.044	2177.98
998.34	2163.74
998.636	2127.59
998.932	2167.58
999.227	2113.12
999.523	2114.25
999.818	2121.48
1000.114	2073.58
1000.409	2072.22
1000.704	2052.79
1001	2087.59
1001.295	2039.9
1001.59	2053.69
1001.885	2028.83
1002.18	2008.72
1002.475	2008.27
1002.77	2015.27
1003.065	2005.78
1003.359	1956.52
1003.654	1940.25
1003.949	1955.84
1004.243	1966.46
1004.538	1925.56
1004.832	1930.08
1005.127	1930.75
1005.421	1884.88
1005.715	1914.26
1006.009	1894.6
1006.304	1845.11
1006.598	1836.29
1006.892	1854.6
1007.186	1820.7
1007.48	1815.28
1007.773	1790.65
1008.067	1815.28
1008.361	1801.72
1008.655	1778.22
1008.948	1768.5
1009.242	1778.67
1009.535	1778.44
1009.829	1730.53
1010.122	1733.02
1010.415	1708.84
1010.708	1725.34
1011.001	1738.67
1011.295	1693.25
1011.588	1683.3
1011.881	1669.74
1012.173	1652.57
1012.466	1670.2
1012.759	1637.2
1013.052	1641.95
1013.344	1613.47
1013.637	1623.19
1013.93	1605.79
1014.222	1585.45
1014.514	1597.88
1014.807	1575.28
1015.099	1533.48
1015.391	1539.35
1015.683	1546.81
1015.976	1534.83
1016.268	1534.15
1016.56	1516.53
1016.851	1517.88
1017.143	1494.16
1017.435	1470.65
1017.727	1501.39
1018.018	1502.07
1018.31	1476.08
1018.602	1469.98
1018.893	1432.46
1019.185	1433.37
1019.476	1471.56
1019.767	1406.02
1020.058	1429.75
1020.35	1410.32
1020.641	1399.02
1020.932	1386.81
1021.223	1382.07
1021.514	1368.74
1021.804	1349.53
1022.095	1346.59
1022.386	1366.48
1022.677	1331.45
1022.967	1333.93
1023.258	1318.34
1023.548	1294.39
1023.839	1318.79
1024.129	1269.98
1024.419	1286.7
1024.709	1291
1025	1261.39
1025.29	1226.82
1025.58	1251.9
1025.87	1247.83
1026.16	1220.72
1026.449	1218.23
1026.739	1227.5
1027.029	1214.39
1027.319	1171.23
1027.608	1228.85
1027.898	1199.25
1028.187	1186.82
1028.477	1179.14
1028.766	1165.8
1029.055	1160.83
1029.344	1120.15
1029.634	1114.96
1029.923	1112.02
1030.212	1117.22
1030.501	1104.79
1030.79	1116.09
1031.078	1100.95
1031.367	1085.8
1031.656	1085.58
1031.945	1081.06
1032.233	1064.11
1032.522	1066.14
1032.81	1045.35
1033.099	1069.08
1033.387	1031.57
1033.675	1041.06
1033.963	1027.5
1034.251	1017.78
1034.54	1024.56
1034.828	1003.1
1035.116	1005.35
1035.403	980.27
1035.691	974.4
1035.979	1004.68
1036.267	976.43
1036.554	971.68
1036.842	951.35
1037.129	974.17
1037.417	971.46
1037.704	961.51
1037.992	978.01
1038.279	947.96
1038.566	952.47
1038.853	952.47
1039.14	952.47
