Data from hue_190_FLMS001491_00059.txt Node
Date: Tue Feb 07 16:45:29 GMT 2017
User: dcchb
Spectrometer: FLMS00149
Trigger mode: 0
Integration Time (sec): 2.000000E-2
Scans to average: 10
Electric dark correction enabled: true
Nonlinearity correction enabled: false
Boxcar width: 0
XAxis mode: Wavelengths
Number of Pixels in Spectrum: 2048
>>>>>Begin Spectral Data<<<<<
341.393	-4.17
341.776	-4.17
342.16	-4.17
342.543	-70.83
342.927	-94.79
343.31	-61.11
343.693	-53.2
344.077	-61.11
344.46	-60.89
344.843	-71.28
345.226	-36.26
345.61	-45.52
345.993	-38.74
346.376	-9.14
346.759	31.54
347.142	31.31
347.525	38.54
347.908	50.52
348.291	87.36
348.674	90.52
349.057	107.47
349.44	117.86
349.823	116.28
350.206	145.43
350.588	192.21
350.971	203.29
351.354	213.45
351.737	233.57
352.119	245.09
352.502	253.45
352.884	266.11
353.267	278.99
353.65	270.85
354.032	291.64
354.414	273.57
354.797	303.4
355.179	333.9
355.562	308.37
355.944	319.89
356.326	318.31
356.709	324.64
357.091	328.25
357.473	327.8
357.855	343.39
358.238	329.16
358.62	322.83
359.002	356.95
359.384	318.08
359.766	359.67
360.148	319.89
360.53	326.22
360.912	324.41
361.294	301.59
361.676	338.65
362.057	328.93
362.439	337.52
362.821	347.24
363.203	326.9
363.584	307.69
363.966	337.75
364.348	311.76
364.729	310.4
365.111	309.72
365.493	290.97
365.874	312.89
366.256	310.85
366.637	313.79
367.019	310.63
367.4	297.97
367.781	302.27
368.163	298.2
368.544	300.68
368.925	302.49
369.306	329.61
369.688	304.07
370.069	303.17
370.45	308.37
370.831	305.43
371.212	289.84
371.593	288.71
371.974	301.59
372.355	302.94
372.736	316.73
373.117	295.26
373.498	316.5
373.879	314.24
374.26	335.26
374.641	332.55
375.021	305.88
375.402	321.47
375.783	317.18
376.163	301.81
376.544	328.48
376.925	309.27
377.305	309.5
377.686	308.14
378.066	303.62
378.447	327.58
378.827	312.44
379.208	328.25
379.588	336.16
379.968	320.34
380.349	315.37
380.729	335.49
381.109	339.1
381.489	332.32
381.87	327.35
382.25	322.6
382.63	331.19
383.01	340.23
383.39	337.07
383.77	331.19
384.15	330.06
384.53	340.91
384.91	335.71
385.29	346.11
385.67	335.94
386.049	332.77
386.429	323.51
386.809	354.47
387.189	360.12
387.568	349.27
387.948	362.6
388.328	335.71
388.707	354.69
389.087	362.38
389.466	355.6
389.846	318.08
390.225	344.52
390.605	357.41
390.984	365.54
391.363	349.72
391.743	337.75
392.122	367.12
392.501	367.35
392.881	377.29
393.26	366.67
393.639	355.6
394.018	359.89
394.397	374.13
394.776	377.07
395.155	359.44
395.534	384.98
395.913	373.45
396.292	372.55
396.671	391.53
397.05	379.78
397.429	405.31
397.808	384.3
398.186	396.95
398.565	381.36
398.944	403.28
399.323	395.14
399.701	396.27
400.08	406.67
400.458	427.01
400.837	401.02
401.215	430.17
401.594	424.97
401.972	403.28
402.351	399.44
402.729	428.36
403.107	433.34
403.486	399.66
403.864	402.38
404.242	402.38
404.62	411.87
404.999	412.09
405.377	439.89
405.755	431.08
406.133	427.23
406.511	454.35
406.889	458.42
407.267	451.19
407.645	443.05
408.023	458.87
408.401	488.48
408.779	500.68
409.156	474.92
409.534	488.25
409.912	481.24
410.29	510.85
410.667	508.59
411.045	494.35
411.422	518.31
411.8	548.59
412.178	532.77
412.555	549.04
412.933	555.14
413.31	563.05
413.687	567.8
414.065	591.52
414.442	577.51
414.819	614.35
415.197	608.7
415.574	598.08
415.951	635.59
416.328	641.01
416.705	609.6
417.082	646.66
417.46	634.91
417.837	652.54
418.214	655.03
418.591	674.23
418.967	695.25
419.344	668.13
419.721	695.02
420.098	685.98
420.475	708.36
420.852	725.08
421.228	733.44
421.605	710.16
421.982	750.16
422.358	779.99
422.735	772.99
423.111	803.27
423.488	812.76
423.864	822.93
424.241	839.43
424.617	858.18
424.994	837.39
425.37	877.17
425.746	873.1
426.123	890.05
426.499	900.22
426.875	921.23
427.251	920.1
427.627	950.61
428.003	953.32
428.379	997.84
428.756	975.02
429.132	987.45
429.507	1004.85
429.883	1017.5
430.259	1011.85
430.635	1026.99
431.011	1045.07
431.387	1070.16
431.763	1076.93
432.138	1090.95
432.514	1121.45
432.89	1129.81
433.265	1168.91
433.641	1171.85
434.016	1180.21
434.392	1215.69
434.767	1239.42
435.143	1235.12
435.518	1275.8
435.894	1305.18
436.269	1308.57
436.644	1326.19
437.02	1344.27
437.395	1371.16
437.77	1395.57
438.145	1404.38
438.52	1423.37
438.895	1444.16
439.271	1459.52
439.646	1524.15
440.021	1495.91
440.395	1572.74
440.77	1541.56
441.145	1550.37
441.52	1600.76
441.895	1611.61
442.27	1631.04
442.645	1617.49
443.019	1660.42
443.394	1678.05
443.769	1701.33
444.143	1704.72
444.518	1723.25
444.892	1730.48
445.267	1766.18
445.641	1775.22
446.016	1783.36
446.39	1814.32
446.764	1839.4
447.139	1807.76
447.513	1838.27
447.887	1859.06
448.262	1864.26
448.636	1917.59
449.01	1891.83
449.384	1937.48
449.758	1973.41
450.132	1967.08
450.506	2024.71
450.88	1999.17
451.254	1999.62
451.628	2057.02
452.002	2069.45
452.376	2071.49
452.75	2120.3
453.123	2132.73
453.497	2143.8
453.871	2152.84
454.244	2218.83
454.618	2237.13
454.992	2256.79
455.365	2247.3
455.739	2357.13
456.112	2347.41
456.486	2370.69
456.859	2424.24
457.232	2432.83
457.606	2460.18
457.979	2459.5
458.352	2476.67
458.725	2546.95
459.099	2555.54
459.472	2618.36
459.845	2641.19
460.218	2624.92
460.591	2664.92
460.964	2690.68
461.337	2756.21
461.71	2807.74
462.083	2835.76
462.456	2859.49
462.829	2904.68
463.201	2943.33
463.574	2954.63
463.947	3014.51
464.32	3055.64
464.692	3069.88
465.065	3113.94
465.438	3169.76
465.81	3192.81
466.183	3224
466.555	3279.14
466.928	3358.68
467.3	3329.53
467.672	3387.38
468.045	3480.94
468.417	3531.11
468.789	3537.66
469.161	3572.24
469.534	3632.8
469.906	3701.27
470.278	3738.33
470.65	3785.56
471.022	3866.92
471.394	3923.19
471.766	3964.54
472.138	4009.06
472.51	4084.77
472.882	4139.68
473.253	4232.78
473.625	4253.35
473.997	4344.87
474.369	4392.55
474.74	4423.06
475.112	4526.11
475.484	4682.26
475.855	4673.22
476.227	4689.95
476.598	4885.42
476.97	4923.61
477.341	4997.51
477.713	5118.18
478.084	5137.62
478.455	5250.84
478.827	5339.65
479.198	5485.41
479.569	5534.44
479.94	5628
480.311	5697.38
480.682	5833.87
481.053	5985.73
481.424	6004.04
481.795	6149.12
482.166	6201.55
482.537	6304.82
482.908	6385.27
483.279	6505.27
483.65	6636.79
484.021	6720.63
484.391	6784.36
484.762	6930.79
485.133	6991.58
485.503	7118.81
485.874	7220.73
486.244	7251.69
486.615	7415.3
486.985	7480.16
487.356	7662.52
487.726	7719.02
488.097	7886.02
488.467	7907.26
488.837	8044.89
489.207	8221.61
489.578	8233.36
489.948	8321.04
490.318	8453.46
490.688	8476.51
491.058	8631.09
491.428	8720.35
491.798	8802.83
492.168	9003.28
492.538	9046.89
492.908	9060
493.278	9249.38
493.648	9243.27
494.017	9332.99
494.387	9380.9
494.757	9448.01
495.126	9568.69
495.496	9598.07
495.866	9603.94
496.235	9665.41
496.605	9805.74
496.974	9930.71
497.344	9964.84
497.713	9989.24
498.082	10046.42
498.452	10171.61
498.821	10116.92
499.19	10148.11
499.559	10281.21
499.928	10287.77
500.298	10326.41
500.667	10461.09
501.036	10361.89
501.405	10510.81
501.774	10517.59
502.143	10558.95
502.512	10591.04
502.88	10683.24
503.249	10711.94
503.618	10716.46
503.987	10777.7
504.356	10789.9
504.724	10823.12
505.093	10814.76
505.462	10835.77
505.83	10922.78
506.199	10936.79
506.567	11150.79
506.936	11018.37
507.304	11108.99
507.672	11074.41
508.041	11140.63
508.409	11263.79
508.777	11306.5
509.145	11279.83
509.514	11259.04
509.882	11339.49
510.25	11275.31
510.618	11319.38
510.986	11388.08
511.354	11407.51
511.722	11424.23
512.09	11465.14
512.458	11484.8
512.826	11482.76
513.193	11538.81
513.561	11510.56
513.929	11632.14
514.297	11696.54
514.664	11645.92
515.032	11642.08
515.4	11737.67
515.767	11664.45
516.135	11725.24
516.502	11640.27
516.869	11763.66
517.237	11721.4
517.604	11768.63
517.972	11727.73
518.339	11828.52
518.706	11774.05
519.073	11788.97
519.44	11829.65
519.808	11833.49
520.175	11830.55
520.542	11851.11
520.909	11866.26
521.276	11819.48
521.643	11893.6
522.009	11926.37
522.376	11975.41
522.743	11885.69
523.11	12027.38
523.477	12079.36
523.843	12096.08
524.21	12045.91
524.577	12122.07
524.943	12033.93
525.31	12084.1
525.676	12050.88
526.043	12126.14
526.409	12082.97
526.776	12159.36
527.142	12112.13
527.508	12147.38
527.874	12168.62
528.241	12138.11
528.607	12077.78
528.973	12075.97
529.339	12088.17
529.705	12046.82
530.071	12105.12
530.437	11965.01
530.803	12152.35
531.169	12065.12
531.535	12042.3
531.901	11923.2
532.267	11954.16
532.632	11946.71
532.998	11965.69
533.364	11846.37
533.73	11882.07
534.095	11799.14
534.461	11848.18
534.826	11769.76
535.192	11792.81
535.557	11782.19
535.923	11647.05
536.288	11632.14
536.653	11590.78
537.019	11456.55
537.384	11547.17
537.749	11508.75
538.114	11423.78
538.479	11388.98
538.845	11410.22
539.21	11285.03
539.575	11255.88
539.94	11229.21
540.305	11190.12
540.67	11133.62
541.034	11180.85
541.399	11115.09
541.764	11038.48
542.129	11006.62
542.494	10964.36
542.858	10916.22
543.223	10872.16
543.587	10756.45
543.952	10731.37
544.316	10747.19
544.681	10653.18
545.045	10576.8
545.41	10626.29
545.774	10547.42
546.138	10504.48
546.503	10450.93
546.867	10421.55
547.231	10365.05
547.595	10314.21
547.959	10302
548.324	10234.43
548.688	10159.18
549.052	10144.49
549.416	10149.01
549.779	10072.86
550.143	9979.75
550.507	10003.71
550.871	9952.18
551.235	9878.06
551.599	9881
551.962	9890.94
552.326	9726.65
552.689	9722.58
553.053	9648.24
553.417	9605.52
553.78	9683.94
554.143	9590.38
554.507	9615.69
554.87	9526.88
555.234	9549.93
555.597	9478.07
555.96	9409.82
556.323	9368.92
556.686	9343.61
557.05	9375.47
557.413	9354.01
557.776	9312.88
558.139	9311.29
558.502	9312.2
558.865	9209.83
559.228	9226.1
559.59	9201.02
559.953	9177.96
560.316	9260
560.679	9182.03
561.041	9183.61
561.404	9123.96
561.767	9157.63
562.129	9050.28
562.492	9136.38
562.854	9085.31
563.217	9105.2
563.579	9031.53
563.941	9084.63
564.304	9048.25
564.666	9087.12
565.028	9013.22
565.39	9043.05
565.753	9020.45
566.115	9055.71
566.477	9016.61
566.839	9059.78
567.201	9015.71
567.563	8963.51
567.925	9014.81
568.287	9019.1
568.648	9024.07
569.01	9031.53
569.372	9084.63
569.734	9038.53
570.095	8955.82
570.457	9091.19
570.819	8985.2
571.18	8928.48
571.542	8997.4
571.903	8950.63
572.265	8996.5
572.626	9024.52
572.987	9020.91
573.349	9028.36
573.71	9060.91
574.071	9004.18
574.432	9036.95
574.794	9069.72
575.155	9028.82
575.516	8981.81
575.877	9055.93
576.238	8966.9
576.599	9058.87
576.96	9005.09
577.32	9007.35
577.681	8989.27
578.042	9019.32
578.403	8999.44
578.763	8999.66
579.124	9017.52
579.485	9014.81
579.845	9052.77
580.206	9004.86
580.566	8925.99
580.927	8991.3
581.287	8986.78
581.648	8960.57
582.008	8939.1
582.368	8972.09
582.728	9004.41
583.089	8933.9
583.449	8877.18
583.809	8876.5
584.169	8907.46
584.529	8919.89
584.889	8927.58
585.249	8803.74
585.609	8792.21
585.969	8874.7
586.329	8871.98
586.688	8851.42
587.048	8856.39
587.408	8832.89
587.768	8800.57
588.127	8803.96
588.487	8786.11
588.846	8838.31
589.206	8744.76
589.565	8726.9
589.925	8767.58
590.284	8819.56
590.643	8782.27
591.003	8760.35
591.362	8755.15
591.721	8826.56
592.08	8779.33
592.44	8707.92
592.799	8780.46
593.158	8768.94
593.517	8732.78
593.876	8702.72
594.235	8645.78
594.593	8681.48
594.952	8684.42
595.311	8664.53
595.67	8655.49
596.029	8681.03
596.387	8679.9
596.746	8660.46
597.104	8646.68
597.463	8592.9
597.822	8617.53
598.18	8564.2
598.538	8589.05
598.897	8614.14
599.255	8622.95
599.613	8631.31
599.972	8624.99
600.33	8586.34
600.688	8568.49
601.046	8570.3
601.404	8616.85
601.762	8627.24
602.12	8615.72
602.478	8599
602.836	8626.11
603.194	8540.69
603.552	8632.44
603.91	8521.26
604.268	8549.51
604.625	8497.53
604.983	8552.22
605.341	8508.6
605.698	8646.68
606.056	8584.08
606.413	8566.91
606.771	8570.98
607.128	8555.38
607.485	8595.38
607.843	8568.04
608.2	8578.88
608.557	8698.66
608.914	8572.56
609.272	8558.32
609.629	8616.85
609.986	8706.56
610.343	8580.01
610.7	8679.9
611.057	8647.13
611.414	8590.64
611.771	8676.06
612.127	8606.68
612.484	8678.09
612.841	8662.72
613.198	8617.98
613.554	8632.22
613.911	8698.43
614.267	8690.07
614.624	8643.74
614.98	8618.88
615.337	8701.37
615.693	8660.92
616.05	8625.44
616.406	8702.5
616.762	8656.17
617.118	8682.16
617.475	8640.35
617.831	8681.71
618.187	8738.43
618.543	8709.28
618.899	8727.81
619.255	8674.02
619.611	8715.15
619.967	8710.18
620.323	8735.04
620.678	8736.39
621.034	8756.06
621.39	8674.02
621.746	8687.36
622.101	8744.08
622.457	8693.01
622.812	8710.41
623.168	8692.33
623.523	8740.69
623.879	8751.31
624.234	8663.18
624.589	8715.6
624.945	8778.88
625.3	8680.35
625.655	8702.5
626.01	8705.21
626.365	8701.14
626.72	8697.75
627.075	8716.06
627.43	8654.81
627.785	8703.18
628.14	8710.41
628.495	8619.11
628.85	8646.91
629.205	8611.43
629.559	8616.17
629.914	8612.56
630.269	8662.05
630.623	8566.23
630.978	8637.87
631.332	8592.22
631.687	8721.03
632.041	8568.72
632.396	8658.66
632.75	8576.62
633.104	8621.37
633.459	8508.83
633.813	8558.55
634.167	8511.54
634.521	8517.19
634.875	8485.33
635.229	8497.3
635.583	8479
635.937	8476.06
636.291	8477.19
636.645	8520.81
636.999	8387.7
637.352	8510.86
637.706	8435.16
638.06	8499.79
638.413	8383.86
638.767	8415.73
639.121	8364.88
639.474	8367.14
639.828	8356.07
640.181	8427.93
640.534	8330.98
640.888	8306.58
641.241	8302.96
641.594	8284.66
641.947	8369.62
642.301	8290.76
642.654	8275.62
643.007	8322.85
643.36	8311.55
643.713	8329.17
644.066	8389.74
644.419	8292.11
644.771	8264.54
645.124	8108.16
645.477	8109.97
645.83	8170.31
646.182	8095.28
646.535	8070.88
646.888	8093.25
647.24	8015.28
647.593	8078.56
647.945	8024.1
648.298	8040.14
648.65	8003.76
649.002	7996.53
649.355	7960.37
649.707	7990.2
650.059	8052.34
650.411	8143.19
650.763	8181.83
651.115	8198.78
651.467	8219.8
651.819	8209.63
652.171	8274.71
652.523	8183.41
652.875	8153.13
653.227	8172.57
653.578	8239.68
653.93	8203.53
654.282	8199.46
654.633	8221.15
654.985	8135.51
655.337	8180.7
655.688	8206.92
656.039	8158.1
656.391	8177.77
656.742	8218.22
657.094	8173.7
657.445	8196.52
657.796	8182.74
658.147	8181.38
658.498	8236.29
658.849	8241.72
659.2	8227.48
659.551	8245.11
659.902	8235.39
660.253	8186.8
660.604	8236.75
660.955	8185.67
661.306	8203.08
661.656	8208.5
662.007	8279.91
662.358	8288.72
662.708	8307.93
663.059	8274.49
663.409	8222.51
663.76	8221.38
664.11	8268.16
664.461	8271.1
664.811	8241.94
665.161	8271.32
665.511	8272.68
665.862	8201.49
666.212	8288.27
666.562	8261.38
666.912	8275.16
667.262	8215.73
667.612	8299.12
667.962	8328.5
668.312	8261.38
668.662	8295.5
669.011	8265.22
669.361	8241.49
669.711	8254.6
670.06	8241.49
670.41	8237.65
670.76	8256.18
671.109	8219.35
671.459	8233.36
671.808	8234.94
672.157	8269.51
672.507	8156.52
672.856	8191.55
673.205	8125.79
673.554	8239.68
673.904	8196.75
674.253	8194.71
674.602	8133.25
674.951	8013.25
675.3	8084.21
675.649	8169.86
675.998	8136.86
676.346	8128.73
676.695	8163.08
677.044	8101.61
677.393	8144.32
677.741	8078.78
678.09	8128.5
678.438	8050.76
678.787	8069.97
679.135	8057.54
679.484	8004.89
679.832	8041.5
680.181	7963.31
680.529	8052.34
680.877	7977.77
681.225	7942.52
681.573	8010.09
681.922	7991.56
682.27	7938.22
682.618	7977.77
682.966	7910.65
683.314	7927.6
683.661	7873.14
684.009	7851.45
684.357	7781.17
684.705	7857.1
685.053	7807.61
685.4	7781.39
685.748	7844.67
686.095	7704.78
686.443	7732.58
686.79	7732.35
687.138	7674.73
687.485	7645.12
687.832	7732.13
688.18	7674.95
688.527	7580.04
688.874	7617.1
689.221	7568.52
689.568	7532.81
689.915	7540.95
690.262	7514.28
690.609	7473.83
690.956	7498.46
691.303	7475.86
691.65	7409.65
691.997	7431.34
692.344	7418.46
692.69	7368.52
693.037	7349.76
693.383	7285.13
693.73	7321.29
694.077	7245.13
694.423	7213.27
694.769	7229.99
695.116	7195.64
695.462	7151.35
695.808	7151.8
696.155	7089.66
696.501	7052.37
696.847	6999.94
697.193	7053.73
697.539	7020.73
697.885	7006.95
698.231	6913.62
698.577	6922.43
698.923	6922.43
699.269	6837.01
699.614	6764.02
699.96	6834.75
700.306	6804.47
700.651	6702.55
700.997	6832.94
701.342	6761.31
701.688	6768.99
702.033	6695.09
702.379	6696.9
702.724	6641.53
703.069	6667.07
703.415	6540.07
703.76	6552.05
704.105	6604.7
704.45	6543.23
704.795	6535.77
705.14	6498.49
705.485	6508.2
705.83	6438.83
706.175	6467.53
706.52	6409
706.865	6375.33
707.209	6356.34
707.554	6338.94
707.899	6338.94
708.243	6356.12
708.588	6297.36
708.932	6256.01
709.277	6254.43
709.621	6259.85
709.966	6220.3
710.31	6168.55
710.654	6183.02
710.998	6213.75
711.342	6235.9
711.687	6187.08
712.031	6107.99
712.375	6141.43
712.719	6115.22
713.063	6073.87
713.407	6122.68
713.75	6074.77
714.094	6063.92
714.438	6055.79
714.782	6047.43
715.125	6035.67
715.469	6042.23
715.812	5974.89
716.156	5962.91
716.499	5976.69
716.843	5971.5
717.186	5933.53
717.53	6000.87
717.873	5980.53
718.216	5971.04
718.559	5933.76
718.902	5884.72
719.246	5922.23
719.589	5884.72
719.932	5910.93
720.275	5868
720.617	5836.58
720.96	5905.73
721.303	5873.64
721.646	5861.22
721.989	5833.19
722.331	5933.76
722.674	5851.95
723.016	5812.86
723.359	5852.4
723.701	5847.66
724.044	5830.93
724.386	5757.94
724.729	5849.46
725.071	5833.42
725.413	5818.73
725.755	5808.79
726.097	5762.91
726.439	5750.03
726.782	5764.5
727.124	5766.08
727.465	5753.65
727.807	5753.65
728.149	5736.25
728.491	5720.43
728.833	5715.46
729.175	5768.79
729.516	5749.35
729.858	5755
730.199	5755.23
730.541	5744.61
730.882	5758.17
731.224	5801.33
731.565	5757.26
731.906	5790.26
732.248	5784.83
732.589	5742.12
732.93	5753.87
733.271	5718.39
733.612	5755.46
733.953	5782.12
734.294	5722.91
734.635	5741.45
734.976	5792.07
735.317	5751.84
735.658	5778.51
735.999	5810.37
736.339	5718.62
736.68	5777.6
737.021	5758.17
737.361	5727.66
737.702	5787.09
738.042	5760.65
738.383	5811.5
738.723	5798.39
739.063	5801.56
739.404	5833.65
739.744	5859.63
740.084	5832.97
740.424	5865.96
740.764	5890.14
741.104	5865.51
741.444	5853.31
741.784	5855.79
742.124	5940.31
742.464	5932.63
742.804	5991.83
743.143	5964.26
743.483	5976.24
743.823	5973.53
744.162	6008.1
744.502	6088.78
744.841	6065.96
745.181	6124.71
745.52	6073.41
745.86	6181.89
746.199	6219.17
746.538	6227.08
746.877	6319.96
747.216	6306.63
747.556	6358.15
747.895	6432.73
748.234	6432.73
748.573	6507.53
748.911	6499.39
749.25	6644.92
749.589	6660.97
749.928	6716.11
750.267	6783.68
750.605	6828.87
750.944	6949.32
751.283	7022.99
751.621	7052.15
751.96	7084.69
752.298	7245.36
752.636	7361.74
752.975	7429.99
753.313	7463.21
753.651	7588.18
753.989	7711.56
754.327	7831.56
754.666	7930.09
755.004	8037.43
755.342	8180.48
755.679	8318.55
756.017	8404.2
756.355	8597.64
756.693	8697.07
757.031	8878.31
757.368	8950.17
757.706	9093.22
758.044	9235.82
758.381	9443.95
758.719	9557.62
759.056	9751.28
759.394	9856.82
759.731	10049.58
760.068	10223.59
760.405	10296.35
760.743	10514.2
761.08	10662.45
761.417	10815.21
761.754	11045.71
762.091	11230.79
762.428	11418.13
762.765	11474.18
763.102	11709.88
763.438	11784
763.775	12015.63
764.112	12200.26
764.449	12505.11
764.785	12585.11
765.122	12645.9
765.458	12842.28
765.795	12941.03
766.131	13243.85
766.467	13357.74
766.804	13461.24
767.14	13632.09
767.476	13772.87
767.812	13830.05
768.148	14076.14
768.485	14160.66
768.821	14203.14
769.157	14445.85
769.492	14670.25
769.828	14769.46
770.164	14810.59
770.5	14951.15
770.836	15129.9
771.171	15157.24
771.507	15372.83
771.842	15304.81
772.178	15550
772.513	15597.46
772.849	15728.98
773.184	15756.32
773.519	15919.71
773.855	16033.83
774.19	16049.87
774.525	16133.49
774.86	16211.45
775.195	16375.29
775.53	16395.85
775.865	16413.25
776.2	16469.52
776.535	16373.48
776.87	16587.94
777.205	16537.55
777.539	16698.45
777.874	16803.08
778.209	16681.5
778.543	16794.26
778.878	16853.02
779.212	16916.29
779.547	16842.62
779.881	16998.1
780.215	16910.19
780.55	16950.87
780.884	17063.18
781.218	17040.81
781.552	17172.78
781.886	17263.4
782.22	17051.88
782.554	17109.28
782.888	16953.58
783.222	17056.18
783.556	17036.29
783.889	17072.45
784.223	17013.24
784.557	17034.03
784.89	17151.31
785.224	17061.37
785.557	17003.75
785.891	16990.87
786.224	17080.13
786.558	17039.45
786.891	16998.55
787.224	16941.15
787.557	16948.61
787.891	16911.55
788.224	16983.18
788.557	16961.04
788.89	16966.46
789.223	16938.44
789.556	16868.61
789.888	16836.52
790.221	16906.58
790.554	16843.75
790.887	16765.11
791.219	16821.38
791.552	16744.09
791.884	16737.31
792.217	16593.82
792.549	16706.35
792.882	16624.77
793.214	16504.1
793.546	16660.25
793.879	16477.89
794.211	16528.05
794.543	16700.93
794.875	16555.17
795.207	16580.26
795.539	16533.93
795.871	16542.74
796.203	16328.51
796.535	16338.23
796.867	16251.68
797.198	16280.15
797.53	16249.42
797.862	16146.14
798.193	16256.42
798.525	16201.06
798.856	16135.97
799.188	16027.05
799.519	15939.82
799.85	15930.78
800.182	16011.91
800.513	15954.74
800.844	15836.09
801.175	16001.97
801.506	15940.95
801.837	15722.2
802.168	15705.93
802.499	15692.14
802.83	15760.39
803.161	15697.57
803.491	15735.31
803.822	15649.89
804.153	15590.23
804.483	15435.65
804.814	15547.51
805.145	15453.51
805.475	15519.95
805.805	15387.75
806.136	15370.8
806.466	15345.49
806.796	15308.65
807.126	15192.95
807.457	15229.33
807.787	15284.7
808.117	15185.94
808.447	15108.43
808.777	15137.13
809.107	15095.78
809.436	15065.04
809.766	15025.49
810.096	14936.46
810.426	14923.35
810.755	14983.01
811.085	14965.38
811.414	14867.31
811.744	14857.59
812.073	14813.52
812.403	14784.6
812.732	14762
813.061	14747.08
813.39	14680.42
813.719	14590.48
814.049	14764.03
814.378	14641.32
814.707	14569.69
815.036	14633.41
815.365	14494.44
815.693	14486.75
816.022	14526.07
816.351	14462.35
816.68	14339.19
817.008	14458.96
817.337	14307.77
817.665	14261.22
817.994	14339.64
818.322	14306.64
818.651	14236.14
818.979	14242.24
819.307	14260.54
819.636	14157.95
819.964	14186.19
820.292	14250.6
820.62	14263.48
820.948	14178.51
821.276	14188
821.604	14141.45
821.932	14133.09
822.259	14228.45
822.587	14141.68
822.915	14118.85
823.243	14126.08
823.57	14078.85
823.898	14101.23
824.225	14026.65
824.553	13995.24
824.88	14056.93
825.207	14187.32
825.535	14225.06
825.862	14110.72
826.189	14058.74
826.516	14140.77
826.843	14183.71
827.17	14142.13
827.497	14213.99
827.824	14148.23
828.151	14206.76
828.478	14220.09
828.805	14225.74
829.131	14128.34
829.458	14147.78
829.785	14083.6
830.111	14103.49
830.438	14253.09
830.764	14075.69
831.09	14256.02
831.417	14114.56
831.743	14173.77
832.069	14155.24
832.395	14122.02
832.722	14203.37
833.048	14091.96
833.374	14049.7
833.7	14029.81
834.026	14049.7
834.351	14113.88
834.677	14039.53
835.003	14117.5
835.329	14092.86
835.654	14000.89
835.98	13984.17
836.306	14027.55
836.631	13851.51
836.956	13968.8
837.282	14000.21
837.607	13891.29
837.932	13833.66
838.258	13916.82
838.583	13913.21
838.908	13839.31
839.233	13808.58
839.558	13783.04
839.883	13719.31
840.208	13633.67
840.533	13689.71
840.858	13719.99
841.182	13717.51
841.507	13720.9
841.832	13582.37
842.156	13630.96
842.481	13577.85
842.805	13579.21
843.13	13535.59
843.454	13416.95
843.778	13473.45
844.103	13363.39
844.427	13368.14
844.751	13404.52
845.075	13368.36
845.399	13229.38
845.723	13202.27
846.047	13251.53
846.371	13237.52
846.695	13111.19
847.019	12974.48
847.343	12956.62
847.666	12892.67
847.99	12831.65
848.313	12829.85
848.637	12749.17
848.96	12715.5
849.284	12714.14
849.607	12626.01
849.931	12535.39
850.254	12511.89
850.577	12455.39
850.9	12378.56
851.223	12347.83
851.546	12327.49
851.869	12241.39
852.192	12274.61
852.515	12132.69
852.838	12141.95
853.161	12132.01
853.483	12088.4
853.806	11973.37
854.129	12058.12
854.451	11957.55
854.774	11929.98
855.096	11862.87
855.419	11911.45
855.741	11822.87
856.063	11758.01
856.385	11733.6
856.708	11671.46
857.03	11571.12
857.352	11714.85
857.674	11616.77
857.996	11571.8
858.318	11504.91
858.64	11541.52
858.961	11482.09
859.283	11421.3
859.605	11369.32
859.926	11405.02
860.248	11302.2
860.57	11282.99
860.891	11337.23
861.212	11232.6
861.534	11248.87
861.855	11206.16
862.176	11170.45
862.498	11104.92
862.819	11152.83
863.14	11098.14
863.461	11088.88
863.782	11061.08
864.103	11064.47
864.424	11039.16
864.745	11034.41
865.065	10967.3
865.386	10899.05
865.707	10922.55
866.027	10923.91
866.348	10925.49
866.668	10908.31
866.989	10888.65
867.309	10739.51
867.63	10840.52
867.95	10808.43
868.27	10755.1
868.59	10761.65
868.91	10735.21
869.23	10716.91
869.55	10655.44
869.87	10779.05
870.19	10721.2
870.51	10685.72
870.83	10723.46
871.15	10640.98
871.469	10617.7
871.789	10621.32
872.109	10647.53
872.428	10551.26
872.748	10542.45
873.067	10565.73
873.386	10581.32
873.706	10545.16
874.025	10417.03
874.344	10550.58
874.663	10515.56
874.982	10457.93
875.301	10511.26
875.62	10468.78
875.939	10379.52
876.258	10352.62
876.577	10312.62
876.896	10325.73
877.214	10269.01
877.533	10331.61
877.852	10314.43
878.17	10220.2
878.489	10232.4
878.807	10252.96
879.125	10229.69
879.444	10204.6
879.762	10189.01
880.08	10205.51
880.398	10132.97
880.716	10185.17
881.034	10097.49
881.352	10110.14
881.67	10085.96
881.988	10015.46
882.306	9999.86
882.624	10034.89
882.941	9946.76
883.259	9968.68
883.577	9895.23
883.894	9911.28
884.212	9946.98
884.529	9838.96
884.846	9833.09
885.164	9860.21
885.481	9777.72
885.798	9801
886.115	9711.51
886.432	9742.02
886.75	9752.41
887.067	9640.78
887.383	9697.73
887.7	9629.93
888.017	9598.07
888.334	9653.88
888.651	9609.14
888.967	9594.68
889.284	9495.47
889.6	9478.3
889.917	9415.92
890.233	9498.18
890.55	9354.01
890.866	9424.29
891.182	9359.43
891.498	9346.1
891.815	9293.89
892.131	9313.78
892.447	9224.97
892.763	9224.74
893.079	9163.28
893.395	9171.86
893.71	9127.34
894.026	9138.19
894.342	9079.21
894.657	9006.44
894.973	9027.46
895.289	9020.91
895.604	9001.02
895.92	8888.25
896.235	8904.07
896.55	8891.87
896.865	8849.84
897.181	8822.04
897.496	8847.8
897.811	8748.6
898.126	8710.41
898.441	8650.52
898.756	8679.45
899.071	8611.88
899.386	8651.2
899.7	8545.44
900.015	8558.55
900.33	8449.4
900.644	8480.13
900.959	8397.42
901.273	8458.21
901.588	8367.14
901.902	8340.25
902.216	8321.26
902.531	8240.81
902.845	8272.9
903.159	8194.49
903.473	8206.69
903.787	8144.09
904.101	8104.55
904.415	8111.33
904.729	8081.72
905.042	7995.85
905.356	7990.2
905.67	8004.44
905.984	8017.09
906.297	7904.78
906.611	7916.08
906.924	7782.52
907.237	7849.64
907.551	7833.82
907.864	7783.65
908.177	7748.85
908.491	7668.17
908.804	7667.95
909.117	7567.84
909.43	7562.19
909.743	7536.65
910.056	7502.98
910.368	7485.35
910.681	7486.94
910.994	7526.26
911.307	7411.01
911.619	7351.35
911.932	7361.06
912.244	7334.17
912.557	7303.44
912.869	7245.13
913.181	7260.5
913.494	7234.51
913.806	7083.78
914.118	7145.7
914.43	7080.62
914.742	7120.62
915.054	7059.83
915.366	6991.81
915.678	6983.9
915.99	7001.75
916.302	6966.95
916.613	6854.86
916.925	6865.26
917.236	6895.77
917.548	6826.16
917.859	6858.93
918.171	6783
918.482	6780.06
918.794	6693.06
919.105	6701.87
919.416	6686.5
919.727	6604.02
920.038	6672.04
920.349	6601.31
920.66	6525.15
920.971	6495.78
921.282	6557.02
921.593	6514.08
921.903	6481.76
922.214	6403.35
922.525	6394.31
922.835	6345.95
923.146	6326.74
923.456	6283.58
923.767	6316.8
924.077	6286.29
924.387	6250.13
924.697	6251.71
925.008	6165.61
925.318	6160.42
925.628	6147.31
925.938	6157.03
926.248	6067.76
926.558	6080.87
926.867	6062.34
927.177	6045.84
927.487	5986.64
927.796	5948.9
928.106	5909.58
928.416	5917.94
928.725	5868.9
929.034	5870.71
929.344	5853.08
929.653	5873.19
929.962	5790.03
930.271	5785.74
930.581	5768.79
930.89	5744.83
931.199	5696.7
931.508	5679.07
931.817	5726.53
932.125	5658.51
932.434	5641.56
932.743	5571.51
933.051	5599.53
933.36	5576.48
933.669	5474.56
933.977	5496.25
934.286	5446.99
934.594	5526.76
934.902	5440.21
935.21	5430.04
935.519	5383.94
935.827	5359.99
936.135	5370.16
936.443	5339.42
936.751	5327.67
937.059	5311.17
937.367	5249.25
937.674	5280.44
937.982	5225.3
938.29	5225.98
938.597	5175.81
938.905	5157.73
939.213	5143.49
939.52	5128.13
939.827	5076.83
940.135	5059.43
940.442	5000.9
940.749	5038.41
941.056	5064.63
941.363	4958.41
941.67	4961.35
941.977	4952.09
942.284	4957.28
942.591	4918.19
942.898	4887
943.205	4840
943.511	4853.11
943.818	4820.57
944.125	4770.4
944.431	4773.11
944.738	4790.96
945.044	4708.93
945.35	4696.73
945.657	4664.19
945.963	4652.89
946.269	4677.29
946.575	4614.24
946.881	4575.37
947.187	4629.38
947.493	4593
947.799	4558.43
948.105	4532.44
948.41	4473
948.716	4494.02
949.022	4469.39
949.327	4452.21
949.633	4414.47
949.938	4423.29
950.244	4442.95
950.549	4377.41
950.854	4346.23
951.16	4352.1
951.465	4320.69
951.77	4269.39
952.075	4301.03
952.38	4281.37
952.685	4265.33
952.99	4284.31
953.294	4280.47
953.599	4177.87
953.904	4224.2
954.209	4160.02
954.513	4148.94
954.818	4106.01
955.122	4093.35
955.426	4117.31
955.731	4075.27
956.035	4049.29
956.339	4017.65
956.643	4048.38
956.948	4018.33
957.252	3998.67
957.556	3954.6
957.86	3951.21
958.163	3935.62
958.467	3920.48
958.771	3885.22
959.075	3862.62
959.378	3877.54
959.682	3882.06
959.985	3874.38
960.289	3835.73
960.592	3803.42
960.896	3781.95
961.199	3755.51
961.502	3789.63
961.805	3748.96
962.108	3700.37
962.411	3713.93
962.714	3650.88
963.017	3691.56
963.32	3663.99
963.623	3657.21
963.926	3624.44
964.228	3617.89
964.531	3600.71
964.833	3635.96
965.136	3582.63
965.438	3550.77
965.741	3510.32
966.043	3535.4
966.345	3567.94
966.648	3496.98
966.95	3492.69
967.252	3436.42
967.554	3457.44
967.856	3429.42
968.158	3353.94
968.46	3416.53
968.761	3412.01
969.063	3341.28
969.365	3349.64
969.666	3388.74
969.968	3321.4
970.269	3322.98
970.571	3290.21
970.872	3288.63
971.174	3257.44
971.475	3259.93
971.776	3254.28
972.077	3184.45
972.378	3201.85
972.679	3190.33
972.98	3223.55
973.281	3166.37
973.582	3164.56
973.883	3137.22
974.183	3160.5
974.484	3125.92
974.785	3126.6
975.085	3105.81
975.386	3105.36
975.686	3090.67
975.986	3051.35
976.287	3040.73
976.587	3034.17
976.887	3007.96
977.187	2996.21
977.487	2967.96
977.787	2948.75
978.087	2965.92
978.387	2920.28
978.687	2938.58
978.987	2888.86
979.286	2901.97
979.586	2912.82
979.885	2887.96
980.185	2867.85
980.484	2863.78
980.784	2841.18
981.083	2835.98
981.382	2859.03
981.682	2817.23
981.981	2799.38
982.28	2780.39
982.579	2762.77
982.878	2740.39
983.177	2740.39
983.475	2745.37
983.774	2708.98
984.073	2690.45
984.372	2679.38
984.67	2688.42
984.969	2707.63
985.267	2676.44
985.566	2647.97
985.864	2608.65
986.162	2596.67
986.461	2627.85
986.759	2590.12
987.057	2581.08
987.355	2559.38
987.653	2573.39
987.951	2550.79
988.249	2534.75
988.547	2538.82
988.844	2517.58
989.142	2501.53
989.44	2468.54
989.737	2519.16
990.035	2478.93
990.332	2460.4
990.63	2436.9
990.927	2448.88
991.224	2451.81
991.521	2424.02
991.819	2413.85
992.116	2399.39
992.413	2400.06
992.71	2358.71
993.006	2365.94
993.303	2349.9
993.6	2347.41
993.897	2318.94
994.193	2309.22
994.49	2301.54
994.787	2296.34
995.083	2280.97
995.379	2270.58
995.676	2269.22
995.972	2252.95
996.268	2222.67
996.565	2198.49
996.861	2205.72
997.157	2218.83
997.453	2186.51
997.749	2176.34
998.044	2177.47
998.34	2171.14
998.636	2184.93
998.932	2153.29
999.227	2122.11
999.523	2110.35
999.818	2124.37
1000.114	2082.78
1000.409	2058.83
1000.704	2087.3
1001	2071.26
1001.295	2059.73
1001.59	2027.42
1001.885	2025.61
1002.18	2006.4
1002.475	1982.9
1002.77	1994.2
1003.065	2010.7
1003.359	1970.02
1003.654	1942.9
1003.949	1936.57
1004.243	1972.05
1004.538	1946.97
1004.832	1919.17
1005.127	1908.78
1005.421	1898.61
1005.715	1869.23
1006.009	1889.34
1006.304	1863.58
1006.598	1856.35
1006.892	1847.76
1007.186	1828.78
1007.48	1832.62
1007.773	1784.04
1008.067	1783.36
1008.361	1783.13
1008.655	1779.06
1008.948	1751.72
1009.242	1798.72
1009.535	1744.04
1009.829	1734.09
1010.122	1710.14
1010.415	1699.07
1010.708	1715.11
1011.001	1710.82
1011.295	1709.69
1011.588	1709.01
1011.881	1689.12
1012.173	1694.32
1012.466	1615.9
1012.759	1659.52
1013.052	1632.4
1013.344	1638.5
1013.637	1586.53
1013.93	1598.05
1014.222	1575.68
1014.514	1589.01
1014.807	1581.33
1015.099	1565.74
1015.391	1564.38
1015.683	1528.9
1015.976	1565.06
1016.268	1542.23
1016.56	1544.95
1016.851	1490.94
1017.143	1502.01
1017.435	1463.37
1017.727	1493.2
1018.018	1459.75
1018.31	1445.06
1018.602	1450.48
1018.893	1448.68
1019.185	1458.85
1019.476	1432.41
1019.767	1452.74
1020.058	1411.84
1020.35	1396.25
1020.641	1366.42
1020.932	1355.8
1021.223	1346.08
1021.514	1355.12
1021.804	1348.11
1022.095	1372.29
1022.386	1334.1
1022.677	1343.37
1022.967	1332.3
1023.258	1314.89
1023.548	1300.88
1023.839	1316.93
1024.129	1296.82
1024.419	1304.27
1024.709	1270.38
1025	1261.34
1025.29	1267.21
1025.58	1248.68
1025.87	1219.53
1026.16	1245.29
1026.449	1236.25
1026.739	1246.65
1027.029	1229.93
1027.319	1214.11
1027.608	1169.81
1027.898	1188.8
1028.187	1204.16
1028.477	1154
1028.766	1182.69
1029.055	1139.31
1029.344	1159.19
1029.634	1125.75
1029.923	1115.58
1030.212	1106.54
1030.501	1111.96
1030.79	1092.3
1031.078	1114.22
1031.367	1079.65
1031.656	1094.79
1031.945	1091.17
1032.233	1074.22
1032.522	1079.19
1032.81	1058.86
1033.099	1049.14
1033.387	1078.06
1033.675	1035.58
1033.963	1036.94
1034.251	1028.8
1034.54	1026.09
1034.828	1028.8
1035.116	989.71
1035.403	997.39
1035.691	987.45
1035.979	1008.46
1036.267	991.06
1036.554	957.62
1036.842	978.86
1037.129	964.85
1037.417	970.5
1037.704	951.74
1037.992	930.95
1038.279	914
1038.566	923.94
1038.853	923.94
1039.14	923.94
