Data from hue_140_FLMS001491_00089.txt Node
Date: Tue Feb 07 16:56:32 GMT 2017
User: dcchb
Spectrometer: FLMS00149
Trigger mode: 0
Integration Time (sec): 2.000000E-2
Scans to average: 10
Electric dark correction enabled: true
Nonlinearity correction enabled: false
Boxcar width: 0
XAxis mode: Wavelengths
Number of Pixels in Spectrum: 2048
>>>>>Begin Spectral Data<<<<<
341.393	-8.08
341.776	-8.08
342.16	-8.08
342.543	-63.22
342.927	-63.22
343.31	-86.72
343.693	-74.07
344.077	-61.41
344.46	-64.12
344.843	-46.5
345.226	-34.52
345.61	-22.99
345.993	-11.47
346.376	5.48
346.759	19.27
347.142	42.77
347.525	39.38
347.908	46.38
348.291	49.55
348.674	85.48
349.057	113.5
349.44	147.62
349.823	134.97
350.206	176.32
350.588	186.49
350.971	210.45
351.354	209.99
351.737	238.47
352.119	224.01
352.502	264.68
352.884	271.91
353.267	265.59
353.65	291.57
354.032	305.36
354.414	302.87
354.797	308.75
355.179	333.16
355.562	317.56
355.944	333.38
356.326	318.01
356.709	346.04
357.091	335.64
357.473	327.28
357.855	334.74
358.238	333.16
358.62	325.7
359.002	351.91
359.384	352.82
359.766	324.12
360.148	364.11
360.53	345.13
360.912	327.05
361.294	328.86
361.676	333.38
362.057	335.41
362.439	337.45
362.821	319.14
363.203	341.97
363.584	329.54
363.966	338.58
364.348	329.09
364.729	317.79
365.111	320.27
365.493	327.05
365.874	314.17
366.256	300.84
366.637	330.44
367.019	320.5
367.4	308.07
367.781	315.98
368.163	333.61
368.544	304.91
368.925	313.04
369.306	316.43
369.688	301.74
370.069	327.96
370.45	308.75
370.831	302.2
371.212	299.71
371.593	294.74
371.974	312.82
372.355	304.46
372.736	328.18
373.117	297.22
373.498	317.34
373.879	311.91
374.26	319.82
374.641	319.37
375.021	311.46
375.402	323.89
375.783	332.93
376.163	296.77
376.544	318.47
376.925	323.44
377.305	320.5
377.686	345.13
378.066	328.86
378.447	330.22
378.827	324.79
379.208	308.52
379.588	332.25
379.968	318.92
380.349	316.88
380.729	333.61
381.109	345.58
381.489	348.07
381.87	332.25
382.25	332.03
382.63	348.75
383.01	338.58
383.39	346.49
383.77	356.43
384.15	324.79
384.53	329.54
384.91	361.4
385.29	353.72
385.67	334.51
386.049	357.34
386.429	360.5
386.809	342.65
387.189	352.82
387.568	352.82
387.948	347.62
388.328	340.16
388.707	351.23
389.087	356.43
389.466	369.99
389.846	356.88
390.225	364.57
390.605	344.23
390.984	339.48
391.363	377.67
391.743	380.84
392.122	366.83
392.501	358.47
392.881	381.52
393.26	360.05
393.639	373.61
394.018	387.62
394.397	363.21
394.776	382.19
395.155	367.73
395.534	374.06
395.913	380.84
396.292	388.07
396.671	370.89
397.05	361.18
397.429	370.22
397.808	380.84
398.186	367.96
398.565	397.11
398.944	392.59
399.323	373.83
399.701	383.55
400.08	385.81
400.458	399.14
400.837	377.45
401.215	401.85
401.594	396.66
401.972	408.63
402.351	411.35
402.729	395.3
403.107	408.41
403.486	401.63
403.864	409.31
404.242	396.2
404.62	417.45
404.999	412.93
405.377	424.45
405.755	426.71
406.133	435.98
406.511	417.45
406.889	411.8
407.267	409.76
407.645	433.72
408.023	428.29
408.401	415.19
408.779	428.75
409.156	436.66
409.534	436.2
409.912	450.67
410.29	428.29
410.667	454.51
411.045	459.93
411.422	470.55
411.8	472.36
412.178	461.74
412.555	469.87
412.933	454.96
413.31	476.65
413.687	483.66
414.065	471.91
414.442	479.82
414.819	471
415.197	464.9
415.574	450.44
415.951	476.2
416.328	462.87
416.705	487.5
417.082	487.95
417.46	503.09
417.837	483.66
418.214	492.25
418.591	490.89
418.967	508.52
419.344	507.16
419.721	501.74
420.098	527.95
420.475	516.88
420.852	509.87
421.228	512.59
421.605	534.96
421.982	522.08
422.358	547.84
422.735	554.84
423.111	549.42
423.488	550.55
423.864	538.57
424.241	541.51
424.617	554.17
424.994	544.9
425.37	582.87
425.746	560.72
426.123	580.38
426.499	563.21
426.875	565.69
427.251	595.52
427.627	590.55
428.003	584.67
428.379	603.2
428.756	571.34
429.132	593.26
429.507	599.14
429.883	576.99
430.259	604.11
430.635	618.12
431.011	643.43
431.387	614.73
431.763	609.98
432.138	618.57
432.514	677.1
432.89	660.15
433.265	658.34
433.641	667.16
434.016	649.53
434.392	661.28
434.767	674.84
435.143	666.93
435.518	687.5
435.894	676.2
436.269	694.05
436.644	690.43
437.02	712.81
437.395	693.6
437.77	722.07
438.145	697.44
438.52	735.18
438.895	734.73
439.271	728.85
439.646	756.65
440.021	739.25
440.395	751.45
440.77	754.16
441.145	756.42
441.52	766.36
441.895	781.73
442.27	778.34
442.645	788.28
443.019	798.91
443.394	812.24
443.769	816.53
444.143	814.27
444.518	794.84
444.892	829.41
445.267	818.34
445.641	808.4
446.016	835.06
446.39	819.7
446.764	832.35
447.139	835.06
447.513	849.75
447.887	855.63
448.262	853.14
448.636	862.63
449.01	885
449.384	874.84
449.758	868.51
450.132	894.27
450.506	884.1
450.88	887.26
451.254	891.11
451.628	914.16
452.002	929.75
452.376	925
452.75	940.14
453.123	944.66
453.497	948.51
453.871	944.89
454.244	944.66
454.618	972.46
454.992	979.24
455.365	1004.1
455.739	983.99
456.112	1021.5
456.486	1030.76
456.859	1048.62
457.232	1056.07
457.606	1059.24
457.979	1074.15
458.352	1112.34
458.725	1093.81
459.099	1095.17
459.472	1117.09
459.845	1134.49
460.218	1153.7
460.591	1157.31
460.964	1148.95
461.337	1164.09
461.71	1227.37
462.083	1224.88
462.456	1233.24
462.829	1228.72
463.201	1267.14
463.574	1262.85
463.947	1288.61
464.32	1298.1
464.692	1311.89
465.065	1342.17
465.438	1354.15
465.81	1388.72
466.183	1406.57
466.555	1428.72
466.928	1421.94
467.3	1457.65
467.672	1478.44
468.045	1510.3
468.417	1504.65
468.789	1535.16
469.161	1547.81
469.534	1598.43
469.906	1619.67
470.278	1630.52
470.65	1687.47
471.022	1687.47
471.394	1737.86
471.766	1776.73
472.138	1810.18
472.51	1849.5
472.882	1887.46
473.253	1911.42
473.625	1941.02
473.997	2012.88
474.369	2050.17
474.74	2070.74
475.112	2124.75
475.484	2167.91
475.855	2220.34
476.227	2263.05
476.598	2325.65
476.97	2387.34
477.341	2437.28
477.713	2516.6
478.084	2537.16
478.455	2654.22
478.827	2673.66
479.198	2778.06
479.569	2807.21
479.94	2879.53
480.311	2963.14
480.682	3048.79
481.053	3197.03
481.424	3250.82
481.795	3323.36
482.166	3400.19
482.537	3460.53
482.908	3569
483.279	3613.97
483.65	3778.49
484.021	3898.03
484.391	4034.53
484.762	4076.11
485.133	4088.08
485.503	4259.83
485.874	4395.87
486.244	4498.47
486.615	4616.21
486.985	4755.64
487.356	4877.89
487.726	4982.07
488.097	5152.92
488.467	5180.94
488.837	5353.59
489.207	5477.43
489.578	5596.29
489.948	5715.16
490.318	5839
490.688	5954.02
491.058	6066.34
491.428	6209.84
491.798	6347.91
492.168	6521.69
492.538	6618.19
492.908	6740.67
493.278	6869.48
493.648	6966.2
494.017	7107.21
494.387	7221.79
494.757	7301.56
495.126	7496.13
495.496	7577.71
495.866	7694.77
496.235	7830.13
496.605	7961.88
496.974	8009.56
497.344	8130.69
497.713	8284.81
498.082	8290.23
498.452	8470.57
498.821	8606.38
499.19	8726.38
499.559	8803.44
499.928	8897
500.298	8954.85
500.667	9193.04
501.036	9142.19
501.405	9312.81
501.774	9321.17
502.143	9451.33
502.512	9518
502.88	9652.91
503.249	9662.63
503.618	9864.66
503.987	9869.4
504.356	9886.58
504.724	10109.85
505.093	10115.95
505.462	10115.72
505.83	10190.97
506.199	10337.19
506.567	10383.29
506.936	10497.86
507.304	10586.67
507.672	10672.77
508.041	10673
508.409	10822.37
508.777	10887.23
509.145	10912.76
509.514	10963.61
509.882	11019.43
510.25	11003.38
510.618	11025.53
510.986	11179.2
511.354	11255.81
511.722	11334.67
512.09	11350.94
512.458	11355.24
512.826	11436.59
513.193	11463.26
513.561	11551.17
513.929	11528.79
514.297	11597.49
514.664	11680.88
515.032	11712.97
515.4	11803.81
515.767	11741.67
516.135	11930.14
516.502	11751.16
516.869	11940.53
517.237	11941.44
517.604	11854.66
517.972	12038.61
518.339	12093.75
518.706	11973.3
519.073	11983.02
519.44	12139.4
519.808	12197.48
520.175	12110.7
520.542	12289.68
520.909	12316.57
521.276	12291.71
521.643	12351.82
522.009	12425.72
522.376	12361.54
522.743	12428.88
523.11	12462.1
523.477	12584.58
523.843	12561.08
524.21	12660.06
524.577	12706.62
524.943	12710
525.31	12707.74
525.676	12757.91
526.043	12765.14
526.409	12795.88
526.776	12802.88
527.142	12867.29
527.508	12879.94
527.874	12913.39
528.241	12950.68
528.607	12867.97
528.973	12874.29
529.339	12853.05
529.705	12981.86
530.071	13007.17
530.437	12962.43
530.803	12939.38
531.169	13070
531.535	12955.2
531.901	12948.42
532.267	12973.5
532.632	12952.71
532.998	13023.44
533.364	12879.27
533.73	12934.41
534.095	13025.93
534.461	12892.15
534.826	12965.14
535.192	12909.32
535.557	13016.89
535.923	12903.67
536.288	12856.67
536.653	12827.29
537.019	12806.05
537.384	12798.59
537.749	12770.57
538.114	12708.2
538.479	12687.41
538.845	12696.45
539.21	12682.43
539.575	12569.44
539.94	12604.7
540.305	12645.15
540.67	12586.39
541.034	12517.92
541.399	12483.8
541.764	12573.29
542.129	12496
542.494	12437.7
542.858	12390.92
543.223	12402.67
543.587	12503.91
543.952	12323.12
544.316	12424.59
544.681	12304.37
545.045	12245.38
545.41	12276.8
545.774	12191.83
546.138	12176.01
546.503	12150.02
546.867	12179.85
547.231	12137.36
547.595	12092.17
547.959	12047.88
548.324	12059.85
548.688	11919.29
549.052	11941.66
549.416	11938.95
549.779	11896.47
550.143	11864.6
550.507	11921.78
550.871	11901.21
551.235	11824.83
551.599	11810.37
551.962	11797.94
552.326	11772.85
552.689	11721.78
553.053	11699.86
553.417	11660.54
553.78	11759.97
554.143	11671.61
554.507	11604.72
554.87	11653.08
555.234	11636.81
555.597	11513.2
555.96	11523.14
556.323	11588.45
556.686	11557.27
557.05	11542.13
557.413	11527.89
557.776	11506.65
558.139	11510.26
558.502	11435.46
558.865	11465.97
559.228	11501
559.59	11485.4
559.953	11556.81
560.316	11575.12
560.679	11543.93
561.041	11524.5
561.404	11511.62
561.767	11538.28
562.129	11486.76
562.492	11567.21
562.854	11484.05
563.217	11439.53
563.579	11512.07
563.941	11516.14
564.304	11635.23
564.666	11592.07
565.028	11605.4
565.39	11622.12
565.753	11618.96
566.115	11644.95
566.477	11600.66
566.839	11568.34
567.201	11728.56
567.563	11589.81
567.925	11695.34
568.287	11630.26
568.648	11658.51
569.01	11707.32
569.372	11702.8
569.734	11672.07
570.095	11663.48
570.457	11740.99
570.819	11787.09
571.18	11744.38
571.542	11832.74
571.903	11690.37
572.265	11830.93
572.626	11802.46
572.987	11825.28
573.349	11851.27
573.71	11858.73
574.071	11862.8
574.432	11859.18
574.794	11929.91
575.155	11909.12
575.516	11910.03
575.877	11865.73
576.238	11868.22
576.599	11982.79
576.96	11954.09
577.32	11877.26
577.681	11882
578.042	12037.93
578.403	11906.64
578.763	11958.61
579.124	11941.66
579.485	11986.41
579.845	11969.69
580.206	11895.34
580.566	11968.78
580.927	11955
581.287	11954.77
581.648	11904.83
582.008	11958.39
582.368	11929.23
582.728	11922.45
583.089	11903.02
583.449	11887.2
583.809	11893.76
584.169	11984.83
584.529	11895.11
584.889	11961.32
585.249	11899.18
585.609	11882
585.969	11888.56
586.329	11873.42
586.688	11864.6
587.048	11857.6
587.408	11802.23
587.768	11816.69
588.127	11804.49
588.487	11735.12
588.846	11860.08
589.206	11825.28
589.565	11805.85
589.925	11885.85
590.284	11726.3
590.643	11842.23
591.003	11802.23
591.362	11773.98
591.721	11734.89
592.08	11726.08
592.44	11807.2
592.799	11824.38
593.158	11703.25
593.517	11736.92
593.876	11739.18
594.235	11724.72
594.593	11678.85
594.952	11773.76
595.311	11694.21
595.67	11660.09
596.029	11789.13
596.387	11706.87
596.746	11711.16
597.104	11696.25
597.463	11603.37
597.822	11645.63
598.18	11624.84
598.538	11696.92
598.897	11741.44
599.255	11581.22
599.613	11776.92
599.972	11713.19
600.33	11741.22
600.688	11683.14
601.046	11667.09
601.404	11749.8
601.762	11680.65
602.12	11766.07
602.478	11684.72
602.836	11648.11
603.194	11734.89
603.552	11720.88
603.91	11599.07
604.268	11681.33
604.625	11654.67
604.983	11626.42
605.341	11626.19
605.698	11662.8
606.056	11680.88
606.413	11679.98
606.771	11711.16
607.128	11722.69
607.485	11695.34
607.843	11626.87
608.2	11759.97
608.557	11792.29
608.914	11717.04
609.272	11733.76
609.629	11689.24
609.986	11713.87
610.343	11703.48
610.7	11778.96
611.057	11856.69
611.414	11746.87
611.771	11833.87
612.127	11743.93
612.484	11825.28
612.841	11845.17
613.198	11794.77
613.554	11855.34
613.911	11914.77
614.267	11883.81
614.624	11894.21
614.98	11861.89
615.337	11933.98
615.693	11914.77
616.05	11886.75
616.406	11960.42
616.762	11863.7
617.118	11847.2
617.475	11867.54
617.831	11955.22
618.187	11924.94
618.543	11967.2
618.899	12016.69
619.255	11994.54
619.611	11961.32
619.967	12068.89
620.323	11984.37
620.678	11955.67
621.034	11940.53
621.39	11942.34
621.746	11909.12
622.101	12075.9
622.457	12008.55
622.812	11978.27
623.168	12039.29
623.523	12053.07
623.879	12030.7
624.234	11971.27
624.589	12025.73
624.945	12042.68
625.3	12056.69
625.655	12016.92
626.01	12107.99
626.365	11980.76
626.72	11961.55
627.075	12037.93
627.43	11989.57
627.785	11991.15
628.14	11994.32
628.495	12016.92
628.85	11952.96
629.205	11902.79
629.559	11995
629.914	12002.9
630.269	11931.49
630.623	11891.5
630.978	11876.13
631.332	11981.21
631.687	11971.04
632.041	11987.99
632.396	11964.04
632.75	11828.45
633.104	11903.7
633.459	11874.09
633.813	11869.57
634.167	11825.51
634.521	11833.42
634.875	11890.14
635.229	11835.23
635.583	11795.9
635.937	11655.34
636.291	11710.48
636.645	11717.71
636.999	11729.01
637.352	11732.18
637.706	11683.82
638.06	11695.12
638.413	11636.59
638.767	11605.18
639.121	11633.42
639.474	11604.05
639.828	11552.75
640.181	11550.26
640.534	11580.77
640.888	11537.83
641.241	11501
641.594	11469.81
641.947	11524.5
642.301	11513.65
642.654	11551.39
643.007	11613.31
643.36	11533.99
643.713	11511.17
644.066	11491.96
644.419	11479.75
644.771	11406.08
645.124	11347.78
645.477	11311.17
645.83	11213.55
646.182	11169.48
646.535	11135.81
646.888	11108.46
647.24	11106.43
647.593	11175.13
647.945	11079.77
648.298	11117.05
648.65	11038.64
649.002	10997.96
649.355	11140.55
649.707	11110.72
650.059	11136.71
650.411	11263.49
650.763	11253.09
651.115	11318.4
651.467	11347.78
651.819	11338.97
652.171	11334.67
652.523	11272.53
652.875	11316.14
653.227	11317.5
653.578	11293.54
653.93	11312.3
654.282	11310.72
654.633	11278.86
654.985	11301
655.337	11264.17
655.688	11384.16
656.039	11280.66
656.391	11291.74
656.742	11292.19
657.094	11297.16
657.445	11388.68
657.796	11348.68
658.147	11333.77
658.498	11305.75
658.849	11351.4
659.2	11414.9
659.551	11308.01
659.902	11338.74
660.253	11355.69
660.604	11377.38
660.955	11331.96
661.306	11279.76
661.656	11385.52
662.007	11345.07
662.358	11307.78
662.708	11373.99
663.059	11332.87
663.409	11303.94
663.76	11363.15
664.11	11432.75
664.461	11364.28
664.811	11466.42
665.161	11433.88
665.511	11422.81
665.862	11416.93
666.212	11477.27
666.562	11397.95
666.912	11397.27
667.262	11330.61
667.612	11435.46
667.962	11379.87
668.312	11358.4
668.662	11447.21
669.011	11411.06
669.361	11399.76
669.711	11384.84
670.06	11383.03
670.41	11389.14
670.76	11370.83
671.109	11336.26
671.459	11316.6
671.808	11301.68
672.157	11372.86
672.507	11297.84
672.856	11235.02
673.205	11223.72
673.554	11325.41
673.904	11256.48
674.253	11303.49
674.602	11272.08
674.951	11108.92
675.3	11055.36
675.649	11301.91
675.998	11271.17
676.346	11169.71
676.695	11312.53
677.044	11104.85
677.393	11256.48
677.741	11192.3
678.09	11113.89
678.438	11114.57
678.787	11158.63
679.135	11109.82
679.484	11064.85
679.832	11097.39
680.181	11045.64
680.529	11118.41
680.877	10957.73
681.225	11013.78
681.573	11039.77
681.922	11001.35
682.27	11012.87
682.618	10855.36
682.966	10895.36
683.314	10964.51
683.661	10957.28
684.009	10825.31
684.357	10850.84
684.705	10846.55
685.053	10869.15
685.4	10820.79
685.748	10749.38
686.095	10732.2
686.443	10715.25
686.79	10654.47
687.138	10680.68
687.485	10662.83
687.832	10610.17
688.18	10635.71
688.527	10587.57
688.874	10541.7
689.221	10572.66
689.568	10447.24
689.915	10453.79
690.262	10471.42
690.609	10460.35
690.956	10330.86
691.303	10344.19
691.65	10317.75
691.997	10260.13
692.344	10242.27
692.69	10199.34
693.037	10152.56
693.383	10081.37
693.73	10134.25
694.077	10061.71
694.423	10015.39
694.769	9948.04
695.116	10000.92
695.462	9981.94
695.808	9930.64
696.155	9943.75
696.501	9897.65
696.847	9831.21
697.193	9778.78
697.539	9851.55
697.885	9703.98
698.231	9642.06
698.577	9701.27
698.923	9639.13
699.269	9581.73
699.614	9541.05
699.96	9505.34
700.306	9483.87
700.651	9454.05
700.997	9392.13
701.342	9407.49
701.688	9424.67
702.033	9306.7
702.379	9346.93
702.724	9216.09
703.069	9359.58
703.415	9181.74
703.76	9160.04
704.105	9155.97
704.45	9106.94
704.795	9072.59
705.14	9062.64
705.485	9057.9
705.83	8981.52
706.175	9042.08
706.52	8950.78
706.865	8946.26
707.209	8891.12
707.554	8927.51
707.899	8937.22
708.243	8899.26
708.588	8867.62
708.932	8772.48
709.277	8786.94
709.621	8700.62
709.966	8686.61
710.31	8719.83
710.654	8640.51
710.998	8623.56
711.342	8659.49
711.687	8603.22
712.031	8570.68
712.375	8513.28
712.719	8552.6
713.063	8506.95
713.407	8577.46
713.75	8493.39
714.094	8555.09
714.438	8441.19
714.782	8498.59
715.125	8408.87
715.469	8444.81
715.812	8369.78
716.156	8316.22
716.499	8331.59
716.843	8370.46
717.186	8290.46
717.53	8377.01
717.873	8319.84
718.216	8368.88
718.559	8332.94
718.902	8232.61
719.246	8243
719.589	8241.42
719.932	8172.05
720.275	8227.86
720.617	8164.14
720.96	8165.49
721.303	8173.63
721.646	8200.97
721.989	8139.96
722.331	8228.99
722.674	8141.76
723.016	8194.87
723.359	8100.86
723.701	8140.63
724.044	8123.68
724.386	8031.03
724.729	8117.58
725.071	8127.3
725.413	8105.38
725.755	8067.64
726.097	8059.96
726.439	8050.24
726.782	8085.72
727.124	8079.39
727.465	8101.31
727.807	8048.66
728.149	8028.09
728.491	8049.56
728.833	8035.33
729.175	7993.07
729.516	8014.76
729.858	8003.46
730.199	8027.64
730.541	8031.03
730.882	8059.51
731.224	7993.52
731.565	7976.8
731.906	7998.04
732.248	7995.1
732.589	7965.72
732.93	7938.83
733.271	7957.81
733.612	7926.4
733.953	8011.82
734.294	7940.41
734.635	7946.29
734.976	7979.73
735.317	7956.23
735.658	7948.32
735.999	7990.35
736.339	7910.36
736.68	8017.92
737.021	8013.63
737.361	7961.43
737.702	8033.29
738.042	8001.88
738.383	8004.14
738.723	8024.7
739.063	8016.79
739.404	8080.07
739.744	8014.76
740.084	7984.48
740.424	8005.95
740.764	7982.67
741.104	8123.91
741.444	8036.91
741.784	8016.57
742.124	8040.75
742.464	8156
742.804	8063.8
743.143	8135.89
743.483	8170.24
743.823	8155.77
744.162	8158.26
744.502	8196.9
744.841	8155.1
745.181	8283.91
745.52	8306.5
745.86	8320.29
746.199	8338.59
746.538	8309.67
746.877	8494.97
747.216	8458.82
747.556	8561.64
747.895	8589.89
748.234	8629.21
748.573	8617.68
748.911	8727.96
749.25	8783.78
749.589	8717.79
749.928	8818.81
750.267	8950.33
750.605	9031.23
750.944	9055.64
751.283	9100.38
751.621	9254.5
751.96	9256.99
752.298	9320.49
752.636	9421.05
752.975	9499.92
753.313	9582.18
753.651	9694.49
753.989	9768.16
754.327	9958.66
754.666	9980.13
755.004	10189.62
755.342	10217.41
755.679	10330.41
756.017	10455.6
756.355	10614.47
756.693	10639.1
757.031	10937.17
757.368	10976.27
757.706	11047.45
758.044	11163.15
758.381	11381.68
758.719	11546.65
759.056	11694.44
759.394	11807.66
759.731	11939.86
760.068	12063.92
760.405	12233.86
760.743	12292.84
761.08	12523.79
761.417	12681.76
761.754	12863.22
762.091	13030
762.428	13171.24
762.765	13250.78
763.102	13427.73
763.438	13523.32
763.775	13777.32
764.112	13867.49
764.449	14014.6
764.785	14246.01
765.122	14323.3
765.458	14506.12
765.795	14643.51
766.131	14777.07
766.467	14927.12
766.804	14987.23
767.14	15102.71
767.476	15291.86
767.812	15452.08
768.148	15549.25
768.485	15672.41
768.821	15704.73
769.157	15878.28
769.492	15989.47
769.828	16139.52
770.164	16044.38
770.5	16268.33
770.836	16436.46
771.171	16420.64
771.507	16450.02
771.842	16571.15
772.178	16694.98
772.513	16851.59
772.849	16922.1
773.184	16992.6
773.519	16967.07
773.855	17099.72
774.19	17164.35
774.525	17218.59
774.86	17306.95
775.195	17411.12
775.53	17408.19
775.865	17418.58
776.2	17458.81
776.535	17580.84
776.87	17490.67
777.205	17649.54
777.539	17569.76
777.874	17720.04
778.209	17705.58
778.543	17639.37
778.878	17595.3
779.212	17791.45
779.547	17631.91
779.881	17779.48
780.215	17730.66
780.55	17861.73
780.884	17731.12
781.218	17838.91
781.552	17821.73
781.886	17874.39
782.22	17711.68
782.554	17810.89
782.888	17666.03
783.222	17659.03
783.556	17735.18
783.889	17701.06
784.223	17661.06
784.557	17673.94
784.89	17740.16
785.224	17725.69
785.557	17662.19
785.891	17597.56
786.224	17639.59
786.558	17565.92
786.891	17576.09
787.224	17644.79
787.557	17599.14
787.891	17499.26
788.224	17559.59
788.557	17567.96
788.89	17560.72
789.223	17522.53
789.556	17445.47
789.888	17433.5
790.221	17419.49
790.554	17308.53
790.887	17320.28
791.219	17289.09
791.552	17258.81
791.884	17199.15
792.217	17077.57
792.549	17140.62
792.882	17033.05
793.214	17139.94
793.546	17121.87
793.879	17005.49
794.211	16836.22
794.543	17018.37
794.875	16926.17
795.207	17025.37
795.539	16879.16
795.871	16911.93
796.203	16790.8
796.535	16717.58
796.867	16633.07
797.198	16694.76
797.53	16689.11
797.862	16559.4
798.193	16610.24
798.525	16496.8
798.856	16520.98
799.188	16442.34
799.519	16324.37
799.85	16205.73
800.182	16301.1
800.513	16299.97
800.844	16214.32
801.175	16224.94
801.506	16261.55
801.837	16206.86
802.168	16141.55
802.499	16061.56
802.83	15969.58
803.161	15932.74
803.491	15912.63
803.822	16011.39
804.153	15994.89
804.483	15796.7
804.814	15759.42
805.145	15697.04
805.475	15802.8
805.805	15716.71
806.136	15570.49
806.466	15722.58
806.796	15621.34
807.126	15631.74
807.457	15469.48
807.787	15504.96
808.117	15456.15
808.447	15376.83
808.777	15440.33
809.107	15374.12
809.436	15282.82
809.766	15355.13
810.096	15211.63
810.426	15177.28
810.755	15292.31
811.085	15164.86
811.414	15182.93
811.744	15109.26
812.073	15057.29
812.403	15004.18
812.732	14944.3
813.061	14976.84
813.39	14842.38
813.719	14840.34
814.049	14961.25
814.378	14806.45
814.707	14875.37
815.036	14891.87
815.365	14711.99
815.693	14624.08
816.022	14676.96
816.351	14576.85
816.68	14493.91
817.008	14496.85
817.337	14342.28
817.665	14434.48
817.994	14473.12
818.322	14448.04
818.651	14413.69
818.979	14309.96
819.307	14407.14
819.636	14436.29
819.964	14340.7
820.292	14405.78
820.62	14377.31
820.948	14321.26
821.276	14357.19
821.604	14359
821.932	14302.51
822.259	14370.75
822.587	14304.54
822.915	14227.25
823.243	14299.34
823.57	14322.62
823.898	14273.81
824.225	14172.79
824.553	14260.7
824.88	14264.54
825.207	14264.09
825.535	14285.1
825.862	14271.09
826.189	14142.74
826.516	14299.79
826.843	14341.6
827.17	14367.81
827.497	14352.45
827.824	14326.46
828.151	14394.48
828.478	14377.08
828.805	14323.3
829.131	14338.21
829.458	14297.76
829.785	14166.46
830.111	14324.2
830.438	14308.15
830.764	14277.42
831.09	14367.81
831.417	14328.95
831.743	14276.52
832.069	14335.5
832.395	14272.45
832.722	14270.19
833.048	14241.49
833.374	14161.94
833.7	14137.09
834.026	14082.17
834.351	14282.39
834.677	14200.81
835.003	14246.01
835.329	14112
835.654	14183.19
835.98	14080.36
836.306	14124.88
836.631	14130.31
836.956	14115.17
837.282	14072.23
837.607	14060.93
837.932	13989.75
838.258	14022.29
838.583	14012.57
838.908	13930.76
839.233	13935.96
839.558	13803.31
839.883	13856.19
840.208	13847.15
840.533	13834.27
840.858	13860.48
841.182	13816.19
841.507	13803.54
841.832	13727.38
842.156	13671.11
842.481	13721.05
842.805	13631.11
843.13	13630.43
843.454	13598.34
843.778	13570.1
844.103	13543.88
844.427	13540.94
844.751	13510.66
845.075	13452.81
845.399	13385.02
845.723	13312.47
846.047	13294.17
846.371	13151.58
846.695	13253.27
847.019	13153.38
847.343	13031.58
847.666	13002.2
847.99	12934.86
848.313	12867.51
848.637	12880.4
848.96	12900.96
849.284	12834.75
849.607	12767.63
849.931	12667.07
850.254	12634.98
850.577	12476.11
850.9	12545.04
851.223	12427.3
851.546	12454.19
851.869	12377.58
852.192	12367.19
852.515	12201.54
852.838	12231.6
853.161	12206.06
853.483	12167.42
853.806	12107.99
854.129	12090.59
854.451	12066.18
854.774	12000.19
855.096	11923.81
855.419	11924.04
855.741	11859.18
856.063	11844.49
856.385	11749.35
856.708	11757.49
857.03	11831.16
857.352	11763.59
857.674	11684.95
857.996	11727.43
858.318	11653.99
858.64	11551.39
858.961	11513.43
859.283	11560.66
859.605	11524.95
859.926	11468.91
860.248	11377.38
860.57	11386.42
860.891	11385.52
861.212	11357.95
861.534	11279.53
861.855	11234.56
862.176	11223.04
862.498	11226.43
862.819	11310.72
863.14	11211.06
863.461	11199.76
863.782	11148.46
864.103	11161.34
864.424	11109.82
864.745	11112.08
865.065	11077.28
865.386	11009.94
865.707	11067.34
866.027	11034.79
866.348	10949.37
866.668	10938.53
866.989	10954.8
867.309	10820.56
867.63	10915.02
867.95	10905.98
868.27	10832.54
868.59	10858.08
868.91	10918.87
869.23	10804.74
869.55	10759.1
869.87	10814.69
870.19	10746.89
870.51	10819.88
870.83	10708.25
871.15	10712.77
871.469	10725.42
871.789	10759.1
872.109	10652.21
872.428	10583.06
872.748	10609.72
873.067	10568.14
873.386	10630.96
873.706	10620.57
874.025	10536.05
874.344	10493.11
874.663	10520.23
874.982	10491.76
875.301	10520.46
875.62	10450.18
875.939	10473.91
876.258	10468.93
876.577	10355.72
876.896	10401.59
877.214	10367.02
877.533	10328.37
877.852	10333.34
878.17	10325.66
878.489	10308.71
878.807	10306.23
879.125	10278.43
879.444	10289.73
879.762	10237.98
880.08	10306
880.398	10224.19
880.716	10183.52
881.034	10214.7
881.352	10183.97
881.67	10127.47
881.988	10174.48
882.306	10116.85
882.624	10088.6
882.941	10019.68
883.259	10038.89
883.577	9967.93
883.894	9975.61
884.212	9950.08
884.529	9868.72
884.846	9865.79
885.164	9888.16
885.481	9858.78
885.798	9889.29
886.115	9772
886.432	9786.24
886.75	9700.37
887.067	9753.25
887.383	9667.82
887.7	9767.03
888.017	9663.31
888.334	9675.06
888.651	9617.2
888.967	9539.47
889.284	9510.77
889.6	9607.26
889.917	9469.19
890.233	9424.89
890.55	9445.01
890.866	9414.05
891.182	9366.59
891.498	9367.95
891.815	9330.21
892.131	9308.96
892.447	9252.02
892.763	9314.39
893.079	9276.42
893.395	9197.55
893.71	9203.2
894.026	9183.54
894.342	9169.76
894.657	9045.69
894.973	9020.61
895.289	8996.66
895.604	9086.82
895.92	8912.59
896.235	8907.84
896.55	8950.1
896.865	8912.82
897.181	8840.73
897.496	8864.68
897.811	8769.77
898.126	8753.5
898.441	8712.6
898.756	8733.84
899.071	8686.83
899.386	8653.39
899.7	8584.92
900.015	8533.84
900.33	8534.52
900.644	8464.24
900.959	8500.17
901.273	8539.49
901.588	8400.29
901.902	8414.3
902.216	8311.02
902.531	8313.74
902.845	8320.97
903.159	8200.52
903.473	8209.56
903.787	8197.36
904.101	8202.33
904.415	8149.67
904.729	8140.41
905.042	8057.92
905.356	8054.53
905.67	8013.86
905.984	7956.46
906.297	7970.69
906.611	7860.19
906.924	7907.65
907.237	7884.37
907.551	7837.36
907.864	7767.54
908.177	7798.5
908.491	7731.83
908.804	7708.1
909.117	7667.2
909.43	7601.21
909.743	7546.98
910.056	7538.39
910.368	7532.51
910.681	7508.56
910.994	7492.51
911.307	7520.76
911.619	7445.06
911.932	7415.45
912.244	7293.42
912.557	7324.38
912.869	7283.93
913.181	7247.32
913.494	7266.98
913.806	7172.07
914.118	7184.27
914.43	7099.53
914.742	7141.79
915.054	7043.26
915.366	7075.12
915.678	7065.63
915.99	6926.88
916.302	6917.61
916.613	6952.64
916.925	6921.23
917.236	6875.58
917.548	6802.82
917.859	6809.37
918.171	6731.86
918.482	6787.22
918.794	6738.86
919.105	6651.86
919.416	6696.15
919.727	6655.47
920.038	6617.51
920.349	6614.8
920.66	6563.05
920.971	6649.83
921.282	6560.34
921.593	6496.83
921.903	6461.13
922.214	6487.8
922.525	6455.48
922.835	6441.92
923.146	6347.46
923.456	6337.29
923.767	6287.35
924.077	6301.59
924.387	6278.31
924.697	6244.41
925.008	6198.54
925.318	6204.19
925.628	6176.84
925.938	6172.32
926.248	6082.61
926.558	6070.86
926.867	6111.31
927.177	6063.85
927.487	6041.48
927.796	6013.46
928.106	5989.96
928.416	6008.03
928.725	5942.5
929.034	5874.25
929.344	5897.75
929.653	5904.08
929.962	5788.83
930.271	5797.87
930.581	5824.31
930.89	5752.22
931.199	5735.95
931.508	5736.63
931.817	5714.48
932.125	5647.59
932.434	5607.14
932.743	5624.99
933.051	5585.67
933.36	5574.6
933.669	5563.98
933.977	5524.43
934.286	5527.37
934.594	5536.63
934.902	5437.2
935.21	5436.98
935.519	5445.11
935.827	5413.47
936.135	5406.24
936.443	5335.28
936.751	5321.27
937.059	5339.35
937.367	5280.37
937.674	5285.57
937.982	5290.54
938.29	5289.63
938.597	5219.81
938.905	5176.42
939.213	5127.61
939.52	5068.17
939.827	5152.69
940.135	5055.52
940.442	5069.08
940.749	5039.47
941.056	5067.49
941.363	5018.23
941.67	4981.39
941.977	4996.76
942.284	4922.86
942.591	4902.07
942.898	4912.7
943.205	4919.48
943.511	4838.57
943.818	4853.04
944.125	4829.31
944.431	4818.23
944.738	4794.28
945.044	4752.93
945.35	4730.33
945.657	4676.09
945.963	4719.03
946.269	4662.08
946.575	4673.38
946.881	4607.84
947.187	4595.87
947.493	4573.5
947.799	4559.48
948.105	4552.71
948.41	4526.94
948.716	4491.24
949.022	4472.93
949.327	4472.71
949.633	4440.39
949.938	4448.75
950.244	4423.89
950.549	4375.76
950.854	4402.65
951.16	4318.81
951.465	4382.54
951.77	4307.06
952.075	4277.01
952.38	4291.47
952.685	4286.72
952.99	4264.58
953.294	4230.23
953.599	4206.27
953.904	4221.41
954.209	4149.33
954.513	4141.64
954.818	4120.63
955.122	4116.33
955.426	4099.16
955.731	4082.66
956.035	4063.9
956.339	4052.38
956.643	4039.27
956.948	4034.53
957.252	4022.78
957.556	3989.78
957.86	3964.25
958.163	3928.31
958.467	3955.21
958.771	3971.03
959.075	3890.12
959.378	3880.86
959.682	3850.35
959.985	3858.03
960.289	3872.27
960.592	3803.35
960.896	3802.22
961.199	3796.34
961.502	3784.59
961.805	3760.18
962.108	3732.16
962.411	3708.66
962.714	3699.62
963.017	3686.29
963.32	3741.65
963.623	3661.66
963.926	3700.3
964.228	3644.25
964.531	3613.07
964.833	3607.87
965.136	3569.68
965.438	3554.54
965.741	3536.69
966.043	3547.08
966.345	3495.78
966.648	3521.09
966.95	3493.98
967.252	3473.64
967.554	3452.17
967.856	3433.41
968.158	3431.83
968.46	3437.93
968.761	3368.33
969.063	3393.19
969.365	3397.71
969.666	3361.78
969.968	3296.02
970.269	3352.06
970.571	3320.42
970.872	3283.59
971.174	3297.6
971.475	3293.53
971.776	3243.59
972.077	3224.38
972.378	3242.91
972.679	3213.76
972.98	3203.81
973.281	3168.33
973.582	3207.2
973.883	3170.82
974.183	3127.21
974.484	3140.54
974.785	3126.3
975.085	3116.81
975.386	3095.34
975.686	3101.9
975.986	3079.52
976.287	3105.06
976.587	3028.45
976.887	3004.05
977.187	3009.24
977.487	2997.94
977.787	2978.06
978.087	2948.68
978.387	2919.3
978.687	2963.82
978.987	2925.86
979.286	2944.39
979.586	2912.52
979.885	2884.27
980.185	2892.64
980.484	2874.33
980.784	2825.52
981.083	2884.95
981.382	2806.31
981.682	2831.39
981.981	2825.97
982.28	2785.75
982.579	2740.78
982.878	2772.86
983.177	2748.01
983.475	2720.66
983.774	2722.02
984.073	2727.67
984.372	2703.26
984.67	2679.99
984.969	2675.01
985.267	2714.11
985.566	2653.09
985.864	2648.12
986.162	2637.28
986.461	2607.67
986.759	2618.29
987.057	2576.26
987.355	2553.44
987.653	2571.51
987.951	2551.85
988.249	2569.71
988.547	2557.28
988.844	2538.75
989.142	2517.05
989.44	2529.26
989.737	2498.52
990.035	2484.96
990.332	2488.58
990.63	2462.14
990.927	2453.78
991.224	2464.4
991.521	2429.37
991.819	2395.7
992.116	2437.51
992.413	2391.41
992.71	2387.56
993.006	2377.4
993.303	2344.18
993.6	2381.24
993.897	2354.12
994.193	2336.27
994.49	2302.14
994.787	2283.16
995.083	2268.47
995.379	2281.35
995.676	2273.44
995.972	2232.99
996.268	2270.51
996.565	2205.87
996.861	2228.47
997.157	2231.86
997.453	2228.47
997.749	2223.27
998.044	2176.72
998.34	2167.23
998.636	2155.93
998.932	2123.16
999.227	2178.76
999.523	2120.9
999.818	2108.02
1000.114	2097.85
1000.409	2071.41
1000.704	2068.7
1001	2087.46
1001.295	2028.7
1001.59	2045.43
1001.885	2066.67
1002.18	2018.08
1002.475	2014.47
1002.77	1997.52
1003.065	2010.4
1003.359	2007.91
1003.654	1954.36
1003.949	1972.66
1004.243	1953
1004.538	1935.6
1004.832	1919.55
1005.127	1904.87
1005.421	1898.76
1005.715	1886.11
1006.009	1892.44
1006.304	1894.7
1006.598	1882.27
1006.892	1845.43
1007.186	1859.67
1007.48	1802.27
1007.773	1855.37
1008.067	1797.98
1008.361	1800.01
1008.655	1776.28
1008.948	1780.8
1009.242	1782.38
1009.535	1738.54
1009.829	1729.28
1010.122	1730.63
1010.415	1713.46
1010.708	1731.08
1011.001	1720.69
1011.295	1723.4
1011.588	1709.84
1011.881	1672.33
1012.173	1675.27
1012.466	1662.39
1012.759	1659
1013.052	1647.02
1013.344	1659.9
1013.637	1619.45
1013.93	1606.12
1014.222	1612.9
1014.514	1600.01
1014.807	1591.2
1015.099	1562.73
1015.391	1549.17
1015.683	1597.08
1015.976	1526.34
1016.268	1552.78
1016.56	1531.77
1016.851	1535.84
1017.143	1533.8
1017.435	1502.16
1017.727	1484.99
1018.018	1493.58
1018.31	1513.01
1018.602	1468.04
1018.893	1439.79
1019.185	1451.77
1019.476	1440.47
1019.767	1430.08
1020.058	1395.27
1020.35	1432.34
1020.641	1426.23
1020.932	1408.61
1021.223	1368.38
1021.514	1345.78
1021.804	1351.89
1022.095	1376.07
1022.386	1339.68
1022.677	1370.64
1022.967	1346.01
1023.258	1331.77
1023.548	1286.12
1023.839	1341.94
1024.129	1282.28
1024.419	1279.34
1024.709	1283.41
1025	1280.47
1025.29	1274.37
1025.58	1246.13
1025.87	1243.19
1026.16	1217.65
1026.449	1240.02
1026.739	1223.75
1027.029	1234.37
1027.319	1212.23
1027.608	1216.3
1027.898	1176.3
1028.187	1187.37
1028.477	1202.06
1028.766	1172.46
1029.055	1173.36
1029.344	1169.74
1029.634	1172.91
1029.923	1151.44
1030.212	1161.83
1030.501	1126.81
1030.79	1123.87
1031.078	1099.69
1031.367	1127.94
1031.656	1095.85
1031.945	1087.03
1032.233	1063.53
1032.522	1072.57
1032.81	1098.78
1033.099	1069.63
1033.387	1072.8
1033.675	1057.2
1033.963	1047.71
1034.251	1079.35
1034.54	1056.07
1034.828	1039.58
1035.116	1028.73
1035.403	1027.15
1035.691	1035.51
1035.979	1027.15
1036.267	991.67
1036.554	988.51
1036.842	991.89
1037.129	977.43
1037.417	976.3
1037.704	963.65
1037.992	938.11
1038.279	956.19
1038.566	944.21
1038.853	944.21
1039.14	944.21
