Data from hue_70_FLMS001491_87.txt Node
Date: Mon Feb 06 15:21:34 GMT 2017
User: dcchb
Spectrometer: FLMS00149
Trigger mode: 0
Integration Time (sec): 2.000000E-2
Scans to average: 10
Electric dark correction enabled: true
Nonlinearity correction enabled: false
Boxcar width: 0
XAxis mode: Wavelengths
Number of Pixels in Spectrum: 2048
>>>>>Begin Spectral Data<<<<<
341.393	1.58
341.776	1.58
342.16	1.58
342.543	-59.89
342.927	-59.66
343.31	-64.63
343.693	-47.91
344.077	-80.9
344.46	-77.51
344.843	-46.33
345.226	-32.09
345.61	-30.06
345.993	-29.6
346.376	6.1
346.759	11.75
347.142	16.04
347.525	54.24
347.908	61.02
348.291	63.73
348.674	88.81
349.057	107.34
349.44	107.57
349.823	139.43
350.206	143.27
350.588	191.86
350.971	193.89
351.354	229.37
351.737	225.98
352.119	232.54
352.502	270.28
352.884	279.99
353.267	285.42
353.65	274.34
354.032	310.95
354.414	295.59
354.797	312.53
355.179	319.31
355.562	312.76
355.944	324.29
356.326	310.5
356.709	335.58
357.091	337.84
357.473	336.49
357.855	336.71
358.238	356.6
358.62	326.09
359.002	342.82
359.384	349.14
359.766	347.34
360.148	333.32
360.53	340.56
360.912	343.27
361.294	337.84
361.676	341.69
362.057	344.4
362.439	318.41
362.821	324.74
363.203	302.14
363.584	331.06
363.966	328.13
364.348	321.8
364.729	335.13
365.111	329.26
365.493	308.24
365.874	311.18
366.256	317.05
366.637	321.57
367.019	325.87
367.4	309.82
367.781	316.15
368.163	303.27
368.544	333.1
368.925	320.9
369.306	340.33
369.688	297.85
370.069	288.13
370.45	308.92
370.831	313.21
371.212	322.48
371.593	318.86
371.974	310.05
372.355	329.26
372.736	312.08
373.117	306.43
373.498	304.4
373.879	322.25
374.26	324.06
374.641	311.86
375.021	302.59
375.402	297.17
375.783	310.5
376.163	303.72
376.544	307.34
376.925	356.83
377.305	322.93
377.686	321.35
378.066	325.42
378.447	333.32
378.827	332.42
379.208	310.05
379.588	306.43
379.968	333.1
380.349	329.93
380.729	315.92
381.109	334
381.489	337.17
381.87	330.39
382.25	341.46
382.63	338.07
383.01	318.41
383.39	333.32
383.77	329.71
384.15	329.03
384.53	338.3
384.91	355.02
385.29	350.95
385.67	324.74
386.049	331.74
386.429	327.9
386.809	345.3
387.189	346.43
387.568	347.11
387.948	349.6
388.328	372.65
388.707	354.34
389.087	363.38
389.466	361.57
389.846	354.34
390.225	367.9
390.605	367.22
390.984	348.01
391.363	385.3
391.743	343.49
392.122	361.35
392.501	352.76
392.881	366.54
393.26	377.84
393.639	367.22
394.018	393.66
394.397	366.32
394.776	366.09
395.155	371.74
395.534	351.86
395.913	379.88
396.292	387.56
396.671	394.57
397.05	361.57
397.429	376.71
397.808	368.13
398.186	379.2
398.565	383.27
398.944	369.48
399.323	396.83
399.701	379.43
400.08	389.82
400.458	392.98
400.837	398.18
401.215	392.76
401.594	391.63
401.972	398.18
402.351	376.49
402.729	392.53
403.107	390.72
403.486	402.02
403.864	386.43
404.242	386.2
404.62	393.21
404.999	393.89
405.377	404.28
405.755	413.55
406.133	392.08
406.511	412.19
406.889	397.96
407.267	419.88
407.645	428.92
408.023	416.49
408.401	412.19
408.779	434.11
409.156	423.72
409.534	421.46
409.912	412.64
410.29	438.41
410.667	446.09
411.045	441.57
411.422	426.88
411.8	463.49
412.178	446.32
412.555	471.4
412.933	453.55
413.31	463.49
413.687	477.28
414.065	456.49
414.442	453.32
414.819	466.2
415.197	454
415.574	486.54
415.951	491.74
416.328	480.44
416.705	488.57
417.082	470.27
417.46	471.85
417.837	493.77
418.214	486.54
418.591	500.55
418.967	491.51
419.344	479.54
419.721	505.07
420.098	507.33
420.475	505.98
420.852	515.47
421.228	511.62
421.605	496.26
421.982	503.04
422.358	515.47
422.735	497.84
423.111	524.51
423.488	517.73
423.864	548.91
424.241	526.77
424.617	517.73
424.994	550.27
425.37	528.57
425.746	556.37
426.123	552.08
426.499	537.39
426.875	548.46
427.251	559.08
427.627	567.44
428.003	556.37
428.379	563.15
428.756	562.47
429.132	559.99
429.507	589.14
429.883	599.53
430.259	606.76
430.635	590.49
431.011	609.48
431.387	608.57
431.763	619.19
432.138	621.45
432.514	623.26
432.89	624.16
433.265	633.66
433.641	653.09
434.016	626.2
434.392	639.08
434.767	667.33
435.143	638.85
435.518	665.97
435.894	670.04
436.269	675.91
436.644	671.17
437.02	688.8
437.395	679.3
437.77	682.24
438.145	668.91
438.52	681.79
438.895	698.29
439.271	708.23
439.646	677.04
440.021	710.72
440.395	715.24
440.77	701.22
441.145	732.64
441.52	706.42
441.895	724.5
442.27	757.27
442.645	736.7
443.019	750.04
443.394	729.02
443.769	767.21
444.143	765.63
444.518	761.56
444.892	753.65
445.267	731.51
445.641	752.75
446.016	783.93
446.39	812.18
446.764	783.93
447.139	787.55
447.513	811.73
447.887	805.18
448.262	810.6
448.636	813.31
449.01	814.22
449.384	807.89
449.758	824.61
450.132	821.45
450.506	821.9
450.88	841.56
451.254	839.98
451.628	837.72
452.002	844.5
452.376	886.08
452.75	871.39
453.123	883.59
453.497	856.25
453.871	872.52
454.244	916.13
454.618	907.77
454.992	931.5
455.365	919.75
455.739	936.47
456.112	933.31
456.486	945.96
456.859	960.65
457.232	955.91
457.606	957.26
457.979	977.15
458.352	1006.98
458.725	1004.72
459.099	989.58
459.472	1030.03
459.845	1064.83
460.218	1045.62
460.591	1046.3
460.964	1084.94
461.337	1093.08
461.71	1109.12
462.083	1114.77
462.456	1125.85
462.829	1115.9
463.201	1150.03
463.574	1138.5
463.947	1172.17
464.32	1199.52
464.692	1204.04
465.065	1238.16
465.438	1213.98
465.81	1270.48
466.183	1293.75
466.555	1322.9
466.928	1331.49
467.3	1332.17
467.672	1320.64
468.045	1369.91
468.417	1371.26
468.789	1429.57
469.161	1430.7
469.534	1460.75
469.906	1471.6
470.278	1495.1
470.65	1540.98
471.022	1560.18
471.394	1610.81
471.766	1612.16
472.138	1639.5
472.51	1683.8
472.882	1702.1
473.253	1754.53
473.625	1803.79
473.997	1825.04
474.369	1857.13
474.74	1893.74
475.112	1950.68
475.484	1990.91
475.855	2032.49
476.227	2088.98
476.598	2124.01
476.97	2191.13
477.341	2254.18
477.713	2300.05
478.084	2315.87
478.455	2399.26
478.827	2505.02
479.198	2574.85
479.569	2621.85
479.94	2674.51
480.311	2765.35
480.682	2882.86
481.053	2945.46
481.424	3057.77
481.795	3092.12
482.166	3181.84
482.537	3285.34
482.908	3393.36
483.279	3476.52
483.65	3566.01
484.021	3707.47
484.391	3785.66
484.762	3875.83
485.133	3961.03
485.503	4055.26
485.874	4256.39
486.244	4319.89
486.615	4420.67
486.985	4563.72
487.356	4713.1
487.726	4829.93
488.097	4982.47
488.467	5025.18
488.837	5248.45
489.207	5369.58
489.578	5467.43
489.948	5639.63
490.318	5756.68
490.688	5892.05
491.058	6033.06
491.428	6185.15
491.798	6390.34
492.168	6620.39
492.538	6652.03
492.908	6778.8
493.278	6975.18
493.648	7046.82
494.017	7243.65
494.387	7382.4
494.757	7564.32
495.126	7687.93
495.496	7786.46
495.866	7909.17
496.235	8080.92
496.605	8299.67
496.974	8399.78
497.344	8570.85
497.713	8637.29
498.082	8906.21
498.452	9096.48
498.821	9154.79
499.19	9237.5
499.559	9438.4
499.928	9543.03
500.298	9761.78
500.667	9862.34
501.036	9921.77
501.405	10126.74
501.774	10204.7
502.143	10279.28
502.512	10487.86
502.88	10606.27
503.249	10716.55
503.618	10797.46
503.987	10963.33
504.356	11123.55
504.724	11222.08
505.093	11302.98
505.462	11418.91
505.83	11519.7
506.199	11682.18
506.567	11965.34
506.936	11943.64
507.304	12111.32
507.672	12178.44
508.041	12336.85
508.409	12540.24
508.777	12580.46
509.145	12769.38
509.514	12814.8
509.882	12916.95
510.25	13012.99
510.618	13121.91
510.986	13180.9
511.354	13391.06
511.722	13517.38
512.09	13652.52
512.458	13709.24
512.826	13890.93
513.193	13932.06
513.561	14078.95
513.929	14230.81
514.297	14280.3
514.664	14443.91
515.032	14443.01
515.4	14584.7
515.767	14703.57
516.135	14699.27
516.502	14756.67
516.869	14980.17
517.237	15056.78
517.604	15058.81
517.972	15237.34
518.339	15347.85
518.706	15309.65
519.073	15454.06
519.44	15510.78
519.808	15775.86
520.175	15707.84
520.542	15891.56
520.909	16027.38
521.276	16093.81
521.643	16231.44
522.009	16365.22
522.376	16442.73
522.743	16522.28
523.11	16664.65
523.477	16823.29
523.843	16881.59
524.21	17097.4
524.577	17176.72
524.943	17157.06
525.31	17270.51
525.676	17527.9
526.043	17508.69
526.409	17578.29
526.776	17791.62
527.142	17718.18
527.508	17885.41
527.874	18015.12
528.241	18050.37
528.607	18126.3
528.973	18212.63
529.339	18191.16
529.705	18460.98
530.071	18527.2
530.437	18548.66
530.803	18626.18
531.169	18597.7
531.535	18662.56
531.901	18771.94
532.267	18844.48
532.632	18942.78
532.998	18975.09
533.364	19070.69
533.73	19062.55
534.095	19247.86
534.461	19201.75
534.826	19260.74
535.192	19318.59
535.557	19547.73
535.923	19434.74
536.288	19465.7
536.653	19505.48
537.019	19407.85
537.384	19543.67
537.749	19635.42
538.114	19580.95
538.479	19604
538.845	19633.16
539.21	19646.49
539.575	19641.97
539.94	19732.14
540.305	19804.68
540.67	19741.85
541.034	19949.53
541.399	19881.29
541.764	19878.8
542.129	19876.31
542.494	19901.4
542.858	19949.53
543.223	19953.15
543.587	20119.92
543.952	20083.09
544.316	20048.06
544.681	20027.72
545.045	20090.55
545.41	20159.24
545.774	20183.2
546.138	20204.67
546.503	20117.21
546.867	20276.53
547.231	20352.91
547.595	20269.3
547.959	20314.04
548.324	20333.93
548.688	20227.72
549.052	20345.68
549.416	20345.45
549.779	20378.67
550.143	20276.53
550.507	20504.55
550.871	20536.18
551.235	20499.8
551.599	20616.18
551.962	20640.59
552.326	20624.54
552.689	20672
553.053	20591.77
553.417	20667.48
553.78	20796.29
554.143	20679.91
554.507	20822.5
554.87	20842.62
555.234	20965.78
555.597	20871.99
555.96	20984.76
556.323	21025.89
556.686	21010.07
557.05	21162.38
557.413	21023.85
557.776	21139.78
558.139	21216.62
558.502	21245.54
558.865	21202.38
559.228	21452.09
559.59	21435.37
559.953	21337.29
560.316	21687.57
560.679	21791.29
561.041	21660.9
561.404	21817.73
561.767	21784.29
562.129	21715.14
562.492	21968.69
562.854	21885.75
563.217	21946.77
563.579	21942.25
563.941	22120.77
564.304	22180.66
564.666	22178.17
565.028	22191.05
565.39	22339.98
565.753	22398.96
566.115	22449.13
566.477	22452.52
566.839	22409.58
567.201	22712.62
567.563	22610.48
567.925	22794.2
568.287	22744.71
568.648	22813.64
569.01	22910.58
569.372	23216.11
569.734	23039.17
570.095	23203.46
570.457	23200.75
570.819	23229.45
571.18	23243.46
571.542	23396.67
571.903	23336.79
572.265	23424.69
572.626	23494.52
572.987	23540.85
573.349	23631.24
573.71	23701.75
574.071	23581.3
574.432	23738.13
574.794	23949.88
575.155	23884.12
575.516	23811.58
575.877	23828.98
576.238	23948.75
576.599	23945.36
576.96	24159.14
577.32	23977.67
577.681	24083.43
578.042	24154.85
578.403	24013.38
578.763	24258.8
579.124	24143.77
579.485	24249.98
579.845	24294.73
580.206	24109.2
580.566	24216.54
580.927	24199.36
581.287	24348.29
581.648	24206.6
582.008	24377.89
582.368	24320.94
582.728	24322.52
583.089	24221.28
583.449	24340.83
583.809	24378.79
584.169	24377.21
584.529	24258.8
584.889	24462.86
585.249	24237.1
585.609	24229.19
585.969	24361.62
586.329	24328.4
586.688	24457.21
587.048	24362.52
587.408	24266.71
587.768	24271.68
588.127	24312.36
588.487	24237.1
588.846	24447.72
589.206	24209.53
589.565	24277.78
589.925	24351
590.284	24285.24
590.643	24292.02
591.003	24412.24
591.362	24404.78
591.721	24208.4
592.08	24392.58
592.44	24526.13
592.799	24361.85
593.158	24285.01
593.517	24338.57
593.876	24495.18
594.235	24510.09
594.593	24418.12
594.952	24455.4
595.311	24282.53
595.67	24431.22
596.029	24551.22
596.387	24486.81
596.746	24526.13
597.104	24402.75
597.463	24424.67
597.822	24472.12
598.18	24450.2
598.538	24459.24
598.897	24478.68
599.255	24340.38
599.613	24691.33
599.972	24493.14
600.33	24493.14
600.688	24545.57
601.046	24518.68
601.404	24818.33
601.762	24600.94
602.12	24722.06
602.478	24825.56
602.836	24701.72
603.194	24557.32
603.552	24725.23
603.91	24562.52
604.268	24684.1
604.625	24642.97
604.983	24753.47
605.341	24583.99
605.698	24829.86
606.056	24882.96
606.413	24705.11
606.771	24950.98
607.128	24839.12
607.485	24744.43
607.843	24802.51
608.2	24877.99
608.557	24903.53
608.914	24953.24
609.272	24953.69
609.629	25161.15
609.986	25232.33
610.343	25022.17
610.7	25320.46
611.057	25212.22
611.414	25218.77
611.771	25227.81
612.127	25292.67
612.484	25276.62
612.841	25339.22
613.198	25310.29
613.554	25276.4
613.911	25425.09
614.267	25583.06
614.624	25399.11
614.98	25481.82
615.337	25677.97
615.693	25631.19
616.05	25595.71
616.406	25683.39
616.762	25585.54
617.118	25644.3
617.475	25600.68
617.831	25645.2
618.187	25790.73
618.543	25876.61
618.899	26008.13
619.255	25925.65
619.611	25814.46
619.967	25854.69
620.323	26078.86
620.678	25937.17
621.034	25834.35
621.39	25903.27
621.746	25860.56
622.101	26197.05
622.457	26005.42
622.812	26012.65
623.168	26063.5
623.523	26155.47
623.879	26203.6
624.234	25972.2
624.589	26111.86
624.945	26163.15
625.3	26157.5
625.655	26156.6
626.01	26156.15
626.365	26085.42
626.72	26240.67
627.075	26255.35
627.43	26080.9
627.785	26183.49
628.14	26174.23
628.495	26174.9
628.85	26211.29
629.205	26030.28
629.559	26222.36
629.914	26089.03
630.269	26048.58
630.623	26076.83
630.978	25955.25
631.332	26207.67
631.687	26114.34
632.041	25912.99
632.396	26187.11
632.75	26119.31
633.104	26019.2
633.459	25814.01
633.813	26014.01
634.167	25885.65
634.521	26035.93
634.875	25959.77
635.229	25899.43
635.583	25721.13
635.937	25825.99
636.291	25768.36
636.645	25679.1
636.999	25803.39
637.352	25743.5
637.706	25609.95
638.06	25775.82
638.413	25646.33
638.767	25633.22
639.121	25551.87
639.474	25463.74
639.828	25581.93
640.181	25572.43
640.534	25550.51
640.888	25328.6
641.241	25385.77
641.594	25376.06
641.947	25446.34
642.301	25495.83
642.654	25514.81
643.007	25443.62
643.36	25421.03
643.713	25292.44
644.066	25443.4
644.419	25289.28
644.771	25065.1
645.124	24855.84
645.477	24870.76
645.83	24769.52
646.182	24622.63
646.535	24550.54
646.888	24546.47
647.24	24458.57
647.593	24731.33
647.945	24584.44
648.298	24462.63
648.65	24331.34
649.002	24348.74
649.355	24484.33
649.707	24454.27
650.059	24509.86
650.411	24769.97
650.763	24737.88
651.115	25091.09
651.467	25029.4
651.819	24946.91
652.171	24859.69
652.523	24927.71
652.875	24935.84
653.227	24743.76
653.578	25002.73
653.93	24889.74
654.282	24779.69
654.633	24777.88
654.985	24832.34
655.337	24893.81
655.688	24886.58
656.039	25036.18
656.391	24778.11
656.742	24873.24
657.094	24884.32
657.445	24925.45
657.796	24896.29
658.147	24870.31
658.498	24828.05
658.849	24871.66
659.2	24912.34
659.551	24846.13
659.902	24854.94
660.253	24943.52
660.604	24947.82
660.955	24797.77
661.306	24895.16
661.656	24809.74
662.007	24800.93
662.358	24860.59
662.708	24921.38
663.059	24861.49
663.409	24747.6
663.76	24833.7
664.11	24899.23
664.461	24981.72
664.811	24892.9
665.161	24991.89
665.511	24812.91
665.862	24973.35
666.212	24905.33
666.562	24945.56
666.912	24777.65
667.262	24780.37
667.612	24717.09
667.962	24908.72
668.312	24844.09
668.662	24935.16
669.011	24834.15
669.361	24842.51
669.711	24910.08
670.06	24783.3
670.41	24689.07
670.76	24611.33
671.109	24777.65
671.459	24724.77
671.808	24605.68
672.157	24784.89
672.507	24506.02
672.856	24653.82
673.205	24652.69
673.554	24637.54
673.904	24654.49
674.253	24768.39
674.602	24679.13
674.951	24337.67
675.3	23994.17
675.649	24549.86
675.998	24495.63
676.346	24502.18
676.695	24569.3
677.044	24371.11
677.393	24372.47
677.741	24491.33
678.09	24355.29
678.438	24387.61
678.787	24373.37
679.135	24416.08
679.484	24151
679.832	24266.03
680.181	24214.05
680.529	24267.61
680.877	24225.13
681.225	24096.54
681.573	24288.85
681.922	24024.23
682.27	23984.91
682.618	24029.2
682.966	23887.73
683.314	24048.18
683.661	23925.92
684.009	23803.22
684.357	23716.89
684.705	23615.42
685.053	23748.98
685.4	23781.3
685.748	23645.03
686.095	23591.92
686.443	23508.53
686.79	23525.94
687.138	23549.89
687.485	23417.92
687.832	23428.08
688.18	23436.22
688.527	23241.65
688.874	23228.77
689.221	23145.15
689.568	23198.26
689.915	23127.98
690.262	23138.6
690.609	23068.77
690.956	22846.4
691.303	22951.94
691.65	22784.03
691.997	22857.25
692.344	22646.18
692.69	22668.33
693.037	22594.89
693.383	22401.9
693.73	22533.87
694.077	22253.2
694.423	22296.14
694.769	22339.75
695.116	22244.61
695.462	22105.41
695.808	22033.54
696.155	22104.28
696.501	21984.05
696.847	21949.25
697.193	21723.72
697.539	21795.59
697.885	21644.4
698.231	21502.03
698.577	21573.67
698.923	21485.54
699.269	21360.34
699.614	21224.75
699.96	21159.44
700.306	21203.51
700.651	21075.83
700.997	21101.59
701.342	21010.3
701.688	20954.48
702.033	20853.24
702.379	20908.15
702.724	20733.01
703.069	20801.71
703.415	20537.99
703.76	20533.92
704.105	20537.09
704.45	20489.63
704.795	20469.97
705.14	20279.69
705.485	20350.43
705.83	20237.43
706.175	20130.54
706.52	20149.3
706.865	20022.3
707.209	19988.63
707.554	20027.72
707.899	19964.22
708.243	19900.72
708.588	19859.82
708.932	19669.77
709.277	19856.43
709.621	19758.8
709.966	19696.66
710.31	19677.22
710.654	19406.95
710.998	19538.02
711.342	19501.18
711.687	19447.4
712.031	19340.06
712.375	19251.7
712.719	19242.21
713.063	19270
713.407	19344.8
713.75	19178.25
714.094	19140.29
714.438	19087.41
714.782	19067.07
715.125	18969.9
715.469	19041.53
715.812	18844.48
716.156	18778.04
716.499	18820.97
716.843	18795.44
717.186	18726.06
717.53	18731.94
717.873	18773.52
718.216	18726.97
718.559	18657.14
718.902	18611.26
719.246	18586.4
719.589	18605.61
719.932	18452.85
720.275	18503.47
720.617	18404.94
720.96	18311.38
721.303	18471.15
721.646	18370.59
721.989	18258.73
722.331	18303.25
722.674	18329.01
723.016	18274.55
723.359	18291.27
723.701	18309.35
724.044	18117.49
724.386	18087.43
724.729	18162.69
725.071	18138.28
725.413	18129.47
725.755	18055.57
726.097	18112.29
726.439	17928.57
726.782	17921.34
727.124	18034.78
727.465	17861.45
727.807	17912.52
728.149	17932.18
728.491	17814.67
728.833	17900.32
729.175	17877.5
729.516	17806.76
729.858	17721.34
730.199	17835.46
730.541	17750.49
730.882	17708.69
731.224	17685.64
731.565	17706.43
731.906	17698.07
732.248	17664.85
732.589	17543.49
732.93	17614
733.271	17632.98
733.612	17723.15
733.953	17579.42
734.294	17477.96
734.635	17584.85
734.976	17552.31
735.317	17481.8
735.658	17520.9
735.999	17655.81
736.339	17490.16
736.68	17559.31
737.021	17396.38
737.361	17451.74
737.702	17529.48
738.042	17449.26
738.383	17495.59
738.723	17476.83
739.063	17394.57
739.404	17426.66
739.744	17449.03
740.084	17449.26
740.424	17468.02
740.764	17364.74
741.104	17461.46
741.444	17418.98
741.784	17472.99
742.124	17361.8
742.464	17516.38
742.804	17410.39
743.143	17493.55
743.483	17411.07
743.823	17403.16
744.162	17397.96
744.502	17510.05
744.841	17507.79
745.181	17586.88
745.52	17452.65
745.86	17562.02
746.199	17574.45
746.538	17568.35
746.877	17674.34
747.216	17636.37
747.556	17722.02
747.895	17719.08
748.234	17739.42
748.573	17696.71
748.911	17856.48
749.25	17744.39
749.589	17763.83
749.928	17889.02
750.267	17903.94
750.605	17918.4
750.944	17979.19
751.283	18040.66
751.621	18111.39
751.96	18163.59
752.298	18206.3
752.636	18219.18
752.975	18229.58
753.313	18339.86
753.651	18456.24
753.989	18433.41
754.327	18359.97
754.666	18416.24
755.004	18555.9
755.342	18623.69
755.679	18704.14
756.017	18631.37
756.355	18860.97
756.693	18803.57
757.031	18997.69
757.368	18932.84
757.706	19041.76
758.044	19136.67
758.381	19229.55
758.719	19325.82
759.056	19380.73
759.394	19257.8
759.731	19350.23
760.068	19429.77
760.405	19506.83
760.743	19436.1
761.08	19618.69
761.417	19575.08
761.754	19738.46
762.091	19647.17
762.428	19774.85
762.765	19734.85
763.102	19886.03
763.438	19854.85
763.775	19852.13
764.112	20033.82
764.449	20050.32
764.785	20099.36
765.122	20077.66
765.458	20058
765.795	20024.56
766.131	20138.91
766.467	20098.91
766.804	20211.67
767.14	20102.07
767.476	20203.54
767.812	20163.09
768.148	20263.87
768.485	20196.98
768.821	20041.51
769.157	20129.64
769.492	20207.38
769.828	20170.32
770.164	20100.26
770.5	20081.96
770.836	20118.34
771.171	20148.4
771.507	20129.64
771.842	20072.01
772.178	19884.22
772.513	19977.33
772.849	19939.36
773.184	19932.81
773.519	19991.11
773.855	19834.73
774.19	19788.86
774.525	19724.45
774.86	19944.56
775.195	19737.56
775.53	19708.41
775.865	19634.96
776.2	19561.52
776.535	19493.72
776.87	19486.04
777.205	19367.17
777.539	19454.4
777.874	19521.07
778.209	19302.09
778.543	19344.35
778.878	19233.62
779.212	19340.28
779.547	19186.61
779.881	19213.96
780.215	19004.02
780.55	19177.12
780.884	19040.18
781.218	19008.54
781.552	18996.79
781.886	18923.8
782.22	18798.15
782.554	18646.52
782.888	18575.56
783.222	18528.78
783.556	18442.68
783.889	18454.66
784.223	18368.1
784.557	18323.13
784.89	18293.3
785.224	18237.94
785.557	18223.25
785.891	18157.94
786.224	18103.03
786.558	18101.44
786.891	17933.99
787.224	17837.95
787.557	17897.38
787.891	17881.56
788.224	17884.05
788.557	17767.67
788.89	17733.32
789.223	17634.56
789.556	17620.1
789.888	17482.93
790.221	17437.96
790.554	17321.13
790.887	17338.3
791.219	17311.86
791.552	17303.27
791.884	17230.06
792.217	17101.92
792.549	17116.39
792.882	17072.09
793.214	16947.58
793.546	17028.93
793.879	16885.66
794.211	16812.89
794.543	16924.98
794.875	16793
795.207	16792.33
795.539	16714.14
795.871	16655.38
796.203	16520.24
796.535	16493.58
796.867	16453.58
797.198	16424.88
797.53	16381.49
797.862	16323.41
798.193	16287.48
798.525	16147.82
798.856	16275.96
799.188	16013.36
799.519	15992.57
799.85	15898.57
800.182	15977.21
800.513	15905.8
800.844	15672.13
801.175	15826.25
801.506	15830.09
801.837	15724.78
802.168	15768.62
802.499	15727.27
802.83	15574.05
803.161	15588.97
803.491	15581.96
803.822	15560.27
804.153	15485.02
804.483	15284.12
804.814	15343.33
805.145	15310.33
805.475	15222.2
805.805	15139.49
806.136	15146.72
806.466	15187.17
806.796	15139.71
807.126	14914.41
807.457	15003
807.787	14949.66
808.117	14810.46
808.447	14798.71
808.777	14947.63
809.107	14825.6
809.436	14701.31
809.766	14758.71
810.096	14825.15
810.426	14641.65
810.755	14621.31
811.085	14610.01
811.414	14530.69
811.744	14424.48
812.073	14526.17
812.403	14327.53
812.732	14306.52
813.061	14272.17
813.39	14248.66
813.719	14216.8
814.049	14234.88
814.378	14222.45
814.707	14101.55
815.036	14161.66
815.365	14088.22
815.693	13977.03
816.022	13969.12
816.351	13968.67
816.68	13899.07
817.008	13907.43
817.337	13873.53
817.665	13837.83
817.994	13835.12
818.322	13777.72
818.651	13735.91
818.979	13652.75
819.307	13729.58
819.636	13593.54
819.964	13614.56
820.292	13596.48
820.62	13608.91
820.948	13576.37
821.276	13638.74
821.604	13503.37
821.932	13553.54
822.259	13582.02
822.587	13549.47
822.915	13551.06
823.243	13513.32
823.57	13442.58
823.898	13525.75
824.225	13419.53
824.553	13429.48
824.88	13470.15
825.207	13532.3
825.535	13442.36
825.862	13536.59
826.189	13499.08
826.516	13491.85
826.843	13555.8
827.17	13609.36
827.497	13589.47
827.824	13515.58
828.151	13559.19
828.478	13473.77
828.805	13480.1
829.131	13481.91
829.458	13414.11
829.785	13395.81
830.111	13503.15
830.438	13456.37
830.764	13424.51
831.09	13472.64
831.417	13432.19
831.743	13436.48
832.069	13393.55
832.395	13283.04
832.722	13395.13
833.048	13400.33
833.374	13351.74
833.7	13280.33
834.026	13377.95
834.351	13290.5
834.677	13279.65
835.003	13327.56
835.329	13287.79
835.654	13301.35
835.98	13245.53
836.306	13299.54
836.631	13204.62
836.956	13264.51
837.282	13243.49
837.607	13140.67
837.932	13034.46
838.258	13137.06
838.583	13137.06
838.908	13084.18
839.233	13069.94
839.558	13052.76
839.883	13052.09
840.208	12903.62
840.533	12975.03
840.858	12942.48
841.182	12997.4
841.507	12934.58
841.832	12856.39
842.156	12878.53
842.481	12806.89
842.805	12915.37
843.13	12733
843.454	12721.47
843.778	12697.52
844.103	12596.73
844.427	12593.57
844.751	12626.79
845.075	12683.51
845.399	12531.42
845.723	12385.66
846.047	12494.13
846.371	12343.4
846.695	12473.57
847.019	12284.87
847.343	12212.11
847.666	12121.72
847.99	12090.76
848.313	12072.22
848.637	12037.42
848.96	12037.88
849.284	12039.91
849.607	11866.13
849.931	11869.74
850.254	11750.2
850.577	11659.81
850.9	11625.91
851.223	11589.53
851.546	11591.11
851.869	11419.13
852.192	11548.17
852.515	11445.35
852.838	11494.61
853.161	11406.25
853.483	11382.75
853.806	11326.48
854.129	11344.33
854.451	11271.79
854.774	11185.92
855.096	11155.64
855.419	11114.06
855.741	11086.04
856.063	11060.05
856.385	10962.65
856.708	11071.8
857.03	10927.17
857.352	10916.32
857.674	10860.96
857.996	10897.11
858.318	10879.49
858.64	10793.84
858.961	10816.21
859.283	10764.69
859.605	10709.55
859.926	10759.94
860.248	10710.23
860.57	10644.92
860.891	10668.65
861.212	10591.81
861.534	10571.25
861.855	10570.12
862.176	10520.63
862.498	10472.49
862.819	10524.92
863.14	10413.96
863.461	10467.07
863.782	10328.09
864.103	10401.53
864.424	10398.6
864.745	10359.73
865.065	10315.43
865.386	10251.26
865.707	10241.76
866.027	10279.96
866.348	10314.76
866.668	10281.09
866.989	10230.01
867.309	10155.89
867.63	10110.92
867.95	10108.21
868.27	10100.53
868.59	10194.99
868.91	10097.81
869.23	10038.38
869.55	10045.61
869.87	10156.57
870.19	10066.63
870.51	10075.22
870.83	10055.1
871.15	9962.9
871.469	9970.13
871.789	10025.05
872.109	10021.66
872.428	9915.22
872.748	9953.18
873.067	9851.72
873.386	9897.37
873.706	9941.43
874.025	9827.76
874.344	9836.35
874.663	9849.01
874.982	9816.47
875.301	9770.82
875.62	9777.37
875.939	9682.91
876.258	9719.29
876.577	9668.67
876.896	9727.65
877.214	9621.22
877.533	9698.95
877.852	9696.24
878.17	9624.83
878.489	9589.58
878.807	9641.1
879.125	9563.14
879.444	9536.25
879.762	9559.97
880.08	9535.12
880.398	9516.36
880.716	9492.18
881.034	9507.55
881.352	9565.85
881.67	9426.87
881.988	9483.59
882.306	9449.24
882.624	9458.51
882.941	9303.94
883.259	9352.97
883.577	9241.11
883.894	9291.51
884.212	9315.01
884.529	9238.18
884.846	9211.74
885.164	9274.78
885.481	9223.71
885.798	9199.76
886.115	9143.04
886.432	9146.43
886.75	9101.91
887.067	9035.69
887.383	9059.65
887.7	9082.7
888.017	8956.6
888.334	8941.91
888.651	8996.15
888.967	8901.46
889.284	8863.95
889.6	8872.54
889.917	8834.8
890.233	8904.17
890.55	8814.23
890.866	8864.17
891.182	8770.39
891.498	8710.51
891.815	8676.16
892.131	8651.98
892.447	8687.23
892.763	8625.08
893.079	8620.56
893.395	8553.45
893.71	8598.87
894.026	8555.03
894.342	8447.69
894.657	8407.24
894.973	8446.33
895.289	8469.61
895.604	8442.49
895.92	8407.91
896.235	8283.4
896.55	8352.55
896.865	8277.07
897.181	8303.06
897.496	8274.58
897.811	8190.07
898.126	8193.23
898.441	8140.12
898.756	8134.93
899.071	8098.32
899.386	8139.22
899.7	8060.35
900.015	8013.57
900.33	7920.24
900.644	7970.41
900.959	7945.55
901.273	7888.15
901.588	7913.01
901.902	7805.67
902.216	7759.12
902.531	7830.3
902.845	7730.87
903.159	7742.62
903.473	7764.32
903.787	7613.13
904.101	7633.47
904.415	7593.7
904.729	7580.59
905.042	7586.69
905.356	7573.36
905.67	7456.53
905.984	7469.18
906.297	7415.4
906.611	7370.2
906.924	7449.52
907.237	7330.65
907.551	7337.66
907.864	7307.6
908.177	7286.14
908.491	7240.94
908.804	7217.21
909.117	7203.65
909.43	7094.95
909.743	7158.91
910.056	7139.93
910.368	7089.98
910.681	7073.49
910.994	7042.75
911.307	6896.77
911.619	6905.13
911.932	6925.24
912.244	6901.06
912.557	6884.11
912.869	6816.09
913.181	6775.64
913.494	6755.53
913.806	6727.73
914.118	6738.13
914.43	6689.54
914.742	6710.78
915.054	6673.95
915.366	6610
915.678	6626.72
915.99	6562.77
916.302	6561.64
916.613	6450.45
916.925	6489.32
917.236	6436.44
917.548	6386.27
917.859	6411.58
918.171	6353.05
918.482	6370.23
918.794	6327.97
919.105	6334.52
919.416	6246.39
919.727	6242.32
920.038	6273.51
920.349	6185.37
920.66	6170.91
920.971	6143.12
921.282	6164.36
921.593	6057.02
921.903	6021.99
922.214	6041.88
922.525	6060.41
922.835	5972.72
923.146	5927.53
923.456	5943.35
923.767	5911.03
924.077	5927.53
924.387	5857.02
924.697	5878.26
925.008	5852.28
925.318	5823.35
925.628	5775.22
925.938	5767.08
926.248	5718.27
926.558	5703.58
926.867	5709.23
927.177	5669
927.487	5646.41
927.796	5633.98
928.106	5587.42
928.416	5555.11
928.725	5521.66
929.034	5527.09
929.344	5510.59
929.653	5484.6
929.962	5439.86
930.271	5438.5
930.581	5450.03
930.89	5417.71
931.199	5320.54
931.508	5378.16
931.817	5333.42
932.125	5292.29
932.434	5266.3
932.743	5236.7
933.051	5210.03
933.36	5164.38
933.669	5131.16
933.977	5163.71
934.286	5148.11
934.594	5114.67
934.902	5060.43
935.21	5062.01
935.519	5084.84
935.827	5015.69
936.135	5004.84
936.443	4959.87
936.751	4958.51
937.059	4957.84
937.367	4913.09
937.674	4888.01
937.982	4921
938.29	4886.65
938.597	4832.19
938.905	4805.07
939.213	4794.22
939.52	4754.23
939.827	4771.4
940.135	4749.48
940.442	4711.06
940.749	4716.03
941.056	4665.64
941.363	4641.91
941.67	4656.37
941.977	4609.82
942.284	4575.7
942.591	4563.5
942.898	4528.92
943.205	4552.42
943.511	4535.25
943.818	4509.26
944.125	4427.68
944.431	4425.19
944.738	4421.8
945.044	4452.09
945.35	4414.12
945.657	4372.54
945.963	4369.83
946.269	4350.85
946.575	4366.21
946.881	4299.1
947.187	4296.16
947.493	4273.11
947.799	4239.66
948.105	4187.01
948.41	4221.81
948.716	4227.46
949.022	4166.9
949.327	4188.59
949.633	4113.79
949.938	4131.64
950.244	4110.85
950.549	4057.52
950.854	4090.29
951.16	4061.14
951.465	4029.05
951.77	4045.54
952.075	3998.31
952.38	3975.94
952.685	4019.78
952.99	3933.46
953.294	3923.51
953.599	3948.6
953.904	3914.47
954.209	3847.58
954.513	3871.76
954.818	3861.82
955.122	3770.52
955.426	3840.35
955.731	3823.85
956.035	3791.31
956.339	3790.41
956.643	3751.31
956.948	3756.74
957.252	3674.71
957.556	3723.52
957.86	3721.03
958.163	3697.53
958.467	3636.06
958.771	3633.35
959.075	3651.2
959.378	3596.29
959.682	3607.36
959.985	3586.8
960.289	3573.01
960.592	3540.25
960.896	3514.03
961.199	3507.7
961.502	3523.3
961.805	3501.6
962.108	3477.2
962.411	3443.07
962.714	3428.61
963.017	3422.96
963.32	3391.78
963.623	3420.7
963.926	3368.05
964.228	3367.82
964.531	3344.54
964.833	3377.31
965.136	3328.95
965.438	3307.48
965.741	3326.24
966.043	3265.9
966.345	3252.57
966.648	3275.17
966.95	3267.48
967.252	3232.23
967.554	3254.15
967.856	3222.74
968.158	3192.46
968.46	3197.43
968.761	3153.59
969.063	3150.43
969.365	3084.89
969.666	3159.24
969.968	3087.15
970.269	3132.8
970.571	3080.37
970.872	3070.2
971.174	3027.04
971.475	3050.09
971.776	3033.14
972.077	3009.19
972.378	2989.75
972.679	2998.11
972.98	2973.71
973.281	2931
973.582	2945.69
973.883	2950.43
974.183	2945.69
974.484	2888.06
974.785	2889.42
975.085	2883.31
975.386	2887.61
975.686	2876.76
975.986	2872.24
976.287	2835.86
976.587	2810.77
976.887	2811.23
977.187	2806.48
977.487	2780.27
977.787	2787.72
978.087	2777.33
978.387	2751.57
978.687	2764.9
978.987	2732.36
979.286	2712.02
979.586	2700.27
979.885	2666.6
980.185	2706.37
980.484	2680.83
980.784	2630.21
981.083	2651.46
981.382	2639.93
981.682	2621.4
981.981	2603.77
982.28	2615.52
982.579	2552.02
982.878	2580.05
983.177	2573.94
983.475	2582.08
983.774	2561.74
984.073	2538.92
984.372	2512.93
984.67	2497.34
984.969	2474.29
985.267	2497.34
985.566	2481.97
985.864	2444.91
986.162	2462.31
986.461	2456.66
986.759	2436.77
987.057	2389.99
987.355	2411.91
987.653	2402.87
987.951	2401.97
988.249	2405.59
988.547	2377.56
988.844	2380.95
989.142	2318.36
989.44	2319.26
989.737	2332.59
990.035	2300.73
990.332	2307.96
990.63	2312.48
990.927	2303.67
991.224	2263.67
991.521	2255.76
991.819	2291.69
992.116	2245.36
992.413	2243.1
992.71	2227.51
993.006	2194.74
993.303	2209.66
993.6	2195.2
993.897	2190.22
994.193	2192.03
994.49	2158.36
994.787	2145.48
995.083	2118.36
995.379	2124.01
995.676	2090.79
995.972	2123.79
996.268	2119.27
996.565	2084.46
996.861	2080.85
997.157	2065.71
997.453	2067.97
997.749	2073.17
998.044	2010.12
998.34	2022.32
998.636	2048.99
998.932	2014.41
999.227	1999.04
999.523	1993.17
999.818	1962.43
1000.114	1965.37
1000.409	1959.27
1000.704	1954.75
1001	1955.43
1001.295	1911.81
1001.59	1918.59
1001.885	1920.4
1002.18	1893.28
1002.475	1905.03
1002.77	1880.85
1003.065	1849.89
1003.359	1816.9
1003.654	1848.76
1003.949	1840.18
1004.243	1805.15
1004.538	1782.55
1004.832	1834.53
1005.127	1823
1005.421	1794.98
1005.715	1762.44
1006.009	1806.73
1006.304	1776.68
1006.598	1761.08
1006.892	1729.67
1007.186	1711.59
1007.48	1744.59
1007.773	1696.68
1008.067	1695.32
1008.361	1718.15
1008.655	1689
1008.948	1683.12
1009.242	1647.64
1009.535	1645.15
1009.829	1645.15
1010.122	1641.54
1010.415	1634.53
1010.708	1626.62
1011.001	1601.09
1011.295	1597.47
1011.588	1593.4
1011.881	1583.01
1012.173	1616.91
1012.466	1562.44
1012.759	1556.34
1013.052	1548.89
1013.344	1562.67
1013.637	1542.11
1013.93	1552.28
1014.222	1481.99
1014.514	1493.75
1014.807	1505.27
1015.099	1491.03
1015.391	1505.05
1015.683	1503.24
1015.976	1477.02
1016.268	1452.62
1016.56	1436.12
1016.851	1426.18
1017.143	1457.14
1017.435	1432.96
1017.727	1411.94
1018.018	1423.92
1018.31	1415.56
1018.602	1411.94
1018.893	1385.05
1019.185	1359.06
1019.476	1357.48
1019.767	1355.67
1020.058	1350.25
1020.35	1341.21
1020.641	1318.61
1020.932	1317.48
1021.223	1311.6
1021.514	1318.84
1021.804	1307.99
1022.095	1304.15
1022.386	1270.02
1022.677	1261.44
1022.967	1264.83
1023.258	1272.96
1023.548	1253.3
1023.839	1261.89
1024.129	1257.14
1024.419	1187.99
1024.709	1198.39
1025	1227.99
1025.29	1192.74
1025.58	1185.96
1025.87	1178.95
1026.16	1186.41
1026.449	1183.47
1026.739	1169.23
1027.029	1141.21
1027.319	1137.82
1027.608	1141.44
1027.898	1120.65
1028.187	1130.82
1028.477	1142.34
1028.766	1115.9
1029.055	1101.44
1029.344	1078.84
1029.634	1084.94
1029.923	1067.09
1030.212	1098.5
1030.501	1085.17
1030.79	1046.98
1031.078	1070.03
1031.367	1052.4
1031.656	1055.57
1031.945	1007.21
1032.233	1042.46
1032.522	1026.87
1032.81	996.36
1033.099	998.17
1033.387	987.09
1033.675	1002.01
1033.963	1009.46
1034.251	978.73
1034.54	999.97
1034.828	964.49
1035.116	956.13
1035.403	966.75
1035.691	939.86
1035.979	948.9
1036.267	949.13
1036.554	933.53
1036.842	918.62
1037.129	924.5
1037.417	910.26
1037.704	905.06
1037.992	908
1038.279	913.42
1038.566	898.96
1038.853	898.96
1039.14	898.96
