Data from hue_60_FLMS001491_32.txt Node
Date: Mon Feb 06 15:17:17 GMT 2017
User: dcchb
Spectrometer: FLMS00149
Trigger mode: 0
Integration Time (sec): 2.000000E-2
Scans to average: 10
Electric dark correction enabled: true
Nonlinearity correction enabled: false
Boxcar width: 0
XAxis mode: Wavelengths
Number of Pixels in Spectrum: 2048
>>>>>Begin Spectral Data<<<<<
341.393	6.62
341.776	6.62
342.16	6.62
342.543	-53.04
342.927	-74.28
343.31	-70.66
343.693	-96.88
344.077	-71.57
344.46	-69.53
344.843	-65.24
345.226	-36.54
345.61	-33.6
345.993	-14.17
346.376	-9.87
346.759	30.13
347.142	40.97
347.525	44.59
347.908	59.73
348.291	75.32
348.674	106.96
349.057	110.35
349.44	117.81
349.823	127.75
350.206	156.9
350.588	193.29
350.971	206.62
351.354	239.16
351.737	233.96
352.119	245.49
352.502	261.76
352.884	266.05
353.267	295.2
353.65	307.63
354.032	301.76
354.414	308.76
354.797	313.73
355.179	304.7
355.562	318.71
355.944	318.03
356.326	341.98
356.709	336.33
357.091	334.07
357.473	335.88
357.855	333.17
358.238	346.73
358.62	333.17
359.002	374.75
359.384	347.41
359.766	360.74
360.148	345.37
360.53	334.53
360.912	340.85
361.294	315.09
361.676	336.33
362.057	338.82
362.439	333.17
362.821	348.99
363.203	344.24
363.584	318.93
363.966	315.99
364.348	317.12
364.729	302.21
365.111	315.99
365.493	316.22
365.874	323
366.256	309.22
366.637	310.57
367.019	324.13
367.4	327.29
367.781	303.57
368.163	307.41
368.544	317.8
368.925	323
369.306	329.55
369.688	297.92
370.069	341.76
370.45	331.14
370.831	325.03
371.212	306.5
371.593	320.51
371.974	308.09
372.355	302.89
372.736	330.91
373.117	293.4
373.498	304.7
373.879	303.79
374.26	312.83
374.641	313.73
375.021	286.84
375.402	332.49
375.783	322.32
376.163	331.59
376.544	346.73
376.925	314.64
377.305	325.94
377.686	324.13
378.066	299.27
378.447	319.38
378.827	324.36
379.208	329.55
379.588	339.95
379.968	333.85
380.349	322.55
380.729	319.16
381.109	343.56
381.489	332.94
381.87	340.4
382.25	341.3
382.63	308.31
383.01	330.91
383.39	328.88
383.77	341.53
384.15	354.41
384.53	315.09
384.91	337.46
385.29	333.62
385.67	334.3
386.049	359.38
386.429	348.99
386.809	352.83
387.189	356.9
387.568	330.46
387.948	306.73
388.328	335.43
388.707	356.45
389.087	350.8
389.466	357.35
389.846	322.77
390.225	344.02
390.605	342.66
390.984	373.17
391.363	353.96
391.743	383.56
392.122	366.39
392.501	371.59
392.881	364.58
393.26	346.73
393.639	367.97
394.018	384.47
394.397	357.8
394.776	367.97
395.155	349.44
395.534	373.62
395.913	357.58
396.292	364.35
396.671	388.53
397.05	374.98
397.429	385.37
397.808	379.04
398.186	374.07
398.565	368.87
398.944	374.98
399.323	400.29
399.701	373.39
400.08	362.32
400.458	386.05
400.837	386.95
401.215	379.27
401.594	400.29
401.972	387.41
402.351	377.91
402.729	384.47
403.107	395.99
403.486	394.86
403.864	404.13
404.242	389.21
404.62	410
404.999	391.02
405.377	411.59
405.755	415.2
406.133	388.31
406.511	392.38
406.889	421.08
407.267	405.94
407.645	414.97
408.023	418.59
408.401	439.38
408.779	427.86
409.156	415.43
409.534	413.85
409.912	428.31
410.29	428.53
410.667	433.05
411.045	443
411.422	436.67
411.8	444.58
412.178	430.57
412.555	441.64
412.933	431.92
413.31	441.19
413.687	446.84
414.065	466.27
414.442	452.49
414.819	469.89
415.197	458.36
415.574	448.42
415.951	481.87
416.328	477.12
416.705	480.96
417.082	472.15
417.46	484.13
417.837	461.3
418.214	502.2
418.591	502.2
418.967	462.66
419.344	467.18
419.721	481.41
420.098	471.24
420.475	492.04
420.852	485.48
421.228	489.55
421.605	507.4
421.982	497.91
422.358	508.08
422.735	515.31
423.111	513.05
423.488	531.81
423.864	527.97
424.241	502.43
424.617	528.19
424.994	537.91
425.37	524.12
425.746	534.97
426.123	543.11
426.499	536.33
426.875	550.11
427.251	558.25
427.627	552.6
428.003	550.11
428.379	548.3
428.756	537.46
429.132	544.24
429.507	553.95
429.883	553.28
430.259	580.62
430.635	584.46
431.011	582.43
431.387	568.42
431.763	599.6
432.138	586.27
432.514	600.51
432.89	583.56
433.265	611.13
433.641	618.81
434.016	623.33
434.392	624.01
434.767	621.07
435.143	624.91
435.518	625.36
435.894	641.41
436.269	638.25
436.644	663.1
437.02	635.76
437.395	635.99
437.77	648.42
438.145	665.82
438.52	671.92
438.895	665.59
439.271	667.85
439.646	669.88
440.021	681.41
440.395	688.19
440.77	696.1
441.145	668.75
441.52	731.35
441.895	708.07
442.27	701.07
442.645	708.53
443.019	720.05
443.394	731.58
443.769	740.84
444.143	729.09
444.518	714.4
444.892	723.89
445.267	732.03
445.641	744.01
446.016	757.34
446.39	730.67
446.764	751.01
447.139	748.98
447.513	755.53
447.887	762.76
448.262	782.42
448.636	796.89
449.01	752.59
449.384	758.92
449.758	807.51
450.132	783.55
450.506	803.44
450.88	786.72
451.254	791.24
451.628	783.1
452.002	834.62
452.376	833.5
452.75	825.81
453.123	814.74
453.497	826.94
453.871	845.92
454.244	841.63
454.618	864.68
454.992	853.61
455.365	868.97
455.739	887.73
456.112	878.24
456.486	899.48
456.859	916.88
457.232	922.76
457.606	902.19
457.979	951.68
458.352	940.84
458.725	957.56
459.099	949.2
459.472	985.36
459.845	973.15
460.218	993.04
460.591	1008.18
460.964	1009.54
461.337	1031.46
461.71	1015.86
462.083	1049.76
462.456	1047.95
462.829	1062.87
463.201	1096.99
463.574	1071
463.947	1094.73
464.32	1122.53
464.692	1136.99
465.065	1122.98
465.438	1181.73
465.81	1158.46
466.183	1183.77
466.555	1210.43
466.928	1254.05
467.3	1257.66
467.672	1273.03
468.045	1306.02
468.417	1293.14
468.789	1321.39
469.161	1343.54
469.534	1375.4
469.906	1411.11
470.278	1422.86
470.65	1437.55
471.022	1466.7
471.394	1488.17
471.766	1507.38
472.138	1565.91
472.51	1573.14
472.882	1619.92
473.253	1653.13
473.625	1680.48
473.997	1715.51
474.369	1750.76
474.74	1751.66
475.112	1847.03
475.484	1867.82
475.855	1920.25
476.227	1962.96
476.598	2009.28
476.97	2073.69
477.341	2137.87
477.713	2150.97
478.084	2225.32
478.455	2269.16
478.827	2332.89
479.198	2398.65
479.569	2482.94
479.94	2571.08
480.311	2634.35
480.682	2710.96
481.053	2842.03
481.424	2875.48
481.795	2946.21
482.166	3033.44
482.537	3129.48
482.908	3214.22
483.279	3275.46
483.65	3392.52
484.021	3499.19
484.391	3619.64
484.762	3712.06
485.133	3772.85
485.503	3863.02
485.874	4070.7
486.244	4149.34
486.615	4247.87
486.985	4351.82
487.356	4518.6
487.726	4643.11
488.097	4779.15
488.467	4862.99
488.837	5011.24
489.207	5171.69
489.578	5216.43
489.948	5402.19
490.318	5536.42
490.688	5633.37
491.058	5818.22
491.428	5960.37
491.798	6126.01
492.168	6271.32
492.538	6394.25
492.908	6526
493.278	6714.24
493.648	6845.77
494.017	7000.79
494.387	7153.33
494.757	7244.85
495.126	7390.61
495.496	7564.17
495.866	7661.11
496.235	7891.61
496.605	8075.34
496.974	8157.82
497.344	8359.85
497.713	8521.88
498.082	8536.34
498.452	8774.98
498.821	8890.91
499.19	8950.12
499.559	9212.48
499.928	9322.76
500.298	9534.51
500.667	9592.59
501.036	9673.49
501.405	9907.15
501.774	9941.05
502.143	10120.26
502.512	10299.23
502.88	10350.53
503.249	10503.07
503.618	10598.21
503.987	10814.25
504.356	10917.52
504.724	10979.22
505.093	11195.26
505.462	11248.59
505.83	11419.43
506.199	11567
506.567	11837.73
506.936	11814.68
507.304	12054.22
507.672	12177.38
508.041	12230.94
508.409	12352.29
508.777	12594.99
509.145	12722.45
509.514	12819.85
509.882	12946.17
510.25	12999.28
510.618	13141.65
510.986	13253.51
511.354	13414.41
511.722	13645.14
512.09	13786.83
512.458	13835.64
512.826	14005.13
513.193	14067.5
513.561	14167.61
513.929	14283.08
514.297	14483.98
514.664	14584.32
515.032	14711.77
515.4	14947.47
515.767	15045.78
516.135	15109.28
516.502	15041.71
516.869	15330.74
517.237	15501.36
517.604	15462.04
517.972	15643.05
518.339	15846.21
518.706	15929.6
519.073	16069.25
519.44	16072.19
519.808	16349.47
520.175	16369.36
520.542	16663.14
520.909	16840.08
521.276	16760.76
521.643	17066.06
522.009	17167.08
522.376	17270.8
522.743	17383.12
523.11	17567.74
523.477	17772.48
523.843	17835.08
524.21	18055.42
524.577	18204.11
524.943	18340.15
525.31	18431.9
525.676	18634.16
526.043	18750.76
526.409	18826.69
526.776	19028.5
527.142	19024.2
527.508	19227.14
527.874	19438.2
528.241	19563.4
528.607	19704.64
528.973	19808.59
529.339	19892.88
529.705	20032.76
530.071	20180.1
530.437	20200.44
530.803	20481.57
531.169	20461.68
531.535	20503.49
531.901	20578.96
532.267	20725.4
532.632	20954.1
532.998	20865.28
533.364	21016.47
533.73	21072.74
534.095	21347.08
534.461	21355.67
534.826	21569
535.192	21659.16
535.557	21738.26
535.923	21773.74
536.288	21936.67
536.653	22073.39
537.019	22020.06
537.384	22100.28
537.749	22249.88
538.114	22312.7
538.479	22222.09
538.845	22403.55
539.21	22479.93
539.575	22553.83
539.94	22688.06
540.305	22788.4
540.67	22830.2
541.034	22918.11
541.399	23033.14
541.764	22992.69
542.129	23227.48
542.494	23087.15
542.858	23324.66
543.223	23249.4
543.587	23496.18
543.952	23556.06
544.316	23639.22
544.681	23709.5
545.045	23749.05
545.41	23886
545.774	23853.23
546.138	23912.89
546.503	23959.44
546.867	24031.08
547.231	24304.97
547.595	24169.38
547.959	24315.14
548.324	24390.62
548.688	24411.41
549.052	24488.92
549.416	24659.99
549.779	24575.02
550.143	24667.22
550.507	24831.28
550.871	24952.86
551.235	24968.23
551.599	25093.65
551.962	25196.24
552.326	25263.81
552.689	25493.64
553.053	25372.96
553.417	25379.74
553.78	25792.39
554.143	25798.49
554.507	25762.33
554.87	25846.4
555.234	26074.64
555.597	25980.63
555.96	26114.41
556.323	26301.98
556.686	26316.44
557.05	26579.03
557.413	26574.74
557.776	26698.13
558.139	26790.55
558.502	26898.8
558.865	26974.28
559.228	27166.36
559.59	27301.27
559.953	27244.33
560.316	27610.19
560.679	27589.4
561.041	27684.31
561.404	27820.13
561.767	28021.48
562.129	28022.61
562.492	28333.11
562.854	28336.27
563.217	28368.14
563.579	28435.03
563.941	28661.92
564.304	28729.26
564.666	28936.26
565.028	28963.38
565.39	29109.14
565.753	29290.37
566.115	29297.83
566.477	29524.27
566.839	29622.34
567.201	29863.01
567.563	29716.13
567.925	29785.73
568.287	30018.26
568.648	30013.97
569.01	30262.1
569.372	30445.15
569.734	30364.47
570.095	30564.46
570.457	30607.63
570.819	30695.99
571.18	30872.25
571.542	30895.76
571.903	30911.57
572.265	31022.08
572.626	31186.6
572.987	31206.48
573.349	31352.24
573.71	31642.85
574.071	31562.18
574.432	31754.49
574.794	31890.98
575.155	31949.29
575.516	31695.73
575.877	31970.53
576.238	32016.63
576.599	32167.36
576.96	32226.12
577.32	32234.48
577.681	32469.5
578.042	32432.66
578.403	32502.49
578.763	32612.32
579.124	32596.28
579.485	32718.08
579.845	32834.91
580.206	32693.22
580.566	32769.15
580.927	32836.5
581.287	32989.26
581.648	32930.96
582.008	32893.67
582.368	32863.84
582.728	32959.2
583.089	32897.51
583.449	32911.75
583.809	32973.21
584.169	33068.58
584.529	32997.4
584.889	33250.04
585.249	33062.7
585.609	33008.69
585.969	33309.93
586.329	33122.36
586.688	33187.9
587.048	33307.22
587.408	33203.27
587.768	33307.44
588.127	33223.38
588.487	33077.62
588.846	33433.99
589.206	33088.92
589.565	33337.5
589.925	33545.63
590.284	33354
590.643	33248.69
591.003	33558.28
591.362	33500.21
591.721	33372.75
592.08	33414.11
592.44	33619.75
592.799	33574.56
593.158	33450.49
593.517	33675.57
593.876	33683.48
594.235	33549.92
594.593	33706.53
594.952	33706.75
595.311	33595.12
595.67	33797.83
596.029	33998.05
596.387	33844.6
596.746	33977.48
597.104	33871.95
597.463	33771.84
597.822	33956.69
598.18	33843.93
598.538	33962.79
598.897	34066.97
599.255	33833.08
599.613	34440.07
599.972	34146.07
600.33	34123.69
600.688	34059.06
601.046	34261.09
601.404	34412.05
601.762	34276.68
602.12	34417.7
602.478	34412.95
602.836	34471.71
603.194	34420.86
603.552	34521.65
603.91	34365.49
604.268	34619.73
604.625	34549.44
604.983	34659.5
605.341	34536.56
605.698	34674.41
606.056	34799.61
606.413	34834.63
606.771	34808.65
607.128	34971.35
607.485	34888.64
607.843	34881.87
608.2	35170.67
608.557	35293.15
608.914	35165.02
609.272	35197.79
609.629	35357.11
609.986	35517.55
610.343	35324.79
610.7	35698.79
611.057	35577.89
611.414	35612.92
611.771	35587.38
612.127	35834.61
612.484	35920.26
612.841	35912.57
613.198	35710.32
613.554	35850.2
613.911	36066.92
614.267	36105.11
614.624	36035.73
614.98	36215.62
615.337	36241.6
615.693	36430.75
616.05	36115.28
616.406	36493.57
616.762	36388.49
617.118	36311.43
617.475	36518.21
617.831	36597.53
618.187	36576.28
618.543	36571.31
618.899	36750.06
619.255	36702.16
619.611	36832.32
619.967	36949.16
620.323	36956.39
620.678	36817.86
621.034	36861.02
621.39	36741.7
621.746	36866.67
622.101	37263.95
622.457	36893.79
622.812	37006.1
623.168	37292.2
623.523	37091.52
623.879	37336.04
624.234	36934.47
624.589	37284.74
624.945	37314.34
625.3	37340.78
625.655	37329.48
626.01	37270.5
626.365	37338.52
626.72	37350.73
627.075	37256.72
627.43	37297.4
627.785	37328.58
628.14	37335.81
628.495	37514.56
628.85	37359.99
629.205	37357.73
629.559	37510.95
629.914	37499.42
630.269	37380.56
630.623	37224.63
630.978	37278.41
631.332	37350.27
631.687	37456.71
632.041	37289.71
632.396	37255.81
632.75	37176.04
633.104	37445.87
633.459	37085.2
633.813	37077.51
634.167	37173.78
634.521	37160.68
634.875	37242.26
635.229	37173.33
635.583	36841.59
635.937	36991.19
636.291	37010.85
636.645	37029.38
636.999	36828.71
637.352	36995.71
637.706	36684.98
638.06	36972.88
638.413	36811.08
638.767	36788.26
639.121	36977.63
639.474	36807.92
639.828	36791.42
640.181	36817.63
640.534	36810.85
640.888	36610.86
641.241	36553.01
641.594	36590.29
641.947	36800.46
642.301	36694.7
642.654	36709.39
643.007	36626
643.36	36665.32
643.713	36547.58
644.066	36685.89
644.419	36418.77
644.771	36203.64
645.124	35918.9
645.477	35880.71
645.83	35580.15
646.182	35562.75
646.535	35443.43
646.888	35315.07
647.24	35251.57
647.593	35434.17
647.945	35438.23
648.298	35169.09
648.65	35115.31
649.002	35095.42
649.355	35326.6
649.707	35093.16
650.059	35282.08
650.411	35795.06
650.763	35722.97
651.115	36088.16
651.467	35945.34
651.819	35953.25
652.171	35819.92
652.523	35852.24
652.875	35882.52
653.227	35640.49
653.578	35900.37
653.93	35757.77
654.282	35674.84
654.633	35568.17
654.985	35668.96
655.337	35721.84
655.688	35780.6
656.039	35743.09
656.391	35443.43
656.742	35588.06
657.094	35608.85
657.445	35717.1
657.796	35600.49
658.147	35519.36
658.498	35544.22
658.849	35525.24
659.2	35482.3
659.551	35480.04
659.902	35580.83
660.253	35606.37
660.604	35513.04
660.955	35412.47
661.306	35412.25
661.656	35472.58
662.007	35424.68
662.358	35422.87
662.708	35359.37
663.059	35469.42
663.409	35249.77
663.76	35384
664.11	35356.88
664.461	35418.8
664.811	35310.78
665.161	35423.09
665.511	35348.07
665.862	35181.07
666.212	35421.74
666.562	35356.2
666.912	35239.37
667.262	35371.8
667.612	35285.47
667.962	35409.99
668.312	35322.08
668.662	35388.29
669.011	35374.28
669.361	35187.17
669.711	35196.89
670.06	35095.87
670.41	35108.53
670.76	34965.93
671.109	35241.63
671.459	35139.71
671.808	35063.1
672.157	35187.39
672.507	34936.55
672.856	35015.42
673.205	35039.83
673.554	35101.52
673.904	35027.85
674.253	35109.66
674.602	34934.75
674.951	34412.05
675.3	34387.19
675.649	34923.22
675.998	34858.82
676.346	34955.31
676.695	35132.71
677.044	34762.77
677.393	34866.27
677.741	34915.31
678.09	34843
678.438	34751.7
678.787	34738.82
679.135	34746.73
679.484	34529.33
679.832	34697.46
680.181	34429.67
680.529	34694.98
680.877	34553.51
681.225	34424.93
681.573	34707.18
681.922	34340.64
682.27	34306.06
682.618	34246.63
682.966	34233.97
683.314	34244.82
683.661	34069.46
684.009	34058.84
684.357	33983.58
684.705	33984.94
685.053	33932.74
685.4	33869.01
685.748	33768
686.095	33731.39
686.443	33489.13
686.79	33623.59
687.138	33668.79
687.485	33561.9
687.832	33498.17
688.18	33514.9
688.527	33203.94
688.874	33323.26
689.221	33249.82
689.568	33110.16
689.915	32992.2
690.262	33127.34
690.609	33013.89
690.956	32891.18
691.303	32825.42
691.65	32697.29
691.997	32661.36
692.344	32565.54
692.69	32460.23
693.037	32581.59
693.383	32212.56
693.73	32348.82
694.077	32092.11
694.423	32149.06
694.769	32125.55
695.116	31972.56
695.462	31864.32
695.808	31767.6
696.155	31873.13
696.501	31648.96
696.847	31642.85
697.193	31369.42
697.539	31440.37
697.885	31313.15
698.231	31178.01
698.577	31268.63
698.923	31087.61
699.269	30915.19
699.614	30863.67
699.96	30847.17
700.306	30776.44
700.651	30749.77
700.997	30581.41
701.342	30560.85
701.688	30592.26
702.033	30418.48
702.379	30263.23
702.724	30307.3
703.069	30313.85
703.415	30119.5
703.76	30046.74
704.105	30051.48
704.45	30098.71
704.795	29769.46
705.14	29772.17
705.485	29555.68
705.83	29593.19
706.175	29571.27
706.52	29658.5
706.865	29439.52
707.209	29415.79
707.554	29301.9
707.899	29266.19
708.243	29190.26
708.588	29065.52
708.932	28986.43
709.277	28860.55
709.621	28815.36
709.966	28787.34
710.31	28825.3
710.654	28578.08
710.998	28703.04
711.342	28657.17
711.687	28533.78
712.031	28382.15
712.375	28276.16
712.719	28268.71
713.063	28333.56
713.407	28373.56
713.75	28125.66
714.094	28167.69
714.438	28103.29
714.782	28109.61
715.125	27969.96
715.469	28052.89
715.812	27860.13
716.156	27682.96
716.499	27753.47
716.843	27865.33
717.186	27555.28
717.53	27696.74
717.873	27723.18
718.216	27680.7
718.559	27470.76
718.902	27311.89
719.246	27439.35
719.589	27325.45
719.932	27194.84
720.275	27268.28
720.617	27125.91
720.96	27174.72
721.303	27083.43
721.646	27047.04
721.989	26981.06
722.331	27001.62
722.674	26969.08
723.016	26936.54
723.359	27000.04
723.701	26869.42
724.044	26720.95
724.386	26604.79
724.729	26695.64
725.071	26602.99
725.413	26557.79
725.755	26645.47
726.097	26545.36
726.439	26373.16
726.782	26249.78
727.124	26538.36
727.465	26192.38
727.807	26167.74
728.149	26225.14
728.491	26194.86
728.833	26265.59
729.175	26071.02
729.516	26038.93
729.858	25957.35
730.199	26026.73
730.541	25907.86
730.882	25901.08
731.224	25847.75
731.565	25647.31
731.906	25804.82
732.248	25730.69
732.589	25649.57
732.93	25591.71
733.271	25679.4
733.612	25567.99
733.953	25654.31
734.294	25529.12
734.635	25387.2
734.976	25606.18
735.317	25310.37
735.658	25306.98
735.999	25371.38
736.339	25261.55
736.68	25273.53
737.021	25196.24
737.361	25080.09
737.702	25255.9
738.042	25219.75
738.383	25090.71
738.723	25179.07
739.063	25043.71
739.404	25054.78
739.744	24971.62
740.084	24837.38
740.424	25027.89
740.764	24801.9
741.104	24966.87
741.444	24865.63
741.784	24783.83
742.124	24826.99
742.464	24635.58
742.804	24704.05
743.143	24590.84
743.483	24563.72
743.823	24426.1
744.162	24556.26
744.502	24550.61
744.841	24379.32
745.181	24494.79
745.52	24273.33
745.86	24384.29
746.199	24265.65
746.538	24263.16
746.877	24330.05
747.216	24202.37
747.556	24106.78
747.895	24136.61
748.234	24111.3
748.573	24011.87
748.911	23924.87
749.25	23941.14
749.589	23897.52
749.928	23889.16
750.267	23832.44
750.605	23798.99
750.944	23703.4
751.283	23715.15
751.621	23681.03
751.96	23538.89
752.298	23576.17
752.636	23580.92
752.975	23568.94
753.313	23354.03
753.651	23397.42
753.989	23269.29
754.327	23406.46
754.666	23187.26
755.004	23305.67
755.342	23207.6
755.679	23134.6
756.017	22926.93
756.355	22961.95
756.693	22881.05
757.031	22937.32
757.368	22869.07
757.706	22776.19
758.044	22729.42
758.381	22824.33
758.719	22609.87
759.056	22547.27
759.394	22598.35
759.731	22484.23
760.068	22375.3
760.405	22339.6
760.743	22282.2
761.08	22258.47
761.417	22095.76
761.754	22000.4
762.091	21999.49
762.428	21832.49
762.765	21732.38
763.102	21961.75
763.438	21693.51
763.775	21620.07
764.112	21587.3
764.449	21642.89
764.785	21493.97
765.122	21234.31
765.458	21353.18
765.795	21291.26
766.131	21318.38
766.467	21221.21
766.804	21180.98
767.14	20978.95
767.476	20951.61
767.812	20955.23
768.148	20962.23
768.485	20776.7
768.821	20679.53
769.157	20681.33
769.492	20645.86
769.828	20676.36
770.164	20437.05
770.5	20353.66
770.836	20380.78
771.171	20212.65
771.507	20183.72
771.842	20025.31
772.178	20067.79
772.513	20123.38
772.849	19948.47
773.184	19920.68
773.519	19904.63
773.855	19741.02
774.19	19614.47
774.525	19722.94
774.86	19581.7
775.195	19418.09
775.53	19431.88
775.865	19316.62
776.2	19200.02
776.535	18988.27
776.87	19060.13
777.205	18973.13
777.539	18862.17
777.874	19009.51
778.209	18773.36
778.543	18728.84
778.878	18553.71
779.212	18605.91
779.547	18449.98
779.881	18460.83
780.215	18326.82
780.55	18421.96
780.884	18303.32
781.218	18206.15
781.552	18265.58
781.886	18150.55
782.22	17965.93
782.554	17960.5
782.888	17784.91
783.222	17733.62
783.556	17643.67
783.889	17674.86
784.223	17445.26
784.557	17454.07
784.89	17497.01
785.224	17349.22
785.557	17381.31
785.891	17348.32
786.224	17214.31
786.558	17207.08
786.891	17042.79
787.224	17034.42
787.557	16993.3
787.891	16947.87
788.224	16876.69
788.557	16878.72
788.89	16747.65
789.223	16815.9
789.556	16591.95
789.888	16566.41
790.221	16586.3
790.554	16344.95
790.887	16344.5
791.219	16417.04
791.552	16256.37
791.884	16198.74
792.217	16208.68
792.549	16172.07
792.882	16039.87
793.214	15929.14
793.546	16011.63
793.879	15909.93
794.211	15827.45
794.543	15758.3
794.875	15759.66
795.207	15761.92
795.539	15648.02
795.871	15676.72
796.203	15544.07
796.535	15419.55
796.867	15452.09
797.198	15269.27
797.53	15362.38
797.862	15223.85
798.193	15232.21
798.525	15222.04
798.856	15208.26
799.188	15031.31
799.519	14987.25
799.85	14932.33
800.182	14905.22
800.513	14929.62
800.844	14862.5
801.175	14864.09
801.506	14911.32
801.837	14690.08
802.168	14681.04
802.499	14691.21
802.83	14621.61
803.161	14509.75
803.491	14540.71
803.822	14491.67
804.153	14415.06
804.483	14306.14
804.814	14244.89
805.145	14279.92
805.475	14321.95
805.805	14239.02
806.136	14186.14
806.466	14123.77
806.796	14134.61
807.126	14032.92
807.457	14014.62
807.787	13984.56
808.117	13942.98
808.447	13938.69
808.777	13880.16
809.107	13817.33
809.436	13814.4
809.766	13752.93
810.096	13730.11
810.426	13714.06
810.755	13667.51
811.085	13679.94
811.414	13639.71
811.744	13455.99
812.073	13505.7
812.403	13409.89
812.732	13370.11
813.061	13279.27
813.39	13270.46
813.719	13297.12
814.049	13448.76
814.378	13217.8
814.707	13160.63
815.036	13151.82
815.365	13074.53
815.693	13001.31
816.022	13064.13
816.351	12999.95
816.68	12884.25
817.008	12884.48
817.337	12880.64
817.665	12816.46
817.994	12802.9
818.322	12847.64
818.651	12747.98
818.979	12717.48
819.307	12763.8
819.636	12737.14
819.964	12661.43
820.292	12705.27
820.62	12686.52
820.948	12574.88
821.276	12603.13
821.604	12626.86
821.932	12551.6
822.259	12572.85
822.587	12596.8
822.915	12441.55
823.243	12669.57
823.57	12525.39
823.898	12499.63
824.225	12490.82
824.553	12472.51
824.88	12545.73
825.207	12493.98
825.535	12491.04
825.862	12543.24
826.189	12476.13
826.516	12517.48
826.843	12571.94
827.17	12576.92
827.497	12558.16
827.824	12521.32
828.151	12520.19
828.478	12500.98
828.805	12529.46
829.131	12461.44
829.458	12421.89
829.785	12414.43
830.111	12426.64
830.438	12543.92
830.764	12484.71
831.09	12415.79
831.417	12414.89
831.743	12466.64
832.069	12480.65
832.395	12347.32
832.722	12417.82
833.048	12424.83
833.374	12383.7
833.7	12242.23
834.026	12345.28
834.351	12397.48
834.677	12348.67
835.003	12285.4
835.329	12318.62
835.654	12369.24
835.98	12303.93
836.306	12262.35
836.631	12190.48
836.956	12195.68
837.282	12228.45
837.607	12183.71
837.932	12179.86
838.258	12163.82
838.583	12153.2
838.908	12020.55
839.233	12119.3
839.558	12028.91
839.883	12043.6
840.208	11974.22
840.533	11976.93
840.858	11996.82
841.182	11960.43
841.507	11969.25
841.832	11944.84
842.156	11819.65
842.481	11866.2
842.805	11786.65
843.13	11785.52
843.454	11772.19
843.778	11666.43
844.103	11708.46
844.427	11638.18
844.751	11700.55
845.075	11629.6
845.399	11521.12
845.723	11547.56
846.047	11578.3
846.371	11506.89
846.695	11486.77
847.019	11346.66
847.343	11335.82
847.666	11279.32
847.99	11176.95
848.313	11124.52
848.637	11152.32
848.96	11169.49
849.284	11091.08
849.607	11074.58
849.931	10990.06
850.254	10897.19
850.577	10858.99
850.9	10786.68
851.223	10818.54
851.546	10693.35
851.869	10635.05
852.192	10740.35
852.515	10554.82
852.838	10536.06
853.161	10607.48
853.483	10472.79
853.806	10414.49
854.129	10480.02
854.451	10459.23
854.774	10323.87
855.096	10356.18
855.419	10278.9
855.741	10263.76
856.063	10191.67
856.385	10162.97
856.708	10133.14
857.03	10080.71
857.352	10147.6
857.674	10121.39
857.996	9992.12
858.318	9975.85
858.64	10005.91
858.961	9953.48
859.283	9893.14
859.605	9883.88
859.926	9855.63
860.248	9880.04
860.57	9770.44
860.891	9858.34
861.212	9737.22
861.534	9703.32
861.855	9720.72
862.176	9776.99
862.498	9747.16
862.819	9753.49
863.14	9716.88
863.461	9595.98
863.782	9602.98
864.103	9577.9
864.424	9585.81
864.745	9597.56
865.065	9552.81
865.386	9523.44
865.707	9504.23
866.027	9514.17
866.348	9493.15
866.668	9458.35
866.989	9445.02
867.309	9373.84
867.63	9363.44
867.95	9362.54
868.27	9287.96
868.59	9368.19
868.91	9346.94
869.23	9384.68
869.55	9265.36
869.87	9292.71
870.19	9221.98
870.51	9302.2
870.83	9286.61
871.15	9246.61
871.469	9218.59
871.789	9245.03
872.109	9186.5
872.428	9234.18
872.748	9183.78
873.067	9184.24
873.386	9237.79
873.706	9177.46
874.025	9125.71
874.344	9073.73
874.663	9091.36
874.982	9072.6
875.301	9008.2
875.62	9045.93
875.939	8946.05
876.258	8967.97
876.577	9034.18
876.896	8948.54
877.214	8895.2
877.533	8971.81
877.852	8863.79
878.17	8922.1
878.489	8946.73
878.807	8897.01
879.125	8825.15
879.444	8850.23
879.762	8770.69
880.08	8892.94
880.398	8766.39
880.716	8761.87
881.034	8751.25
881.352	8727.98
881.67	8720.97
881.988	8782.44
882.306	8743.34
882.624	8628.77
882.941	8667.41
883.259	8616.34
883.577	8605.49
883.894	8617.47
884.212	8551.71
884.529	8512.84
884.846	8574.08
885.164	8495.44
885.481	8480.53
885.798	8529.34
886.115	8509.9
886.432	8406.4
886.75	8391.49
887.067	8386.29
887.383	8386.97
887.7	8355.78
888.017	8316.91
888.334	8380.42
888.651	8277.59
888.967	8275.56
889.284	8221.78
889.6	8223.58
889.917	8125.73
890.233	8185.62
890.55	8116.69
890.866	8065.62
891.182	8082.12
891.498	8159.4
891.815	8101.55
892.131	8020.42
892.447	7971.16
892.763	8011.16
893.079	7984.04
893.395	7964.61
893.71	7940.65
894.026	7947.66
894.342	7857.49
894.657	7833.54
894.973	7861.78
895.289	7837.83
895.604	7824.5
895.92	7748.34
896.235	7662.24
896.55	7691.85
896.865	7710.83
897.181	7707.89
897.496	7688.68
897.811	7620.66
898.126	7547.89
898.441	7548.57
898.756	7520.55
899.071	7515.13
899.386	7543.15
899.7	7392.87
900.015	7406.66
900.33	7327.11
900.644	7332.31
900.959	7305.87
901.273	7341.8
901.588	7218.86
901.902	7223.38
902.216	7248.02
902.531	7192.2
902.845	7150.62
903.159	7114.69
903.473	7097.96
903.787	7033.11
904.101	7040.79
904.415	7031.75
904.729	6997.63
905.042	7014.58
905.356	6995.14
905.67	6928.93
905.984	6989.49
906.297	6908.82
906.611	6829.95
906.924	6847.8
907.237	6771.42
907.551	6746.11
907.864	6759.21
908.177	6770.74
908.491	6712.66
908.804	6688.03
909.117	6615.72
909.43	6644.87
909.743	6632.21
910.056	6588.37
910.368	6576.85
910.681	6440.13
910.994	6526.23
911.307	6495.04
911.619	6424.99
911.932	6479
912.244	6366.91
912.557	6356.97
912.869	6367.13
913.181	6302.73
913.494	6320.81
913.806	6251.88
914.118	6209.17
914.43	6216.63
914.742	6160.81
915.054	6167.37
915.366	6125.56
915.678	6121.72
915.99	6109.29
916.302	6027.48
916.613	6046.69
916.925	6021.83
917.236	6014.15
917.548	5915.4
917.859	6026.35
918.171	5930.31
918.482	5884.89
918.794	5852.8
919.105	5802.18
919.416	5772.35
919.727	5802.18
920.038	5810.99
920.349	5717.43
920.66	5721.95
920.971	5690.32
921.282	5604.67
921.593	5658
921.903	5608.74
922.214	5646.7
922.525	5643.54
922.835	5561.73
923.146	5568.74
923.456	5510.43
923.767	5512.02
924.077	5489.87
924.387	5465.46
924.697	5450.32
925.008	5436.54
925.318	5376.43
925.628	5425.01
925.938	5351.57
926.248	5261.85
926.558	5318.35
926.867	5278.35
927.177	5238.12
927.487	5223.21
927.796	5166.04
928.106	5168.97
928.416	5182.99
928.725	5146.83
929.034	5120.39
929.344	5149.31
929.653	5124.46
929.962	4987.74
930.271	5017.11
930.581	4983.44
930.89	5006.27
931.199	4972.37
931.508	4946.61
931.817	4954.97
932.125	4905.25
932.434	4918.36
932.743	4876.33
933.051	4860.73
933.36	4800.85
933.669	4746.61
933.977	4802.88
934.286	4762.21
934.594	4772.15
934.902	4705.48
935.21	4688.76
935.519	4641.53
935.827	4671.36
936.135	4674.98
936.443	4587.29
936.751	4595.88
937.059	4600.4
937.367	4554.53
937.674	4569.89
937.982	4560.4
938.29	4514.53
938.597	4502.33
938.905	4486.51
939.213	4430.01
939.52	4440.63
939.827	4436.34
940.135	4367.87
940.442	4357.92
940.749	4380.52
941.056	4358.6
941.363	4324.7
941.67	4278.6
941.977	4308.43
942.284	4237.25
942.591	4255.55
942.898	4261.43
943.205	4212.39
943.511	4191.6
943.818	4192.05
944.125	4170.13
944.431	4082.9
944.738	4137.14
945.044	4109.57
945.35	4098.72
945.657	4058.49
945.963	4096.69
946.269	4006.97
946.575	4041.55
946.881	3993.86
947.187	3980.53
947.493	3945.96
947.799	3983.02
948.105	3952.74
948.41	3882.23
948.716	3905.96
949.022	3886.75
949.327	3839.97
949.633	3829.57
949.938	3827.31
950.244	3789.12
950.549	3812.63
950.854	3784.15
951.16	3751.61
951.465	3736.24
951.77	3706.19
952.075	3698.96
952.38	3703.02
952.685	3721.33
952.99	3670.93
953.294	3623.7
953.599	3637.26
953.904	3650.37
954.209	3607.89
954.513	3604.04
954.818	3574.44
955.122	3553.88
955.426	3570.82
955.731	3529.02
956.035	3493.09
956.339	3492.41
956.643	3508.9
956.948	3480.88
957.252	3465.97
957.556	3475.46
957.86	3430.94
958.163	3423.26
958.467	3406.31
958.771	3381.9
959.075	3386.87
959.378	3335.35
959.682	3371.28
959.985	3356.59
960.289	3310.27
960.592	3319.98
960.896	3311.17
961.199	3305.52
961.502	3239.76
961.805	3269.36
962.108	3186.65
962.411	3200.21
962.714	3172.64
963.017	3196.6
963.32	3203.38
963.623	3172.42
963.926	3147.33
964.228	3157.5
964.531	3122.02
964.833	3103.94
965.136	3076.6
965.438	3061.01
965.741	3064.17
966.043	3068.46
966.345	3020.33
966.648	3019.65
966.95	3026.66
967.252	2977.85
967.554	2991.86
967.856	2972.42
968.158	2951.63
968.46	2992.31
968.761	2937.85
969.063	2922.25
969.365	2922.48
969.666	2911.18
969.968	2870.05
970.269	2886.1
970.571	2859.66
970.872	2841.35
971.174	2815.59
971.475	2850.17
971.776	2802.71
972.077	2810.84
972.378	2818.53
972.679	2791.41
972.98	2782.82
973.281	2770.85
973.582	2761.81
973.883	2737.17
974.183	2721.58
974.484	2729.49
974.785	2705.99
975.085	2679.77
975.386	2672.32
975.686	2677.06
975.986	2654.69
976.287	2644.97
976.587	2600
976.887	2608.59
977.187	2615.6
977.487	2592.77
977.787	2588.93
978.087	2567.23
978.387	2574.69
978.687	2522.26
978.987	2520.23
979.286	2550.06
979.586	2543.73
979.885	2496.05
980.185	2480.23
980.484	2509.84
980.784	2468.71
981.083	2484.3
981.382	2468.25
981.682	2449.5
981.981	2449.5
982.28	2414.47
982.579	2401.59
982.878	2398.43
983.177	2389.39
983.475	2362.95
983.774	2359.33
984.073	2394.13
984.372	2359.1
984.67	2348.48
984.969	2333.57
985.267	2298.54
985.566	2304.64
985.864	2303.06
986.162	2296.28
986.461	2265.55
986.759	2251.99
987.057	2218.32
987.355	2208.6
987.653	2231.42
987.951	2188.94
988.249	2211.76
988.547	2225.55
988.844	2164.99
989.142	2172.22
989.44	2165.89
989.737	2176.96
990.035	2185.1
990.332	2148.04
990.63	2151.2
990.927	2132.67
991.224	2150.07
991.521	2100.35
991.819	2131.54
992.116	2089.96
992.413	2063.97
992.71	2084.54
993.006	2045.89
993.303	2080.92
993.6	2061.71
993.897	2061.03
994.193	2031.88
994.49	2023.97
994.787	2026.23
995.083	1974.71
995.379	1995.05
995.676	1963.18
995.972	1971.09
996.268	1979
996.565	1958.66
996.861	1934.71
997.157	1956.63
997.453	1935.39
997.749	1914.37
998.044	1904.88
998.34	1877.31
998.636	1900.59
998.932	1883.18
999.227	1882.96
999.523	1844.77
999.818	1852
1000.114	1847.93
1000.409	1842.06
1000.704	1809.97
1001	1819.46
1001.295	1800.25
1001.59	1770.65
1001.885	1806.58
1002.18	1777.43
1002.475	1766.35
1002.77	1748.05
1003.065	1729.74
1003.359	1749.4
1003.654	1756.18
1003.949	1696.52
1004.243	1683.64
1004.538	1691.55
1004.832	1701.95
1005.127	1691.55
1005.421	1691.33
1005.715	1690.2
1006.009	1658.56
1006.304	1644.77
1006.598	1626.02
1006.892	1647.48
1007.186	1616.75
1007.48	1572.46
1007.773	1585.79
1008.067	1623.08
1008.361	1579.92
1008.655	1598.9
1008.948	1546.92
1009.242	1540.14
1009.535	1546.47
1009.829	1552.8
1010.122	1539.47
1010.415	1528.84
1010.708	1532.01
1011.001	1514.61
1011.295	1531.78
1011.588	1501.73
1011.881	1496.3
1012.173	1519.13
1012.466	1481.61
1012.759	1500.14
1013.052	1476.64
1013.344	1447.04
1013.637	1454.04
1013.93	1421.73
1014.222	1436.19
1014.514	1406.14
1014.807	1419.92
1015.099	1399.81
1015.391	1400.49
1015.683	1372.69
1015.976	1369.07
1016.268	1375.85
1016.56	1353.48
1016.851	1346.48
1017.143	1349.19
1017.435	1350.09
1017.727	1328.17
1018.018	1303.54
1018.31	1325.91
1018.602	1297.66
1018.893	1314.61
1019.185	1301.51
1019.476	1286.36
1019.767	1263.09
1020.058	1280.49
1020.35	1241.85
1020.641	1230.77
1020.932	1259.7
1021.223	1242.98
1021.514	1226.03
1021.804	1235.07
1022.095	1232.35
1022.386	1208.17
1022.677	1227.38
1022.967	1231
1023.258	1162.98
1023.548	1183.77
1023.839	1168.18
1024.129	1132.92
1024.419	1149.87
1024.709	1128.85
1025	1139.7
1025.29	1125.24
1025.58	1139.93
1025.87	1138.12
1026.16	1105.13
1026.449	1117.56
1026.739	1089.08
1027.029	1103.09
1027.319	1087.95
1027.608	1070.1
1027.898	1072.36
1028.187	1075.97
1028.477	1075.07
1028.766	1051.12
1029.055	1068.52
1029.344	1039.59
1029.634	1042.3
1029.923	1007.28
1030.212	1041.85
1030.501	1008.18
1030.79	1017.9
1031.078	1009.76
1031.367	1004.79
1031.656	1013.15
1031.945	983.77
1032.233	958.46
1032.522	962.53
1032.81	955.3
1033.099	967.5
1033.387	940.38
1033.675	960.72
1033.963	955.07
1034.251	953.27
1034.54	921.4
1034.828	922.98
1035.116	917.56
1035.403	892.02
1035.691	928.18
1035.979	915.07
1036.267	901.06
1036.554	887.73
1036.842	879.37
1037.129	867.62
1037.417	881.86
1037.704	861.74
1037.992	868.07
1038.279	864
1038.566	844.57
1038.853	844.57
1039.14	844.57
