Data from hue_250_FLMS001491_00040.txt Node
Date: Tue Feb 07 16:00:54 GMT 2017
User: dcchb
Spectrometer: FLMS00149
Trigger mode: 0
Integration Time (sec): 2.000000E-2
Scans to average: 10
Electric dark correction enabled: true
Nonlinearity correction enabled: false
Boxcar width: 0
XAxis mode: Wavelengths
Number of Pixels in Spectrum: 2048
>>>>>Begin Spectral Data<<<<<
341.393	-5.65
341.776	-5.65
342.16	-5.65
342.543	-57.17
342.927	-76.38
343.31	-57.4
343.693	-50.85
344.077	-73.22
344.46	-64.86
344.843	-51.75
345.226	-31.64
345.61	-33.22
345.993	-16.27
346.376	-9.94
346.759	7.46
347.142	18.98
347.525	30.06
347.908	40.45
348.291	79.55
348.674	86.33
349.057	126.32
349.44	125.87
349.823	129.71
350.206	167.91
350.588	174.01
350.971	177.62
351.354	232.99
351.737	231.18
352.119	243.61
352.502	263.95
352.884	267.79
353.267	282.93
353.65	272.08
354.032	303.27
354.414	295.81
354.797	312.31
355.179	339.43
355.562	314.57
355.944	311.18
356.326	325.42
356.709	339.88
357.091	309.82
357.473	319.99
357.855	302.14
358.238	328.58
358.62	332.65
359.002	314.34
359.384	323.61
359.766	319.54
360.148	327.9
360.53	312.31
360.912	336.49
361.294	326.77
361.676	339.88
362.057	329.48
362.439	323.83
362.821	307.56
363.203	308.24
363.584	319.99
363.966	322.03
364.348	327.45
364.729	319.54
365.111	310.05
365.493	323.61
365.874	296.49
366.256	315.7
366.637	317.05
367.019	319.54
367.4	312.76
367.781	304.17
368.163	282.03
368.544	311.86
368.925	307.34
369.306	316.6
369.688	295.81
370.069	322.25
370.45	306.21
370.831	303.04
371.212	310.27
371.593	315.02
371.974	286.32
372.355	293.78
372.736	293.1
373.117	307.34
373.498	298.07
373.879	301.69
374.26	301.46
374.641	303.95
375.021	308.47
375.402	326.32
375.783	326.55
376.163	308.47
376.544	316.38
376.925	324.96
377.305	328.13
377.686	322.03
378.066	324.29
378.447	324.06
378.827	311.86
379.208	329.93
379.588	308.92
379.968	321.12
380.349	328.58
380.729	327.45
381.109	329.71
381.489	319.31
381.87	327.9
382.25	341.23
382.63	324.51
383.01	327.22
383.39	368.35
383.77	328.13
384.15	335.36
384.53	343.04
384.91	334
385.29	331.52
385.67	363.61
386.049	319.77
386.429	313.44
386.809	349.82
387.189	333.78
387.568	331.52
387.948	354.11
388.328	336.04
388.707	342.59
389.087	353.44
389.466	348.01
389.846	354.11
390.225	340.33
390.605	355.92
390.984	354.11
391.363	357.28
391.743	363.38
392.122	364.28
392.501	382.36
392.881	383.27
393.26	381.01
393.639	361.8
394.018	388.01
394.397	373.55
394.776	375.13
395.155	369.93
395.534	377.84
395.913	368.8
396.292	393.89
396.671	399.54
397.05	402.93
397.429	383.04
397.808	408.35
398.186	379.88
398.565	401.35
398.944	387.11
399.323	396.83
399.701	406.99
400.08	414.68
400.458	414.68
400.837	403.38
401.215	390.5
401.594	403.15
401.972	411.06
402.351	422.81
402.729	414.68
403.107	436.82
403.486	418.52
403.864	418.75
404.242	412.19
404.62	444.73
404.999	430.72
405.377	432.31
405.755	425.3
406.133	435.92
406.511	450.16
406.889	444.51
407.267	456.49
407.645	448.58
408.023	457.62
408.401	478.18
408.779	474.34
409.156	489.93
409.534	481.12
409.912	497.39
410.29	480.89
410.667	495.58
411.045	508.69
411.422	516.6
411.8	526.77
412.178	543.26
412.555	529.93
412.933	527.9
413.31	544.84
413.687	532.64
414.065	555.92
414.442	570.15
414.819	575.58
415.197	584.17
415.574	603.6
415.951	557.5
416.328	595.69
416.705	597.05
417.082	601.11
417.46	598.63
417.837	599.53
418.214	578.97
418.591	633.2
418.967	637.72
419.344	627.78
419.721	632.75
420.098	668.46
420.475	670.49
420.852	677.27
421.228	677.27
421.605	682.24
421.982	674.33
422.358	696.03
422.735	702.81
423.111	721.79
423.488	719.3
423.864	746.65
424.241	754.78
424.617	762.24
424.994	768.12
425.37	778.51
425.746	793.43
426.123	789.81
426.499	803.59
426.875	799.3
427.251	822.8
427.627	832.07
428.003	843.82
428.379	850.15
428.756	850.83
429.132	889.69
429.507	862.58
429.883	890.37
430.259	886.98
430.635	922.69
431.011	903.25
431.387	940.99
431.763	942.12
432.138	966.3
432.514	971.27
432.89	967.66
433.265	1004.49
433.641	1023.48
434.016	1012.85
434.392	1016.02
434.767	1069.12
435.143	1078.84
435.518	1060.76
435.894	1104.15
436.269	1107.99
436.644	1124.26
437.02	1148.67
437.395	1137.37
437.77	1167.2
438.145	1202
438.52	1173.75
438.895	1198.16
439.271	1222.79
439.646	1263.92
440.021	1282.68
440.395	1267.99
440.77	1277.71
441.145	1256.24
441.52	1308.67
441.895	1333.52
442.27	1329.68
442.645	1335.33
443.019	1350.92
443.394	1334.65
443.769	1380.75
444.143	1365.16
444.518	1390.92
444.892	1405.39
445.267	1446.06
445.641	1434.99
446.016	1408.32
446.39	1439.06
446.764	1474.99
447.139	1434.76
447.513	1448.55
447.887	1447.87
448.262	1486.51
448.636	1492.84
449.01	1518.83
449.384	1526.51
449.758	1538.49
450.132	1554.99
450.506	1559.06
450.88	1571.03
451.254	1588.43
451.628	1604.93
452.002	1617.81
452.376	1608.77
452.75	1613.74
453.123	1619.62
453.497	1670.92
453.871	1709.56
454.244	1727.19
454.618	1720.41
454.992	1742.1
455.365	1724.47
455.739	1759.5
456.112	1808.77
456.486	1788.65
456.859	1814.19
457.232	1866.17
457.606	1844.7
457.979	1858.48
458.352	1917.24
458.725	1921.76
459.099	1914.98
459.472	1961.98
459.845	1964.47
460.218	1980.74
460.591	2009.89
460.964	2013.73
461.337	2078.59
461.71	2062.54
462.083	2073.17
462.456	2155.42
462.829	2135.76
463.201	2151.81
463.574	2185.71
463.947	2188.19
464.32	2223.44
464.692	2246.27
465.065	2232.26
465.438	2305.48
465.81	2330.33
466.183	2351.58
466.555	2391.8
466.928	2381.63
467.3	2400.39
467.672	2427.96
468.045	2428.18
468.417	2491.46
468.789	2517.9
469.161	2549.54
469.534	2607.62
469.906	2631.12
470.278	2626.6
470.65	2658.01
471.022	2713.15
471.394	2769.19
471.766	2792.24
472.138	2794.95
472.51	2825.01
472.882	2860.49
473.253	2928.51
473.625	2936.19
473.997	3025.46
474.369	3025.91
474.74	3017.32
475.112	3096.64
475.484	3174.61
475.855	3163.31
476.227	3208.05
476.598	3281.5
476.97	3267.26
477.341	3340.25
477.713	3396.52
478.084	3387.71
478.455	3452.79
478.827	3516.52
479.198	3634.93
479.569	3587.93
479.94	3705.21
480.311	3729.62
480.682	3753.35
481.053	3849.39
481.424	3931.87
481.795	3920.8
482.166	3961.93
482.537	4009.61
482.908	4124.86
483.279	4161.02
483.65	4164.41
484.021	4273.33
484.391	4317.4
484.762	4346.78
485.133	4414.35
485.503	4421.35
485.874	4502.71
486.244	4572.31
486.615	4609.6
486.985	4623.38
487.356	4744.28
487.726	4766.88
488.097	4866.09
488.467	4878.74
488.837	4984.28
489.207	5031.28
489.578	5066.31
489.948	5110.6
490.318	5126.19
490.688	5170.03
491.058	5210.94
491.428	5299.97
491.798	5332.97
492.168	5409.8
492.538	5439.86
492.908	5484.38
493.278	5562.79
493.648	5549.23
494.017	5609.34
494.387	5686.86
494.757	5673.75
495.126	5730.47
495.496	5770.02
495.866	5789.23
496.235	5874.2
496.605	5864.48
496.974	5951.03
497.344	5937.7
497.713	5973.63
498.082	6005.04
498.452	5988.09
498.821	6062.89
499.19	6122.32
499.559	6108.54
499.928	6222.89
500.298	6185.6
500.667	6211.14
501.036	6224.47
501.405	6328.65
501.774	6233.96
502.143	6335.43
502.512	6311.02
502.88	6411.81
503.249	6370.91
503.618	6444.12
503.987	6419.94
504.356	6440.96
504.724	6458.59
505.093	6539.04
505.462	6479.6
505.83	6570
506.199	6589.88
506.567	6645.02
506.936	6599.83
507.304	6661.75
507.672	6709.2
508.041	6738.81
508.409	6745.13
508.777	6792.59
509.145	6816.32
509.514	6837.11
509.882	6897.22
510.25	6837.56
510.618	6836.43
510.986	6774.29
511.354	6917.56
511.722	6979.93
512.09	6998.69
512.458	7002.3
512.826	7086.82
513.193	7078.46
513.561	7038.23
513.929	7114.16
514.297	7153.48
514.664	7134.28
515.032	7152.35
515.4	7209.3
515.767	7177.21
516.135	7151.68
516.502	7177.89
516.869	7253.37
517.237	7250.2
517.604	7276.87
517.972	7332.46
518.339	7300.15
518.706	7330.2
519.073	7332.69
519.44	7364.33
519.808	7433.25
520.175	7373.14
520.542	7497.43
520.909	7471.67
521.276	7426.47
521.643	7487.49
522.009	7546.69
522.376	7523.42
522.743	7604.55
523.11	7583.76
523.477	7639.35
523.843	7698.78
524.21	7756.86
524.577	7728.38
524.943	7731.1
525.31	7743.98
525.676	7800.02
526.043	7798.21
526.409	7789.85
526.776	7871.88
527.142	7859.91
527.508	7897.19
527.874	7915.27
528.241	7877.08
528.607	7891.09
528.973	7920.7
529.339	7951.43
529.705	7949.17
530.071	7973.58
530.437	7951.2
530.803	7972.22
531.169	8033.24
531.535	8000.02
531.901	7949.4
532.267	7996.17
532.632	8002.5
532.998	8010.41
533.364	8050.18
533.73	8009.51
534.095	8067.36
534.461	8070.52
534.826	8057.19
535.192	8133.8
535.557	8085.89
535.923	8070.3
536.288	8100.13
536.653	8066
537.019	8094.25
537.384	8064.65
537.749	8074.14
538.114	7994.37
538.479	8036.62
538.845	8099.22
539.21	8000.24
539.575	8055.83
539.94	8014.93
540.305	8101.48
540.67	8045.66
541.034	8028.26
541.399	8019
541.764	8056.96
542.129	8033.24
542.494	7984.42
542.858	8013.12
543.223	8064.87
543.587	8039.11
543.952	8023.74
544.316	7998.21
544.681	7993.91
545.045	8059.9
545.41	8033.46
545.774	8085.21
546.138	8025.1
546.503	7993.91
546.867	7985.1
547.231	8038.66
547.595	7908.72
547.959	8011.77
548.324	7960.02
548.688	7986.46
549.052	7969.28
549.416	7946.23
549.779	8015.61
550.143	7970.86
550.507	7980.58
550.871	7946.91
551.235	7942.84
551.599	7962.28
551.962	8009.51
552.326	7947.14
552.689	7987.13
553.053	7931.99
553.417	7951.88
553.78	7980.36
554.143	7922.5
554.507	7993.24
554.87	7996.85
555.234	7997.98
555.597	8029.85
555.96	7957.76
556.323	8028.72
556.686	7993.01
557.05	7995.72
557.413	7974.25
557.776	7939.9
558.139	8094.02
558.502	8021.48
558.865	8100.13
559.228	8164.76
559.59	8033.46
559.953	8058.32
560.316	8125.66
560.679	8104.19
561.041	8203.85
561.404	8165.44
561.767	8240.69
562.129	8145.32
562.492	8221.48
562.854	8258.99
563.217	8207.69
563.579	8220.35
563.941	8257.18
564.304	8278.2
564.666	8345.32
565.028	8306.22
565.39	8344.41
565.753	8359.78
566.115	8406.33
566.477	8395.94
566.839	8348.03
567.201	8368.37
567.563	8460.57
567.925	8472.32
568.287	8476.39
568.648	8503.05
569.01	8505.54
569.372	8564.29
569.734	8527.23
570.095	8581.7
570.457	8648.36
570.819	8650.39
571.18	8620.34
571.542	8663.5
571.903	8685.42
572.265	8705.31
572.626	8722.71
572.987	8679.77
573.349	8732.2
573.71	8772.65
574.071	8770.16
574.432	8868.02
574.794	8866.66
575.155	8898.3
575.516	8817.4
575.877	8844.06
576.238	8928.13
576.599	8944.85
576.96	8927
577.32	8930.61
577.681	8991.63
578.042	8994.79
578.403	9050.16
578.763	9025.53
579.124	9042.25
579.485	9071.17
579.845	9042.25
580.206	9067.33
580.566	9118.86
580.927	9090.61
581.287	9172.41
581.648	9138.97
582.008	9244.5
582.368	9208.12
582.728	9139.65
583.089	9165.63
583.449	9249.93
583.809	9265.29
584.169	9256.71
584.529	9238.18
584.889	9363.6
585.249	9208.12
585.609	9242.47
585.969	9271.62
586.329	9313.43
586.688	9324.05
587.048	9357.95
587.408	9326.53
587.768	9327.21
588.127	9294.9
588.487	9350.94
588.846	9386.87
589.206	9327.89
589.565	9376.25
589.925	9409.24
590.284	9362.92
590.643	9432.75
591.003	9491.05
591.362	9482.91
591.721	9452.41
592.08	9411.05
592.44	9537.83
592.799	9494.67
593.158	9504.16
593.517	9477.49
593.876	9471.62
594.235	9507.55
594.593	9502.8
594.952	9540.99
595.311	9533.76
595.67	9499.86
596.029	9608.11
596.387	9542.35
596.746	9624.61
597.104	9590.71
597.463	9533.76
597.822	9554.33
598.18	9561.56
598.538	9629.58
598.897	9649.01
599.255	9547.55
599.613	9714.32
599.972	9607.43
600.33	9662.34
600.688	9622.57
601.046	9677.03
601.404	9715.22
601.762	9647.2
602.12	9668.22
602.478	9705.51
602.836	9719.29
603.194	9723.59
603.552	9698.05
603.91	9680.42
604.268	9607.43
604.625	9654.44
604.983	9708.9
605.341	9700.08
605.698	9658.28
606.056	9720.65
606.413	9683.81
606.771	9736.02
607.128	9779.63
607.485	9746.86
607.843	9750.7
608.2	9734.43
608.557	9756.13
608.914	9724.04
609.272	9837.48
609.629	9802
609.986	9792.96
610.343	9848.55
610.7	9907.31
611.057	9868.89
611.414	9914.99
611.771	9848.78
612.127	9869.12
612.484	9896.01
612.841	9958.61
613.198	9820.76
613.554	9918.16
613.911	9947.31
614.267	9943.69
614.624	9911.6
614.98	9955.67
615.337	9992.28
615.693	9962
616.05	9961.32
616.406	10051.49
616.762	9995.22
617.118	9940.53
617.475	10003.58
617.831	10113.86
618.187	9993.64
618.543	10063.92
618.899	10021.43
619.255	10108.21
619.611	10104.37
619.967	10104.37
620.323	10103.69
620.678	10061.2
621.034	10035.89
621.39	10063.01
621.746	9995.22
622.101	10166.51
622.457	10044.26
622.812	10156.34
623.168	10079.06
623.523	10092.62
623.879	10150.92
624.234	10024.6
624.589	10081.77
624.945	10144.37
625.3	10112.73
625.655	10103.92
626.01	10087.19
626.365	10121.99
626.72	10051.49
627.075	10101.2
627.43	10072.73
627.785	10044.26
628.14	10063.92
628.495	10023.92
628.85	10074.99
629.205	9969.46
629.559	10069.79
629.914	10006.06
630.269	10020.75
630.623	9994.99
630.978	9980.98
631.332	9978.49
631.687	9986.18
632.041	9975.56
632.396	9991.15
632.75	9943.02
633.104	9980.75
633.459	9943.24
633.813	9905.05
634.167	9889.23
634.521	9864.6
634.875	9885.39
635.229	9937.82
635.583	9898.04
635.937	9877.48
636.291	9816.24
636.645	9825.73
636.999	9841.55
637.352	9830.02
637.706	9784.83
638.06	9734.21
638.413	9813.75
638.767	9708.45
639.121	9742.79
639.474	9707.09
639.828	9739.4
640.181	9691.95
640.534	9694.89
640.888	9621.22
641.241	9591.16
641.594	9602.46
641.947	9712.06
642.301	9729.01
642.654	9609.01
643.007	9610.82
643.36	9660.76
643.713	9666.86
644.066	9670.25
644.419	9644.94
644.771	9555.68
645.124	9454.89
645.477	9469.36
645.83	9428.68
646.182	9354.78
646.535	9276.59
646.888	9301.9
647.24	9214.67
647.593	9264.62
647.945	9304.84
648.298	9238.63
648.65	9291.28
649.002	9188.91
649.355	9272.75
649.707	9235.92
650.059	9267.55
650.411	9408.79
650.763	9468.23
651.115	9542.35
651.467	9488.56
651.819	9459.86
652.171	9457.83
652.523	9414.44
652.875	9415.12
653.227	9437.27
653.578	9467.77
653.93	9423.26
654.282	9407.89
654.633	9388
654.985	9377.38
655.337	9446.76
655.688	9399.75
656.039	9418.51
656.391	9401.79
656.742	9342.35
657.094	9370.83
657.445	9428.23
657.796	9444.27
658.147	9445.63
658.498	9464.61
658.849	9448.34
659.2	9360.88
659.551	9388.91
659.902	9418.06
660.253	9408.11
660.604	9389.13
660.955	9379.41
661.306	9447.44
661.656	9378.74
662.007	9371.96
662.358	9445.4
662.708	9434.55
663.059	9392.75
663.409	9379.19
663.76	9387.78
664.11	9340.55
664.461	9408.57
664.811	9365.4
665.161	9472.07
665.511	9352.75
665.862	9465.29
666.212	9449.92
666.562	9495.34
666.912	9390.26
667.262	9411.5
667.612	9409.92
667.962	9454.44
668.312	9354.1
668.662	9447.66
669.011	9430.71
669.361	9429.81
669.711	9445.4
670.06	9367.21
670.41	9431.39
670.76	9442.01
671.109	9427.32
671.459	9363.14
671.808	9404.72
672.157	9383.71
672.507	9298.06
672.856	9368.34
673.205	9336.93
673.554	9390.49
673.904	9309.59
674.253	9419.19
674.602	9284.28
674.951	9244.95
675.3	9159.99
675.649	9328.57
675.998	9305.07
676.346	9295.35
676.695	9294.9
677.044	9219.87
677.393	9278.85
677.741	9268.68
678.09	9191.85
678.438	9135.35
678.787	9195.24
679.135	9200.66
679.484	9152.98
679.832	9176.93
680.181	9117.95
680.529	9112.3
680.877	9138.52
681.225	9156.6
681.573	9143.71
681.922	9114.34
682.27	9035.24
682.618	9039.76
682.966	8978.07
683.314	8997.28
683.661	8956.6
684.009	8957.28
684.357	8970.39
684.705	8909.82
685.053	8969.03
685.4	8883.83
685.748	8905.53
686.095	8916.6
686.443	8862.82
686.79	8871.41
687.138	8822.82
687.485	8857.39
687.832	8755.02
688.18	8793.89
688.527	8736.49
688.874	8755.25
689.221	8737.62
689.568	8645.42
689.915	8729.04
690.262	8646.55
690.609	8641.81
690.956	8569.27
691.303	8585.09
691.65	8548.48
691.997	8533.79
692.344	8420.34
692.69	8409.27
693.037	8409.04
693.383	8377.86
693.73	8468.93
694.077	8335.83
694.423	8315.49
694.769	8273.91
695.116	8253.79
695.462	8241.82
695.808	8167.02
696.155	8233.68
696.501	8233.23
696.847	8145.55
697.193	8097.64
697.539	8141.71
697.885	8060.58
698.231	8072.56
698.577	8042.95
698.923	8039.56
699.269	7996.4
699.614	7901.04
699.96	7905.1
700.306	7936.97
700.651	7870.08
700.997	7876.4
701.342	7819
701.688	7827.14
702.033	7789.17
702.379	7746.01
702.724	7747.37
703.069	7738.1
703.415	7605
703.76	7633.92
704.105	7702.85
704.45	7631.66
704.795	7579.01
705.14	7549.41
705.485	7533.36
705.83	7491.55
706.175	7513.25
706.52	7448.62
706.865	7409.3
707.209	7433.93
707.554	7416.53
707.899	7426.47
708.243	7382.18
708.588	7366.81
708.932	7278.9
709.277	7307.83
709.621	7310.09
709.966	7240.71
710.31	7246.59
710.654	7212.92
710.998	7188.51
711.342	7216.08
711.687	7179.02
712.031	7173.14
712.375	7111
712.719	7115.97
713.063	7057.22
713.407	7104.22
713.75	7082.75
714.094	7096.08
714.438	7071
714.782	7105.12
715.125	7009.99
715.469	7010.44
715.812	6997.56
716.156	6986.03
716.499	6919.82
716.843	6963.66
717.186	6955.52
717.53	6936.99
717.873	6967.27
718.216	6937.22
718.559	6914.39
718.902	6833.94
719.246	6890.67
719.589	6832.36
719.932	6788.75
720.275	6824.91
720.617	6866.94
720.96	6804.34
721.303	6795.53
721.646	6740.16
721.989	6786.49
722.331	6795.08
722.674	6817.67
723.016	6794.4
723.359	6802.98
723.701	6773.16
724.044	6765.7
724.386	6728.41
724.729	6779.71
725.071	6693.16
725.413	6757.79
725.755	6725.92
726.097	6678.69
726.439	6712.14
726.782	6615.42
727.124	6686.15
727.465	6657
727.807	6671.24
728.149	6653.61
728.491	6668.98
728.833	6666.04
729.175	6626.94
729.516	6591.69
729.858	6630.79
730.199	6645.47
730.541	6626.94
730.882	6584.01
731.224	6641.86
731.565	6554.63
731.906	6644.35
732.248	6646.38
732.589	6612.03
732.93	6518.25
733.271	6612.26
733.612	6573.84
733.953	6560.73
734.294	6575.42
734.635	6550.11
734.976	6577.91
735.317	6588.08
735.658	6558.92
735.999	6566.83
736.339	6535.65
736.68	6526.38
737.021	6513.73
737.361	6524.57
737.702	6600.05
738.042	6565.7
738.383	6558.7
738.723	6533.61
739.063	6551.69
739.404	6589.43
739.744	6578.36
740.084	6581.97
740.424	6593.72
740.764	6645.47
741.104	6643.22
741.444	6604.57
741.784	6548.3
742.124	6626.04
742.464	6634.4
742.804	6640.28
743.143	6660.39
743.483	6653.16
743.823	6683.21
744.162	6665.59
744.502	6667.17
744.841	6682.08
745.181	6734.74
745.52	6751.46
745.86	6768.86
746.199	6763.66
746.538	6738.35
746.877	6887.5
747.216	6886.15
747.556	6863.1
747.895	6925.24
748.234	6950.55
748.573	6946.48
748.911	7005.01
749.25	6997.33
749.589	7056.54
749.928	7068.29
750.267	7124.11
750.605	7195.29
750.944	7266.48
751.283	7288.4
751.621	7333.37
751.96	7376.53
752.298	7423.31
752.636	7501.27
752.975	7524.1
753.313	7564.55
753.651	7708.27
753.989	7695.16
754.327	7807.48
754.666	7831.21
755.004	7931.99
755.342	7941.71
755.679	8146
756.017	8089.05
756.355	8274.36
756.693	8355.71
757.031	8466.9
757.368	8506.44
757.706	8612.88
758.044	8701.24
758.381	8818.98
758.719	8903.49
759.056	8984.85
759.394	9047.67
759.731	9156.14
760.068	9264.62
760.405	9355.91
760.743	9501.9
761.08	9579.86
761.417	9675.9
761.754	9793.87
762.091	9828.89
762.428	9872.28
762.765	10036.8
763.102	10163.57
763.438	10164.48
763.775	10352.27
764.112	10401.99
764.449	10627.97
764.785	10615.54
765.122	10613.96
765.458	10752.03
765.795	10810.34
766.131	10951.12
766.467	11111.35
766.804	11088.97
767.14	11167.62
767.476	11320.38
767.812	11338.91
768.148	11396.31
768.485	11408.29
768.821	11526.93
769.157	11606.47
769.492	11671.11
769.828	11722.4
770.164	11681.27
770.5	11753.59
770.836	11945.22
771.171	11911.1
771.507	11990.42
771.842	11889.18
772.178	12087.14
772.513	12048.04
772.849	12147.25
773.184	12182.73
773.519	12231.99
773.855	12261.82
774.19	12316.29
774.525	12320.58
774.86	12409.84
775.195	12407.81
775.53	12474.7
775.865	12400.8
776.2	12398.32
776.535	12349.51
776.87	12425.21
777.205	12487.13
777.539	12455.94
777.874	12542.27
778.209	12411.88
778.543	12482.16
778.878	12429.96
779.212	12486
779.547	12469.95
779.881	12503.4
780.215	12526.68
780.55	12565.77
780.884	12447.58
781.218	12510.63
781.552	12525.09
781.886	12417.3
782.22	12452.33
782.554	12410.3
782.888	12393.8
783.222	12418.66
783.556	12445.32
783.889	12350.86
784.223	12268.6
784.557	12242.62
784.89	12385.44
785.224	12344.53
785.557	12238.55
785.891	12311.54
786.224	12234.48
786.558	12253.24
786.891	12205.78
787.224	12175.73
787.557	12098.21
787.891	12189.96
788.224	12128.27
788.557	12196.52
788.89	12152.45
789.223	12128.95
789.556	12086.01
789.888	12042.62
790.221	11991.55
790.554	11926.69
790.887	11962.4
791.219	11965.79
791.552	11927.37
791.884	11892.34
792.217	11794.72
792.549	11903.42
792.882	11808.5
793.214	11751.78
793.546	11796.53
793.879	11723.76
794.211	11654.83
794.543	11726.7
794.875	11590.2
795.207	11719.01
795.539	11557.21
795.871	11574.61
796.203	11532.35
796.535	11454.84
796.867	11502.3
797.198	11488.06
797.53	11430.21
797.862	11407.38
798.193	11455.29
798.525	11274.73
798.856	11408.29
799.188	11310.44
799.519	11204
799.85	11237.22
800.182	11269.53
800.513	11164.45
800.844	11143.44
801.175	11139.82
801.506	11138.01
801.837	11130.33
802.168	11075.19
802.499	11054.17
802.83	11131.01
803.161	10997
803.491	10958.36
803.822	11011.46
804.153	10980.5
804.483	10875.65
804.814	10895.76
805.145	10890.56
805.475	10826.61
805.805	10805.59
806.136	10754.07
806.466	10778.25
806.796	10771.47
807.126	10670.68
807.457	10624.13
807.787	10721.75
808.117	10668.87
808.447	10587.74
808.777	10630.91
809.107	10549.78
809.436	10477.01
809.766	10521.53
810.096	10503
810.426	10444.92
810.755	10418.71
811.085	10476.33
811.414	10386.85
811.744	10413.74
812.073	10339.16
812.403	10380.29
812.732	10290.58
813.061	10279.28
813.39	10270.01
813.719	10200.41
814.049	10280.18
814.378	10270.69
814.707	10192.73
815.036	10233.86
815.365	10143.01
815.693	10046.97
816.022	10073.41
816.351	10040.64
816.68	9999.29
817.008	10016.01
817.337	9887.88
817.665	9893.53
817.994	9939.4
818.322	9917.93
818.651	9868.44
818.979	9864.6
819.307	9878.84
819.636	9883.81
819.964	9801.1
820.292	9914.99
820.62	9856.01
820.948	9783.92
821.276	9826.63
821.604	9770.82
821.932	9854.2
822.259	9833.19
822.587	9750.48
822.915	9726.98
823.243	9778.27
823.57	9739.63
823.898	9715.22
824.225	9777.37
824.553	9725.85
824.88	9743.02
825.207	9798.39
825.535	9774.43
825.862	9810.14
826.189	9767.2
826.516	9825.96
826.843	9803.13
827.17	9772.17
827.497	9795.45
827.824	9866.18
828.151	9824.83
828.478	9824.6
828.805	9884.71
829.131	9834.54
829.458	9780.31
829.785	9811.72
830.111	9876.12
830.438	9882
830.764	9785.05
831.09	9795.45
831.417	9780.99
831.743	9830.93
832.069	9824.6
832.395	9713.87
832.722	9835.45
833.048	9748.67
833.374	9838.84
833.7	9744.83
834.026	9718.84
834.351	9768.33
834.677	9733.3
835.003	9729.24
835.329	9801.1
835.654	9724.26
835.98	9687.88
836.306	9720.65
836.631	9711.38
836.956	9679.97
837.282	9705.51
837.607	9672.97
837.932	9553.65
838.258	9579.64
838.583	9578.28
838.908	9577.83
839.233	9559.3
839.558	9528.56
839.883	9496.7
840.208	9541.9
840.533	9509.58
840.858	9529.92
841.182	9461.9
841.507	9572.18
841.832	9416.02
842.156	9443.37
842.481	9391.17
842.805	9415.8
843.13	9383.48
843.454	9341.22
843.778	9337.83
844.103	9308
844.427	9254.67
844.751	9293.77
845.075	9251.96
845.399	9209.48
845.723	9155.69
846.047	9138.97
846.371	9100.78
846.695	9131.96
847.019	8990.72
847.343	8971.29
847.666	8979.65
847.99	8869.6
848.313	8847.23
848.637	8820.79
848.96	8844.51
849.284	8798.86
849.607	8785.53
849.931	8739.88
850.254	8699.21
850.577	8593.45
850.9	8587.57
851.223	8594.58
851.546	8552.77
851.869	8475.94
852.192	8458.08
852.515	8447.24
852.838	8383.28
853.161	8411.98
853.483	8355.71
853.806	8342.15
854.129	8392.55
854.451	8320.91
854.774	8285.88
855.096	8196.85
855.419	8224.19
855.741	8216.51
856.063	8146.9
856.385	8135.83
856.708	8058.55
857.03	8063.74
857.352	8080.47
857.674	8074.82
857.996	7986.23
858.318	7975.16
858.64	8013.8
858.961	7951.43
859.283	7988.49
859.605	7939
859.926	7967.7
860.248	7900.81
860.57	7847.25
860.891	7836.18
861.212	7825.78
861.534	7734.03
861.855	7771.77
862.176	7775.61
862.498	7787.37
862.819	7788.5
863.14	7751.89
863.461	7678.67
863.782	7675.96
864.103	7685.22
864.424	7663.3
864.745	7650.87
865.065	7583.76
865.386	7558.67
865.707	7570.42
866.027	7652.68
866.348	7607.26
866.668	7612.23
866.989	7569.52
867.309	7596.18
867.63	7481.84
867.95	7562.74
868.27	7489.52
868.59	7457.21
868.91	7471.22
869.23	7494.49
869.55	7495.4
869.87	7472.35
870.19	7471.22
870.51	7487.94
870.83	7455.17
871.15	7413.82
871.469	7381.5
871.789	7407.94
872.109	7382.18
872.428	7368.62
872.748	7328.62
873.067	7409.3
873.386	7357.32
873.706	7311.22
874.025	7340.82
874.344	7318.9
874.663	7290.88
874.982	7263.09
875.301	7265.35
875.62	7239.36
875.939	7238.91
876.258	7251.79
876.577	7196.42
876.896	7181.96
877.214	7160.26
877.533	7232.13
877.852	7147.83
878.17	7222.41
878.489	7192.35
878.807	7118.23
879.125	7113.03
879.444	7103.77
879.762	7176.08
880.08	7098.57
880.398	7079.59
880.716	7023.32
881.034	7067.61
881.352	7079.59
881.67	6983.77
881.988	6991
882.306	7017.44
882.624	6929.08
882.941	6948.29
883.259	6895.64
883.577	6908.74
883.894	6870.33
884.212	6892.25
884.529	6892.02
884.846	6881.85
885.164	6875.98
885.481	6787.17
885.798	6820.84
886.115	6802.98
886.432	6767.28
886.75	6713.04
887.067	6764.12
887.383	6698.35
887.7	6728.86
888.017	6678.02
888.334	6658.36
888.651	6687.96
888.967	6598.92
889.284	6650.9
889.6	6648.86
889.917	6521.64
890.233	6603.44
890.55	6589.21
890.866	6567.28
891.182	6507.63
891.498	6506.5
891.815	6449.32
892.131	6467.17
892.447	6513.73
892.763	6438.25
893.079	6435.76
893.395	6441.41
893.71	6378.36
894.026	6372.26
894.342	6386.05
894.657	6306.27
894.973	6263.11
895.289	6213.85
895.604	6268.08
895.92	6228.08
896.235	6248.65
896.55	6256.78
896.865	6183.79
897.181	6175.2
897.496	6175.66
897.811	6131.82
898.126	6144.47
898.441	6102.89
898.756	6092.5
899.071	6043
899.386	6008.88
899.7	5978.83
900.015	5950.8
900.33	5909.9
900.644	5980.63
900.959	5898.38
901.273	5915.55
901.588	5845.04
901.902	5850.02
902.216	5816.34
902.531	5828.77
902.845	5756.01
903.159	5723.24
903.473	5731.37
903.787	5720.98
904.101	5662
904.415	5716.69
904.729	5680.75
905.042	5658.61
905.356	5662.68
905.67	5668.55
905.984	5609.57
906.297	5595.33
906.611	5535.45
906.924	5575.45
907.237	5543.81
907.551	5491.38
907.864	5489.12
908.177	5450.48
908.491	5415.45
908.804	5430.82
909.117	5361.44
909.43	5389.69
909.743	5330.03
910.056	5323.7
910.368	5280.09
910.681	5191.05
910.994	5239.86
911.307	5262.46
911.619	5175.01
911.932	5197.83
912.244	5176.59
912.557	5188.11
912.869	5158.96
913.181	5144.72
913.494	5095.69
913.806	5047.78
914.118	4985.18
914.43	4979.53
914.742	4951.28
915.054	4997.16
915.366	4959.87
915.678	4920.55
915.99	4961.23
916.302	4916.93
916.613	4856.82
916.925	4873.77
917.236	4881.91
917.548	4829.93
917.859	4850.27
918.171	4803.49
918.482	4744.51
918.794	4767.78
919.105	4768.69
919.416	4673.32
919.727	4752.42
920.038	4716.94
920.349	4683.94
920.66	4678.75
920.971	4666.09
921.282	4588.81
921.593	4621.57
921.903	4568.24
922.214	4528.47
922.525	4550.39
922.835	4526.21
923.146	4518.75
923.456	4465.87
923.767	4549.26
924.077	4457.96
924.387	4499.54
924.697	4376.83
925.008	4420
925.318	4377.74
925.628	4358.08
925.938	4354.24
926.248	4292.54
926.558	4326.67
926.867	4292.99
927.177	4283.96
927.487	4310.85
927.796	4285.76
928.106	4247.8
928.416	4239.21
928.725	4198.53
929.034	4184.97
929.344	4177.74
929.653	4101.59
929.962	4140.68
930.271	4139.55
930.581	4085.77
930.89	4072.44
931.199	4057.07
931.508	4057.97
931.817	4093.45
932.125	4036.73
932.434	4035.37
932.743	3953.57
933.051	3945.88
933.36	3969.84
933.669	3952.66
933.977	3941.14
934.286	3908.15
934.594	3909.95
934.902	3865.66
935.21	3852.78
935.519	3839.9
935.827	3839
936.135	3849.39
936.443	3797.19
936.751	3777.53
937.059	3783.63
937.367	3772.1
937.674	3773.01
937.982	3719.9
938.29	3707.25
938.597	3722.61
938.905	3634.71
939.213	3625.22
939.52	3666.57
939.827	3659.56
940.135	3653.69
940.442	3583.63
940.749	3615.5
941.056	3553.58
941.363	3534.6
941.67	3551.55
941.977	3534.14
942.284	3528.95
942.591	3503.18
942.898	3482.62
943.205	3464.09
943.511	3445.79
943.818	3426.12
944.125	3423.41
944.431	3416.86
944.738	3424.09
945.044	3370.08
945.35	3390.87
945.657	3349.29
945.963	3336.18
946.269	3294.83
946.575	3373.02
946.881	3291.21
947.187	3309.07
947.493	3272.91
947.799	3257.99
948.105	3242.17
948.41	3242.63
948.716	3253.7
949.022	3189.29
949.327	3192.68
949.633	3192.23
949.938	3153.59
950.244	3157.88
950.549	3150.2
950.854	3136.64
951.16	3114.49
951.465	3127.83
951.77	3100.48
952.075	3061.84
952.38	3106.58
952.685	3067.94
952.99	3047.38
953.294	3020.71
953.599	3000.83
953.904	2971.45
954.209	2992.69
954.513	3002.18
954.818	2962.18
955.122	2970.32
955.426	2947.49
955.731	2943.2
956.035	2903.2
956.339	2904.33
956.643	2927.38
956.948	2870.43
957.252	2876.31
957.556	2889.64
957.86	2808.06
958.163	2830.43
958.467	2822.07
958.771	2797.44
959.075	2830.21
959.378	2780.94
959.682	2806.25
959.985	2777.78
960.289	2784.33
960.592	2748.4
960.896	2702.3
961.199	2751.11
961.502	2729.19
961.805	2713.83
962.108	2678.8
962.411	2673.83
962.714	2681.74
963.017	2632.47
963.32	2632.7
963.623	2649.2
963.926	2627.28
964.228	2574.62
964.531	2594.73
964.833	2593.6
965.136	2549.31
965.438	2570.55
965.741	2567.39
966.043	2534.62
966.345	2548.86
966.648	2534.62
966.95	2509.54
967.252	2509.31
967.554	2511.57
967.856	2488.3
968.158	2501.4
968.46	2458.01
968.761	2501.18
969.063	2460.27
969.365	2455.08
969.666	2452.14
969.968	2413.95
970.269	2411.69
970.571	2411.91
970.872	2395.64
971.174	2388.86
971.475	2345.48
971.776	2339.83
972.077	2340.96
972.378	2323.55
972.679	2341.86
972.98	2345.25
973.281	2311.58
973.582	2317.45
973.883	2284.46
974.183	2266.16
974.484	2282.43
974.785	2282.2
975.085	2272.26
975.386	2265.03
975.686	2247.17
975.986	2226.61
976.287	2201.75
976.587	2193.61
976.887	2168.98
977.187	2200.62
977.487	2144.8
977.787	2146.16
978.087	2156.78
978.387	2172.82
978.687	2180.73
978.987	2148.42
979.286	2127.63
979.586	2141.64
979.885	2073.84
980.185	2073.17
980.484	2107.74
980.784	2067.52
981.083	2044.47
981.382	2053.28
981.682	2039.95
981.981	2010.12
982.28	2023.68
982.579	2007.63
982.878	2022.55
983.177	2027.74
983.475	1984.35
983.774	2006.5
984.073	1983.22
984.372	1980.29
984.67	1961.53
984.969	1986.39
985.267	1987.07
985.566	1978.48
985.864	1914.07
986.162	1926.05
986.461	1922.66
986.759	1925.15
987.057	1872.04
987.355	1915.88
987.653	1904.81
987.951	1888.09
988.249	1867.07
988.547	1842.66
988.844	1848.76
989.142	1865.94
989.44	1837.01
989.737	1852.15
990.035	1808.54
990.332	1801.31
990.63	1800.86
990.927	1794.3
991.224	1786.85
991.521	1779.39
991.819	1752.27
992.116	1778.71
992.413	1759.5
992.71	1739.62
993.006	1718.6
993.303	1740.75
993.6	1727.19
993.897	1719.73
994.193	1734.19
994.49	1705.04
994.787	1679.05
995.083	1724.47
995.379	1678.15
995.676	1720.86
995.972	1655.32
996.268	1616.45
996.565	1652.84
996.861	1634.31
997.157	1613.74
997.453	1627.3
997.749	1632.05
998.044	1597.47
998.34	1600.41
998.636	1605.83
998.932	1610.35
999.227	1571.48
999.523	1584.14
999.818	1572.61
1000.114	1536.91
1000.409	1540.52
1000.704	1531.03
1001	1529
1001.295	1510.02
1001.59	1514.31
1001.885	1540.98
1002.18	1503.92
1002.475	1480.19
1002.77	1483.58
1003.065	1468.21
1003.359	1462.79
1003.654	1469.34
1003.949	1486.29
1004.243	1495.55
1004.538	1436.8
1004.832	1459.62
1005.127	1437.25
1005.421	1442.9
1005.715	1435.44
1006.009	1411.49
1006.304	1443.8
1006.598	1422.11
1006.892	1384.6
1007.186	1386.18
1007.48	1397.7
1007.773	1356.12
1008.067	1364.03
1008.361	1349.8
1008.655	1334.43
1008.948	1334.88
1009.242	1354.54
1009.535	1318.84
1009.829	1320.87
1010.122	1336.69
1010.415	1321.55
1010.708	1310.47
1011.001	1291.27
1011.295	1289.91
1011.588	1282.23
1011.881	1298.27
1012.173	1259.4
1012.466	1268.22
1012.759	1250.14
1013.052	1246.29
1013.344	1243.58
1013.637	1246.29
1013.93	1218.5
1014.222	1235.67
1014.514	1210.82
1014.807	1231.15
1015.099	1186.41
1015.391	1215.11
1015.683	1164.94
1015.976	1186.64
1016.268	1159.29
1016.56	1161.78
1016.851	1145.73
1017.143	1175.56
1017.435	1143.7
1017.727	1152.96
1018.018	1116.58
1018.31	1146.86
1018.602	1139.18
1018.893	1094.21
1019.185	1081.33
1019.476	1112.74
1019.767	1098.5
1020.058	1092.63
1020.35	1083.59
1020.641	1070.93
1020.932	1046.07
1021.223	1039.52
1021.514	1064.38
1021.804	1065.06
1022.095	1055.11
1022.386	1038.84
1022.677	1047.43
1022.967	1019.63
1023.258	1040.2
1023.548	999.75
1023.839	1028.22
1024.129	1008.79
1024.419	1003.14
1024.709	1014.66
1025	970.14
1025.29	978.28
1025.58	973.99
1025.87	956.59
1026.16	966.53
1026.449	969.01
1026.739	948
1027.029	922.01
1027.319	937.83
1027.608	931.73
1027.898	943.48
1028.187	888.11
1028.477	923.59
1028.766	903.71
1029.055	908.45
1029.344	899.19
1029.634	903.03
1029.923	890.15
1030.212	912.52
1030.501	871.16
1030.79	895.57
1031.078	848.79
1031.367	866.19
1031.656	889.02
1031.945	845.18
1032.233	858.28
1032.522	860.99
1032.81	855.57
1033.099	829.81
1033.387	844.95
1033.675	830.26
1033.963	846.98
1034.251	837.72
1034.54	791.39
1034.828	811.73
1035.116	804.05
1035.403	816.7
1035.691	802.24
1035.979	776.25
1036.267	791.62
1036.554	795.69
1036.842	777.15
1037.129	777.38
1037.417	763.37
1037.704	766.53
1037.992	774.89
1038.279	765.63
1038.566	765.86
1038.853	765.86
1039.14	765.86
