Data from hue_38_FLMS001491_00043.txt Node
Date: Tue Feb 07 17:31:33 GMT 2017
User: dcchb
Spectrometer: FLMS00149
Trigger mode: 0
Integration Time (sec): 2.000000E-2
Scans to average: 10
Electric dark correction enabled: true
Nonlinearity correction enabled: false
Boxcar width: 0
XAxis mode: Wavelengths
Number of Pixels in Spectrum: 2048
>>>>>Begin Spectral Data<<<<<
341.393	-1.13
341.776	-1.13
342.16	-1.13
342.543	-57.17
342.927	-53.78
343.31	-79.77
343.693	-65.76
344.077	-45.2
344.46	-49.49
344.843	-56.04
345.226	-40.45
345.61	-35.03
345.993	-12.43
346.376	-4.75
346.759	1.36
347.142	23.5
347.525	60.11
347.908	48.36
348.291	59.66
348.674	85.42
349.057	110.51
349.44	124.97
349.823	119.09
350.206	140.56
350.588	208.58
350.971	224.85
351.354	232.08
351.737	239.32
352.119	252.42
352.502	255.13
352.884	270.95
353.267	286.09
353.65	295.59
354.032	290.39
354.414	304.62
354.797	346.88
355.179	337.62
355.562	343.04
355.944	341.23
356.326	342.36
356.709	345.98
357.091	348.24
357.473	354.34
357.855	343.95
358.238	331.29
358.62	331.29
359.002	310.73
359.384	336.49
359.766	347.56
360.148	341.01
360.53	336.94
360.912	344.17
361.294	333.32
361.676	327.68
362.057	319.09
362.439	317.05
362.821	344.17
363.203	327.68
363.584	355.7
363.966	338.3
364.348	334
364.729	342.59
365.111	331.29
365.493	311.4
365.874	316.83
366.256	341.23
366.637	322.7
367.019	321.57
367.4	328.13
367.781	330.84
368.163	315.25
368.544	335.13
368.925	312.53
369.306	329.48
369.688	313.44
370.069	314.57
370.45	298.3
370.831	339.2
371.212	322.7
371.593	325.19
371.974	317.28
372.355	329.71
372.736	322.93
373.117	323.83
373.498	318.18
373.879	310.73
374.26	332.42
374.641	326.09
375.021	332.87
375.402	316.83
375.783	341.91
376.163	347.34
376.544	337.39
376.925	345.3
377.305	332.19
377.686	330.39
378.066	320.22
378.447	328.58
378.827	345.53
379.208	336.04
379.588	326.55
379.968	349.37
380.349	358.41
380.729	350.73
381.109	360.89
381.489	342.14
381.87	352.53
382.25	336.04
382.63	341.01
383.01	351.18
383.39	340.1
383.77	343.49
384.15	352.31
384.53	343.72
384.91	356.15
385.29	347.11
385.67	364.28
386.049	375.13
386.429	350.27
386.809	365.87
387.189	335.36
387.568	353.66
387.948	374.23
388.328	361.12
388.707	359.31
389.087	343.49
389.466	368.35
389.846	347.79
390.225	361.8
390.605	370.39
390.984	365.19
391.363	375.81
391.743	365.41
392.122	390.05
392.501	367
392.881	370.39
393.26	398.41
393.639	381.91
394.018	395.47
394.397	373.55
394.776	375.81
395.155	404.96
395.534	371.29
395.913	399.54
396.292	372.87
396.671	389.37
397.05	384.17
397.429	381.68
397.808	394.34
398.186	382.81
398.565	396.83
398.944	388.69
399.323	371.97
399.701	400.67
400.08	408.35
400.458	388.92
400.837	409.03
401.215	390.27
401.594	399.54
401.972	394.34
402.351	408.58
402.729	426.43
403.107	409.93
403.486	407.45
403.864	403.83
404.242	414.45
404.62	430.5
404.999	407.9
405.377	415.13
405.755	418.52
406.133	441.34
406.511	427.33
406.889	422.59
407.267	436.6
407.645	411.06
408.023	439.31
408.401	463.72
408.779	432.53
409.156	418.52
409.534	439.54
409.912	438.41
410.29	471.4
410.667	447.45
411.045	447.45
411.422	444.73
411.8	464.17
412.178	458.07
412.555	465.3
412.933	468.91
413.31	473.43
413.687	493.09
414.065	485.86
414.442	489.25
414.819	482.93
415.197	480.67
415.574	493.55
415.951	480.67
416.328	492.42
416.705	502.36
417.082	486.77
417.46	508.24
417.837	511.62
418.214	512.75
418.591	513.21
418.967	508.01
419.344	510.5
419.721	513.21
420.098	520.44
420.475	531.51
420.852	538.74
421.228	558.63
421.605	529.03
421.982	535.58
422.358	550.49
422.735	537.16
423.111	541.91
423.488	552.3
423.864	515.69
424.241	558.4
424.617	526.77
424.994	566.31
425.37	546.43
425.746	569.25
426.123	569.02
426.499	574
426.875	571.51
427.251	607.22
427.627	597.27
428.003	602.7
428.379	597.95
428.756	608.35
429.132	602.47
429.507	615.58
429.883	630.49
430.259	599.98
430.635	628.91
431.011	614.9
431.387	617.61
431.763	616.71
432.138	617.84
432.514	655.8
432.89	637.72
433.265	618.97
433.641	674.78
434.016	665.07
434.392	689.47
434.767	701.22
435.143	677.27
435.518	661.68
435.894	679.3
436.269	713.43
436.644	698.29
437.02	718.63
437.395	686.54
437.77	691.28
438.145	725.18
438.52	701.45
438.895	734.9
439.271	740.77
439.646	748.68
440.021	767.21
440.395	742.58
440.77	736.25
441.145	745.74
441.52	776.93
441.895	732.86
442.27	773.31
442.645	780.32
443.019	782.8
443.394	762.24
443.769	799.08
444.143	752.07
444.518	773.09
444.892	796.59
445.267	795.69
445.641	782.35
446.016	793.65
446.39	800.43
446.764	806.98
447.139	795.46
447.513	806.31
447.887	822.13
448.262	860.54
448.636	843.59
449.01	853.76
449.384	832.97
449.758	846.31
450.132	846.98
450.506	858.51
450.88	863.71
451.254	852.86
451.628	879.98
452.002	892.18
452.376	880.2
452.75	932.18
453.123	914.78
453.497	924.72
453.871	899.41
454.244	938.28
454.618	921.56
454.992	937.83
455.365	933.53
455.739	980.54
456.112	977.15
456.486	996.81
456.859	1012.4
457.232	1012.63
457.606	986.41
457.979	1012.18
458.352	1028.9
458.725	1033.65
459.099	1058.96
459.472	1070.48
459.845	1070.71
460.218	1077.71
460.591	1105.51
460.964	1071.61
461.337	1139.18
461.71	1118.61
462.083	1161.55
462.456	1184.83
462.829	1150.03
463.201	1193.41
463.574	1175.56
463.947	1226.18
464.32	1218.73
464.692	1251.72
465.065	1269.12
465.438	1262.34
465.81	1292.85
466.183	1294.88
466.555	1313.19
466.928	1345.05
467.3	1356.8
467.672	1351.15
468.045	1385.95
468.417	1370.81
468.789	1435.89
469.161	1449.23
469.534	1469.11
469.906	1463.24
470.278	1518.83
470.65	1538.72
471.022	1558.38
471.394	1574.65
471.766	1610.81
472.138	1636.57
472.51	1677.92
472.882	1702.1
473.253	1746.62
473.625	1751.82
473.997	1808.54
474.369	1820.74
474.74	1847.18
475.112	1903.23
475.484	1927.41
475.855	2011.02
476.227	2001.3
476.598	2101.87
476.97	2112.94
477.341	2192.71
477.713	2223.67
478.084	2255.31
478.455	2334.18
478.827	2386.15
479.198	2450.56
479.569	2502.53
479.94	2587.5
480.311	2606.26
480.682	2711.34
481.053	2797.89
481.424	2828.85
481.795	2901.17
482.166	2971.67
482.537	3061.84
482.908	3152.23
483.279	3218.45
483.65	3313.13
484.021	3430.42
484.391	3438.33
484.762	3550.87
485.133	3615.72
485.503	3697.08
485.874	3803.74
486.244	3879.45
486.615	3967.58
486.985	4080.34
487.356	4234.69
487.726	4282.83
488.097	4411.18
488.467	4460.9
488.837	4593.1
489.207	4687.79
489.578	4819.76
489.948	4918.51
490.318	5017.72
490.688	5092.3
491.058	5229.69
491.428	5343.36
491.798	5442.34
492.168	5552.4
492.538	5651.38
492.908	5787.64
493.278	5906.96
493.648	5945.61
494.017	6041.88
494.387	6159.39
494.757	6232.6
495.126	6354.41
495.496	6424.46
495.866	6560.73
496.235	6667.62
496.605	6794.4
496.974	6920.04
497.344	6990.78
497.713	7051.79
498.082	7104.22
498.452	7270.54
498.821	7356.87
499.19	7412.69
499.559	7612.91
499.928	7648.16
500.298	7737.42
500.667	7809.06
501.036	7853.58
501.405	7972.22
501.774	8078.66
502.143	8122.27
502.512	8215.83
502.88	8350.74
503.249	8407.46
503.618	8488.36
503.987	8544.63
504.356	8617.85
504.724	8729.71
505.093	8816.27
505.462	8881.35
505.83	8994.57
506.199	9091.29
506.567	9199.98
506.936	9182.81
507.304	9345.29
507.672	9374.67
508.041	9464.61
508.409	9501.67
508.777	9642.91
509.145	9752.96
509.514	9745.73
509.882	9856.01
510.25	9768.78
510.618	9971.04
510.986	9995.44
511.354	10145.04
511.722	10227.75
512.09	10294.64
512.458	10299.39
512.826	10461.87
513.193	10473.17
513.561	10492.61
513.929	10581.19
514.297	10740.96
514.664	10849.21
515.032	10922.2
515.4	10913.84
515.767	10936.21
516.135	11108.41
516.502	11025.92
516.869	11220.04
517.237	11229.76
517.604	11255.98
517.972	11392.24
518.339	11460.72
518.706	11494.84
519.073	11551.79
519.44	11676.08
519.808	11725.57
520.175	11763.53
520.542	11897.09
520.909	12002.62
521.276	11988.16
521.643	12015.05
522.009	12113.81
522.376	12189.51
522.743	12344.76
523.11	12484.64
523.477	12509.05
523.843	12500.46
524.21	12692.32
524.577	12815.71
524.943	12852.32
525.31	12915.82
525.676	13057.06
526.043	13101.8
526.409	13203.49
526.776	13327.11
527.142	13282.14
527.508	13417.5
527.874	13514.22
528.241	13578.4
528.607	13709.7
528.973	13796.47
529.339	13782.91
529.705	13820.88
530.071	13985.85
530.437	14037.6
530.803	14126.63
531.169	14177.71
531.535	14106.52
531.901	14307.42
532.267	14394.65
532.632	14467.42
532.998	14504.93
533.364	14564.14
533.73	14583.35
534.095	14710.35
534.461	14839.84
534.826	14835.32
535.192	14909.21
535.557	15000.74
535.923	15023.56
536.288	15101.98
536.653	15155.31
537.019	15142.65
537.384	15238.92
537.749	15319.6
538.114	15480.04
538.479	15426.49
538.845	15574.28
539.21	15452.25
539.575	15685.46
539.94	15605.24
540.305	15789.19
540.67	15690.43
541.034	15773.82
541.399	15796.42
541.764	15931.78
542.129	15998.68
542.494	16005.68
542.858	16077.32
543.223	16099.24
543.587	16195.51
543.952	16236.86
544.316	16375.61
544.681	16296.75
545.045	16453.35
545.41	16599.56
545.774	16649.05
546.138	16583.97
546.503	16760.01
546.867	16739.9
547.231	16836.17
547.595	16900.12
547.959	16942.83
548.324	17026.9
548.688	16945.77
549.052	17154.13
549.416	17168.14
549.779	17130.62
550.143	17309.38
550.507	17377.4
550.871	17389.6
551.235	17366.78
551.599	17574.45
551.962	17595.7
552.326	17552.08
552.689	17723.15
553.053	17721.79
553.417	17769.02
553.78	18023.03
554.143	17935.57
554.507	18091.05
554.87	18045.85
555.234	18244.72
555.597	18187.77
555.96	18223.93
556.323	18275.9
556.686	18281.78
557.05	18454.2
557.413	18509.34
557.776	18550.7
558.139	18670.24
558.502	18720.64
558.865	18735.1
559.228	18850.8
559.59	18868.43
559.953	18962.89
560.316	19127.86
560.679	19117.46
561.041	19260.28
561.404	19334.86
561.767	19453.5
562.129	19417.12
562.492	19565.14
562.854	19686.71
563.217	19555.42
563.579	19678.35
563.941	19770.1
564.304	19827.5
564.666	19932.36
565.028	19887.39
565.39	20038.8
565.753	20135.74
566.115	20299.35
566.477	20376.87
566.839	20405.57
567.201	20496.18
567.563	20546.58
567.925	20677.65
568.287	20674.48
568.648	20729.62
569.01	20900.02
569.372	20998.09
569.734	20819.34
570.095	21100.69
570.457	21157.86
570.819	21307.69
571.18	21245.32
571.542	21494.58
571.903	21573.22
572.265	21548.59
572.626	21552.2
572.987	21749.03
573.349	21735.02
573.71	21991.96
574.071	21968.24
574.432	22142.47
574.794	22357.15
575.155	22267.44
575.516	22309.02
575.877	22516.24
576.238	22652.06
576.599	22741.77
576.96	22866.97
577.32	22817.25
577.681	23084.14
578.042	23218.6
578.403	23280.29
578.763	23429.44
579.124	23590.57
579.485	23899.26
579.845	24001.18
580.206	24096.32
580.566	24245.24
580.927	24253.6
581.287	24568.39
581.648	24623.76
582.008	24883.19
582.368	25037.53
582.728	25134.48
583.089	25277.3
583.449	25393.68
583.809	25648.82
584.169	25924.97
584.529	25886.78
584.889	26328.12
585.249	26406.99
585.609	26546.65
585.969	26895.34
586.329	26908.67
586.688	27141.21
587.048	27352.73
587.408	27479.96
587.768	27605.38
588.127	27880.17
588.487	28018.25
588.846	28425.92
589.206	28434.05
589.565	28730.54
589.925	29022.29
590.284	29089.63
590.643	29433.58
591.003	29606.68
591.362	29954.24
591.721	29999.89
592.08	30182.03
592.44	30505.64
592.799	30725.29
593.158	30755.35
593.517	30820.66
593.876	31219.29
594.235	31396.46
594.593	31561.66
594.952	31706.06
595.311	32017.46
595.67	32259.72
596.029	32544
596.387	32685.92
596.746	32947.38
597.104	32866.48
597.463	33295.17
597.822	33522.28
598.18	33626.23
598.538	33738.77
598.897	34058.99
599.255	33960.91
599.613	34656.04
599.972	34447.23
600.33	34919.99
600.688	34816.03
601.046	35041.79
601.404	35380.54
601.762	35445.17
602.12	35919.51
602.478	35847.19
602.836	36018.26
603.194	36001.99
603.552	36354.75
603.91	36261.87
604.268	36594.52
604.625	36597.91
604.983	36829.31
605.341	36844
605.698	37070.89
606.056	37276.99
606.413	37355.4
606.771	37716.07
607.128	37777.09
607.485	37665.9
607.843	37799.91
608.2	38014.59
608.557	38278.99
608.914	38395.83
609.272	38599.44
609.629	38725.54
609.986	38910.84
610.343	38858.19
610.7	39135.02
611.057	39109.93
611.414	39232.64
611.771	39380.43
612.127	39682.35
612.484	39645.29
612.841	39900.42
613.198	39828.78
613.554	39916.24
613.911	40346.96
614.267	40273.29
614.624	40331.14
614.98	40426.96
615.337	40757.12
615.693	40694.07
616.05	40755.99
616.406	41018.58
616.762	40919.15
617.118	40940.62
617.475	41032.37
617.831	41325.47
618.187	41451.57
618.543	41415.63
618.899	41715.97
619.255	41658.57
619.611	41615.4
619.967	41850.2
620.323	42024.88
620.678	41974.49
621.034	41854.04
621.39	41929.29
621.746	41733.37
622.101	42400.24
622.457	42194.37
622.812	42324.54
623.168	42457.19
623.523	42435.27
623.879	42466
624.234	42293.58
624.589	42573.12
624.945	42570.18
625.3	42745.99
625.655	42675.26
626.01	42815.6
626.365	42839.33
626.72	42745.32
627.075	42753.45
627.43	42794.13
627.785	42774.69
628.14	42935.37
628.495	42924.52
628.85	42821.02
629.205	42695.83
629.559	43149.15
629.914	42816.5
630.269	43043.84
630.623	42802.72
630.978	42834.81
631.332	43057.62
631.687	43306.21
632.041	42991.64
632.396	43121.8
632.75	42986.44
633.104	43044.07
633.459	42892.66
633.813	43028.7
634.167	42987.34
634.521	42933.79
634.875	43201.58
635.229	43003.39
635.583	42919.78
635.937	42894.69
636.291	42962.03
636.645	42888.36
636.999	42872.77
637.352	42943.73
637.706	42614.7
638.06	42865.09
638.413	42596.85
638.767	42744.64
639.121	42748.71
639.474	42590.74
639.828	42631.42
640.181	42767.46
640.534	42762.72
640.888	42538.32
641.241	42483.63
641.594	42623.51
641.947	42578.32
642.301	42470.52
642.654	42632.1
643.007	42571.08
643.36	42515.72
643.713	42427.58
644.066	42708.48
644.419	42411.09
644.771	42073.92
645.124	41773.36
645.477	41677.55
645.83	41324.79
646.182	41301.51
646.535	41324.56
646.888	41409.53
647.24	41178.58
647.593	41513.94
647.945	41198.46
648.298	41160.95
648.65	41106.04
649.002	41112.82
649.355	41202.76
649.707	41001.86
650.059	41374.51
650.411	41777.66
650.763	41835.51
651.115	42122.06
651.467	42081.61
651.819	42001.38
652.171	42027.82
652.523	41751.22
652.875	41859.46
653.227	41701.28
653.578	42109.18
653.93	41912.8
654.282	41769.07
654.633	41647.72
654.985	41657.44
655.337	41772.23
655.688	41751.9
656.039	41869.86
656.391	41666.25
656.742	41684.78
657.094	41771.56
657.445	41742.18
657.796	41636.19
658.147	41619.47
658.498	41602.52
658.849	41769.52
659.2	41561.85
659.551	41491.11
659.902	41707.83
660.253	41548.06
660.604	41594.16
660.955	41391
661.306	41536.31
661.656	41491.56
662.007	41464.9
662.358	41553.94
662.708	41631.67
663.059	41481.17
663.409	41305.13
663.76	41597.32
664.11	41561.39
664.461	41495.41
664.811	41463.32
665.161	41469.87
665.511	41405.46
665.862	41593.93
666.212	41496.99
666.562	41517.33
666.912	41487.72
667.262	41487.27
667.612	41327.73
667.962	41498.12
668.312	41339.25
668.662	41606.36
669.011	41319.82
669.361	41479.36
669.711	41306.03
670.06	41312.59
670.41	41313.94
670.76	41247.95
671.109	41419.02
671.459	41062.2
671.808	41145.58
672.157	41329.31
672.507	41115.76
672.856	41143.32
673.205	41177
673.554	41357.33
673.904	41073.95
674.253	41427.61
674.602	41130.9
674.951	40705.37
675.3	40538.14
675.649	41055.87
675.998	41044.34
676.346	41031.24
676.695	41244.11
677.044	40909.43
677.393	40939.04
677.741	41011.13
678.09	40843.45
678.438	40785.82
678.787	40864.01
679.135	40834.86
679.484	40638.03
679.832	40707.18
680.181	40547.18
680.529	40584.92
680.877	40615.66
681.225	40571.14
681.573	40773.62
681.922	40364.14
682.27	40362.1
682.618	40263.8
682.966	40151.94
683.314	40389.67
683.661	40054.77
684.009	39949.91
684.357	39945.16
684.705	39998.95
685.053	39953.53
685.4	39736.81
685.748	39756.47
686.095	39751.05
686.443	39555.12
686.79	39619.07
687.138	39550.82
687.485	39717.6
687.832	39413.65
688.18	39518.96
688.527	39347.67
688.874	39386.76
689.221	39158.74
689.568	39090.5
689.915	38994.23
690.262	39076.26
690.609	39028.13
690.956	38761.24
691.303	38855.93
691.65	38603.5
691.997	38656.16
692.344	38348.82
692.69	38247.81
693.037	38344.08
693.383	38053.69
693.73	38155.15
694.077	38011.43
694.423	38051.65
694.769	37834.26
695.116	37899.12
695.462	37609.41
695.808	37589.52
696.155	37709.74
696.501	37369.41
696.847	37425.23
697.193	37099.82
697.539	37363.99
697.885	36937.33
698.231	36818.24
698.577	36968.52
698.923	36793.61
699.269	36690.11
699.614	36616.44
699.96	36535.76
700.306	36537.57
700.651	36415.31
700.997	36398.82
701.342	36149.78
701.688	36269.55
702.033	36057.36
702.379	35986.17
702.724	35807.42
703.069	36144.13
703.415	35539.86
703.76	35536.92
704.105	35592.51
704.45	35572.85
704.795	35278.17
705.14	35144.61
705.485	35119.53
705.83	35070.49
706.175	35109.81
706.52	34989.59
706.865	34869.59
707.209	34855.35
707.554	34722.25
707.899	34735.81
708.243	34416.5
708.588	34499.21
708.932	34420.11
709.277	34342.15
709.621	34425.31
709.966	34107.8
710.31	34215.15
710.654	33937.41
710.998	33971.99
711.342	33943.97
711.687	33859
712.031	33737.64
712.375	33677.31
712.719	33550.08
713.063	33675.27
713.407	33708.94
713.75	33521.15
714.094	33487.93
714.438	33307.15
714.782	33302.4
715.125	33180.6
715.469	33244.1
715.812	33112.12
716.156	32995.29
716.499	32906.71
716.843	33031
717.186	32671.68
717.53	32946.7
717.873	32821.51
718.216	32762.08
718.559	32555.98
718.902	32510.56
719.246	32537
719.589	32376.1
719.932	32259.72
720.275	32391.92
720.617	32227.18
720.96	32131.81
721.303	32204.58
721.646	32145.6
721.989	31783.35
722.331	32084.81
722.674	31839.39
723.016	31900.18
723.359	31779.73
723.701	31958.26
724.044	31719.84
724.386	31666.51
724.729	31739.05
725.071	31624.03
725.413	31613.63
725.755	31542.9
726.097	31366.86
726.439	31305.62
726.782	31163.7
727.124	31487.76
727.465	31214.77
727.807	31225.17
728.149	31123.7
728.491	31088.22
728.833	31172.51
729.175	30977.72
729.516	30909.7
729.858	30937.27
730.199	30975.91
730.541	30865.18
730.882	30789.02
731.224	30881.22
731.565	30666.99
731.906	30681.68
732.248	30678.74
732.589	30566.2
732.93	30484.85
733.271	30427.9
733.612	30395.36
733.953	30489.14
734.294	30209.15
734.635	30245.08
734.976	30407.11
735.317	30190.17
735.658	30304.29
735.999	30205.99
736.339	29925.99
736.68	30137.29
737.021	29958.76
737.361	29774.58
737.702	29999.89
738.042	29821.59
738.383	29689.39
738.723	29802.61
739.063	29720.8
739.404	29775.49
739.744	29716.51
740.084	29526.23
740.424	29759.67
740.764	29477.87
741.104	29623.4
741.444	29528.72
741.784	29424.09
742.124	29490.3
742.464	29419.79
742.804	29322.84
743.143	29326.91
743.483	29226.58
743.823	29156.3
744.162	29137.76
744.502	29250.08
744.841	29032.68
745.181	29181.38
745.52	28950.65
745.86	29056.41
746.199	28871.11
746.538	28922.86
746.877	28939.8
747.216	28797.43
747.556	28823.2
747.895	28666.59
748.234	28589.76
748.573	28629.53
748.911	28544.11
749.25	28614.16
749.589	28411.91
749.928	28544.56
750.267	28507.5
750.605	28442.19
750.944	28278.13
751.283	28249.2
751.621	28359.03
751.96	28060.05
752.298	28119.49
752.636	28044.46
752.975	28011.01
753.313	27994.29
753.651	28025.48
753.989	27800.4
754.327	27696.22
754.666	27677.69
755.004	27884.01
755.342	27627.75
755.679	27652.61
756.017	27470.46
756.355	27585.04
756.693	27442.67
757.031	27453.29
757.368	27250.58
757.706	27236.12
758.044	27254.2
758.381	27240.87
758.719	27118.83
759.056	27088.78
759.394	27070.93
759.731	26870.48
760.068	26791.39
760.405	26687.21
760.743	26732.18
761.08	26733.08
761.417	26527.44
761.754	26528.57
762.091	26462.58
762.428	26358.4
762.765	26163.83
763.102	26273.66
763.438	25998.19
763.775	25940.56
764.112	25971.75
764.449	25991.41
764.785	25825.54
765.122	25589.16
765.458	25530.63
765.795	25554.58
766.131	25462.38
766.467	25301.71
766.804	25352.78
767.14	25196.17
767.476	25136.29
767.812	24940.14
768.148	25101.49
768.485	24917.54
768.821	24814.26
769.157	24816.97
769.492	24591.44
769.828	24672.57
770.164	24455.63
770.5	24361.17
770.836	24416.31
771.171	24288.85
771.507	24190.32
771.842	23939.94
772.178	24052.25
772.513	24027.84
772.849	23838.02
773.184	23682.54
773.519	23795.08
773.855	23670.79
774.19	23639.15
774.525	23399.38
774.86	23480.29
775.195	23388.54
775.53	23252.72
775.865	23197.36
776.2	22989.23
776.535	22871.71
776.87	22975.67
777.205	22716.24
777.539	22724.83
777.874	22631.27
778.209	22513.53
778.543	22473.31
778.878	22346.31
779.212	22340.43
779.547	22253.43
779.881	22249.81
780.215	22090.72
780.55	22095.01
780.884	21841.91
781.218	21925.53
781.552	21789.94
781.886	21732.31
782.22	21599.88
782.554	21556.95
782.888	21295.71
783.222	21307.24
783.556	21241.02
783.889	21223.17
784.223	21039.9
784.557	20962.39
784.89	21050.97
785.224	20897.3
785.557	20723.07
785.891	20766.46
786.224	20648.5
786.558	20592.68
786.891	20440.59
787.224	20417.09
787.557	20318.11
787.891	20311.33
788.224	20229.98
788.557	20219.13
788.89	20139.36
789.223	20106.14
789.556	19971
789.888	19913.15
790.221	19867.27
790.554	19769.42
790.887	19716.32
791.219	19622.99
791.552	19597.68
791.884	19404.24
792.217	19459.15
792.549	19343.67
792.882	19312.94
793.214	19307.97
793.546	19149.78
793.879	19066.17
794.211	18989.11
794.543	19025.26
794.875	18933.74
795.207	18891.93
795.539	18849.45
795.871	18773.07
796.203	18636.8
796.535	18515.9
796.867	18510.93
797.198	18438.39
797.53	18477.25
797.862	18279.07
798.193	18422.57
798.525	18277.94
798.856	18244.72
799.188	18047.89
799.519	18023.93
799.85	17969.02
800.182	17956.36
800.513	17853.09
800.844	17769.25
801.175	17757.5
801.506	17783.04
801.837	17725.64
802.168	17688.8
802.499	17678.86
802.83	17526.09
803.161	17425.53
803.491	17485.19
803.822	17418.98
804.153	17351.63
804.483	17226.89
804.814	17206.78
805.145	17109.83
805.475	17092.21
805.805	17104.41
806.136	16995.03
806.466	16920.01
806.796	16918.65
807.126	16911.42
807.457	16736.74
807.787	16747.36
808.117	16672.33
808.447	16641.14
808.777	16665.1
809.107	16630.98
809.436	16480.7
809.766	16517.08
810.096	16402.73
810.426	16379.68
810.755	16372.45
811.085	16283.64
811.414	16323.19
811.744	16181.72
812.073	16155.96
812.403	16170.65
812.732	16011.1
813.061	16073.25
813.39	15945.12
813.719	15855.18
814.049	16043.19
814.378	15895.85
814.707	15812.47
815.036	15835.74
815.365	15752.13
815.693	15541.74
816.022	15658.12
816.351	15627.16
816.68	15496.32
817.008	15520.5
817.337	15469.65
817.665	15406.6
817.994	15433.04
818.322	15387.17
818.651	15270.33
818.979	15231.46
819.307	15265.14
819.636	15198.7
819.964	15207.28
820.292	15179.04
820.62	15236.89
820.948	15107.17
821.276	15155.31
821.604	15133.84
821.932	15170.22
822.259	15146.49
822.587	15166.83
822.915	15091.35
823.243	15163.67
823.57	15107.4
823.898	15006.16
824.225	14998.48
824.553	14939.27
824.88	15114.18
825.207	15073.5
825.535	15065.37
825.862	14957.35
826.189	14965.71
826.516	15054.75
826.843	15052.71
827.17	15102.88
827.497	15140.84
827.824	15057.23
828.151	15070.79
828.478	15081.19
828.805	15077.8
829.131	15026.5
829.458	15012.49
829.785	14888.87
830.111	15020.62
830.438	15010.9
830.764	15016.1
831.09	15016.1
831.417	14978.59
831.743	14970.23
832.069	15007.29
832.395	14897.91
832.722	14913.28
833.048	14865.37
833.374	14837.12
833.7	14781.53
834.026	14859.5
834.351	14887.29
834.677	14855.2
835.003	14855.88
835.329	14788.54
835.654	14831.93
835.98	14730.46
836.306	14711.25
836.631	14667.86
836.956	14741.53
837.282	14734.3
837.607	14691.59
837.932	14619.28
838.258	14668.77
838.583	14634.64
838.908	14502.67
839.233	14585.38
839.558	14443.46
839.883	14403.01
840.208	14359.17
840.533	14374.76
840.858	14523.91
841.182	14310.81
841.507	14414.31
841.832	14309
842.156	14344.26
842.481	14306.52
842.805	14247.76
843.13	14166.86
843.454	14210.02
843.778	14161.21
844.103	14103.13
844.427	14096.58
844.751	14017.26
845.075	13991.04
845.399	13952.85
845.723	13897.26
846.047	13840.31
846.371	13794.89
846.695	13765.29
847.019	13741.11
847.343	13687.32
847.666	13528.91
847.99	13635.8
848.313	13553.77
848.637	13385.41
848.96	13425.18
849.284	13398.74
849.607	13241.69
849.931	13294.57
850.254	13090.28
850.577	13050.5
850.9	13029.26
851.223	12975.25
851.546	12946.78
851.869	12864.29
852.192	12885.76
852.515	12821.58
852.838	12728.7
853.161	12798.31
853.483	12627.92
853.806	12605.54
854.129	12628.82
854.451	12509.28
854.774	12494.81
855.096	12482.16
855.419	12445.32
855.741	12312.9
856.063	12357.87
856.385	12308.6
856.708	12190.19
857.03	12258.89
857.352	12269.06
857.674	12147.25
857.996	12103.41
858.318	11979.8
858.64	11984.77
858.961	11919.01
859.283	11920.82
859.605	11778.45
859.926	11876.98
860.248	11829.75
860.57	11822.06
860.891	11892.57
861.212	11690.31
861.534	11728.05
861.855	11657.77
862.176	11690.09
862.498	11568.51
862.819	11669.3
863.14	11525.8
863.461	11553.14
863.782	11549.53
864.103	11541.62
864.424	11538.68
864.745	11413.26
865.065	11431.34
865.386	11381.17
865.707	11394.05
866.027	11348.63
866.348	11401.28
866.668	11396.31
866.989	11345.46
867.309	11243.09
867.63	11306.37
867.95	11275.64
868.27	11236.31
868.59	11202.19
868.91	11225.92
869.23	11114.74
869.55	11154.73
869.87	11270.21
870.19	11096.21
870.51	11166.03
870.83	11192.7
871.15	11118.13
871.469	11074.29
871.789	11112.93
872.109	11021.86
872.428	11019.37
872.748	11004
873.067	11000.16
873.386	11061.86
873.706	10992.03
874.025	11001.97
874.344	10882.2
874.663	10978.92
874.982	10901.86
875.301	10890.79
875.62	10824.12
875.939	10808.98
876.258	10850.56
876.577	10826.61
876.896	10764.24
877.214	10750.68
877.533	10809.43
877.852	10761.3
878.17	10716.1
878.489	10706.84
878.807	10672.71
879.125	10680.62
879.444	10643.34
879.762	10592.04
880.08	10577.57
880.398	10685.14
880.716	10557.46
881.034	10537.35
881.352	10486.5
881.67	10499.84
881.988	10483.79
882.306	10464.13
882.624	10427.3
882.941	10360.41
883.259	10336.68
883.577	10324.7
883.894	10263.01
884.212	10299.16
884.529	10261.65
884.846	10227.08
885.164	10209.45
885.481	10172.16
885.798	10219.62
886.115	10101.43
886.432	10124.93
886.75	10119.96
887.067	10120.19
887.383	10056.23
887.7	10050.36
888.017	10082.22
888.334	10011.04
888.651	9922
888.967	9977.14
889.284	9914.77
889.6	9833.41
889.917	9825.05
890.233	9824.15
890.55	9730.59
890.866	9830.25
891.182	9760.87
891.498	9655.34
891.815	9681.1
892.131	9583.02
892.447	9618.05
892.763	9556.36
893.079	9538.05
893.395	9498.06
893.71	9469.13
894.026	9516.59
894.342	9458.51
894.657	9383.93
894.973	9402.92
895.289	9344.16
895.604	9407.44
895.92	9272.98
896.235	9250.15
896.55	9221.23
896.865	9221.45
897.181	9174.45
897.496	9218.29
897.811	9125.18
898.126	9078.41
898.441	9124.73
898.756	9040.89
899.071	8988.69
899.386	8951.63
899.7	8926.54
900.015	8902.36
900.33	8751.41
900.644	8833.44
900.959	8816.49
901.273	8727
901.588	8777.17
901.902	8723.39
902.216	8666.66
902.531	8567.68
902.845	8645.65
903.159	8530.17
903.473	8551.41
903.787	8525.65
904.101	8432.77
904.415	8412.89
904.729	8383.28
905.042	8418.31
905.356	8361.14
905.67	8355.94
905.984	8344.64
906.297	8350.74
906.611	8302.38
906.924	8230.97
907.237	8237.75
907.551	8126.11
907.864	8118.88
908.177	8103.52
908.491	8043.63
908.804	8050.64
909.117	8021.94
909.43	7944.2
909.743	7876.18
910.056	7880.7
910.368	7873.92
910.681	7839.34
910.994	7763.86
911.307	7744.88
911.619	7661.95
911.932	7755.5
912.244	7681.61
912.557	7692.45
912.869	7598.22
913.181	7564.77
913.494	7548.28
913.806	7511.21
914.118	7427.38
914.43	7426.02
914.742	7453.59
915.054	7373.14
915.366	7343.08
915.678	7305.8
915.99	7295.63
916.302	7270.09
916.613	7238
916.925	7214.73
917.236	7153.71
917.548	7136.99
917.859	7183.54
918.171	7078.68
918.482	7102.64
918.794	7046.59
919.105	6998.46
919.416	6961.62
919.727	6975.41
920.038	6913.72
920.349	6894.06
920.66	6859.03
920.971	6871.01
921.282	6812.93
921.593	6715.3
921.903	6695.64
922.214	6687.73
922.525	6682.99
922.835	6698.58
923.146	6598.24
923.456	6570.45
923.767	6539.72
924.077	6574.29
924.387	6525.03
924.697	6521.18
925.008	6466.04
925.318	6474.63
925.628	6400.96
925.938	6353.28
926.248	6286.16
926.558	6259.72
926.867	6263.79
927.177	6243
927.487	6265.15
927.796	6156.67
928.106	6198.26
928.416	6177.69
928.725	6123.45
929.034	6108.09
929.344	6106.51
929.653	6066.28
929.962	6015.89
930.271	6030.8
930.581	5901.77
930.89	5997.81
931.199	5923.01
931.508	5894.76
931.817	5946.06
932.125	5885.04
932.434	5857.7
932.743	5752.62
933.051	5753.75
933.36	5741.77
933.669	5713.97
933.977	5685.73
934.286	5709.91
934.594	5680.08
934.902	5594.2
935.21	5566.86
935.519	5580.42
935.827	5544.71
936.135	5495.45
936.443	5474.66
936.751	5517.82
937.059	5448.44
937.367	5449.57
937.674	5434.66
937.982	5400.08
938.29	5400.99
938.597	5370.71
938.905	5286.87
939.213	5282.35
939.52	5278.73
939.827	5290.26
940.135	5228.34
940.442	5242.8
940.749	5202.58
941.056	5214.78
941.363	5111.96
941.67	5157.38
941.977	5083.71
942.284	5081.9
942.591	5043.03
942.898	4999.87
943.205	5061.79
943.511	5000.55
943.818	4987.21
944.125	4982.47
944.431	4983.15
944.738	4882.81
945.044	4914.67
945.35	4876.26
945.657	4850.04
945.963	4803.94
946.269	4765.98
946.575	4799.42
946.881	4748.35
947.187	4723.04
947.493	4724.17
947.799	4738.63
948.105	4690.95
948.41	4631.97
948.716	4655.02
949.022	4577.51
949.327	4621.57
949.633	4577.51
949.938	4559.88
950.244	4589.03
950.549	4467.91
950.854	4510.62
951.16	4513.78
951.465	4468.36
951.77	4439.88
952.075	4420.67
952.38	4415.25
952.685	4368.92
952.99	4346.78
953.294	4344.52
953.599	4295.25
953.904	4318.76
954.209	4289.15
954.513	4260.68
954.818	4279.89
955.122	4210.74
955.426	4222.04
955.731	4213
956.035	4175.48
956.339	4129.16
956.643	4150.17
956.948	4165.54
957.252	4118.31
957.556	4100.01
957.86	4092.1
958.163	4053.45
958.467	4033.79
958.771	4063.85
959.075	4054.58
959.378	3987.47
959.682	4004.87
959.985	3994.02
960.289	3969.84
960.592	3908.37
960.896	3903.17
961.199	3874.25
961.502	3896.17
961.805	3863.85
962.108	3800.13
962.411	3833.8
962.714	3775.49
963.017	3797.87
963.32	3803.52
963.623	3743.86
963.926	3766
964.228	3697.76
964.531	3680.36
964.833	3701.6
965.136	3641.49
965.438	3613.46
965.741	3634.25
966.043	3603.97
966.345	3581.37
966.648	3585.22
966.95	3558.1
967.252	3545.67
967.554	3541.38
967.856	3561.04
968.158	3523.3
968.46	3499.79
968.761	3495.28
969.063	3474.03
969.365	3452.56
969.666	3461.83
969.968	3392.68
970.269	3417.09
970.571	3399.23
970.872	3382.28
971.174	3341.38
971.475	3382.06
971.776	3328.27
972.077	3296.41
972.378	3275.62
972.679	3309.07
972.98	3232.23
973.281	3258.22
973.582	3227.03
973.883	3239.01
974.183	3203.76
974.484	3182.29
974.785	3205.34
975.085	3185.68
975.386	3185.45
975.686	3162.63
975.986	3136.19
976.287	3127.83
976.587	3076.76
976.887	3101.84
977.187	3125.34
977.487	3060.48
977.787	3078.79
978.087	3047.38
978.387	3015.51
978.687	3032.69
978.987	2985.23
979.286	2967.15
979.586	2935.29
979.885	2956.31
980.185	2937.78
980.484	2928.51
980.784	2928.28
981.083	2887.83
981.382	2899.81
981.682	2891
981.981	2911.34
982.28	2854.16
982.579	2817.55
982.878	2823.88
983.177	2824.11
983.475	2819.13
983.774	2793.15
984.073	2741.4
984.372	2811.45
984.67	2737.1
984.969	2789.98
985.267	2743.66
985.566	2721.28
985.864	2709.31
986.162	2711.34
986.461	2658.24
986.759	2702.08
987.057	2684.45
987.355	2672.7
987.653	2650.33
987.951	2634.51
988.249	2625.92
988.547	2568.75
988.844	2589.08
989.142	2580.27
989.44	2549.09
989.737	2553.61
990.035	2541.85
990.332	2534.4
990.63	2513.15
990.927	2503.21
991.224	2519.48
991.521	2484
991.819	2496.43
992.116	2471.12
992.413	2433.83
992.71	2441.07
993.006	2420.73
993.303	2404.68
993.6	2432.03
993.897	2383.44
994.193	2371.46
994.49	2385.02
994.787	2359.26
995.083	2329.88
995.379	2353.84
995.676	2335.53
995.972	2332.14
996.268	2319.04
996.565	2315.19
996.861	2253.5
997.157	2271.13
997.453	2270.22
997.749	2241.97
998.044	2245.36
998.34	2242.88
998.636	2208.98
998.932	2193.61
999.227	2184.8
999.523	2209.21
999.818	2159.04
1000.114	2114.97
1000.409	2101.19
1000.704	2135.99
1001	2105.03
1001.295	2090.34
1001.59	2090.11
1001.885	2100.51
1002.18	2100.28
1002.475	2085.14
1002.77	2072.04
1003.065	2048.99
1003.359	2050.34
1003.654	2013.73
1003.949	1987.29
1004.243	2008.99
1004.538	1951.81
1004.832	1982.32
1005.127	1948.2
1005.421	1959.27
1005.715	1920.4
1006.009	1914.07
1006.304	1929.44
1006.598	1910.46
1006.892	1921.98
1007.186	1862.78
1007.48	1893.06
1007.773	1886.28
1008.067	1871.14
1008.361	1833.85
1008.655	1827.07
1008.948	1844.7
1009.242	1833.4
1009.535	1802.44
1009.829	1816.22
1010.122	1772.38
1010.415	1796.11
1010.708	1773.06
1011.001	1771.48
1011.295	1758.37
1011.588	1738.26
1011.881	1713.4
1012.173	1724.93
1012.466	1709.33
1012.759	1722.21
1013.052	1706.85
1013.344	1705.72
1013.637	1652.39
1013.93	1636.12
1014.222	1641.31
1014.514	1654.19
1014.807	1616.45
1015.099	1625.04
1015.391	1612.61
1015.683	1596.57
1015.976	1608.55
1016.268	1582.56
1016.56	1587.98
1016.851	1569
1017.143	1574.2
1017.435	1561.31
1017.727	1528.1
1018.018	1543.24
1018.31	1521.77
1018.602	1523.35
1018.893	1498.94
1019.185	1497.81
1019.476	1451.04
1019.767	1477.25
1020.058	1483.8
1020.35	1418.72
1020.641	1442.22
1020.932	1417.59
1021.223	1426.4
1021.514	1389.12
1021.804	1424.82
1022.095	1369.23
1022.386	1390.25
1022.677	1397.03
1022.967	1385.95
1023.258	1363.58
1023.548	1345.05
1023.839	1367.42
1024.129	1331.49
1024.419	1313.41
1024.709	1317.48
1025	1321.1
1025.29	1282.45
1025.58	1301.43
1025.87	1296.92
1026.16	1259.85
1026.449	1244.49
1026.739	1287.65
1027.029	1284.49
1027.319	1243.81
1027.608	1245.39
1027.898	1232.96
1028.187	1232.28
1028.477	1211.72
1028.766	1213.08
1029.055	1191.83
1029.344	1205.17
1029.634	1162.68
1029.923	1155.45
1030.212	1172.17
1030.501	1165.85
1030.79	1129.69
1031.078	1131.27
1031.367	1125.17
1031.656	1129.91
1031.945	1130.82
1032.233	1114.1
1032.522	1093.98
1032.81	1100.76
1033.099	1074.32
1033.387	1083.36
1033.675	1075.23
1033.963	1076.13
1034.251	1049.24
1034.54	1050.37
1034.828	1036.81
1035.116	1039.75
1035.403	1041.33
1035.691	1019.18
1035.979	1022.35
1036.267	1014.66
1036.554	1015.79
1036.842	999.07
1037.129	978.28
1037.417	986.64
1037.704	998.62
1037.992	977.6
1038.279	966.98
1038.566	981.22
1038.853	981.22
1039.14	981.22
