Data from hue_10_FLMS001491_35.txt Node
Date: Mon Feb 06 15:31:49 GMT 2017
User: dcchb
Spectrometer: FLMS00149
Trigger mode: 0
Integration Time (sec): 2.000000E-2
Scans to average: 10
Electric dark correction enabled: true
Nonlinearity correction enabled: false
Boxcar width: 0
XAxis mode: Wavelengths
Number of Pixels in Spectrum: 2048
>>>>>Begin Spectral Data<<<<<
341.393	-15.71
341.776	-15.71
342.16	-15.71
342.543	-58.19
342.927	-60.68
343.31	-79.66
343.693	-58.42
344.077	-71.07
344.46	-67
344.843	-49.15
345.226	-39.21
345.61	-42.6
345.993	-27.23
346.376	1.69
346.759	14.58
347.142	17.97
347.525	41.24
347.908	67.68
348.291	76.27
348.674	87.12
349.057	127.79
349.44	126.44
349.823	114.91
350.206	165.76
350.588	206.44
350.971	211.41
351.354	227
351.737	233.1
352.119	242.37
352.502	274.23
352.884	267.9
353.267	274.46
353.65	296.15
354.032	296.38
354.414	295.7
354.797	314.68
355.179	328.69
355.562	312.2
355.944	338.18
356.326	325.08
356.709	339.31
357.091	323.72
357.473	347
357.855	337.96
358.238	349.48
358.62	346.54
359.002	336.15
359.384	338.18
359.766	349.03
360.148	336.6
360.53	342.25
360.912	340.44
361.294	346.09
361.676	337.05
362.057	336.83
362.439	334.79
362.821	323.95
363.203	306.32
363.584	303.83
363.966	332.31
364.348	342.48
364.729	326.66
365.111	334.79
365.493	320.33
365.874	320.56
366.256	313.55
366.637	318.07
367.019	303.16
367.4	312.2
367.781	308.13
368.163	338.64
368.544	304.96
368.925	292.31
369.306	319.88
369.688	302.25
370.069	324.62
370.45	278.3
370.831	315.36
371.212	318.52
371.593	305.19
371.974	307.45
372.355	328.24
372.736	312.65
373.117	311.97
373.498	294.79
373.879	313.55
374.26	294.34
374.641	329.37
375.021	314
375.402	326.88
375.783	316.71
376.163	328.47
376.544	324.17
376.925	313.1
377.305	302.7
377.686	320.1
378.066	336.6
378.447	326.43
378.827	332.08
379.208	319.88
379.588	320.56
379.968	327.34
380.349	313.33
380.729	348.58
381.109	362.14
381.489	334.34
381.87	354.68
382.25	330.73
382.63	321.23
383.01	326.88
383.39	334.34
383.77	349.71
384.15	334.34
384.53	352.42
384.91	331.63
385.29	346.09
385.67	362.82
386.049	344.74
386.429	351.97
386.809	344.06
387.189	320.56
387.568	348.8
387.948	344.28
388.328	352.19
388.707	355.36
389.087	350.61
389.466	352.87
389.846	342.25
390.225	335.92
390.605	356.26
390.984	355.58
391.363	371.63
391.743	334.34
392.122	342.02
392.501	349.48
392.881	374.57
393.26	369.14
393.639	372.76
394.018	371.4
394.397	356.49
394.776	378.18
395.155	351.74
395.534	378.86
395.913	360.1
396.292	379.76
396.671	393.1
397.05	354.91
397.429	373.21
397.808	355.36
398.186	370.95
398.565	363.95
398.944	369.82
399.323	377.05
399.701	374.57
400.08	389.26
400.458	401.68
400.837	383.15
401.215	382.25
401.594	376.37
401.972	381.57
402.351	396.26
402.729	375.02
403.107	372.31
403.486	399.65
403.864	379.76
404.242	397.16
404.62	385.41
404.999	412.76
405.377	393.32
405.755	413.66
406.133	419.99
406.511	399.2
406.889	409.14
407.267	420.21
407.645	407.79
408.023	428.12
408.401	424.28
408.779	402.81
409.156	423.83
409.534	403.72
409.912	411.63
410.29	430.38
410.667	436.94
411.045	427.9
411.422	435.36
411.8	433.1
412.178	434.45
412.555	417.05
412.933	442.14
413.31	441.91
413.687	418.18
414.065	461.12
414.442	458.18
414.819	450.95
415.197	468.12
415.574	470.61
415.951	451.85
416.328	459.54
416.705	453.66
417.082	475.81
417.46	471.06
417.837	456.6
418.214	476.94
418.591	464.28
418.967	470.16
419.344	479.42
419.721	460.44
420.098	476.94
420.475	494.56
420.852	472.87
421.228	470.84
421.605	477.84
421.982	474.22
422.358	489.37
422.735	506.09
423.111	530.72
423.488	495.92
423.864	485.98
424.241	498.86
424.617	499.76
424.994	499.53
425.37	508.35
425.746	503.15
426.123	530.72
426.499	525.3
426.875	539.08
427.251	554.45
427.627	543.83
428.003	537.95
428.379	552.64
428.756	551.06
429.132	560.55
429.507	556.03
429.883	567.56
430.259	553.54
430.635	544.51
431.011	591.28
431.387	558.97
431.763	571.4
432.138	574.11
432.514	578.18
432.89	592.64
433.265	596.48
433.641	613.2
434.016	588.57
434.392	598.74
434.767	632.41
435.143	613.43
435.518	638.74
435.894	621.34
436.269	636.93
436.644	636.71
437.02	621.79
437.395	649.81
437.77	655.91
438.145	662.24
438.52	654.11
438.895	651.85
439.271	675.8
439.646	672.41
440.021	689.36
440.395	671.51
440.77	678.97
441.145	688.23
441.52	676.25
441.895	700.66
442.27	699.98
442.645	711.73
443.019	695.69
443.394	723.94
443.769	731.85
444.143	719.64
444.518	690.94
444.892	694.78
445.267	695.91
445.641	726.42
446.016	712.41
446.39	694.33
446.764	719.19
447.139	751.96
447.513	724.39
447.887	733.65
448.262	730.72
448.636	749.92
449.01	751.28
449.384	756.7
449.758	761.67
450.132	760.54
450.506	771.39
450.88	778.4
451.254	779.53
451.628	784.95
452.002	798.28
452.376	778.62
452.75	778.17
453.123	786.76
453.497	818.62
453.871	823.59
454.244	794.44
454.618	836.7
454.992	837.38
455.365	817.72
455.739	855.23
456.112	864.95
456.486	869.92
456.859	870.6
457.232	873.54
457.606	866.98
457.979	902.01
458.352	893.65
458.725	914.89
459.099	904.27
459.472	921.44
459.845	928.68
460.218	920.54
460.591	939.07
460.964	949.47
461.337	948.79
461.71	979.97
462.083	972.29
462.456	972.52
462.829	988.34
463.201	995.79
463.574	1016.13
463.947	1017.26
464.32	1048
464.692	1040.99
465.065	1043.02
465.438	1078.73
465.81	1075.79
466.183	1119.18
466.555	1104.26
466.928	1103.13
467.3	1087.32
467.672	1119.63
468.045	1137.26
468.417	1145.62
468.789	1154.66
469.161	1157.82
469.534	1181.1
469.906	1209.57
470.278	1220.87
470.65	1270.59
471.022	1257.48
471.394	1286.63
471.766	1287.31
472.138	1293.86
472.51	1331.6
472.882	1339.06
473.253	1387.42
473.625	1367.53
473.997	1394.65
474.369	1391.71
474.74	1400.3
475.112	1460.87
475.484	1478.04
475.855	1482.79
476.227	1507.42
476.598	1563.24
476.97	1549.9
477.341	1604.59
477.713	1606.4
478.084	1641.2
478.455	1667.41
478.827	1714.64
479.198	1724.59
479.569	1759.61
479.94	1786.96
480.311	1805.26
480.682	1829.22
481.053	1909.67
481.424	1929.78
481.795	1957.58
482.166	1970
482.537	2005.48
482.908	2061.53
483.279	2088.65
483.65	2107.85
484.021	2113.05
484.391	2189.21
484.762	2208.87
485.133	2249.55
485.503	2265.59
485.874	2328.19
486.244	2334.74
486.615	2396.66
486.985	2399.6
487.356	2502.65
487.726	2492.48
488.097	2581.97
488.467	2579.03
488.837	2625.81
489.207	2671.68
489.578	2687.95
489.948	2714.84
490.318	2788.74
490.688	2784.22
491.058	2852.69
491.428	2889.98
491.798	2922.07
492.168	2987.38
492.538	2973.59
492.908	3009.75
493.278	3058.34
493.648	3116.64
494.017	3080.48
494.387	3158
494.757	3178.56
495.126	3230.08
495.496	3262.85
495.866	3251.78
496.235	3332.91
496.605	3313.25
496.974	3360.25
497.344	3400.25
497.713	3414.49
498.082	3444.77
498.452	3494.94
498.821	3520.7
499.19	3488.61
499.559	3529.74
499.928	3573.13
500.298	3556.4
500.667	3631.88
501.036	3602.05
501.405	3632.79
501.774	3675.04
502.143	3704.42
502.512	3699
502.88	3748.94
503.249	3753.91
503.618	3784.19
503.987	3800.01
504.356	3836.85
504.724	3869.39
505.093	3847.47
505.462	3894.02
505.83	3936.51
506.199	3946
506.567	3997.75
506.936	3994.36
507.304	4032.78
507.672	4004.3
508.041	4020.12
508.409	4047.69
508.777	4102.83
509.145	4082.94
509.514	4163.85
509.882	4150.51
510.25	4187.12
510.618	4226.44
510.986	4166.33
511.354	4188.48
511.722	4246.78
512.09	4268.25
512.458	4311.41
512.826	4292.88
513.193	4300.79
513.561	4348.93
513.929	4323.62
514.297	4396.16
514.664	4403.16
515.032	4432.31
515.4	4473.89
515.767	4435.25
516.135	4474.8
516.502	4454.91
516.869	4472.54
517.237	4551.18
517.604	4518.64
517.972	4545.98
518.339	4565.42
518.706	4587.11
519.073	4581.01
519.44	4618.52
519.808	4624.85
520.175	4637.73
520.542	4698.07
520.909	4704.4
521.276	4705.3
521.643	4712.08
522.009	4766.32
522.376	4795.24
522.743	4845.86
523.11	4861.45
523.477	4855.8
523.843	4886.09
524.21	4878.85
524.577	4943.03
524.943	4948.68
525.31	4974.67
525.676	5034.78
526.043	5042.24
526.409	5074.33
526.776	5100.54
527.142	5148
527.508	5109.58
527.874	5171.95
528.241	5214.89
528.607	5250.37
528.973	5310.93
529.339	5272.29
529.705	5337.15
530.071	5319.52
530.437	5369.69
530.803	5376.47
531.169	5394.32
531.535	5410.82
531.901	5451.04
532.267	5468.44
532.632	5556.35
532.998	5562.45
533.364	5568.1
533.73	5568.55
534.095	5671.15
534.461	5631.6
534.826	5657.37
535.192	5700.98
535.557	5727.19
535.923	5693.3
536.288	5746.18
536.653	5786.18
537.019	5750.02
537.384	5808.1
537.749	5816.68
538.114	5843.8
538.479	5805.61
538.845	5910.24
539.21	5853.97
539.575	5862.33
539.94	5880.86
540.305	5951.37
540.67	5977.13
541.034	5989.11
541.399	6053.74
541.764	6077.92
542.129	6109.78
542.494	6107.97
542.858	6117.01
543.223	6161.08
543.587	6164.92
543.952	6225.03
544.316	6231.14
544.681	6228.2
545.045	6257.12
545.41	6278.59
545.774	6312.26
546.138	6339.38
546.503	6371.92
546.867	6375.76
547.231	6475.87
547.595	6434.29
547.959	6475.2
548.324	6470
548.688	6453.5
549.052	6559.94
549.416	6570.34
549.779	6568.75
550.143	6567.4
550.507	6607.62
550.871	6657.57
551.235	6658.02
551.599	6697.11
551.962	6725.13
552.326	6673.61
552.689	6745.47
553.053	6745.02
553.417	6767.62
553.78	6848.52
554.143	6843.55
554.507	6900.27
554.87	6845.13
555.234	6914.51
555.597	6829.09
555.96	6915.41
556.323	6956.09
556.686	6955.86
557.05	6986.6
557.413	7007.16
557.776	6996.77
558.139	7093.71
558.502	7065.24
558.865	7149.76
559.228	7161.96
559.59	7115.63
559.953	7182.75
560.316	7220.26
560.679	7269.75
561.041	7240.37
561.404	7295.97
561.767	7289.64
562.129	7275.63
562.492	7380.26
562.854	7379.35
563.217	7376.87
563.579	7432.69
563.941	7561.04
564.304	7507.94
564.666	7536.64
565.028	7533.47
565.39	7561.72
565.753	7619.35
566.115	7645.34
566.477	7664.09
566.839	7669.52
567.201	7701.38
567.563	7721.04
567.925	7784.54
568.287	7835.61
568.648	7843.75
569.01	7889.17
569.372	7900.92
569.734	7954.93
570.095	7924.2
570.457	7992.22
570.819	8050.07
571.18	8053.91
571.542	8096.85
571.903	8181.82
572.265	8224.3
572.626	8203.97
572.987	8238.31
573.349	8277.64
573.71	8384.3
574.071	8417.97
574.432	8477.63
574.794	8536.16
575.155	8534.8
575.516	8541.58
575.877	8638.98
576.238	8662.26
576.599	8784.51
576.96	8797.62
577.32	8871.29
577.681	8895.47
578.042	8987
578.403	9069.03
578.763	9150.61
579.124	9252.53
579.485	9329.13
579.845	9435.35
580.206	9506.53
580.566	9612.29
580.927	9710.82
581.287	9914.65
581.648	9931.38
582.008	10046.85
582.368	10128.66
582.728	10303.34
583.089	10429.22
583.449	10535.43
583.809	10720.74
584.169	10931.58
584.529	10975.19
584.889	11201.85
585.249	11296.09
585.609	11467.38
585.969	11601.84
586.329	11828.05
586.688	12047.71
587.048	12153.01
587.408	12370.86
587.768	12664.41
588.127	12803.62
588.487	13014.01
588.846	13290.16
589.206	13436.82
589.565	13708
589.925	14006.52
590.284	14203.58
590.643	14441.54
591.003	14755.66
591.362	15029.1
591.721	15191.13
592.08	15485.81
592.44	15803.77
592.799	15998.34
593.158	16259.12
593.517	16571.65
593.876	16805.77
594.235	16996.95
594.593	17317.4
594.952	17653.43
595.311	17783.37
595.67	18244.61
596.029	18519.4
596.387	18829.67
596.746	19092.04
597.104	19349.43
597.463	19609.54
597.822	19958.23
598.18	20162.29
598.538	20471.67
598.897	20896.74
599.255	20874.14
599.613	21528.13
599.972	21605.42
600.33	21976.26
600.688	22204.95
601.046	22572.4
601.404	22950.7
601.762	23067.98
602.12	23522.66
602.478	23715.87
602.836	23947.51
603.194	24165.13
603.552	24388.62
603.91	24651.44
604.268	24997.2
604.625	25095.72
604.983	25466.56
605.341	25733.22
605.698	26029.26
606.056	26259.31
606.413	26415.24
606.771	26759.64
607.128	27036.46
607.485	27199.85
607.843	27410.69
608.2	27714.64
608.557	28029.66
608.914	28108.3
609.272	28453.83
609.629	28679.13
609.986	29118.9
610.343	29087.94
610.7	29565.21
611.057	29597.07
611.414	29776.96
611.771	29928.37
612.127	30215.59
612.484	30287.23
612.841	30797.95
613.198	30741.9
613.554	30817.83
613.911	31313.87
614.267	31351.38
614.624	31428.21
614.98	31802.21
615.337	32023
615.693	32071.13
616.05	32127.63
616.406	32544.57
616.762	32581.4
617.118	32673.15
617.475	32844.22
617.831	33056.19
618.187	33211.22
618.543	33374.15
618.899	33627.48
619.255	33641.71
619.611	33741.6
619.967	34075.6
620.323	34118.76
620.678	34080.35
621.034	34165.54
621.39	34258.87
621.746	34339.55
622.101	34860.67
622.457	34716.04
622.812	34850.72
623.168	34954.9
623.523	34995.35
623.879	35186.31
624.234	34971.62
624.589	35242.35
624.945	35394.21
625.3	35444.38
625.655	35595.56
626.01	35755.11
626.365	35782.67
626.72	35681.66
627.075	35902.9
627.43	35939.28
627.785	35880.3
628.14	36162.33
628.495	36199.84
628.85	36221.76
629.205	36125.94
629.559	36322.32
629.914	36162.1
630.269	36269.44
630.623	36311.25
630.978	36187.64
631.332	36563.45
631.687	36587.17
632.041	36497.01
632.396	36596.66
632.75	36398.03
633.104	36542.65
633.459	36372.94
633.813	36555.08
634.167	36514.41
634.521	36539.72
634.875	36596.89
635.229	36674.4
635.583	36337.24
635.937	36586.04
636.291	36512.15
636.645	36615.2
636.999	36453.84
637.352	36600.96
637.706	36509.21
638.06	36610.68
638.413	36584.46
638.767	36527.06
639.121	36515.31
639.474	36460.62
639.828	36474.63
640.181	36438.93
640.534	36622.43
640.888	36537.68
641.241	36303.11
641.594	36410.91
641.947	36608.42
642.301	36462.66
642.654	36407.74
643.007	36410.23
643.36	36360.06
643.713	36392.15
644.066	36550.79
644.419	36183.34
644.771	36187.18
645.124	35957.59
645.477	35714.43
645.83	35604.83
646.182	35347.88
646.535	35419.75
646.888	35487.77
647.24	35315.57
647.593	35482.34
647.945	35368
648.298	35276.7
648.65	35129.13
649.002	35122.81
649.355	35156.02
649.707	35135.91
650.059	35243.25
650.411	35737.25
650.763	35737.48
651.115	36175.66
651.467	35937.25
651.819	36079.39
652.171	36007.08
652.523	35887.08
652.875	35945.38
653.227	35693.19
653.578	36040.3
653.93	36079.39
654.282	35852.96
654.633	35815.89
654.985	35949.9
655.337	35761.88
655.688	35950.13
656.039	35922.56
656.391	35723.02
656.742	35745.16
657.094	35694.32
657.445	35877.36
657.796	35830.58
658.147	35730.47
658.498	35669.91
658.849	35774.31
659.2	35887.08
659.551	35684.15
659.902	35694.77
660.253	35691.6
660.604	35751.49
660.955	35474.89
661.306	35731.38
661.656	35479.86
662.007	35714.43
662.358	35681.89
662.708	35615.9
663.059	35593.75
663.409	35625.62
663.76	35539.07
664.11	35738.61
664.461	35667.42
664.811	35578.61
665.161	35631.27
665.511	35481.89
665.862	35527.99
666.212	35648.22
666.562	35663.81
666.912	35451.84
667.262	35634.43
667.612	35646.41
667.962	35554.43
668.312	35538.84
668.662	35680.08
669.011	35542.46
669.361	35490.93
669.711	35447.09
670.06	35518.73
670.41	35411.84
670.76	35303.37
671.109	35567.99
671.459	35514.89
671.808	35455.9
672.157	35536.35
672.507	35218.62
672.856	35219.98
673.205	35205.97
673.554	35315.12
673.904	35248
674.253	35457.26
674.602	35328.9
674.951	34846.2
675.3	34528.47
675.649	35174.1
675.998	35127.32
676.346	35153.99
676.695	35221.33
677.044	34860.89
677.393	35158.51
677.741	35075.35
678.09	35009.59
678.438	34937.73
678.787	35052.98
679.135	35150.15
679.484	34805.98
679.832	35035.35
680.181	34716.04
680.529	34988.8
680.877	34776.37
681.225	34621.58
681.573	34830.61
681.922	34580.67
682.27	34448.47
682.618	34505.65
682.966	34567.11
683.314	34584.06
683.661	34397.63
684.009	34267.01
684.357	34198.54
684.705	34152.89
685.053	34309.95
685.4	34161.7
685.748	33955.6
686.095	34139.78
686.443	33900.69
686.79	33786.57
687.138	33957.19
687.485	33850.3
687.832	33902.5
688.18	33788.15
688.527	33623.41
688.874	33709.74
689.221	33578.21
689.568	33473.81
689.915	33373.02
690.262	33346.35
690.609	33211.67
690.956	33092.8
691.303	33010.09
691.65	33043.54
691.997	32965.35
692.344	32712.47
692.69	32803.09
693.037	32787.95
693.383	32636.09
693.73	32597.22
694.077	32417.79
694.423	32455.98
694.769	32255.31
695.116	32252.37
695.462	32176.44
695.808	32092.6
696.155	32096.67
696.501	31869.56
696.847	31779.62
697.193	31720.63
697.539	31788.88
697.885	31669.56
698.231	31482.9
698.577	31455.33
698.923	31486.97
699.269	31324.26
699.614	31225.73
699.96	31043.36
700.306	31165.17
700.651	30948
700.997	30875.46
701.342	30876.59
701.688	30809.47
702.033	30717.05
702.379	30788.46
702.724	30704.16
703.069	30688.57
703.415	30254.46
703.76	30413.32
704.105	30204.29
704.45	30282.71
704.795	30063.28
705.14	30105.08
705.485	29956.39
705.83	29975.14
706.175	29971.53
706.52	29722.95
706.865	29720.24
707.209	29704.87
707.554	29538.32
707.899	29652.89
708.243	29342.17
708.588	29432.56
708.932	29277.54
709.277	29316.4
709.621	29211.55
709.966	29031.44
710.31	29116.86
710.654	28772.01
710.998	29090.87
711.342	28881.61
711.687	28900.14
712.031	28727.49
712.375	28683.65
712.719	28707.15
713.063	28604.33
713.407	28681.17
713.75	28451.34
714.094	28607.72
714.438	28356.2
714.782	28306.04
715.125	28267.39
715.469	28312.81
715.812	28238.47
716.156	28050.67
716.499	28050.9
716.843	28000.51
717.186	27911.92
717.53	27934.75
717.873	28042.77
718.216	27866.95
718.559	27744.02
718.902	27492.27
719.246	27653.17
719.589	27590.12
719.932	27530.01
720.275	27456.79
720.617	27585.38
720.96	27316.46
721.303	27377.25
721.646	27373.86
721.989	27245.27
722.331	27229.68
722.674	27180.64
723.016	27256.57
723.359	27104.94
723.701	27128.89
724.044	26893.42
724.386	26859.97
724.729	27001.66
725.071	26887.77
725.413	27014.09
725.755	26916.47
726.097	26725.06
726.439	26711.5
726.782	26658.62
727.124	26665.17
727.465	26512.86
727.807	26586.98
728.149	26507.44
728.491	26458.63
728.833	26432.64
729.175	26297.5
729.516	26250.27
729.858	26319.42
730.199	26280.1
730.541	26226.99
730.882	26309.7
731.224	26163.04
731.565	26000.79
731.906	26050.73
732.248	25908.13
732.589	25908.58
732.93	25835.59
733.271	25902.26
733.612	25892.99
733.953	25879.21
734.294	25763.05
734.635	25751.75
734.976	25794.69
735.317	25702.94
735.658	25685.54
735.999	25578.88
736.339	25518.09
736.68	25669.04
737.021	25536.84
737.361	25385.21
737.702	25504.08
738.042	25382.5
738.383	25329.16
738.723	25526
739.063	25294.36
739.404	25262.5
739.744	25307.24
740.084	25181.6
740.424	25263.86
740.764	25222.27
741.104	25241.94
741.444	25054.37
741.784	24965.11
742.124	24977.54
742.464	25006.69
742.804	24847.14
743.143	24870.42
743.483	25010.08
743.823	24815.51
744.162	24944.99
744.502	24834.49
744.841	24685.79
745.181	24794.26
745.52	24678.79
745.86	24728.28
746.199	24625.45
746.538	24641.5
746.877	24603.31
747.216	24536.19
747.556	24470.43
747.895	24446.7
748.234	24426.36
748.573	24405.35
748.911	24365.57
749.25	24310.21
749.589	24268.63
749.928	24144.56
750.267	24279.93
750.605	24212.58
750.944	24046.03
751.283	24140.27
751.621	24096.88
751.96	23897.79
752.298	23999.26
752.636	23899.15
752.975	23866.15
753.313	23765.59
753.651	23917.22
753.989	23688.08
754.327	23795.19
754.666	23605.82
755.004	23749.09
755.342	23757.68
755.679	23534.64
756.017	23496.67
756.355	23651.02
756.693	23388.2
757.031	23398.82
757.368	23348.88
757.706	23251.71
758.044	23160.41
758.381	23290.12
758.719	23071.82
759.056	23115.66
759.394	23046.06
759.731	22919.51
760.068	22898.04
760.405	22851.26
760.743	22779.4
761.08	22883.35
761.417	22675.9
761.754	22668.9
762.091	22477.04
762.428	22541.22
762.765	22449.92
763.102	22421.22
763.438	22342.58
763.775	22229.81
764.112	22273.2
764.449	22207.44
764.785	22069.14
765.122	21987.56
765.458	21965.19
765.795	21930.61
766.131	21933.77
766.467	21789.6
766.804	21655.36
767.14	21607
767.476	21592.77
767.812	21554.12
768.148	21631.41
768.485	21351.87
768.821	21254.02
769.157	21254.7
769.492	21182.15
769.828	21081.82
770.164	20908.94
770.5	20964.08
770.836	21000.69
771.171	20722.96
771.507	20859.68
771.842	20592.79
772.178	20646.35
772.513	20526.35
772.849	20432.8
773.184	20354.38
773.519	20352.8
773.855	20269.86
774.19	20143.54
774.525	20139.47
774.86	20210.2
775.195	19977.67
775.53	19938.35
775.865	19820.38
776.2	19768.86
776.535	19624.91
776.87	19604.12
777.205	19623.78
777.539	19494.52
777.874	19422.88
778.209	19330.23
778.543	19276.89
778.878	19226.95
779.212	19191.47
779.547	18944.7
779.881	19159.38
780.215	18918.71
780.55	19032.61
780.884	18733.41
781.218	18741.32
781.552	18762.11
781.886	18709.45
782.22	18567.08
782.554	18528.67
782.888	18317.15
783.222	18271.27
783.556	18144.04
783.889	18134.78
784.223	18047.55
784.557	18063.14
784.89	18008.68
785.224	17901.79
785.557	17755.13
785.891	17794.45
786.224	17707.67
786.558	17742.25
786.891	17593.55
787.224	17478.52
787.557	17432.87
787.891	17386.32
788.224	17395.81
788.557	17341.13
788.89	17279.66
789.223	17272.2
789.556	17111.08
789.888	17055.03
790.221	17041.25
790.554	16935.71
790.887	16967.58
791.219	16921.7
791.552	16778.65
791.884	16675.15
792.217	16658.43
792.549	16649.17
792.882	16439.45
793.214	16424.31
793.546	16476.06
793.879	16335.5
794.211	16288.05
794.543	16368.27
794.875	16241.95
795.207	16216.64
795.539	16149.07
795.871	16159.46
796.203	15979.58
796.535	15782.3
796.867	15820.04
797.198	15887.83
797.53	15885.12
797.862	15724.67
798.193	15780.94
798.525	15637.22
798.856	15680.6
799.188	15538.91
799.519	15476.32
799.85	15474.96
800.182	15414.4
800.513	15397
800.844	15217.11
801.175	15228.87
801.506	15195.65
801.837	15126.04
802.168	15069.32
802.499	14999.72
802.83	15064.35
803.161	14966.05
803.491	14910.91
803.822	14937.57
804.153	14898.93
804.483	14629.11
804.814	14709.33
805.145	14728.99
805.475	14660.97
805.805	14585.49
806.136	14660.07
806.466	14583.23
806.796	14562.67
807.126	14327.19
807.457	14452.61
807.787	14355.89
808.117	14345.05
808.447	14333.75
808.777	14393.41
809.107	14253.75
809.436	14309.57
809.766	14116.35
810.096	14215.33
810.426	14100.53
810.755	14013.76
811.085	14048.56
811.414	14067.09
811.744	13917.94
812.073	13948.45
812.403	13838.62
812.732	13781.9
813.061	13795.68
813.39	13758.85
813.719	13674.1
814.049	13789.58
814.378	13665.29
814.707	13590.04
815.036	13637.72
815.365	13529.25
815.693	13388.91
816.022	13401.57
816.351	13415.58
816.68	13244.96
817.008	13344.17
817.337	13230.73
817.665	13231.4
817.994	13214.91
818.322	13220.78
818.651	13128.58
818.979	13064.85
819.307	13186.21
819.636	13066.44
819.964	12923.39
820.292	13067.11
820.62	13005.87
820.948	13013.1
821.276	12994.12
821.604	12918.87
821.932	13013.33
822.259	13021.01
822.587	12949.6
822.915	12890.4
823.243	12982.37
823.57	12884.75
823.898	12911.86
824.225	12861.02
824.553	12871.86
824.88	12903.95
825.207	12935.14
825.535	12899.89
825.862	12994.57
826.189	12876.84
826.516	12907.8
826.843	12969.26
827.17	12896.27
827.497	12983.27
827.824	12888.59
828.151	12902.37
828.478	12925.42
828.805	12985.08
829.131	12865.31
829.458	12838.19
829.785	12781.02
830.111	12908.02
830.438	12852.2
830.764	12849.94
831.09	12876.16
831.417	12778.53
831.743	12856.27
832.069	12816.95
832.395	12772.43
832.722	12832.09
833.048	12810.62
833.374	12744.41
833.7	12774.47
834.026	12746.22
834.351	12788.7
834.677	12739.44
835.003	12754.58
835.329	12689.04
835.654	12686.11
835.98	12544.42
836.306	12624.64
836.631	12598.43
836.956	12684.53
837.282	12649.27
837.607	12521.59
837.932	12512.78
838.258	12508.71
838.583	12592.55
838.908	12444.76
839.233	12467.81
839.558	12462.61
839.883	12502.38
840.208	12383.74
840.533	12389.17
840.858	12360.92
841.182	12349.17
841.507	12367.47
841.832	12260.13
842.156	12213.58
842.481	12289.51
842.805	12233.24
843.13	12217.42
843.454	12158.44
843.778	12115.27
844.103	12006.35
844.427	11936.52
844.751	12030.31
845.075	12005
845.399	11994.6
845.723	11898.78
846.047	11924.32
846.371	11779.69
846.695	11799.58
847.019	11711.9
847.343	11718.45
847.666	11592.12
847.99	11558.45
848.313	11571.33
848.637	11490.21
848.96	11374.05
849.284	11425.58
849.607	11349.87
849.931	11329.53
850.254	11231.46
850.577	11178.8
850.9	11127.28
851.223	11140.39
851.546	11122.31
851.869	10997.56
852.192	11079.82
852.515	10962.99
852.838	10949.66
853.161	10832.82
853.483	10860.84
853.806	10858.13
854.129	10793.73
854.451	10736.55
854.774	10657.69
855.096	10601.42
855.419	10630.79
855.741	10632.15
856.063	10553.28
856.385	10566.16
856.708	10476.67
857.03	10449.1
857.352	10436
857.674	10393.96
857.996	10358.71
858.318	10364.13
858.64	10389.22
858.961	10304.7
859.283	10250.01
859.605	10224.48
859.926	10213.86
860.248	10184.7
860.57	10150.13
860.891	10227.64
861.212	10132.28
861.534	10063.8
861.855	10015.22
862.176	10069.45
862.498	10082.33
862.819	10044.14
863.14	10018.83
863.461	9932.73
863.782	9910.13
864.103	9940.64
864.424	9833.75
864.745	9935.9
865.065	9746.52
865.386	9796.24
865.707	9828.1
866.027	9826.3
866.348	9791.49
866.668	9773.87
866.989	9754.66
867.309	9669.01
867.63	9691.61
867.95	9687.09
868.27	9655.23
868.59	9681.89
868.91	9692.29
869.23	9642.57
869.55	9605.51
869.87	9580.65
870.19	9606.41
870.51	9633.53
870.83	9590.82
871.15	9478.06
871.469	9531.84
871.789	9544.49
872.109	9528
872.428	9450.94
872.748	9476.93
873.067	9428.57
873.386	9497.72
873.706	9392.63
874.025	9412.29
874.344	9469.92
874.663	9457.27
874.982	9361.22
875.301	9316.48
875.62	9293.88
875.939	9242.36
876.258	9259.76
876.577	9248.01
876.896	9299.53
877.214	9232.19
877.533	9236.71
877.852	9166.88
878.17	9204.16
878.489	9201
878.807	9188.57
879.125	9182.7
879.444	9148.57
879.762	9082.81
880.08	9118.74
880.398	9035.36
880.716	9109.03
881.034	9055.02
881.352	9055.24
881.67	9013.44
881.988	9016.6
882.306	8980.67
882.624	8913.32
882.941	8917.62
883.259	8853.67
883.577	8875.81
883.894	8885.3
884.212	8906.77
884.529	8803.27
884.846	8773.22
885.164	8764.85
885.481	8750.39
885.798	8757.62
886.115	8738.41
886.432	8681.24
886.75	8703.39
887.067	8696.38
887.383	8660.68
887.7	8619.77
888.017	8594.01
888.334	8604.41
888.651	8565.76
888.967	8570.51
889.284	8509.95
889.6	8411.64
889.917	8444.86
890.233	8470.17
890.55	8403.28
890.866	8439.21
891.182	8354.24
891.498	8298.65
891.815	8330.97
892.131	8277.64
892.447	8214.81
892.763	8226.79
893.079	8244.87
893.395	8247.35
893.71	8201.25
894.026	8138.43
894.342	8110.18
894.657	8077.41
894.973	8103.4
895.289	8121.48
895.604	8063.18
895.92	7993.35
896.235	8017.3
896.55	7985.21
896.865	7891.2
897.181	7926.01
897.496	7939.79
897.811	7893.24
898.126	7817.31
898.441	7823.18
898.756	7785.67
899.071	7707.03
899.386	7678.1
899.7	7620.25
900.015	7703.87
900.33	7599.69
900.644	7570.54
900.959	7609.4
901.273	7474.27
901.588	7523.31
901.902	7464.78
902.216	7450.09
902.531	7446.24
902.845	7396.98
903.159	7384.78
903.473	7340.94
903.787	7352.46
904.101	7326.7
904.415	7285.35
904.729	7267.72
905.042	7181.85
905.356	7199.7
905.67	7157.21
905.984	7163.99
906.297	7141.39
906.611	7092.13
906.924	7067.27
907.237	7053.94
907.551	7019.82
907.864	6963.32
908.177	6974.84
908.491	6951.34
908.804	6846.71
909.117	6844.23
909.43	6827.5
909.743	6793.38
910.056	6804
910.368	6813.27
910.681	6771.01
910.994	6715.87
911.307	6687.17
911.619	6664.34
911.932	6670.67
912.244	6587.96
912.557	6610.56
912.869	6542.31
913.181	6547.06
913.494	6524.91
913.806	6467.51
914.118	6486.27
914.43	6399.72
914.742	6436.33
915.054	6399.27
915.366	6345.26
915.678	6319.27
915.99	6278.59
916.302	6296.67
916.613	6253.73
916.925	6254.64
917.236	6208.76
917.548	6175.32
917.859	6157.47
918.171	6118.6
918.482	6087.41
918.794	6099.61
919.105	6070.01
919.416	5959.96
919.727	6020.07
920.038	5953.4
920.349	5927.19
920.66	5881.09
920.971	5931.71
921.282	5913.4
921.593	5830.69
921.903	5819.62
922.214	5775.78
922.525	5770.13
922.835	5779.17
923.146	5698.95
923.456	5684.71
923.767	5613.3
924.077	5653.3
924.387	5601.77
924.697	5614.65
925.008	5590.93
925.318	5558.38
925.628	5583.47
925.938	5533.98
926.248	5446.07
926.558	5490.82
926.867	5465.05
927.177	5398.39
927.487	5440.87
927.796	5377.82
928.106	5326.07
928.416	5355
928.725	5314.55
929.034	5300.76
929.344	5270.26
929.653	5260.09
929.962	5220.99
930.271	5156.36
930.581	5151.84
930.89	5193.42
931.199	5091.05
931.508	5122.46
931.817	5098.51
932.125	5070.94
932.434	5067.32
932.743	4976.03
933.051	4984.84
933.36	5047.89
933.669	4922.92
933.977	4942.81
934.286	4914.79
934.594	4891.51
934.902	4878.4
935.21	4911.85
935.519	4829.14
935.827	4794.34
936.135	4756.6
936.443	4772.42
936.751	4760.67
937.059	4772.19
937.367	4694.23
937.674	4703.94
937.982	4693.77
938.29	4702.59
938.597	4650.61
938.905	4601.12
939.213	4581.91
939.52	4553.44
939.827	4566.77
940.135	4538.07
940.442	4518.86
940.749	4526.77
941.056	4519.77
941.363	4491.29
941.67	4446.55
941.977	4403.61
942.284	4406.55
942.591	4377.63
942.898	4411.75
943.205	4332.2
943.511	4329.04
943.818	4294.69
944.125	4263.28
944.431	4303.28
944.738	4288.81
945.044	4281.58
945.35	4218.08
945.657	4210.4
945.963	4211.3
946.269	4175.14
946.575	4139.44
946.881	4139.89
947.187	4148.7
947.493	4075.49
947.799	4042.94
948.105	4052.66
948.41	4052.89
948.716	4036.84
949.022	4000.46
949.327	3964.3
949.633	3948.26
949.938	3972.89
950.244	3956.17
950.549	3899.9
950.854	3864.87
951.16	3892.67
951.465	3851.09
951.77	3825.1
952.075	3808.83
952.38	3830.97
952.685	3829.16
952.99	3793.69
953.294	3804.98
953.599	3776.96
953.904	3778.09
954.209	3730.64
954.513	3729.73
954.818	3685.44
955.122	3700.58
955.426	3637.53
955.731	3642.5
956.035	3638.21
956.339	3637.76
956.643	3633.24
956.948	3564.09
957.252	3559.57
957.556	3588.95
957.86	3552.11
958.163	3522.96
958.467	3536.52
958.771	3492.9
959.075	3476.63
959.378	3476.86
959.682	3488.83
959.985	3424.2
960.289	3423.75
960.592	3374.49
960.896	3388.5
961.199	3371.32
961.502	3358.44
961.805	3359.12
962.108	3348.5
962.411	3342.17
962.714	3285.68
963.017	3285.45
963.32	3298.11
963.623	3306.92
963.926	3285.68
964.228	3255.85
964.531	3229.86
964.833	3199.35
965.136	3168.62
965.438	3195.28
965.741	3140.82
966.043	3131.1
966.345	3102.18
966.648	3150.99
966.95	3118.68
967.252	3114.83
967.554	3089.52
967.856	3094.95
968.158	3047.72
968.46	3029.41
968.761	3048.62
969.063	3020.37
969.365	3020.15
969.666	2982.18
969.968	2985.35
970.269	2942.18
970.571	2978.57
970.872	2968.62
971.174	2942.41
971.475	2923.2
971.776	2899.7
972.077	2877.78
972.378	2893.6
972.679	2873.94
972.98	2844.11
973.281	2855.63
973.582	2810.43
973.883	2835.07
974.183	2785.35
974.484	2806.37
974.785	2787.38
975.085	2798.46
975.386	2818.12
975.686	2760.72
975.986	2707.39
976.287	2720.72
976.587	2715.07
976.887	2678.91
977.187	2685.01
977.487	2703.54
977.787	2655.86
978.087	2661.29
978.387	2652.25
978.687	2672.36
978.987	2606.6
979.286	2626.26
979.586	2606.6
979.885	2635.3
980.185	2584
980.484	2577.45
980.784	2543.77
981.083	2509.65
981.382	2533.38
981.682	2529.54
981.981	2508.3
982.28	2484.34
982.579	2486.38
982.878	2479.14
983.177	2478.92
983.475	2448.18
983.774	2447.28
984.073	2414.51
984.372	2394.4
984.67	2394.17
984.969	2403.21
985.267	2405.47
985.566	2378.13
985.864	2388.3
986.162	2380.16
986.461	2382.88
986.759	2370.67
987.057	2290.22
987.355	2322.31
987.653	2285.25
987.951	2329.09
988.249	2298.36
988.547	2306.72
988.844	2291.13
989.142	2277.12
989.44	2232.82
989.737	2253.39
990.035	2217.91
990.332	2229.66
990.63	2224.24
990.927	2175.65
991.224	2183.11
991.521	2171.13
991.819	2156.44
992.116	2173.62
992.413	2159.83
992.71	2131.36
993.006	2122.54
993.303	2100.17
993.6	2099.27
993.897	2090.23
994.193	2057.23
994.49	2081.64
994.787	2073.5
995.083	2058.82
995.379	2093.84
995.676	2060.85
995.972	2037.12
996.268	2016.33
996.565	2015.2
996.861	1983.11
997.157	1986.05
997.453	1960.29
997.749	1975.88
998.044	1932.72
998.34	1955.77
998.636	1964.58
998.932	1896.79
999.227	1939.05
999.523	1920.74
999.818	1911.25
1000.114	1905.83
1000.409	1906.5
1000.704	1897.24
1001	1870.57
1001.295	1858.82
1001.59	1861.76
1001.885	1841.19
1002.18	1833.96
1002.475	1838.03
1002.77	1803
1003.065	1773.4
1003.359	1798.94
1003.654	1781.99
1003.949	1784.92
1004.243	1748.09
1004.538	1748.54
1004.832	1702.89
1005.127	1751.71
1005.421	1748.32
1005.715	1705.6
1006.009	1744.93
1006.304	1697.47
1006.598	1701.76
1006.892	1685.04
1007.186	1692.5
1007.48	1670.35
1007.773	1660.18
1008.067	1647.08
1008.361	1640.97
1008.655	1643.23
1008.948	1609.56
1009.242	1608.66
1009.535	1594.42
1009.829	1609.56
1010.122	1583.35
1010.415	1610.92
1010.708	1558.94
1011.001	1579.51
1011.295	1569.34
1011.588	1544.25
1011.881	1548.09
1012.173	1521.2
1012.466	1512.62
1012.759	1517.81
1013.052	1506.06
1013.344	1502.45
1013.637	1501.32
1013.93	1474.42
1014.222	1460.19
1014.514	1445.05
1014.807	1439.4
1015.099	1433.3
1015.391	1442.11
1015.683	1437.36
1015.976	1421.77
1016.268	1388.33
1016.56	1387.87
1016.851	1407.08
1017.143	1378.83
1017.435	1370.92
1017.727	1345.84
1018.018	1341.55
1018.31	1359.17
1018.602	1354.2
1018.893	1352.62
1019.185	1321.89
1019.476	1304.94
1019.767	1287.31
1020.058	1305.84
1020.35	1299.74
1020.641	1315.78
1020.932	1270.59
1021.223	1288.21
1021.514	1249.8
1021.804	1269.68
1022.095	1255.22
1022.386	1226.3
1022.677	1243.7
1022.967	1213.64
1023.258	1228.1
1023.548	1203.47
1023.839	1180.65
1024.129	1190.14
1024.419	1190.14
1024.709	1177.26
1025	1167.54
1025.29	1176.13
1025.58	1168.9
1025.87	1175
1026.16	1148.11
1026.449	1117.37
1026.739	1121.44
1027.029	1121.67
1027.319	1115.34
1027.608	1120.08
1027.898	1093.64
1028.187	1069.24
1028.477	1057.49
1028.766	1079.63
1029.055	1055
1029.344	1078.28
1029.634	1040.31
1029.923	1041.67
1030.212	1040.31
1030.501	1046.19
1030.79	1030.59
1031.078	1006.19
1031.367	1023.14
1031.656	1038.5
1031.945	1016.58
1032.233	992.63
1032.522	986.98
1032.81	968
1033.099	988.56
1033.387	984.49
1033.675	971.39
1033.963	980.2
1034.251	930.94
1034.54	939.98
1034.828	944.72
1035.116	941.78
1035.403	948.34
1035.691	927.77
1035.979	917.83
1036.267	940.65
1036.554	915.57
1036.842	896.59
1037.129	921.22
1037.417	897.26
1037.704	893.42
1037.992	898.62
1038.279	893.42
1038.566	856.14
1038.853	856.14
1039.14	856.14
