Data from hue_180_FLMS001491_00079.txt Node
Date: Tue Feb 07 16:47:28 GMT 2017
User: dcchb
Spectrometer: FLMS00149
Trigger mode: 0
Integration Time (sec): 2.000000E-2
Scans to average: 10
Electric dark correction enabled: true
Nonlinearity correction enabled: false
Boxcar width: 0
XAxis mode: Wavelengths
Number of Pixels in Spectrum: 2048
>>>>>Begin Spectral Data<<<<<
341.393	-5.65
341.776	-5.65
342.16	-5.65
342.543	-66.89
342.927	-65.99
343.31	-70.05
343.693	-69.15
344.077	-58.3
344.46	-66.21
344.843	-56.27
345.226	-36.38
345.61	-34.12
345.993	-14.69
346.376	3.16
346.759	-1.36
347.142	27.8
347.525	62.6
347.908	48.81
348.291	61.24
348.674	77.29
349.057	125.65
349.44	132.2
349.823	142.6
350.206	164.29
350.588	186.21
350.971	205.87
351.354	214.23
351.737	252.65
352.119	239.54
352.502	274.8
352.884	275.47
353.267	290.84
353.65	292.65
354.032	310.95
354.414	309.6
354.797	334.68
355.179	320.67
355.562	311.4
355.944	310.73
356.326	312.31
356.709	339.88
357.091	367.22
357.473	338.97
357.855	332.65
358.238	332.87
358.62	341.01
359.002	350.05
359.384	338.52
359.766	332.87
360.148	339.43
360.53	359.99
360.912	336.71
361.294	342.82
361.676	345.08
362.057	321.57
362.439	332.42
362.821	347.79
363.203	327.22
363.584	318.41
363.966	311.86
364.348	315.47
364.729	317.96
365.111	327.67
365.493	295.59
365.874	313.66
366.256	328.58
366.637	296.49
367.019	320.67
367.4	327.45
367.781	314.34
368.163	314.57
368.544	308.92
368.925	306.21
369.306	323.38
369.688	311.18
370.069	290.16
370.45	334.23
370.831	285.64
371.212	318.64
371.593	310.27
371.974	319.99
372.355	311.63
372.736	318.64
373.117	316.83
373.498	333.55
373.879	326.77
374.26	310.27
374.641	312.31
375.021	313.21
375.402	310.27
375.783	336.94
376.163	331.06
376.544	327.9
376.925	325.42
377.305	325.42
377.686	323.38
378.066	328.13
378.447	323.38
378.827	341.69
379.208	309.37
379.588	311.4
379.968	350.27
380.349	338.52
380.729	319.77
381.109	305.75
381.489	355.24
381.87	336.49
382.25	336.26
382.63	321.57
383.01	351.18
383.39	341.23
383.77	305.53
384.15	334.68
384.53	339.2
384.91	343.49
385.29	356.37
385.67	336.94
386.049	326.77
386.429	357.5
386.809	343.72
387.189	351.86
387.568	360.89
387.948	367.67
388.328	350.73
388.707	352.76
389.087	355.47
389.466	365.41
389.846	352.08
390.225	355.24
390.605	370.39
390.984	369.48
391.363	374
391.743	354.34
392.122	364.51
392.501	367.22
392.881	392.53
393.26	357.5
393.639	387.79
394.018	355.24
394.397	369.26
394.776	378.97
395.155	363.38
395.534	362.25
395.913	369.48
396.292	398.18
396.671	393.44
397.05	390.05
397.429	376.04
397.808	393.89
398.186	381.68
398.565	398.86
398.944	379.2
399.323	402.02
399.701	377.17
400.08	395.24
400.458	395.47
400.837	409.48
401.215	432.76
401.594	407.9
401.972	411.51
402.351	421.01
402.729	426.2
403.107	408.35
403.486	441.12
403.864	435.47
404.242	424.4
404.62	432.98
404.999	423.49
405.377	435.02
405.755	446.09
406.133	433.43
406.511	464.85
406.889	476.15
407.267	460.33
407.645	482.25
408.023	467.33
408.401	458.52
408.779	456.71
409.156	486.09
409.534	491.29
409.912	482.47
410.29	507.33
410.667	496.26
411.045	502.36
411.422	517.05
411.8	508.69
412.178	501.91
412.555	515.92
412.933	542.36
413.31	557.95
413.687	546.65
414.065	556.37
414.442	570.38
414.819	567.67
415.197	575.58
415.574	605.41
415.951	581
416.328	614
416.705	604.28
417.082	623.03
417.46	652.41
417.837	626.65
418.214	639.08
418.591	643.6
418.967	650.83
419.344	653.09
419.721	670.94
420.098	672.75
420.475	672.52
420.852	684.05
421.228	710.26
421.605	717.27
421.982	712.3
422.358	709.13
422.735	726.53
423.111	762.24
423.488	749.58
423.864	737.83
424.241	795.23
424.617	778.74
424.994	794.78
425.37	817.61
425.746	808.11
426.123	828.23
426.499	819.64
426.875	850.37
427.251	872.97
427.627	897.6
428.003	864.38
428.379	878.85
428.756	884.04
429.132	908.9
429.507	900.32
429.883	917.49
430.259	946.64
430.635	948.9
431.011	973.31
431.387	953.42
431.763	1010.37
432.138	979.41
432.514	1004.72
432.89	992.74
433.265	1022.35
433.641	1055.11
434.016	1049.92
434.392	1077.03
434.767	1094.89
435.143	1098.5
435.518	1160.2
435.894	1157.71
436.269	1163.36
436.644	1189.12
437.02	1168.78
437.395	1188.44
437.77	1229.12
438.145	1246.07
438.52	1244.04
438.895	1289.23
439.271	1298.72
439.646	1303.02
440.021	1340.53
440.395	1341.66
440.77	1333.52
441.145	1372.62
441.52	1402
441.895	1374.65
442.27	1400.42
442.645	1442.22
443.019	1451.26
443.394	1440.19
443.769	1458.04
444.143	1449
444.518	1497.59
444.892	1477.48
445.267	1515.67
445.641	1533.29
446.016	1537.36
446.39	1540.75
446.764	1576.46
447.139	1562.9
447.513	1593.86
447.887	1564.03
448.262	1583.46
448.636	1600.86
449.01	1630.01
449.384	1615.32
449.758	1628.21
450.132	1656
450.506	1678.37
450.88	1704.36
451.254	1698.71
451.628	1748.2
452.002	1743.68
452.376	1773.51
452.75	1775.77
453.123	1780.29
453.497	1819.84
453.871	1821.87
454.244	1880.4
454.618	1874.53
454.992	1923.79
455.365	1931.02
455.739	1967.18
456.112	1975.77
456.486	2059.38
456.859	1987.97
457.232	2041.98
457.606	2047.18
457.979	2100.06
458.352	2129.89
458.725	2116.33
459.099	2158.81
459.472	2216.21
459.845	2227.06
460.218	2234.52
460.591	2269.09
460.964	2288.75
461.337	2357
461.71	2400.61
462.083	2397.68
462.456	2414.17
462.829	2454.62
463.201	2484.68
463.574	2519.71
463.947	2553.15
464.32	2562.64
464.692	2611
465.065	2644.45
465.438	2696.65
465.81	2762.87
466.183	2733.94
466.555	2812.36
466.928	2824.33
467.3	2836.54
467.672	2900.26
468.045	2965.8
468.417	2994.5
468.789	3001.05
469.161	3039.69
469.534	3075.17
469.906	3138
470.278	3193.59
470.65	3258.45
471.022	3298.22
471.394	3370.08
471.766	3420.25
472.138	3456.18
472.51	3558.1
472.882	3594.48
473.253	3699.34
473.625	3664.31
473.997	3785.21
474.369	3806.91
474.74	3850.29
475.112	3988.6
475.484	4032.44
475.855	4080.12
476.227	4175.26
476.598	4298.87
476.97	4299.55
477.341	4400.11
477.713	4447.57
478.084	4569.37
478.455	4707.9
478.827	4731.85
479.198	4845.75
479.569	4878.29
479.94	5038.96
480.311	5075.8
480.682	5211.61
481.053	5360.54
481.424	5474.66
481.795	5500.87
482.166	5624.26
482.537	5698.83
482.908	5819.28
483.279	5896.34
483.65	6042.78
484.021	6181.31
484.391	6294.98
484.762	6336.33
485.133	6362.09
485.503	6488.64
485.874	6646.15
486.244	6774.51
486.615	6900.61
486.985	6915.07
487.356	7086.59
487.726	7128.85
488.097	7347.83
488.467	7303.76
488.837	7562.96
489.207	7633.92
489.578	7797.54
489.948	7822.62
490.318	7971.54
490.688	7998.89
491.058	8150.52
491.428	8299.89
491.798	8368.14
492.168	8521.81
492.538	8582.37
492.908	8681.58
493.278	8788.47
493.648	8803.16
494.017	8881.8
494.387	9050.84
494.757	9130.38
495.126	9188.01
495.496	9221.68
495.866	9279.76
496.235	9378.51
496.605	9540.77
496.974	9538.05
497.344	9631.84
497.713	9705.28
498.082	9772.17
498.452	9851.94
498.821	9880.64
499.19	9896.01
499.559	10064.14
499.928	10092.84
500.298	10093.97
500.667	10232.05
501.036	10204.25
501.405	10279.05
501.774	10288.32
502.143	10378.48
502.512	10470.91
502.88	10450.35
503.249	10508.88
503.618	10580.96
503.987	10548.65
504.356	10599.72
504.724	10684.46
505.093	10699.15
505.462	10762.43
505.83	10751.81
506.199	10832.26
506.567	10952.03
506.936	10902.76
507.304	11070.44
507.672	11083.78
508.041	11125.36
508.409	11119.71
508.777	11158.8
509.145	11255.52
509.514	11239.7
509.882	11285.35
510.25	11251.91
510.618	11373.94
510.986	11266.37
511.354	11430.89
511.722	11401.06
512.09	11511.79
512.458	11586.14
512.826	11605.12
513.193	11624.55
513.561	11613.25
513.929	11680.6
514.297	11727.38
514.664	11747.26
515.032	11734.83
515.4	11782.74
515.767	11758.11
516.135	11817.77
516.502	11703.65
516.869	11876.3
517.237	11863.64
517.604	11849.86
517.972	11849.18
518.339	11920.59
518.706	11938.67
519.073	11945.9
519.44	12026.8
519.808	12081.04
520.175	11967.14
520.542	12060.93
520.909	12059.57
521.276	12040.59
521.643	12160.58
522.009	12130.3
522.376	12161.26
522.743	12182.05
523.11	12275.38
523.477	12227.7
523.843	12261.82
524.21	12356.51
524.577	12456.17
524.943	12314.93
525.31	12375.04
525.676	12411.2
526.043	12390.18
526.409	12367.58
526.776	12507.92
527.142	12443.97
527.508	12447.58
527.874	12472.89
528.241	12414.14
528.607	12448.71
528.973	12495.72
529.339	12459.56
529.705	12469.95
530.071	12474.93
530.437	12532.55
530.803	12457.75
531.169	12541.14
531.535	12462.5
531.901	12513.8
532.267	12384.08
532.632	12342.05
532.998	12393.57
533.364	12416.85
533.73	12335.72
534.095	12314.93
534.461	12347.92
534.826	12272.22
535.192	12275.84
535.557	12209.85
535.923	12217.31
536.288	12254.14
536.653	12129.62
537.019	12066.35
537.384	12018.44
537.749	12069.29
538.114	11968.5
538.479	11966.92
538.845	11983.41
539.21	11842.17
539.575	11853.25
539.94	11865.45
540.305	11813.7
540.67	11721.95
541.034	11694.16
541.399	11725.12
541.764	11717.66
542.129	11642.18
542.494	11612.58
542.858	11610.32
543.223	11540.71
543.587	11530.77
543.952	11519.92
544.316	11446.48
544.681	11327.84
545.045	11356.09
545.41	11272.7
545.774	11231.12
546.138	11209.87
546.503	11198.8
546.867	11126.04
547.231	11165.58
547.595	11031.35
547.959	11040.16
548.324	11005.36
548.688	10964.46
549.052	10911.8
549.416	10893.72
549.779	10860.05
550.143	10791.58
550.507	10836.33
550.871	10766.5
551.235	10673.84
551.599	10698.02
551.962	10616.67
552.326	10611.02
552.689	10643.79
553.053	10546.84
553.417	10513.85
553.78	10600.4
554.143	10388.2
554.507	10435.66
554.87	10446.05
555.234	10400.18
555.597	10325.83
555.96	10359.05
556.323	10287.87
556.686	10272.72
557.05	10293.06
557.413	10278.6
557.776	10265.49
558.139	10245.61
558.502	10194.99
558.865	10123.58
559.228	10108.43
559.59	10237.02
559.953	10170.35
560.316	10193.18
560.679	10074.31
561.041	10155.89
561.404	10086.51
561.767	10118.6
562.129	10066.18
562.492	10152.5
562.854	10093.52
563.217	9999.51
563.579	10067.08
563.941	10084.03
564.304	10060.53
564.666	10109.79
565.028	10010.58
565.39	10139.62
565.753	10114.08
566.115	10118.6
566.477	10144.37
566.839	10145.72
567.201	10094.88
567.563	10060.3
567.925	10159.51
568.287	10082.67
568.648	10151.6
569.01	10112.73
569.372	10113.63
569.734	10107.3
570.095	10119.28
570.457	10144.37
570.819	10112.95
571.18	10131.03
571.542	10200.86
571.903	10110.47
572.265	10124.03
572.626	10119.28
572.987	10138.72
573.349	10207.64
573.71	10154.08
574.071	10079.28
574.432	10186.62
574.794	10189.56
575.155	10201.09
575.516	10074.31
575.877	10223.69
576.238	10142.56
576.599	10232.05
576.96	10154.08
577.32	10164.93
577.681	10220.3
578.042	10210.13
578.403	10099.62
578.763	10158.6
579.124	10213.97
579.485	10129.9
579.845	10217.81
580.206	10123.35
580.566	10080.86
580.927	10165.83
581.287	10165.61
581.648	10071.15
582.008	10166.29
582.368	10116.57
582.728	10083.58
583.089	10141.43
583.449	10018.04
583.809	10060.98
584.169	10078.15
584.529	10049
584.889	10135.78
585.249	10059.17
585.609	10009.23
585.969	10074.76
586.329	9984.14
586.688	10077.25
587.048	9981.88
587.408	10019.17
587.768	9943.69
588.127	9966.97
588.487	9879.74
588.846	10071.6
589.206	9966.07
589.565	9952.05
589.925	9939.17
590.284	9831.83
590.643	9929
591.003	9948.66
591.362	9915.22
591.721	9877.25
592.08	9880.87
592.44	9911.38
592.799	9883.81
593.158	9930.13
593.517	9843.36
593.876	9917.93
594.235	9845.62
594.593	9765.39
594.952	9817.82
595.311	9826.41
595.67	9806.52
596.029	9837.93
596.387	9812.85
596.746	9802.68
597.104	9726.3
597.463	9751.16
597.822	9805.39
598.18	9785.05
598.538	9696.02
598.897	9778.27
599.255	9649.24
599.613	9787.09
599.972	9793.64
600.33	9733.76
600.688	9735.11
601.046	9737.15
601.404	9775.34
601.762	9712.51
602.12	9782.34
602.478	9800.19
602.836	9752.29
603.194	9727.88
603.552	9756.13
603.91	9649.69
604.268	9743.02
604.625	9681.33
604.983	9685.62
605.341	9682.23
605.698	9757.48
606.056	9678.84
606.413	9686.07
606.771	9689.24
607.128	9736.92
607.485	9713.42
607.843	9707.77
608.2	9705.96
608.557	9719.97
608.914	9657.6
609.272	9732.63
609.629	9776.47
609.986	9746.64
610.343	9729.01
610.7	9808.1
611.057	9768.56
611.414	9735.11
611.771	9811.72
612.127	9777.14
612.484	9795.22
612.841	9830.48
613.198	9770.36
613.554	9851.72
613.911	9823.02
614.267	9839.06
614.624	9824.83
614.98	9878.84
615.337	9895.11
615.693	9885.39
616.05	9812.4
616.406	9982.79
616.762	9750.25
617.118	9914.77
617.475	9907.99
617.831	9902.56
618.187	9896.69
618.543	9875.9
618.899	9934.88
619.255	9903.24
619.611	9930.13
619.967	9923.35
620.323	10000.64
620.678	9871.15
621.034	9853.75
621.39	9846.52
621.746	9870.7
622.101	10046.29
622.457	9891.49
622.812	9928.1
623.168	9878.16
623.523	9920.64
623.879	9972.62
624.234	9901.66
624.589	9923.81
624.945	9908.21
625.3	9973.75
625.655	9843.81
626.01	9970.36
626.365	9893.98
626.72	9870.7
627.075	9816.47
627.43	9860.53
627.785	9839.52
628.14	9821.89
628.495	9835.9
628.85	9835.22
629.205	9881.32
629.559	9830.7
629.914	9848.78
630.269	9905.5
630.623	9817.59
630.978	9823.02
631.332	9806.52
631.687	9887.42
632.041	9838.84
632.396	9808.1
632.75	9735.56
633.104	9799.74
633.459	9762.91
633.813	9811.95
634.167	9776.24
634.521	9729.69
634.875	9703.47
635.229	9742.12
635.583	9655.79
635.937	9744.38
636.291	9691.27
636.645	9632.97
636.999	9546.19
637.352	9553.87
637.706	9549.58
638.06	9618.5
638.413	9565.4
638.767	9541.44
639.121	9628.22
639.474	9472.97
639.828	9497.6
640.181	9510.94
640.534	9570.37
640.888	9477.94
641.241	9489.92
641.594	9462.35
641.947	9538.28
642.301	9487.43
642.654	9493.99
643.007	9468
643.36	9448.11
643.713	9436.36
644.066	9512.74
644.419	9425.51
644.771	9387.1
645.124	9295.57
645.477	9279.08
645.83	9241.79
646.182	9221.23
646.535	9206.99
646.888	9134.45
647.24	9162.92
647.593	9139.19
647.945	9090.61
648.298	9092.42
648.65	9113.21
649.002	9051.29
649.355	9107.11
649.707	9107.78
650.059	9118.63
650.411	9324.95
650.763	9320.66
651.115	9392.75
651.467	9337.38
651.819	9310.94
652.171	9339.42
652.523	9302.81
652.875	9380.77
653.227	9262.13
653.578	9333.77
653.93	9316.59
654.282	9291.73
654.633	9316.59
654.985	9286.54
655.337	9301
655.688	9334.44
656.039	9386.87
656.391	9344.16
656.742	9238.63
657.094	9341
657.445	9377.83
657.796	9403.59
658.147	9368.34
658.498	9329.02
658.849	9322.01
659.2	9369.47
659.551	9289.47
659.902	9386.42
660.253	9331.51
660.604	9366.76
660.955	9296.48
661.306	9379.87
661.656	9356.59
662.007	9353.65
662.358	9428
662.708	9356.82
663.059	9329.7
663.409	9333.31
663.76	9450.6
664.11	9402.01
664.461	9432.97
664.811	9408.79
665.161	9412.41
665.511	9392.75
665.862	9488.34
666.212	9453.31
666.562	9438.62
666.912	9441.33
667.262	9448.11
667.612	9387.55
667.962	9405.4
668.312	9479.07
668.662	9403.59
669.011	9438.4
669.361	9425.97
669.711	9372.18
670.06	9352.75
670.41	9440.43
670.76	9359.3
671.109	9356.36
671.459	9353.65
671.808	9302.35
672.157	9413.76
672.507	9304.84
672.856	9312.3
673.205	9348.91
673.554	9293.31
673.904	9320.66
674.253	9326.99
674.602	9349.81
674.951	9137.16
675.3	9170.83
675.649	9322.47
675.998	9266.87
676.346	9260.55
676.695	9334.9
677.044	9226.65
677.393	9183.26
677.741	9258.29
678.09	9191.17
678.438	9110.49
678.787	9263.49
679.135	9254.45
679.484	9124.73
679.832	9113.43
680.181	9110.72
680.529	9174
680.877	9098.29
681.225	9055.36
681.573	9163.83
681.922	9042.7
682.27	8919.09
682.618	8994.57
682.966	8977.62
683.314	8976.26
683.661	8946.66
684.009	8873.66
684.357	8861.01
684.705	8868.92
685.053	8923.61
685.4	8844.74
685.748	8803.61
686.095	8796.15
686.443	8787.79
686.79	8806.1
687.138	8739.88
687.485	8735.14
687.832	8678.19
688.18	8698.08
688.527	8668.47
688.874	8605.2
689.221	8677.51
689.568	8600.9
689.915	8631.41
690.262	8609.72
690.609	8532.66
690.956	8467.8
691.303	8461.7
691.65	8486.1
691.997	8453.11
692.344	8371.76
692.69	8376.05
693.037	8341.93
693.383	8299.22
693.73	8314.81
694.077	8214.47
694.423	8189.84
694.769	8213.34
695.116	8149.16
695.462	8166.11
695.808	8105.78
696.155	8113.46
696.501	8031.65
696.847	8128.37
697.193	7975.61
697.539	7973.58
697.885	7909.85
698.231	7910.3
698.577	7926.12
698.923	7901.49
699.269	7830.75
699.614	7749.63
699.96	7749.85
700.306	7714.37
700.651	7727.25
700.997	7682.28
701.342	7579.69
701.688	7688.84
702.033	7563.19
702.379	7602.74
702.724	7549.41
703.069	7613.13
703.415	7482.74
703.76	7516.64
704.105	7427.38
704.45	7473.25
704.795	7373.82
705.14	7382.63
705.485	7383.99
705.83	7257.44
706.175	7345.8
706.52	7309.41
706.865	7273.03
707.209	7256.53
707.554	7241.62
707.899	7290.43
708.243	7174.73
708.588	7181.51
708.932	7091.79
709.277	7110.77
709.621	7155.74
709.966	7113.03
710.31	7072.58
710.654	6984.9
710.998	7027.84
711.342	7000.27
711.687	6953.04
712.031	6964.34
712.375	6911.91
712.719	6919.59
713.063	6852.02
713.407	6930.67
713.75	6900.84
714.094	6915.07
714.438	6872.81
714.782	6907.16
715.125	6804.34
715.469	6833.94
715.812	6775.42
716.156	6779.48
716.499	6727.73
716.843	6715.53
717.186	6748.75
717.53	6807.96
717.873	6691.12
718.216	6683.21
718.559	6687.06
718.902	6669.66
719.246	6692.93
719.589	6681.63
719.932	6673.95
720.275	6650.67
720.617	6655.42
720.96	6624.68
721.303	6661.29
721.646	6654.51
721.989	6538.13
722.331	6617.23
722.674	6597.34
723.016	6608.64
723.359	6596.66
723.701	6580.17
724.044	6568.41
724.386	6574.97
724.729	6568.87
725.071	6560.96
725.413	6520.96
725.755	6528.19
726.097	6526.16
726.439	6475.08
726.782	6484.58
727.124	6519.6
727.465	6520.73
727.807	6524.35
728.149	6530
728.491	6464.46
728.833	6500.39
729.175	6461.3
729.516	6474.63
729.858	6463.33
730.199	6467.4
730.541	6466.72
730.882	6522.99
731.224	6442.77
731.565	6462.2
731.906	6475.31
732.248	6467.63
732.589	6436.21
732.93	6458.36
733.271	6452.71
733.612	6476.67
733.953	6499.04
734.294	6466.5
734.635	6436.67
734.976	6482.54
735.317	6484.35
735.658	6466.27
735.999	6463.78
736.339	6490.68
736.68	6561.18
737.021	6508.98
737.361	6527.74
737.702	6542.43
738.042	6493.16
738.383	6529.09
738.723	6529.77
739.063	6469.89
739.404	6550.56
739.744	6564.8
740.084	6555.08
740.424	6602.09
740.764	6569.32
741.104	6588.08
741.444	6532.26
741.784	6601.63
742.124	6612.93
742.464	6579.49
742.804	6661.29
743.143	6675.76
743.483	6711.01
743.823	6705.36
744.162	6698.58
744.502	6759.6
744.841	6807.96
745.181	6824.45
745.52	6877.56
745.86	6859.93
746.199	6897.45
746.538	6977.67
746.877	7043.66
747.216	7059.93
747.556	7063.54
747.895	7128.85
748.234	7142.86
748.573	7204.78
748.911	7288.62
749.25	7336.53
749.589	7353.03
749.928	7442.29
750.267	7541.5
750.605	7592.57
750.944	7640.93
751.283	7736.97
751.621	7874.37
751.96	7886.12
752.298	7922.5
752.636	8036.62
752.975	8171.99
753.313	8221.7
753.651	8391.87
753.989	8381.93
754.327	8536.05
754.666	8584.41
755.004	8811.97
755.342	8869.15
755.679	9023.27
756.017	9104.17
756.355	9255.58
756.693	9357.72
757.031	9534.21
757.368	9588.45
757.706	9761.78
758.044	9919.74
758.381	10020.75
758.719	10198.38
759.056	10408.99
759.394	10507.07
759.731	10563.11
760.068	10751.81
760.405	10958.58
760.743	11043.78
761.08	11274.73
761.417	11467.5
761.754	11593.59
762.091	11763.76
762.428	11949.29
762.765	12027.25
763.102	12267.7
763.438	12313.12
763.775	12584.53
764.112	12717.86
764.449	12942.71
764.785	13008.25
765.122	13101.58
765.458	13173.89
765.795	13461.11
766.131	13549.47
766.467	13629.7
766.804	13814.78
767.14	13919.63
767.476	14216.35
767.812	14211.6
768.148	14384.93
768.485	14454.31
768.821	14574.08
769.157	14713.06
769.492	14871.02
769.828	14960.96
770.164	14980.62
770.5	15167.51
770.836	15281.41
771.171	15350.1
771.507	15507.39
771.842	15534.05
772.178	15631
772.513	15732.47
772.849	15809.98
773.184	15857.66
773.519	15918.68
773.855	16015.62
774.19	16043.65
774.525	16046.13
774.86	16154.6
775.195	16319.12
775.53	16307.59
775.865	16328.38
776.2	16381.49
776.535	16335.84
776.87	16569.06
777.205	16524.76
777.539	16496.29
777.874	16617.87
778.209	16556.85
778.543	16622.61
778.878	16554.14
779.212	16658.55
779.547	16662.84
779.881	16765.66
780.215	16741.48
780.55	16882.04
780.884	16761.14
781.218	16790.97
781.552	16861.7
781.886	16825.32
782.22	16698.54
782.554	16747.81
782.888	16694.48
783.222	16788.49
783.556	16760.24
783.889	16661.03
784.223	16686.34
784.557	16703.29
784.89	16800.46
785.224	16671.2
785.557	16601.6
785.891	16737.41
786.224	16569.06
786.558	16743.97
786.891	16595.72
787.224	16565.44
787.557	16629.39
787.891	16639.56
788.224	16562.28
788.557	16582.39
788.89	16612.9
789.223	16603.86
789.556	16459
789.888	16543.75
790.221	16432.34
790.554	16414.48
790.887	16371.77
791.219	16420.36
791.552	16361.15
791.884	16381.04
792.217	16292.23
792.549	16253.81
792.882	16229.63
793.214	16236.18
793.546	16205.68
793.879	16062.4
794.211	16027.83
794.543	16191.21
794.875	16001.61
795.207	16155.51
795.539	15972.46
795.871	16028.51
796.203	15920.49
796.535	15847.27
796.867	15856.76
797.198	15897.89
797.53	15842.07
797.862	15712.36
798.193	15728.17
798.525	15640.94
798.856	15715.29
799.188	15567.27
799.519	15514.39
799.85	15508.07
800.182	15487.05
800.513	15502.87
800.844	15321.86
801.175	15480.27
801.506	15444.11
801.837	15351.91
802.168	15312.82
802.499	15264.46
802.83	15210.45
803.161	15153.27
803.491	15210.45
803.822	15182.43
804.153	15087.96
804.483	14951.02
804.814	14986.95
805.145	15024.01
805.475	14981.53
805.805	14829.89
806.136	14873.06
806.466	14917.12
806.796	14853.39
807.126	14821.53
807.457	14826.5
807.787	14787.63
808.117	14712.83
808.447	14684.81
808.777	14720.52
809.107	14576.11
809.436	14632.16
809.766	14537.7
810.096	14504.93
810.426	14427.64
810.755	14448.21
811.085	14463.35
811.414	14375.44
811.744	14295.67
812.073	14295.44
812.403	14433.74
812.732	14270.59
813.061	14299.96
813.39	14124.37
813.719	14157.59
814.049	14237.82
814.378	14244.6
814.707	14108.33
815.036	14109.69
815.365	14025.17
815.693	13920.76
816.022	13988.11
816.351	13925.74
816.68	13882.35
817.008	13916.7
817.337	13761.67
817.665	13849.81
817.994	13783.59
818.322	13829.69
818.651	13756.25
818.979	13719.64
819.307	13741.33
819.636	13696.82
819.964	13628.79
820.292	13671.96
820.62	13701.56
820.948	13544.05
821.276	13709.24
821.604	13642.58
821.932	13653.88
822.259	13693.43
822.587	13611.62
822.915	13589.7
823.243	13614.56
823.57	13601
823.898	13601.45
824.225	13499.31
824.553	13581.56
824.88	13575.69
825.207	13680.32
825.535	13624.27
825.862	13689.13
826.189	13601.68
826.516	13733.65
826.843	13701.11
827.17	13704.95
827.497	13684.84
827.824	13612.98
828.151	13656.36
828.478	13674.89
828.805	13645.06
829.131	13655.23
829.458	13737.94
829.785	13590.83
830.111	13569.36
830.438	13619.75
830.764	13648.23
831.09	13704.5
831.417	13572.07
831.743	13675.57
832.069	13627.21
832.395	13621.56
832.722	13597.16
833.048	13594.67
833.374	13637.16
833.7	13544.5
834.026	13476.03
834.351	13574.11
834.677	13590.6
835.003	13669.7
835.329	13603.94
835.654	13510.15
835.98	13474.9
836.306	13401.91
836.631	13374.79
836.956	13459.53
837.282	13469.48
837.607	13406.43
837.932	13320.78
838.258	13340.21
838.583	13258.63
838.908	13278.07
839.233	13260.22
839.558	13277.62
839.883	13203.49
840.208	13132.31
840.533	13189.48
840.858	13123.95
841.182	13237.39
841.507	13146.55
841.832	13092.54
842.156	13014.12
842.481	13018.41
842.805	13007.57
843.13	13037.4
843.454	12956.04
843.778	12977.06
844.103	12871.53
844.427	12840.11
844.751	12899.1
845.075	12903.16
845.399	12785.2
845.723	12685.32
846.047	12808.48
846.371	12705.2
846.695	12661.36
847.019	12519.9
847.343	12521.7
847.666	12452.55
847.99	12360.35
848.313	12326.23
848.637	12316.96
848.96	12333.46
849.284	12237.42
849.607	12210.53
849.931	12100.47
850.254	12026.12
850.577	11986.58
850.9	11959.23
851.223	11941.38
851.546	11812.34
851.869	11779.35
852.192	11836.98
852.515	11708.84
852.838	11698.22
853.161	11620.71
853.483	11624.1
853.806	11566.25
854.129	11520.83
854.451	11496.19
854.774	11497.1
855.096	11444.67
855.419	11357.67
855.741	11320.38
856.063	11275.86
856.385	11263.66
856.708	11210.78
857.03	11218.01
857.352	11263.66
857.674	11198.12
857.996	11176.43
858.318	11120.39
858.64	11048.98
858.961	11043.78
859.283	11014.4
859.605	10923.55
859.926	10942.76
860.248	10939.6
860.57	10896.21
860.891	10887.85
861.212	10861.18
861.534	10841.75
861.855	10743.67
862.176	10752.03
862.498	10771.02
862.819	10745.93
863.14	10711.36
863.461	10739.6
863.782	10697.8
864.103	10712.94
864.424	10661.41
864.745	10590.46
865.065	10545.71
865.386	10506.84
865.707	10575.54
866.027	10539.16
866.348	10415.32
866.668	10505.26
866.989	10469.1
867.309	10331.71
867.63	10408.99
867.95	10441.08
868.27	10413.96
868.59	10424.36
868.91	10377.58
869.23	10339.84
869.55	10312.27
869.87	10330.12
870.19	10321.08
870.51	10324.47
870.83	10202.44
871.15	10223.23
871.469	10238.83
871.789	10238.15
872.109	10177.81
872.428	10205.83
872.748	10184.14
873.067	10197.47
873.386	10133.74
873.706	10087.64
874.025	10017.82
874.344	10021.88
874.663	10109.56
874.982	10050.36
875.301	10025.5
875.62	10005.61
875.939	9952.51
876.258	9951.38
876.577	9990.7
876.896	9929.68
877.214	9939.85
877.533	9882.23
877.852	9892.85
878.17	9879.74
878.489	9885.62
878.807	9809.91
879.125	9914.09
879.444	9847.42
879.762	9797.03
880.08	9808.33
880.398	9755.45
880.716	9839.52
881.034	9732.85
881.352	9735.11
881.67	9669.58
881.988	9709.58
882.306	9665.28
882.624	9603.36
882.941	9637.03
883.259	9563.59
883.577	9555
883.894	9594.1
884.212	9482.01
884.529	9465.06
884.846	9528.56
885.164	9418.96
885.481	9431.39
885.798	9454.89
886.115	9315.91
886.432	9335.57
886.75	9301.22
887.067	9382.8
887.383	9249.7
887.7	9313.65
888.017	9267.1
888.334	9267.55
888.651	9244.95
888.967	9287.67
889.284	9157.5
889.6	9143.94
889.917	9081.57
890.233	9096.26
890.55	9057.84
890.866	9086.77
891.182	9058.97
891.498	8936.26
891.815	8962.02
892.131	8962.25
892.447	8856.04
892.763	8912.76
893.079	8861.24
893.395	8915.02
893.71	8813.78
894.026	8795.7
894.342	8705.76
894.657	8674.35
894.973	8698.08
895.289	8693.78
895.604	8660.56
895.92	8578.98
896.235	8565.42
896.55	8503.96
896.865	8524.07
897.181	8461.02
897.496	8510.74
897.811	8454.69
898.126	8412.66
898.441	8320.23
898.756	8337.86
899.071	8322.49
899.386	8244.98
899.7	8250.63
900.015	8227.81
900.33	8168.6
900.644	8164.31
900.959	8230.74
901.273	8099.22
901.588	8087.7
901.902	8032.33
902.216	7983.29
902.531	7993.69
902.845	7990.52
903.159	7877.31
903.473	7923.18
903.787	7869.4
904.101	7844.77
904.415	7778.33
904.729	7734.26
905.042	7759.8
905.356	7726.12
905.67	7696.75
905.984	7644.32
906.297	7586.47
906.611	7530.2
906.924	7603.64
907.237	7528.39
907.551	7549.63
907.864	7422.4
908.177	7422.4
908.491	7412.91
908.804	7412.23
909.117	7358.22
909.43	7326.36
909.743	7314.38
910.056	7229.87
910.368	7213.82
910.681	7182.18
910.994	7182.64
911.307	7148.51
911.619	7095.86
911.932	7051.11
912.244	7049.08
912.557	7036.2
912.869	6986.71
913.181	6944.9
913.494	6969.08
913.806	6896.99
914.118	6854.28
914.43	6777.22
914.742	6836.88
915.054	6791.01
915.366	6786.94
915.678	6733.16
915.99	6667.85
916.302	6629.66
916.613	6680.28
916.925	6635.31
917.236	6579.71
917.548	6506.27
917.859	6599.37
918.171	6524.35
918.482	6471.69
918.794	6440.51
919.105	6493.84
919.416	6431.02
919.727	6371.13
920.038	6375.65
920.349	6311.92
920.66	6283
920.971	6334.52
921.282	6256.78
921.593	6280.96
921.903	6240.29
922.214	6121.19
922.525	6178.14
922.835	6132.95
923.146	6109.22
923.456	6102.89
923.767	6057.24
924.077	6070.57
924.387	6034.19
924.697	5997.36
925.008	5986.96
925.318	5975.21
925.628	5952.16
925.938	5922.33
926.248	5924.36
926.558	5833.74
926.867	5818.83
927.177	5785.38
927.487	5760.3
927.796	5730.92
928.106	5725.95
928.416	5676.01
928.725	5692.73
929.034	5675.33
929.344	5650.7
929.653	5650.7
929.962	5611.83
930.271	5544.94
930.581	5538.61
930.89	5534.54
931.199	5545.62
931.508	5486.64
931.817	5455.22
932.125	5447.31
932.434	5420.87
932.743	5382.01
933.051	5410.71
933.36	5351.27
933.669	5301.56
933.977	5285.06
934.286	5338.84
934.594	5304.04
934.902	5244.38
935.21	5195.57
935.519	5211.39
935.827	5167.32
936.135	5159.64
936.443	5122.58
936.751	5102.46
937.059	5100.88
937.367	5064.73
937.674	5038.96
937.982	5026.99
938.29	5041.22
938.597	4990.83
938.905	4934.79
939.213	4951.96
939.52	4922.81
939.827	4893.43
940.135	4880.32
940.442	4833.77
940.749	4846.43
941.056	4849.36
941.363	4766.2
941.67	4787.22
941.977	4696.83
942.284	4723.04
942.591	4758.07
942.898	4692.53
943.205	4706.54
943.511	4662.7
943.818	4607.79
944.125	4582.93
944.431	4594.46
944.738	4587.22
945.044	4575.25
945.35	4524.85
945.657	4521.91
945.963	4552.42
946.269	4480.56
946.575	4489.6
946.881	4434.46
947.187	4427
947.493	4407.12
947.799	4411.41
948.105	4341.81
948.41	4361.02
948.716	4391.52
949.022	4294.8
949.327	4330.51
949.633	4251.87
949.938	4257.29
950.244	4289.6
950.549	4237.85
950.854	4215.71
951.16	4177.07
951.465	4171.87
951.77	4137.74
952.075	4149.04
952.38	4146.11
952.685	4096.39
952.99	4033.34
953.294	4081.47
953.599	4021.14
953.904	4011.42
954.209	4011.87
954.513	3984.53
954.818	3956.73
955.122	3984.08
955.426	3930.29
955.731	3900.91
956.035	3873.12
956.339	3916.73
956.643	3889.16
956.948	3874.47
957.252	3872.44
957.556	3817.75
957.86	3831.31
958.163	3829.05
958.467	3767.81
958.771	3758.09
959.075	3739.56
959.378	3767.81
959.682	3720.13
959.985	3688.04
960.289	3671.54
960.592	3667.02
960.896	3665.89
961.199	3623.86
961.502	3622.5
961.805	3589.74
962.108	3589.06
962.411	3593.35
962.714	3546.8
963.017	3551.55
963.32	3528.95
963.623	3516.29
963.926	3557.87
964.228	3462.06
964.531	3486.24
964.833	3457.08
965.136	3457.76
965.438	3433.58
965.741	3411.89
966.043	3399.23
966.345	3361.27
966.648	3380.25
966.95	3345.9
967.252	3307.71
967.554	3318.78
967.856	3328.05
968.158	3296.41
968.46	3258.9
968.761	3241.04
969.063	3264.32
969.365	3232.01
969.666	3250.08
969.968	3203.31
970.269	3173.48
970.571	3184.1
970.872	3184.55
971.174	3162.18
971.475	3156.98
971.776	3121.05
972.077	3139.13
972.378	3080.6
972.679	3106.13
972.98	3055.74
973.281	3063.42
973.582	3035.85
973.883	3025.68
974.183	3034.95
974.484	2996.76
974.785	2981.62
975.085	3006.7
975.386	3003.54
975.686	2940.04
975.986	2987.27
976.287	2916.53
976.587	2917.89
976.887	2882.86
977.187	2900.26
977.487	2871.11
977.787	2860.94
978.087	2864.56
978.387	2819.13
978.687	2780.49
978.987	2847.83
979.286	2794.95
979.586	2802.86
979.885	2813.49
980.185	2747.27
980.484	2756.31
980.784	2738.46
981.083	2707.05
981.382	2731.91
981.682	2723.32
981.981	2715.86
982.28	2719.93
982.579	2669.76
982.878	2672.7
983.177	2668.4
983.475	2659.37
983.774	2653.94
984.073	2600.38
984.372	2614.39
984.67	2623.21
984.969	2608.29
985.267	2601.06
985.566	2578.01
985.864	2551.57
986.162	2519.48
986.461	2511.57
986.759	2532.14
987.057	2467.73
987.355	2496.66
987.653	2484.91
987.951	2451.46
988.249	2466.15
988.547	2461.63
988.844	2386.6
989.142	2425.92
989.44	2423.21
989.737	2390.9
990.035	2379.6
990.332	2379.82
990.63	2372.59
990.927	2375.3
991.224	2346.15
991.521	2358.58
991.819	2298.92
992.116	2306.38
992.413	2305.7
992.71	2261.86
993.006	2305.93
993.303	2291.47
993.6	2247.4
993.897	2235.87
994.193	2256.44
994.49	2243.1
994.787	2215.31
995.083	2195.42
995.379	2205.82
995.676	2136.44
995.972	2194.29
996.268	2168.76
996.565	2157.91
996.861	2140.96
997.157	2153.39
997.453	2156.1
997.749	2115.42
998.044	2120.17
998.34	2117.46
998.636	2086.27
998.932	2066.39
999.227	2048.31
999.523	2076.78
999.818	2062.09
1000.114	2031.59
1000.409	2030.23
1000.704	2006.05
1001	2006.05
1001.295	1960.4
1001.59	1970.57
1001.885	1982.09
1002.18	1958.59
1002.475	1955.43
1002.77	1939.38
1003.065	1939.61
1003.359	1918.14
1003.654	1891.93
1003.949	1888.31
1004.243	1888.54
1004.538	1850.12
1004.832	1862.78
1005.127	1855.54
1005.421	1834.98
1005.715	1845.83
1006.009	1833.62
1006.304	1812.16
1006.598	1797.92
1006.892	1817.81
1007.186	1783.46
1007.48	1778.71
1007.773	1748.43
1008.067	1799.05
1008.361	1746.39
1008.655	1739.62
1008.948	1729.9
1009.242	1713.18
1009.535	1721.08
1009.829	1713.18
1010.122	1712.5
1010.415	1694.64
1010.708	1683.8
1011.001	1661.65
1011.295	1631.37
1011.588	1626.17
1011.881	1616
1012.173	1632.73
1012.466	1600.64
1012.759	1615.55
1013.052	1615.32
1013.344	1596.79
1013.637	1561.31
1013.93	1535.1
1014.222	1559.96
1014.514	1587.08
1014.807	1531.03
1015.099	1524.71
1015.391	1526.74
1015.683	1519.28
1015.976	1506.4
1016.268	1493.75
1016.56	1491.71
1016.851	1460.98
1017.143	1471.6
1017.435	1446.97
1017.727	1446.74
1018.018	1437.93
1018.31	1407.42
1018.602	1395.22
1018.893	1413.97
1019.185	1413.3
1019.476	1429.34
1019.767	1359.74
1020.058	1367.65
1020.35	1376.01
1020.641	1349.34
1020.932	1359.06
1021.223	1353.64
1021.514	1343.69
1021.804	1322.68
1022.095	1317.03
1022.386	1296.01
1022.677	1280.87
1022.967	1299.85
1023.258	1288.78
1023.548	1281.77
1023.839	1289.91
1024.129	1245.84
1024.419	1280.64
1024.709	1246.75
1025	1226.18
1025.29	1209.01
1025.58	1245.16
1025.87	1226.41
1026.16	1165.17
1026.449	1204.04
1026.739	1200.42
1027.029	1183.25
1027.319	1152.51
1027.608	1159.97
1027.898	1161.33
1028.187	1169.46
1028.477	1124.94
1028.766	1173.53
1029.055	1152.29
1029.344	1148.9
1029.634	1158.39
1029.923	1103.25
1030.212	1109.58
1030.501	1120.87
1030.79	1107.99
1031.078	1091.72
1031.367	1107.99
1031.656	1068.22
1031.945	1050.14
1032.233	1040.2
1032.522	1041.78
1032.81	1020.54
1033.099	1038.84
1033.387	1036.81
1033.675	1013.76
1033.963	1018.96
1034.251	1012.18
1034.54	1000.88
1034.828	1009.92
1035.116	999.3
1035.403	959.97
1035.691	983.02
1035.979	972.86
1036.267	964.72
1036.554	940.09
1036.842	955.46
1037.129	958.39
1037.417	952.07
1037.704	932.63
1037.992	940.54
1038.279	940.09
1038.566	922.46
1038.853	922.46
1039.14	922.46
