Data from hue_10_FLMS001491_32.txt Node
Date: Mon Feb 06 15:31:48 GMT 2017
User: dcchb
Spectrometer: FLMS00149
Trigger mode: 0
Integration Time (sec): 2.000000E-2
Scans to average: 10
Electric dark correction enabled: true
Nonlinearity correction enabled: false
Boxcar width: 0
XAxis mode: Wavelengths
Number of Pixels in Spectrum: 2048
>>>>>Begin Spectral Data<<<<<
341.393	-36.44
341.776	-36.44
342.16	-36.44
342.543	-80.96
342.927	-73.27
343.31	-81.18
343.693	-68.3
344.077	-63.56
344.46	-71.47
344.843	-71.92
345.226	-38.02
345.61	-17.01
345.993	-15.88
346.376	1.07
346.759	0.4
347.142	35.65
347.525	53.05
347.908	47.85
348.291	80.39
348.674	98.02
349.057	110.9
349.44	108.87
349.823	132.37
350.206	157.23
350.588	185.25
350.971	187.74
351.354	223.89
351.737	231.12
352.119	228.64
352.502	254.63
352.884	252.82
353.267	275.19
353.65	280.39
354.032	286.72
354.414	299.14
354.797	301.18
355.179	298.01
355.562	313.16
355.944	310.44
356.326	306.38
356.709	338.01
357.091	340.05
357.473	321.07
357.855	309.99
358.238	340.73
358.62	343.66
359.002	333.95
359.384	341.4
359.766	336.43
360.148	330.56
360.53	329.65
360.912	340.73
361.294	325.81
361.676	346.6
362.057	328.07
362.439	317.22
362.821	308.18
363.203	318.13
363.584	295.08
363.966	308.64
364.348	319.71
364.729	309.31
365.111	307.73
365.493	313.38
365.874	331.91
366.256	305.92
366.637	305.25
367.019	312.25
367.4	297.79
367.781	318.81
368.163	328.52
368.544	323.32
368.925	309.09
369.306	305.25
369.688	305.7
370.069	301.18
370.45	304.12
370.831	294.63
371.212	321.29
371.593	297.79
371.974	300.05
372.355	290.56
372.736	309.77
373.117	309.77
373.498	306.38
373.879	310.9
374.26	301.4
374.641	314.06
375.021	309.54
375.402	316.55
375.783	301.4
376.163	325.81
376.544	305.92
376.925	312.03
377.305	321.97
377.686	303.44
378.066	314.96
378.447	320.61
378.827	324.23
379.208	307.05
379.588	324.68
379.968	334.85
380.349	320.39
380.729	306.83
381.109	329.65
381.489	334.62
381.87	317.22
382.25	321.52
382.63	318.81
383.01	326.71
383.39	337.56
383.77	348.18
384.15	343.44
384.53	339.82
384.91	347.73
385.29	336.88
385.67	331.46
386.049	324.23
386.429	326.04
386.809	337.56
387.189	321.74
387.568	333.27
387.948	328.97
388.328	347.73
388.707	340.05
389.087	334.62
389.466	347.28
389.846	359.48
390.225	357.9
390.605	360.16
390.984	331.69
391.363	345.7
391.743	356.32
392.122	365.58
392.501	357.9
392.881	356.54
393.26	341.63
393.639	379.37
394.018	365.36
394.397	366.94
394.776	366.04
395.155	381.63
395.534	348.18
395.913	362.87
396.292	372.82
396.671	373.94
397.05	336.21
397.429	371.23
397.808	363.78
398.186	363.78
398.565	358.58
398.944	358.58
399.323	387.5
399.701	377.79
400.08	357.67
400.458	366.94
400.837	369.2
401.215	381.18
401.594	368.3
401.972	378.92
402.351	365.36
402.729	401.74
403.107	385.7
403.486	390.44
403.864	372.14
404.242	384.11
404.62	381.63
404.999	386.37
405.377	387.28
405.755	404.68
406.133	391.12
406.511	384.57
406.889	377.33
407.267	387.96
407.645	389.76
408.023	393.38
408.401	403.1
408.779	413.72
409.156	413.94
409.534	409.42
409.912	404
410.29	430.44
410.667	415.3
411.045	426.6
411.422	405.36
411.8	429.99
412.178	428.18
412.555	415.98
412.933	438.58
413.31	404.23
413.687	434.73
414.065	441.06
414.442	458.46
414.819	441.51
415.197	442.19
415.574	430.67
415.951	433.6
416.328	459.82
416.705	453.04
417.082	458.24
417.46	465.24
417.837	470.89
418.214	462.53
418.591	472.47
418.967	469.99
419.344	477.67
419.721	486.48
420.098	495.52
420.475	497.33
420.852	486.48
421.228	491.68
421.605	466.37
421.982	483.32
422.358	491
422.735	501.17
423.111	502.53
423.488	494.17
423.864	512.25
424.241	520.38
424.617	506.14
424.994	523.55
425.37	516.31
425.746	514.28
426.123	508.63
426.499	516.77
426.875	531.91
427.251	525.58
427.627	536.2
428.003	546.82
428.379	532.58
428.756	557.89
429.132	545.47
429.507	552.02
429.883	558.8
430.259	562.19
430.635	575.97
431.011	568.06
431.387	586.37
431.763	586.59
432.138	592.7
432.514	563.77
432.89	585.46
433.265	580.27
433.641	601.06
434.016	596.09
434.392	596.99
434.767	613.26
435.143	602.41
435.518	624.33
435.894	605.13
436.269	638.12
436.644	662.75
437.02	639.93
437.395	655.75
437.77	648.06
438.145	648.06
438.52	639.93
438.895	644.45
439.271	676.31
439.646	660.04
440.021	681.73
440.395	680.83
440.77	675.18
441.145	689.42
441.52	663.65
441.895	670.43
442.27	702.98
442.645	672.92
443.019	674.73
443.394	700.04
443.769	685.35
444.143	701.85
444.518	708.63
444.892	695.07
445.267	687.38
445.641	710.89
446.016	719.25
446.39	721.28
446.764	740.26
447.139	740.26
447.513	716.08
447.887	724.22
448.262	725.57
448.636	743.88
449.01	753.6
449.384	748.4
449.758	738.46
450.132	740.04
450.506	765.12
450.88	764.9
451.254	782.97
451.628	782.07
452.002	794.72
452.376	769.19
452.75	799.92
453.123	792.92
453.497	802.63
453.871	801.28
454.244	818.23
454.618	783.2
454.992	827.49
455.365	818.68
455.739	852.58
456.112	855.74
456.486	863.88
456.859	860.71
457.232	880.82
457.606	860.26
457.979	886.7
458.352	879.92
458.725	891.67
459.099	899.58
459.472	919.69
459.845	909.52
460.218	929.18
460.591	931.22
460.964	936.19
461.337	941.39
461.71	952.69
462.083	972.57
462.456	973.48
462.829	950.43
463.201	999.69
463.574	1005.57
463.947	1004.89
464.32	1035.17
464.692	1054.38
465.065	1058.9
465.438	1076.3
465.81	1074.27
466.183	1065
466.555	1076.98
466.928	1116.98
467.3	1096.19
467.672	1100.48
468.045	1148.16
468.417	1166.69
468.789	1156.3
469.161	1154.26
469.534	1177.77
469.906	1185.22
470.278	1195.17
470.65	1213.02
471.022	1216.63
471.394	1289.4
471.766	1264.54
472.138	1317.2
472.51	1283.75
472.882	1343.64
473.253	1339.34
473.625	1353.13
473.997	1376.18
474.369	1381.38
474.74	1416.18
475.112	1411.66
475.484	1456.18
475.855	1501.37
476.227	1506.8
476.598	1549.28
476.97	1554.03
477.341	1593.35
477.713	1600.58
478.084	1591.77
478.455	1676.51
478.827	1701.14
479.198	1743.4
479.569	1756.96
479.94	1799.67
480.311	1813.46
480.682	1861.36
481.053	1891.87
481.424	1905.43
481.795	1950.85
482.166	1989.95
482.537	2001.7
482.908	2026.78
483.279	2058.87
483.65	2126.67
484.021	2122.15
484.391	2165.54
484.762	2230.39
485.133	2246.89
485.503	2305.65
485.874	2291.18
486.244	2339.09
486.615	2374.12
486.985	2422.25
487.356	2426.77
487.726	2487.11
488.097	2583.38
488.467	2557.16
488.837	2602.36
489.207	2652.98
489.578	2704.73
489.948	2746.54
490.318	2728.91
490.688	2746.54
491.058	2841.9
491.428	2887.33
491.798	2937.95
492.168	2919.64
492.538	2977.04
492.908	3032.41
493.278	3065.17
493.648	3071.5
494.017	3132.29
494.387	3160.99
494.757	3157.6
495.126	3208.45
495.496	3243.25
495.866	3286.18
496.235	3303.13
496.605	3340.65
496.974	3336.8
497.344	3380.19
497.713	3404.83
498.082	3428.1
498.452	3506.74
498.821	3498.38
499.19	3475.11
499.559	3504.71
499.928	3563.01
500.298	3572.28
500.667	3605.5
501.036	3626.06
501.405	3676.23
501.774	3650.47
502.143	3721.43
502.512	3721.88
502.88	3708.55
503.249	3738.83
503.618	3795.1
503.987	3843.23
504.356	3836
504.724	3878.03
505.093	3857.02
505.462	3851.82
505.83	3905.83
506.199	3920.74
506.567	3955.55
506.936	3921.2
507.304	4026.5
507.672	4004.58
508.041	4022.89
508.409	4085.71
508.777	4115.09
509.145	4107.18
509.514	4106.05
509.882	4178.14
510.25	4162.09
510.618	4175.2
510.986	4194.41
511.354	4207.52
511.722	4224.01
512.09	4284.12
512.458	4309.43
512.826	4324.12
513.193	4333.61
513.561	4360.96
513.929	4346.72
514.297	4356.44
514.664	4362.99
515.032	4428.3
515.4	4420.17
515.767	4468.75
516.135	4449.54
516.502	4423.33
516.869	4504.91
517.237	4547.39
517.604	4474.4
517.972	4573.61
518.339	4545.59
518.706	4519.6
519.073	4574.29
519.44	4649.54
519.808	4694.96
520.175	4671.23
520.542	4646.83
520.909	4673.49
521.276	4704.68
521.643	4773.6
522.009	4766.37
522.376	4769.76
522.743	4824.9
523.11	4833.49
523.477	4836.88
523.843	4839.59
524.21	4909.64
524.577	4941.28
524.943	4953.94
525.31	5000.72
525.676	5038.46
526.043	5070.54
526.409	5090.88
526.776	5085.91
527.142	5082.52
527.508	5179.92
527.874	5194.38
528.241	5228.96
528.607	5156.42
528.973	5264.21
529.339	5300.14
529.705	5276.41
530.071	5282.74
530.437	5330.42
530.803	5382.17
531.169	5417.88
531.535	5409.74
531.901	5424.21
532.267	5444.55
532.632	5519.35
532.998	5492.23
533.364	5487.93
533.73	5539.68
534.095	5612
534.461	5586.01
534.826	5614.71
535.192	5625.33
535.557	5673.92
535.923	5694.26
536.288	5723.18
536.653	5754.82
537.019	5751.43
537.384	5825.1
537.749	5765.44
538.114	5809.51
538.479	5865.55
538.845	5827.59
539.21	5806.34
539.575	5896.96
539.94	5909.84
540.305	5999.33
540.67	5953.01
541.034	5970.18
541.399	6068.03
541.764	6016.96
542.129	6122.72
542.494	6031.88
542.858	6105.55
543.223	6146.9
543.587	6227.35
543.952	6231.64
544.316	6220.12
544.681	6225.77
545.045	6272.09
545.41	6312.77
545.774	6328.59
546.138	6339.44
546.503	6388.7
546.867	6396.39
547.231	6488.36
547.595	6455.14
547.959	6441.36
548.324	6482.94
548.688	6493.33
549.052	6558.19
549.416	6508.7
549.779	6501.69
550.143	6530.62
550.507	6569.71
550.871	6639.32
551.235	6635.93
551.599	6697.85
551.962	6712.99
552.326	6681.8
552.689	6774.23
553.053	6733.1
553.417	6790.27
553.78	6869.59
554.143	6756.83
554.507	6827.33
554.87	6868.92
555.234	6973.55
555.597	6881.57
555.96	6920.67
556.323	6972.87
556.686	6908.46
557.05	7007.89
557.413	7042.92
557.776	7052.19
558.139	7031.17
558.502	7068.68
558.865	7100.55
559.228	7150.94
559.59	7166.53
559.953	7176.7
560.316	7301.67
560.679	7205.18
561.041	7284.95
561.404	7292.86
561.767	7330.37
562.129	7338.73
562.492	7434.32
562.854	7423.25
563.217	7403.82
563.579	7405.4
563.941	7484.27
564.304	7490.14
564.666	7577.82
565.028	7600.65
565.39	7621.44
565.753	7587.99
566.115	7582.34
566.477	7699.18
566.839	7690.59
567.201	7761.55
567.563	7748.67
567.925	7770.81
568.287	7817.82
568.648	7829.12
569.01	7820.08
569.372	7893.3
569.734	7896.69
570.095	7984.82
570.457	7998.38
570.819	7972.39
571.18	8086.96
571.542	8096.91
571.903	8066.17
572.265	8180.07
572.626	8233.17
572.987	8272.04
573.349	8305.49
573.71	8369.21
574.071	8397.69
574.432	8460.29
574.794	8566.95
575.155	8530.57
575.516	8588.87
575.877	8702.31
576.238	8673.39
576.599	8795.19
576.96	8841.29
577.32	8856.66
577.681	8956.32
578.042	8993.83
578.403	9087.84
578.763	9099.59
579.124	9248.06
579.485	9319.02
579.845	9499.13
580.206	9512.91
580.566	9624.32
580.927	9645.57
581.287	9775.73
581.648	9922.39
582.008	10064.31
582.368	10220.01
582.728	10308.15
583.089	10363.51
583.449	10533.23
583.809	10672.43
584.169	10870.62
584.529	10996.49
584.889	11242.36
585.249	11383.82
585.609	11453.88
585.969	11631.5
586.329	11909.91
586.688	12006.41
587.048	12252.5
587.408	12392.16
587.768	12629.67
588.127	12848.87
588.487	12924.12
588.846	13277.33
589.206	13464.22
589.565	13693.37
589.925	14047.71
590.284	14248.61
590.643	14436.85
591.003	14673.46
591.362	14987.12
591.721	15206.78
592.08	15432.31
592.44	15748.68
592.799	16007.66
593.158	16232.51
593.517	16524.25
593.876	16859.16
594.235	17114.52
594.593	17338.47
594.952	17643.77
595.311	17770.32
595.67	18113.37
596.029	18516.29
596.387	18795.83
596.746	19195.82
597.104	19322.15
597.463	19545.64
597.822	20044.84
598.18	20105.86
598.538	20410.25
598.897	20865.61
599.255	20932.73
599.613	21503.33
599.972	21635.08
600.33	21900.84
600.688	22228.96
601.046	22608.84
601.404	22872.56
601.762	22971.99
602.12	23443.62
602.478	23699.89
602.836	24044.96
603.194	24127.67
603.552	24518.39
603.91	24740.76
604.268	24895.56
604.625	25236.79
604.983	25449.67
605.341	25729.89
605.698	26122.42
606.056	26244.68
606.413	26481.51
606.771	26844.89
607.128	26960.82
607.485	27128.95
607.843	27414.59
608.2	27795.82
608.557	28057.28
608.914	28156.27
609.272	28498.18
609.629	28772.07
609.986	28985.4
610.343	29021.33
610.7	29472.16
611.057	29690.24
611.414	29717.13
611.771	29912.15
612.127	30177.68
612.484	30444.57
612.841	30688.63
613.198	30800.94
613.554	30962.52
613.911	31371.32
614.267	31419.23
614.624	31611.99
614.98	31692.9
615.337	31975.37
615.693	32066.22
616.05	32153.9
616.406	32565.87
616.762	32569.03
617.118	32719.54
617.475	32838.18
617.831	33145.06
618.187	33218.73
618.543	33265.96
618.899	33656.69
619.255	33767.42
619.611	33674.31
619.967	34025.04
620.323	34203.56
620.678	34045.15
621.034	34154.07
621.39	34352.49
621.746	34365.37
622.101	34787.28
622.457	34684.68
622.812	34893.72
623.168	35086.25
623.523	35009.19
623.879	35297.55
624.234	35018.91
624.589	35194.27
624.945	35476.75
625.3	35631.77
625.655	35521.04
626.01	35695.5
626.365	35747.48
626.72	35696.63
627.075	35817.76
627.43	35770.08
627.785	35801.49
628.14	36065.89
628.495	36119.45
628.85	36257.3
629.205	36067.02
629.559	36387.91
629.914	36341.59
630.269	36325.32
630.623	36352.43
630.978	36142.95
631.332	36448.7
631.687	36575.48
632.041	36368.25
632.396	36609.38
632.75	36422.26
633.104	36453.22
633.459	36491.19
633.813	36526.89
634.167	36455.03
634.521	36578.19
634.875	36593.56
635.229	36443.73
635.583	36430.17
635.937	36599.66
636.291	36541.81
636.645	36514.92
636.999	36442.15
637.352	36553.56
637.706	36528.47
638.06	36741.35
638.413	36561.47
638.767	36496.39
639.121	36571.64
639.474	36492.32
639.828	36449.83
640.181	36578.64
640.534	36591.07
640.888	36489.83
641.241	36340.46
641.594	36420.91
641.947	36675.59
642.301	36572.32
642.654	36478.31
643.007	36470.4
643.36	36509.94
643.713	36339.55
644.066	36460.45
644.419	36174.13
644.771	36176.39
645.124	35858.89
645.477	35776.63
645.83	35569.63
646.182	35481.72
646.535	35429.07
646.888	35462.74
647.24	35309.3
647.593	35393.82
647.945	35455.06
648.298	35225.91
648.65	35168.06
649.002	35068.4
649.355	35301.39
649.707	35186.81
650.059	35297.55
650.411	35773.47
650.763	35817.31
651.115	36306.79
651.467	36064.53
651.819	36116.51
652.171	35923.07
652.523	35908.6
652.875	36027.47
653.227	35759.23
653.578	36120.35
653.93	35983.86
654.282	35863.86
654.633	35775.5
654.985	35888.94
655.337	35910.86
655.688	35810.98
656.039	35940.47
656.391	35643.53
656.742	35675.62
657.094	35776.63
657.445	35972.56
657.796	35846.68
658.147	35785.9
658.498	35647.37
658.849	35750.42
659.2	35819.11
659.551	35740.92
659.902	35752.22
660.253	35726.46
660.604	35849.85
660.955	35586.58
661.306	35808.95
661.656	35665.67
662.007	35669.29
662.358	35670.87
662.708	35712
663.059	35670.42
663.409	35526.47
663.76	35693.47
664.11	35666.12
664.461	35629.06
664.811	35678.78
665.161	35640.14
665.511	35559.01
665.862	35606.92
666.212	35564.43
666.562	35673.13
666.912	35600.59
667.262	35639.23
667.612	35584.54
667.962	35584.54
668.312	35566.01
668.662	35676.97
669.011	35544.09
669.361	35614.6
669.711	35492.34
670.06	35472.23
670.41	35408.5
670.76	35387.71
671.109	35399.01
671.459	35545.22
671.808	35354.72
672.157	35446.24
672.507	35304.1
672.856	35285.12
673.205	35378.9
673.554	35427.26
673.904	35346.58
674.253	35485.34
674.602	35306.13
674.951	34887.84
675.3	34695.98
675.649	35225.46
675.998	35159.7
676.346	35226.81
676.695	35208.74
677.044	35006.25
677.393	35044.67
677.741	35171
678.09	35137.55
678.438	34910.89
678.787	35060.72
679.135	35049.64
679.484	34832.02
679.832	35059.13
680.181	34834.51
680.529	34866.82
680.877	34754.74
681.225	34752.7
681.573	34849.2
681.922	34812.36
682.27	34515.65
682.618	34546.83
682.966	34450.79
683.314	34501.41
683.661	34641.97
684.009	34271.36
684.357	34283.34
684.705	34264.13
685.053	34316.33
685.4	34086.96
685.748	34193.62
686.095	33979.62
686.443	33946.17
686.79	33884.48
687.138	33996.11
687.485	33844.7
687.832	33745.95
688.18	33843.12
688.527	33606.52
688.874	33590.47
689.221	33609.46
689.568	33565.39
689.915	33536.01
690.262	33296.24
690.609	33231.16
690.956	33205.62
691.303	33100.32
691.65	32988.91
691.997	33126.53
692.344	32937.83
692.69	32877.05
693.037	32850.38
693.383	32525.19
693.73	32820.78
694.077	32375.82
694.423	32568.13
694.769	32340.11
695.116	32265.54
695.462	32241.58
695.808	32094.69
696.155	32287
696.501	31872.1
696.847	31997.75
697.193	31703.52
697.539	31834.36
697.885	31578.77
698.231	31465.56
698.577	31607.7
698.923	31465.56
699.269	31372.23
699.614	31225.34
699.96	31032.12
700.306	31189.41
700.651	31167.03
700.997	31031.9
701.342	30894.27
701.688	30669.42
702.033	30864.67
702.379	30647.5
702.724	30574.96
703.069	30757.33
703.415	30425.81
703.76	30423.32
704.105	30386.72
704.45	30404.79
704.795	30139.26
705.14	30036.44
705.485	30110.79
705.83	29828.99
706.175	29925.26
706.52	29778.37
706.865	29698.37
707.209	29620.41
707.554	29580.63
707.899	29603.46
708.243	29530.92
708.588	29416.8
708.932	29182
709.277	29218.16
709.621	29346.52
709.966	29114.21
710.31	29185.16
710.654	28856.81
710.998	28881.67
711.342	28849.13
711.687	28845.29
712.031	28605.07
712.375	28677.83
712.719	28727.32
713.063	28585.63
713.407	28662.47
713.75	28423.15
714.094	28460.89
714.438	28424.96
714.782	28403.94
715.125	28332.53
715.469	28211.18
715.812	28097.28
716.156	27942.49
716.499	28165.76
716.843	28122.59
717.186	27864.75
717.53	28010.51
717.873	27958.08
718.216	27839.44
718.559	27741.81
718.902	27582.27
719.246	27610.29
719.589	27603.74
719.932	27496.62
720.275	27454.59
720.617	27436.51
720.96	27457.3
721.303	27279.23
721.646	27517.86
721.989	27233.8
722.331	27270.86
722.674	27206.91
723.016	27145.9
723.359	27142.96
723.701	27060.47
724.044	26957.2
724.386	26755.4
724.729	27000.36
725.071	26922.85
725.413	26874.72
725.755	26857.09
726.097	26787.26
726.439	26669.75
726.782	26670.43
727.124	26645.8
727.465	26519.7
727.807	26626.36
728.149	26376.2
728.491	26435.86
728.833	26396.54
729.175	26434.5
729.516	26318.12
729.858	26258.91
730.199	26262.76
730.541	26275.64
730.882	26112.7
731.224	26265.92
731.565	26027.51
731.906	25961.07
732.248	26118.13
732.589	25907.96
732.93	25857.34
733.271	25824.35
733.612	25922.88
733.953	25908.64
734.294	25671.13
734.635	25750.68
734.976	25811.24
735.317	25712.04
735.658	25586.84
735.999	25604.92
736.339	25617.12
736.68	25660.29
737.021	25544.81
737.361	25371.71
737.702	25625.94
738.042	25470.01
738.383	25383
738.723	25482.66
739.063	25358.82
739.404	25329.67
739.744	25275.21
740.084	25185.95
740.424	25236.57
740.764	25062.79
741.104	25240.86
741.444	25108.21
741.784	25002.68
742.124	24991.83
742.464	25004.26
742.804	24937.82
743.143	24967.2
743.483	24884.94
743.823	24718.84
744.162	24837.03
744.502	24738.28
744.841	24688.11
745.181	24803.36
745.52	24771.5
745.86	24742.34
746.199	24690.82
746.538	24552.97
746.877	24682.68
747.216	24646.98
747.556	24539.64
747.895	24560.2
748.234	24370.83
748.573	24353.88
748.911	24238.85
749.25	24449.02
749.589	24274.11
749.928	24260.55
750.267	24293.77
750.605	24141.46
750.944	24104.17
751.283	24055.13
751.621	24092.42
751.96	23958.41
752.298	24085.64
752.636	24037.05
752.975	23880.67
753.313	23884.06
753.651	23904.4
753.989	23774.46
754.327	23714.57
754.666	23689.26
755.004	23733.33
755.342	23636.84
755.679	23641.81
756.017	23399.55
756.355	23546.89
756.693	23474.58
757.031	23501.47
757.368	23333.12
757.706	23322.04
758.044	23274.13
758.381	23268.48
758.719	23089.51
759.056	23115.95
759.394	23153.01
759.731	22940.58
760.068	22943.3
760.405	22835.05
760.743	22766.8
761.08	22793.69
761.417	22837.31
761.754	22612.68
762.091	22535.4
762.428	22453.14
762.765	22363.2
763.102	22542.63
763.438	22245.46
763.775	22214.05
764.112	22192.35
764.449	22225.57
764.785	22084.79
765.122	21963.43
765.458	21932.02
765.795	21936.99
766.131	21912.36
766.467	21748.98
766.804	21726.15
767.14	21523.22
767.476	21626.95
767.812	21468.08
768.148	21597.79
768.485	21390.12
768.821	21297.46
769.157	21180.86
769.492	21139.95
769.828	21147.41
770.164	20950.81
770.5	20959.39
770.836	20885.95
771.171	20759.62
771.507	20702.68
771.842	20602.34
772.178	20635.79
772.513	20554.66
772.849	20464.72
773.184	20369.13
773.519	20298.17
773.855	20291.84
774.19	20169.58
774.525	20130.94
774.86	20144.95
775.195	20081.22
775.53	19979.53
775.865	19907.67
776.2	19663.83
776.535	19671.06
776.87	19659.31
777.205	19497.28
777.539	19526.21
777.874	19406.21
778.209	19278.31
778.543	19289.83
778.878	19226.56
779.212	19125.99
779.547	19103.62
779.881	19026.11
780.215	18961.03
780.55	19012.78
780.884	18803.74
781.218	18793.8
781.552	18775.27
781.886	18655.72
782.22	18541.38
782.554	18571.88
782.888	18322.17
783.222	18286.02
783.556	18175.96
783.889	18177.32
784.223	18062.07
784.557	18029.53
784.89	18027.27
785.224	17914.05
785.557	17860.94
785.891	17829.98
786.224	17808.06
786.558	17678.12
786.891	17527.17
787.224	17498.01
787.557	17476.09
787.891	17496.88
788.224	17384.8
788.557	17397.9
788.89	17206.04
789.223	17269.32
789.556	17213.28
789.888	17051.7
790.221	17063.45
790.554	16881.76
790.887	16918.82
791.219	16823.23
791.552	16867.97
791.884	16812.61
792.217	16652.16
792.549	16654.19
792.882	16498.04
793.214	16449
793.546	16442.68
793.879	16281.78
794.211	16376.46
794.543	16345.28
794.875	16184.83
795.207	16292.4
795.539	16133.53
795.871	16149.58
796.203	15978.05
796.535	15916.59
796.867	15863.26
797.198	15871.39
797.53	15818.96
797.862	15696.03
798.193	15715.69
798.525	15678.85
798.856	15634.11
799.188	15539.87
799.519	15523.38
799.85	15451.74
800.182	15331.97
800.513	15414.45
800.844	15220.79
801.175	15216.94
801.506	15271.18
801.837	15171.75
802.168	15167.23
802.499	15085.65
802.83	15055.14
803.161	15004.75
803.491	14909.16
803.822	14945.99
804.153	14822.38
804.483	14818.99
804.814	14690.18
805.145	14643.63
805.475	14603.63
805.805	14581.26
806.136	14634.59
806.466	14611.99
806.796	14579.9
807.126	14449.51
807.457	14384.65
807.787	14415.38
808.117	14346.23
808.447	14341.94
808.777	14339
809.107	14237.99
809.436	14213.81
809.766	14135.39
810.096	14108.5
810.426	14025.56
810.755	14047.26
811.085	14090.65
811.414	14064.43
811.744	13963.19
812.073	13833.7
812.403	13887.26
812.732	13790.54
813.061	13787.15
813.39	13703.09
813.719	13658.12
814.049	13835.06
814.378	13712.8
814.707	13615.4
815.036	13533.15
815.365	13599.36
815.693	13470.55
816.022	13394.85
816.351	13386.03
816.68	13304.68
817.008	13346.71
817.337	13221.97
817.665	13205.25
817.994	13257
818.322	13153.27
818.651	13196.43
818.979	13023.78
819.307	13174.06
819.636	13074.85
819.964	13027.85
820.292	13089.32
820.62	12999.6
820.948	13002.99
821.276	13011.58
821.604	12989.66
821.932	13011.8
822.259	12984.46
822.587	12975.42
822.915	12886.16
823.243	13063.1
823.57	12986.72
823.898	12951.92
824.225	12928.19
824.553	12961.86
824.88	12913.95
825.207	12943.56
825.535	12841.19
825.862	12869.44
826.189	12876.89
826.516	12913.5
826.843	12892.71
827.17	12914.41
827.497	12957.57
827.824	12981.07
828.151	12996.21
828.478	12925.71
828.805	13004.35
829.131	12929.1
829.458	12881.86
829.785	12788.08
830.111	12884.58
830.438	12965.48
830.764	12853.84
831.09	12855.42
831.417	12799.38
831.743	12831.24
832.069	12810.45
832.395	12717.35
832.722	12853.39
833.048	12770.46
833.374	12842.77
833.7	12730
834.026	12749.21
834.351	12739.04
834.677	12726.61
835.003	12779.49
835.329	12828.08
835.654	12668.31
835.98	12659.72
836.306	12605.94
836.631	12553.29
836.956	12637.13
837.282	12679.61
837.607	12578.6
837.932	12533.63
838.258	12553.06
838.583	12487.07
838.908	12513.06
839.233	12470.8
839.558	12458.6
839.883	12429.45
840.208	12282.33
840.533	12331.14
840.858	12441.65
841.182	12362.1
841.507	12294.99
841.832	12337.47
842.156	12169.12
842.481	12254.54
842.805	12136.12
843.13	12151.49
843.454	12194.2
843.778	12031.94
844.103	12103.13
844.427	12023.58
844.751	12052.96
845.075	12024.03
845.399	11920.53
845.723	11913.08
846.047	11888.67
846.371	11798.05
846.695	11823.36
847.019	11662.46
847.343	11615.01
847.666	11646.19
847.99	11583.82
848.313	11607.1
848.637	11516.93
848.96	11443.03
849.284	11384.5
849.607	11402.36
849.931	11346.76
850.254	11297.27
850.577	11233.77
850.9	11159.65
851.223	11155.81
851.546	11027.22
851.869	11045.75
852.192	11003.04
852.515	11069.03
852.838	10897.96
853.161	10928.7
853.483	10895.48
853.806	10827
854.129	10785.87
854.451	10735.03
854.774	10652.32
855.096	10668.59
855.419	10653.9
855.741	10623.84
856.063	10543.17
856.385	10520.12
856.708	10496.62
857.03	10450.29
857.352	10487.35
857.674	10381.59
857.996	10475.15
858.318	10323.29
858.64	10324.19
858.961	10274.93
859.283	10273.12
859.605	10205.1
859.926	10220.24
860.248	10227.25
860.57	10163.29
860.891	10208.49
861.212	10113.12
861.534	10078.77
861.855	10048.72
862.176	10121.03
862.498	10060.02
862.819	10130.75
863.14	9923.07
863.461	9981.6
863.782	9911.32
864.103	9952
864.424	9830.87
864.745	9897.31
865.065	9887.59
865.386	9868.16
865.707	9853.24
866.027	9859.57
866.348	9811.66
866.668	9749.07
866.989	9751.1
867.309	9699.8
867.63	9727.82
867.95	9714.04
868.27	9712.46
868.59	9730.76
868.91	9674.04
869.23	9623.87
869.55	9599.01
869.87	9552.46
870.19	9595.62
870.51	9603.08
870.83	9556.98
871.15	9505.23
871.469	9492.8
871.789	9534.61
872.109	9559.24
872.428	9439.47
872.748	9438.57
873.067	9489.86
873.386	9463.2
873.706	9418.68
874.025	9415.29
874.344	9400.15
874.663	9365.57
874.982	9305.46
875.301	9347.04
875.62	9312.47
875.939	9284.45
876.258	9299.59
876.577	9263.2
876.896	9258.46
877.214	9203.09
877.533	9248.51
877.852	9250.77
878.17	9217.33
878.489	9225.01
878.807	9190.44
879.125	9127.16
879.444	9110.21
879.762	9185.46
880.08	9108.63
880.398	9063.43
880.716	9069.08
881.034	9013.94
881.352	9086.94
881.67	9047.62
881.988	8996.32
882.306	9007.84
882.624	8945.02
882.941	8914.29
883.259	8926.71
883.577	8882.42
883.894	8874.96
884.212	8794.97
884.529	8840.16
884.846	8793.38
885.164	8818.92
885.481	8768.07
885.798	8779.6
886.115	8714.06
886.432	8709.77
886.75	8684.46
887.067	8645.59
887.383	8651.24
887.7	8653.05
888.017	8644.91
888.334	8581.86
888.651	8538.7
888.967	8533.5
889.284	8455.77
889.6	8505.03
889.917	8395.88
890.233	8399.5
890.55	8395.43
890.866	8354.53
891.182	8341.19
891.498	8380.51
891.815	8273.4
892.131	8255.55
892.447	8253.06
892.763	8272.04
893.079	8208.99
893.395	8205.83
893.71	8152.72
894.026	8240.4
894.342	8137.81
894.657	8075.89
894.973	8127.87
895.289	8018.04
895.604	8049
895.92	7981.88
896.235	7973.07
896.55	7902.33
896.865	7922.67
897.181	7937.14
897.496	7879.28
897.811	7814.65
898.126	7805.39
898.441	7776.46
898.756	7785.73
899.071	7756.35
899.386	7679.29
899.7	7650.82
900.015	7632.74
900.33	7649.23
900.644	7583.02
900.959	7584.15
901.273	7552.51
901.588	7544.6
901.902	7512.51
902.216	7446.53
902.531	7407.43
902.845	7444.27
903.159	7390.71
903.473	7340.99
903.787	7359.75
904.101	7261.9
904.415	7263.93
904.729	7329.02
905.042	7227.1
905.356	7213.99
905.67	7236.36
905.984	7126.76
906.297	7075.46
906.611	7129.02
906.924	7064.39
907.237	7117.27
907.551	6962.47
907.864	7004.28
908.177	6938.52
908.491	6914.11
908.804	6888.58
909.117	6908.01
909.43	6876.37
909.743	6763.16
910.056	6779.65
910.368	6780.78
910.681	6737.85
910.994	6774.91
911.307	6686.1
911.619	6655.59
911.932	6635.7
912.244	6627.34
912.557	6602.26
912.869	6565.19
913.181	6536.95
913.494	6508.02
913.806	6478.42
914.118	6430.73
914.43	6412.2
914.742	6373.56
915.054	6316.39
915.366	6293.56
915.678	6312.55
915.99	6241.36
916.302	6333.11
916.613	6248.59
916.925	6154.81
917.236	6186.67
917.548	6154.36
917.859	6137.86
918.171	6105.32
918.482	6069.39
918.794	6049.95
919.105	6031.42
919.416	6021.93
919.727	6014.7
920.038	5972.67
920.349	5910.07
920.66	5910.3
920.971	5912.1
921.282	5849.28
921.593	5828.94
921.903	5809.06
922.214	5804.31
922.525	5817.64
922.835	5734.03
923.146	5705.33
923.456	5692.22
923.767	5720.25
924.077	5641.83
924.387	5605.45
924.697	5585.56
925.008	5600.7
925.318	5571.77
925.628	5578.33
925.938	5500.59
926.248	5464.21
926.558	5442.06
926.867	5434.83
927.177	5472.57
927.487	5446.13
927.796	5372.01
928.106	5343.31
928.416	5320.93
928.725	5338.11
929.034	5281.39
929.344	5279.35
929.653	5236.42
929.962	5227.83
930.271	5176.98
930.581	5146.7
930.89	5148.51
931.199	5109.87
931.508	5139.7
931.817	5107.61
932.125	5067.15
932.434	5078.68
932.743	5028.74
933.051	5005.01
933.36	4957.78
933.669	4937.44
933.977	4921.17
934.286	4905.58
934.594	4892.02
934.902	4876.2
935.21	4882.98
935.519	4845.92
935.827	4809.31
936.135	4814.73
936.443	4724.34
936.751	4734.51
937.059	4738.12
937.367	4692.02
937.674	4709.2
937.982	4680.72
938.29	4664.91
938.597	4663.55
938.905	4598.47
939.213	4586.04
939.52	4553.27
939.827	4601.18
940.135	4546.94
940.442	4527.73
940.749	4457.45
941.056	4518.02
941.363	4417.68
941.67	4454.29
941.977	4417
942.284	4360.05
942.591	4432.37
942.898	4355.54
943.205	4364.12
943.511	4295.2
943.818	4322.32
944.125	4286.16
944.431	4262.43
944.738	4247.06
945.044	4220.85
945.35	4228.98
945.657	4189.66
945.963	4177.23
946.269	4224.47
946.575	4167.97
946.881	4095.43
947.187	4128.87
947.493	4083.45
947.799	4077.58
948.105	4076.45
948.41	4001.19
948.716	4052.04
949.022	3969.33
949.327	3998.71
949.633	3917.58
949.938	4009.33
950.244	3978.82
950.549	3858.15
950.854	3898.37
951.16	3900.18
951.465	3887.07
951.77	3843.68
952.075	3856.57
952.38	3813.18
952.685	3842.78
952.99	3786.06
953.294	3778.38
953.599	3771.6
953.904	3723.91
954.209	3703.8
954.513	3723.01
954.818	3677.59
955.122	3700.64
955.426	3654.76
955.731	3640.98
956.035	3620.41
956.339	3604.14
956.643	3609.11
956.948	3574.09
957.252	3584.26
957.556	3592.84
957.86	3580.87
958.163	3532.96
958.467	3525.27
958.771	3490.7
959.075	3475.33
959.378	3460.19
959.682	3451.15
959.985	3414.54
960.289	3413.41
960.592	3378.16
960.896	3376.13
961.199	3399.4
961.502	3360.08
961.805	3346.75
962.108	3320.99
962.411	3308.33
962.714	3315.34
963.017	3280.31
963.32	3278.73
963.623	3247.54
963.926	3253.19
964.228	3247.32
964.531	3195.79
964.833	3188.79
965.136	3153.98
965.438	3161.67
965.741	3120.09
966.043	3166.41
966.345	3106.08
966.648	3094.78
966.95	3131.39
967.252	3084.38
967.554	3087.77
967.856	3067.43
968.158	3033.54
968.46	3045.74
968.761	3028.34
969.063	3000.77
969.365	3012.97
969.666	2996.93
969.968	3003.03
970.269	2951.73
970.571	2933.2
970.872	2922.58
971.174	2913.09
971.475	2889.59
971.776	2891.84
972.077	2886.42
972.378	2902.47
972.679	2855.24
972.98	2872.18
973.281	2829.25
973.582	2882.35
973.883	2819.76
974.183	2805.52
974.484	2819.98
974.785	2781.57
975.085	2778.63
975.386	2754
975.686	2738.63
975.986	2747.22
976.287	2688.01
976.587	2678.74
976.887	2676.71
977.187	2683.26
977.487	2692.75
977.787	2648.69
978.087	2650.04
978.387	2627.67
978.687	2627.22
978.987	2643.72
979.286	2610.04
979.586	2561.46
979.885	2579.76
980.185	2545.41
980.484	2517.39
980.784	2547
981.083	2548.58
981.382	2559.2
981.682	2494.57
981.981	2472.19
982.28	2484.85
982.579	2434.46
982.878	2444.62
983.177	2492.76
983.475	2461.8
983.774	2428.58
984.073	2416.15
984.372	2417.96
984.67	2406.43
984.969	2413.89
985.267	2413.67
985.566	2393.55
985.864	2371.41
986.162	2355.36
986.461	2365.31
986.759	2317.17
987.057	2358.07
987.355	2300.22
987.653	2285.99
987.951	2305.19
988.249	2327.11
988.547	2272.43
988.844	2235.14
989.142	2258.87
989.44	2237.62
989.737	2257.74
990.035	2207.12
990.332	2230.17
990.63	2209.38
990.927	2189.26
991.224	2177.51
991.521	2196.04
991.819	2148.36
992.116	2141.13
992.413	2143.16
992.71	2126.44
993.006	2130.28
993.303	2099.78
993.6	2102.04
993.897	2088.48
994.193	2114.69
994.49	2090.28
994.787	2060.68
995.083	2063.17
995.379	2064.52
995.676	2052.32
995.972	2053.67
996.268	2003.96
996.565	1977.52
996.861	1976.61
997.157	1991.3
997.453	2003.73
997.749	1956.73
998.044	1945.88
998.34	1968.48
998.636	1947.69
998.932	1927.58
999.227	1931.87
999.523	1900.46
999.818	1876.05
1000.114	1886.9
1000.409	1897.97
1000.704	1881.48
1001	1871.98
1001.295	1863.62
1001.59	1835.83
1001.885	1834.47
1002.18	1836.96
1002.475	1812.33
1002.77	1786.56
1003.065	1781.37
1003.359	1771.87
1003.654	1758.09
1003.949	1779.78
1004.243	1729.62
1004.538	1743.85
1004.832	1744.08
1005.127	1745.89
1005.421	1723.97
1005.715	1711.08
1006.009	1718.54
1006.304	1700.24
1006.598	1683.29
1006.892	1662.95
1007.186	1660.92
1007.48	1679.45
1007.773	1645.55
1008.067	1640.58
1008.361	1623.86
1008.655	1600.35
1008.948	1635.15
1009.242	1601.26
1009.535	1581.82
1009.829	1580.24
1010.122	1564.65
1010.415	1559
1010.708	1553.12
1011.001	1549.06
1011.295	1549.73
1011.588	1516.74
1011.881	1498.21
1012.173	1509.51
1012.466	1523.29
1012.759	1507.93
1013.052	1509.73
1013.344	1473.35
1013.637	1472
1013.93	1480.36
1014.222	1455.05
1014.514	1452.56
1014.807	1431.77
1015.099	1422.28
1015.391	1420.47
1015.683	1417.31
1015.976	1421.38
1016.268	1399.91
1016.56	1382.96
1016.851	1402.17
1017.143	1369.4
1017.435	1358.33
1017.727	1356.52
1018.018	1369.17
1018.31	1336.63
1018.602	1343.64
1018.893	1329.85
1019.185	1312.68
1019.476	1312.23
1019.767	1274.26
1020.058	1291.89
1020.35	1302.51
1020.641	1293.24
1020.932	1250.08
1021.223	1278.78
1021.514	1267.93
1021.804	1236.97
1022.095	1255.05
1022.386	1200.36
1022.677	1213.7
1022.967	1203.53
1023.258	1187.03
1023.548	1206.92
1023.839	1215.96
1024.129	1187.71
1024.419	1175.73
1024.709	1143.87
1025	1153.13
1025.29	1172.34
1025.58	1143.42
1025.87	1158.56
1026.16	1142.51
1026.449	1142.06
1026.739	1127.37
1027.029	1107.26
1027.319	1099.8
1027.608	1106.13
1027.898	1066.58
1028.187	1085.11
1028.477	1104.77
1028.766	1065
1029.055	1060.93
1029.344	1084.66
1029.634	1072.68
1029.923	1035.85
1030.212	1055.96
1030.501	1016.19
1030.79	1045.34
1031.078	1041.05
1031.367	996.75
1031.656	1023.42
1031.945	999.24
1032.233	995.17
1032.522	1001.95
1032.81	989.75
1033.099	978.45
1033.387	997.88
1033.675	942.52
1033.963	946.81
1034.251	929.64
1034.54	966.47
1034.828	923.31
1035.116	954.27
1035.403	937.55
1035.691	921.73
1035.979	913.37
1036.267	916.76
1036.554	917.21
1036.842	916.53
1037.129	875.4
1037.417	883.54
1037.704	862.29
1037.992	879.24
1038.279	855.74
1038.566	863.88
1038.853	863.88
1039.14	863.88
