Data from hue_80_FLMS001491_20.txt Node
Date: Mon Feb 06 15:22:34 GMT 2017
User: dcchb
Spectrometer: FLMS00149
Trigger mode: 0
Integration Time (sec): 2.000000E-2
Scans to average: 10
Electric dark correction enabled: true
Nonlinearity correction enabled: false
Boxcar width: 0
XAxis mode: Wavelengths
Number of Pixels in Spectrum: 2048
>>>>>Begin Spectral Data<<<<<
341.393	-10.72
341.776	-10.72
342.16	-10.72
342.543	-59.76
342.927	-64.5
343.31	-69.48
343.693	-74.22
344.077	-52.3
344.46	-67.22
344.843	-42.36
345.226	-52.98
345.61	-46.65
345.993	2.61
346.376	3.06
346.759	7.36
347.142	37.41
347.525	25.66
347.908	69.73
348.291	66.34
348.674	90.75
349.057	102.27
349.44	118.54
349.823	155.15
350.206	167.13
350.588	199.44
350.971	212.78
351.354	209.84
351.737	217.97
352.119	238.31
352.502	257.75
352.884	261.36
353.267	286.9
353.65	291.42
354.032	306.79
354.414	303.62
354.797	307.46
355.179	303.62
355.562	309.27
355.944	316.5
356.326	340.46
356.709	321.02
357.091	338.2
357.473	356.73
357.855	345.65
358.238	340.23
358.62	332.55
359.002	342.72
359.384	338.42
359.766	334.81
360.148	335.03
360.53	342.49
360.912	332.77
361.294	328.71
361.676	328.03
362.057	342.49
362.439	322.6
362.821	308.37
363.203	320.8
363.584	307.46
363.966	317.18
364.348	312.44
364.729	319.89
365.111	302.04
365.493	293
365.874	328.71
366.256	318.99
366.637	316.73
367.019	299.1
367.4	290.97
367.781	297.52
368.163	308.82
368.544	298.42
368.925	293.9
369.306	288.71
369.688	311.08
370.069	289.84
370.45	298.2
370.831	296.39
371.212	298.65
371.593	305.2
371.974	280.57
372.355	299.1
372.736	305.88
373.117	313.11
373.498	291.87
373.879	318.76
374.26	299.55
374.641	313.57
375.021	314.92
375.402	300.91
375.783	313.34
376.163	324.41
376.544	326.22
376.925	309.95
377.305	321.93
377.686	308.59
378.066	319.21
378.447	338.2
378.827	343.17
379.208	326.22
379.588	327.12
379.968	314.47
380.349	320.57
380.729	304.75
381.109	318.08
381.489	331.42
381.87	323.28
382.25	328.93
382.63	332.77
383.01	321.47
383.39	331.19
383.77	354.02
384.15	337.52
384.53	329.61
384.91	338.65
385.29	307.69
385.67	312.21
386.049	331.87
386.429	350.63
386.809	336.84
387.189	340.23
387.568	327.58
387.948	336.62
388.328	340.68
388.707	349.72
389.087	352.43
389.466	353.56
389.846	330.51
390.225	338.2
390.605	345.43
390.984	342.72
391.363	340.01
391.743	364.41
392.122	342.27
392.501	354.69
392.881	364.19
393.26	365.77
393.639	355.82
394.018	356.95
394.397	350.4
394.776	357.18
395.155	358.31
395.534	344.3
395.913	355.82
396.292	378.65
396.671	364.86
397.05	367.58
397.429	376.61
397.808	371.87
398.186	380.46
398.565	383.17
398.944	384.3
399.323	381.13
399.701	400.12
400.08	353.56
400.458	392.89
400.837	376.84
401.215	385.88
401.594	378.42
401.972	377.74
402.351	390.17
402.729	401.47
403.107	367.58
403.486	390.63
403.864	390.4
404.242	405.99
404.62	386.56
404.999	397.63
405.377	400.57
405.755	410.29
406.133	395.37
406.511	398.08
406.889	413.45
407.267	417.52
407.645	417.52
408.023	416.16
408.401	403.73
408.779	411.42
409.156	427.91
409.534	443.73
409.912	407.8
410.29	432.66
410.667	412.09
411.045	430.85
411.422	440.57
411.8	441.7
412.178	444.18
412.555	454.8
412.933	453.45
413.31	457.97
413.687	429.04
414.065	452.77
414.442	451.19
414.819	463.17
415.197	471.53
415.574	476.95
415.951	461.58
416.328	476.95
416.705	461.81
417.082	458.19
417.46	472.88
417.837	473.11
418.214	472.88
418.591	452.32
418.967	500.45
419.344	497.29
419.721	477.63
420.098	484.41
420.475	481.7
420.852	485.31
421.228	509.49
421.605	500.23
421.982	500
422.358	497.52
422.735	518.08
423.111	532.77
423.488	511.07
423.864	528.02
424.241	525.99
424.617	524.41
424.994	515.59
425.37	537.74
425.746	527.12
426.123	552.88
426.499	558.53
426.875	534.58
427.251	548.14
427.627	552.88
428.003	552.43
428.379	568.47
428.756	568.93
429.132	559.66
429.507	564.86
429.883	560.56
430.259	588.81
430.635	562.6
431.011	610.51
431.387	617.29
431.763	605.76
432.138	623.84
432.514	599.89
432.89	615.93
433.265	639.43
433.641	628.81
434.016	621.13
434.392	625.42
434.767	640.56
435.143	655.25
435.518	638.53
435.894	667.91
436.269	676.49
436.644	671.75
437.02	656.61
437.395	661.35
437.77	689.83
438.145	688.7
438.52	688.7
438.895	696.15
439.271	693.67
439.646	721.92
440.021	721.69
440.395	696.83
440.77	716.27
441.145	724.4
441.52	715.36
441.895	710.16
442.27	728.02
442.645	756.27
443.019	740.9
443.394	737.96
443.769	745.87
444.143	731.18
444.518	753.1
444.892	723.95
445.267	773.44
445.641	772.76
446.016	787.45
446.39	776.15
446.764	786.32
447.139	784.29
447.513	769.82
447.887	780.9
448.262	791.74
448.636	808.24
449.01	779.09
449.384	791.07
449.758	807.34
450.132	816.15
450.506	834.46
450.88	818.41
451.254	819.99
451.628	861.12
452.002	835.81
452.376	853.21
452.75	856.38
453.123	864.51
453.497	903.38
453.871	890.73
454.244	883.49
454.618	917.62
454.992	917.17
455.365	932.98
455.739	937.05
456.112	939.76
456.486	937.73
456.859	959.2
457.232	974.56
457.606	970.27
457.979	975.92
458.352	989.03
458.725	1000.78
459.099	1020.44
459.472	1039.42
459.845	1029.25
460.218	1027.67
460.591	1060.66
460.964	1066.09
461.337	1102.7
461.71	1118.29
462.083	1102.47
462.456	1110.61
462.829	1149.7
463.201	1159.64
463.574	1196.25
463.947	1146.31
464.32	1193.32
464.692	1210.72
465.065	1205.52
465.438	1248.91
465.81	1277.83
466.183	1238.51
466.555	1306.31
466.928	1298.85
467.3	1296.59
467.672	1358.06
468.045	1379.07
468.417	1384.95
468.789	1414.33
469.161	1420.43
469.534	1417.49
469.906	1476.92
470.278	1501.33
470.65	1522.57
471.022	1537.94
471.394	1580.42
471.766	1588.11
472.138	1614.32
472.51	1661.78
472.882	1691.83
473.253	1745.17
473.625	1736.13
473.997	1799.63
474.369	1816.58
474.74	1839.63
475.112	1914.88
475.484	1946.06
475.855	1987.19
476.227	2038.27
476.598	2091.6
476.97	2139.96
477.341	2198.26
477.713	2247.3
478.084	2272.38
478.455	2386.05
478.827	2404.36
479.198	2493.62
479.569	2508.54
479.94	2635.99
480.311	2658.59
480.682	2744.46
481.053	2842.31
481.424	2934.06
481.795	2976.55
482.166	3045.7
482.537	3119.59
482.908	3259.25
483.279	3316.2
483.65	3392.81
484.021	3527.04
484.391	3580.15
484.762	3653.36
485.133	3776.3
485.503	3861.27
485.874	3974.94
486.244	4083.64
486.615	4205.44
486.985	4279.56
487.356	4453.57
487.726	4502.16
488.097	4638.88
488.467	4727.23
488.837	4887.23
489.207	5018.98
489.578	5109.37
489.948	5231.4
490.318	5388.01
490.688	5472.75
491.058	5624.61
491.428	5757.04
491.798	5891.72
492.168	6071.15
492.538	6157.71
492.908	6313.41
493.278	6382.11
493.648	6561.31
494.017	6731.02
494.387	6797.69
494.757	6861.19
495.126	7093.27
495.496	7141.41
495.866	7311.8
496.235	7401.06
496.605	7559.02
496.974	7671.79
497.344	7829.98
497.713	7950.43
498.082	8049.86
498.452	8209.85
498.821	8291.43
499.19	8388.61
499.559	8509.06
499.928	8628.6
500.298	8748.82
500.667	8913.57
501.036	8937.29
501.405	9144.75
501.774	9180.9
502.143	9219.77
502.512	9342.93
502.88	9521.91
503.249	9599.65
503.618	9736.14
503.987	9859.3
504.356	9916.25
504.724	10067.66
505.093	10151.5
505.462	10170.26
505.83	10315.79
506.199	10425.39
506.567	10546.97
506.936	10547.87
507.304	10773.4
507.672	10792.61
508.041	10854.08
508.409	10993.28
508.777	11089.1
509.145	11183.56
509.514	11250.45
509.882	11347.85
510.25	11380.62
510.618	11364.57
510.986	11507.4
511.354	11657
511.722	11767.5
512.09	11872.13
512.458	11829.65
512.826	11960.72
513.193	12052.47
513.561	12090.66
513.929	12155.74
514.297	12365
514.664	12396.86
515.032	12415.39
515.4	12570.19
515.767	12604.77
516.135	12616.07
516.502	12624.2
516.869	12840.02
517.237	12898.77
517.604	12817.42
517.972	12957.75
518.339	13009.05
518.706	13084.3
519.073	13159.1
519.44	13200.91
519.808	13293.11
520.175	13249.95
520.542	13415.37
520.909	13563.84
521.276	13458.3
521.643	13647.45
522.009	13758.64
522.376	13723.38
522.743	13796.15
523.11	13914.11
523.477	14025.97
523.843	14104.16
524.21	14191.84
524.577	14207.89
524.943	14353.42
525.31	14376.02
525.676	14456.92
526.043	14432.06
526.409	14575.11
526.776	14609.69
527.142	14552.74
527.508	14708.67
527.874	14755.9
528.241	14797.93
528.607	14810.36
528.973	14881.54
529.339	14788.44
529.705	14978.94
530.071	15009
530.437	15031.37
530.803	15188.88
531.169	15189.33
531.535	15106.85
531.901	15113.63
532.267	15165.15
532.632	15228.88
532.998	15248.77
533.364	15313.85
533.73	15322.66
534.095	15388.65
534.461	15447.18
534.826	15466.84
535.192	15450.57
535.557	15470.68
535.923	15510.45
536.288	15387.97
536.653	15508.87
537.019	15418.93
537.384	15436.11
537.749	15453.73
538.114	15492.15
538.479	15486.5
538.845	15500.06
539.21	15471.81
539.575	15554.97
539.94	15528.08
540.305	15568.76
540.67	15415.32
541.034	15468.65
541.399	15539.61
541.764	15520.4
542.129	15539.83
542.494	15449.66
542.858	15544.58
543.223	15450.57
543.587	15513.84
543.952	15527.63
544.316	15511.36
544.681	15416.44
545.045	15547.06
545.41	15578.25
545.774	15609.21
546.138	15422.55
546.503	15505.48
546.867	15404.24
547.231	15553.16
547.595	15503.22
547.959	15566.72
548.324	15501.41
548.688	15435.2
549.052	15440.4
549.416	15555.65
549.779	15455.31
550.143	15402.43
550.507	15521.98
550.871	15495.99
551.235	15434.98
551.599	15455.99
551.962	15477.01
552.326	15524.46
552.689	15532.6
553.053	15437.46
553.417	15495.76
553.78	15707.96
554.143	15459.38
554.507	15473.62
554.87	15467.52
555.234	15485.82
555.597	15511.58
555.96	15556.55
556.323	15570.11
556.686	15535.31
557.05	15592.71
557.413	15578.47
557.776	15536.22
558.139	15687.85
558.502	15551.58
558.865	15608.76
559.228	15678.81
559.59	15674.74
559.953	15765.14
560.316	15910.67
560.679	15674.97
561.041	15873.83
561.404	15867.05
561.767	15914.28
562.129	15836.77
562.492	15999.71
562.854	15853.27
563.217	15876.55
563.579	16018.24
563.941	15931.46
564.304	16063.21
564.666	16105.24
565.028	16101.4
565.39	16137.78
565.753	16124.9
566.115	16118.8
566.477	16170.78
566.839	16160.83
567.201	16302.52
567.563	16230.43
567.925	16432.69
568.287	16360.83
568.648	16360.6
569.01	16437.44
569.372	16498.45
569.734	16389.53
570.095	16517.21
570.457	16587.94
570.819	16588.17
571.18	16572.35
571.542	16606.24
571.903	16651.44
572.265	16716.07
572.626	16711.78
572.987	16686.69
573.349	16716.98
573.71	16760.59
574.071	16819.35
574.432	16854.37
574.794	16918.78
575.155	16892.11
575.516	16859.34
575.877	16897.99
576.238	16855.28
576.599	17002.17
576.96	16930.53
577.32	16885.33
577.681	16966.01
578.042	17049.4
578.403	16953.35
578.763	17024.09
579.124	17055.5
579.485	17054.37
579.845	17112.45
580.206	17092.56
580.566	17044.88
580.927	17059.57
581.287	17125.55
581.648	17043.29
582.008	17117.19
582.368	17063.63
582.728	17024.76
583.089	17200.13
583.449	17053.24
583.809	17105.67
584.169	16956.74
584.529	16986.8
584.889	17125.1
585.249	17120.81
585.609	17012.11
585.969	17109.73
586.329	17022.28
586.688	16987.03
587.048	17014.59
587.408	17008.72
587.768	16963.52
588.127	16996.74
588.487	16966.91
588.846	17067.25
589.206	16876.07
589.565	16955.39
589.925	17035.84
590.284	16934.37
590.643	17017.98
591.003	16936.86
591.362	16929.4
591.721	16972.79
592.08	16966.23
592.44	16948.83
592.799	16985.9
593.158	16988.16
593.517	16885.56
593.876	16956.07
594.235	16970.53
594.593	16955.84
594.952	16937.76
595.311	16892.79
595.67	16905.9
596.029	16925.56
596.387	17079.68
596.746	16957.65
597.104	17027.93
597.463	16842.85
597.822	17040.81
598.18	16953.81
598.538	16856.41
598.897	17046.46
599.255	16850.31
599.613	17006.23
599.972	16855.28
600.33	17028.38
600.688	16923.07
601.046	16941.38
601.404	16987.25
601.762	16932.11
602.12	16957.42
602.478	17087.36
602.836	17073.8
603.194	16997.19
603.552	16952.22
603.91	16947.48
604.268	17100.47
604.625	16962.62
604.983	16982.51
605.341	16911.32
605.698	16954.26
606.056	17138.21
606.413	17087.59
606.771	17092.33
607.128	17117.42
607.485	17000.13
607.843	17001.71
608.2	17024.31
608.557	17146.79
608.914	16958.1
609.272	17158.55
609.629	17226.34
609.986	17315.6
610.343	17176.4
610.7	17266.34
611.057	17148.15
611.414	17290.52
611.771	17303.4
612.127	17317.41
612.484	17296.85
612.841	17302.95
613.198	17258.66
613.554	17282.16
613.911	17390.18
614.267	17391.76
614.624	17354.02
614.98	17446.9
615.337	17456.62
615.693	17496.39
616.05	17418.43
616.406	17474.24
616.762	17438.54
617.118	17544.98
617.475	17509.72
617.831	17587.91
618.187	17579.1
618.543	17549.27
618.899	17626.56
619.255	17576.39
619.611	17506.11
619.967	17593.11
620.323	17732.99
620.678	17631.75
621.034	17560.34
621.39	17596.73
621.746	17581.59
622.101	17795.59
622.457	17603.73
622.812	17690.28
623.168	17693.45
623.523	17667.01
623.879	17759.66
624.234	17638.08
624.589	17753.78
624.945	17708.59
625.3	17736.38
625.655	17715.59
626.01	17781.13
626.365	17746.33
626.72	17712.43
627.075	17748.81
627.43	17669.94
627.785	17694.58
628.14	17740
628.495	17671.07
628.85	17708.36
629.205	17660.45
629.559	17701.36
629.914	17683.05
630.269	17699.77
630.623	17539.78
630.978	17549.95
631.332	17668.82
631.687	17619.78
632.041	17601.7
632.396	17681.92
632.75	17496.62
633.104	17627.91
633.459	17556.05
633.813	17453.45
634.167	17423.85
634.521	17482.15
634.875	17468.37
635.229	17394.02
635.583	17373.91
635.937	17364.87
636.291	17328.26
636.645	17399.67
636.999	17314.02
637.352	17375.49
637.706	17222.73
638.06	17296.85
638.413	17218.43
638.767	17165.1
639.121	17252.78
639.474	17155.38
639.828	17136.17
640.181	17140.02
640.534	17141.6
640.888	17155.38
641.241	17078.32
641.594	17045.78
641.947	17175.95
642.301	17113.58
642.654	17106.12
643.007	17114.71
643.36	17119.9
643.713	17029.74
644.066	17143.86
644.419	17078.55
644.771	16991.54
645.124	16752
645.477	16769.18
645.83	16661.84
646.182	16526.47
646.535	16506.13
646.888	16557.66
647.24	16376.87
647.593	16547.94
647.945	16521.5
648.298	16386.36
648.65	16380.04
649.002	16364.22
649.355	16465.23
649.707	16441.05
650.059	16501.84
650.411	16656.64
650.763	16596.98
651.115	16816.41
651.467	16840.81
651.819	16894.82
652.171	16896.18
652.523	16812.11
652.875	16838.1
653.227	16716.75
653.578	16840.59
653.93	16809.18
654.282	16698.9
654.633	16710.87
654.985	16760.36
655.337	16811.21
655.688	16777.09
656.039	16809.18
656.391	16697.77
656.742	16746.35
657.094	16775.96
657.445	16806.92
657.796	16647.6
658.147	16723.98
658.498	16654.15
658.849	16837.65
659.2	16751.55
659.551	16759.46
659.902	16737.99
660.253	16773.25
660.604	16869.51
660.955	16738.67
661.306	16861.15
661.656	16671.78
662.007	16794.04
662.358	16707.94
662.708	16853.02
663.059	16890.3
663.409	16722.17
663.76	16874.26
664.11	16933.47
664.461	16914.03
664.811	16925.56
665.161	16794.04
665.511	16808.5
665.862	16863.86
666.212	16889.17
666.562	16982.05
666.912	16943.86
667.262	16860.7
667.612	16895.28
667.962	16848.05
668.312	16784.09
668.662	16954.03
669.011	16785
669.361	16793.58
669.711	16761.95
670.06	16786.13
670.41	16814.15
670.76	16803.3
671.109	16795.84
671.459	16824.54
671.808	16756.07
672.157	16833.36
672.507	16717.65
672.856	16691.89
673.205	16710.87
673.554	16710.87
673.904	16601.5
674.253	16693.93
674.602	16679.46
674.951	16463.88
675.3	16343.2
675.649	16651.44
675.998	16549.52
676.346	16569.18
676.695	16653.93
677.044	16525.34
677.393	16603.98
677.741	16599.69
678.09	16514.72
678.438	16511.56
678.787	16490.77
679.135	16555.17
679.484	16366.48
679.832	16500.48
680.181	16312.24
680.529	16545.68
680.877	16410.54
681.225	16344.56
681.573	16439.47
681.922	16320.38
682.27	16265.24
682.618	16209.19
682.966	16164.22
683.314	16232.47
683.661	16178.46
684.009	16083.77
684.357	16039.25
684.705	15974.17
685.053	15959.03
685.4	16078.35
685.748	15877
686.095	15826.83
686.443	15932.36
686.79	15843.55
687.138	15832.48
687.485	15793.38
687.832	15695.31
688.18	15716.55
688.527	15641.3
688.874	15645.14
689.221	15616.44
689.568	15426.39
689.915	15546.16
690.262	15477.01
690.609	15356.33
690.956	15398.82
691.303	15366.05
691.65	15321.76
691.997	15310.68
692.344	15138.71
692.69	15134.19
693.037	15199.95
693.383	15064.59
693.73	15072.95
694.077	15023.01
694.423	14937.14
694.769	14917.02
695.116	14838.38
695.462	14845.84
695.808	14740.3
696.155	14793.18
696.501	14625.28
696.847	14631.38
697.193	14479.07
697.539	14547.54
697.885	14472.74
698.231	14394.32
698.577	14353.2
698.923	14293.31
699.269	14267.1
699.614	14251.05
699.96	14171.05
700.306	14142.13
700.651	14091.96
700.997	13953.21
701.342	13983.71
701.688	13953.88
702.033	13834.79
702.379	13944.17
702.724	13892.42
703.069	13786.88
703.415	13672.99
703.76	13685.19
704.105	13677.51
704.45	13696.49
704.795	13624.63
705.14	13475.93
705.485	13437.97
705.83	13451.75
706.175	13405.42
706.52	13380.57
706.865	13328.36
707.209	13279.78
707.554	13213.11
707.899	13298.08
708.243	13261.25
708.588	13152.78
708.932	13076.17
709.277	13062.61
709.621	13121.14
709.966	12942.39
710.31	12975.61
710.654	12831.43
710.998	12894.25
711.342	12852.44
711.687	12791.66
712.031	12764.54
712.375	12702.62
712.719	12699
713.063	12684.09
713.407	12734.93
713.75	12661.49
714.094	12594.15
714.438	12578.33
714.782	12652
715.125	12500.82
715.469	12570.19
715.812	12539.46
716.156	12474.6
716.499	12422.4
716.843	12515.73
717.186	12402.96
717.53	12399.35
717.873	12361.61
718.216	12405.68
718.559	12376.52
718.902	12245
719.246	12334.27
719.589	12216.3
719.932	12216.08
720.275	12181.95
720.617	12172.01
720.96	12238.22
721.303	12185.12
721.646	12189.19
721.989	12127.04
722.331	12139.47
722.674	12139.24
723.016	12160.26
723.359	12080.71
723.701	12104.67
724.044	12044.56
724.386	11966.14
724.729	12040.71
725.071	11969.08
725.413	12026.48
725.755	11930.66
726.097	11878.46
726.439	11877.33
726.782	11904.45
727.124	11917.78
727.465	11885.01
727.807	11847.95
728.149	11851.57
728.491	11834.84
728.833	11806.37
729.175	11847.95
729.516	11840.72
729.858	11835.75
730.199	11815.18
730.541	11792.13
730.882	11889.08
731.224	11792.13
731.565	11773.83
731.906	11820.61
732.248	11740.16
732.589	11812.7
732.93	11703.1
733.271	11760.5
733.612	11725.24
733.953	11791
734.294	11718.24
734.635	11692.02
734.976	11684.79
735.317	11664
735.658	11716.2
735.999	11718.69
736.339	11674.4
736.68	11734.06
737.021	11680.27
737.361	11705.13
737.702	11824.67
738.042	11720.27
738.383	11805.47
738.723	11761.17
739.063	11758.24
739.404	11823.77
739.744	11753.49
740.084	11761.17
740.424	11792.81
740.764	11790.55
741.104	11811.12
741.444	11762.3
741.784	11795.3
742.124	11882.98
742.464	11794.62
742.804	11885.46
743.143	11859.02
743.483	11932.47
743.823	11827.16
744.162	11863.09
744.502	11961.39
744.841	11912.13
745.181	12060.15
745.52	11999.59
745.86	12114.61
746.199	12078.23
746.538	12063.99
746.877	12209.3
747.216	12162.52
747.556	12216.53
747.895	12360.25
748.234	12228.05
748.573	12328.16
748.911	12344.89
749.25	12401.38
749.589	12452.23
749.928	12550.53
750.267	12579.46
750.605	12681.38
750.944	12677.31
751.283	12742.39
751.621	12854.48
751.96	12826.91
752.298	12991.88
752.636	13086.79
752.975	13104.19
753.313	13122.04
753.651	13302.83
753.989	13326.56
754.327	13373.56
754.666	13555.7
755.004	13628.92
755.342	13767
755.679	13831.63
756.017	13874.56
756.355	13973.09
756.693	14093.99
757.031	14173.99
757.368	14251.96
757.706	14383.93
758.044	14404.27
758.381	14577.14
758.719	14707.76
759.056	14868.44
759.394	14938.04
759.731	14992.73
760.068	15130.12
760.405	15184.13
760.743	15201.54
761.08	15461.87
761.417	15503
761.754	15638.36
762.091	15617.12
762.428	15737.57
762.765	15867.05
763.102	15967.39
763.438	16156.76
763.775	16111.34
764.112	16312.69
764.449	16364.67
764.785	16415.51
765.122	16479.47
765.458	16459.13
765.795	16614.15
766.131	16668.84
766.467	16801.04
766.804	16716.75
767.14	16808.95
767.476	16900.47
767.812	17003.75
768.148	17110.64
768.485	17086.23
768.821	17097.76
769.157	17231.54
769.492	17249.17
769.828	17363.29
770.164	17125.55
770.5	17289.16
770.836	17393.34
771.171	17345.89
771.507	17417.97
771.842	17357.41
772.178	17402.61
772.513	17476.28
772.849	17436.05
773.184	17410.52
773.519	17411.65
773.855	17509.95
774.19	17453.23
774.525	17427.47
774.86	17498.42
775.195	17551.3
775.53	17523.06
775.865	17436.5
776.2	17414.36
776.535	17318.32
776.87	17462.94
777.205	17402.38
777.539	17360.35
777.874	17489.16
778.209	17321.03
778.543	17320.12
778.878	17310.41
779.212	17262.72
779.547	17234.25
779.881	17267.02
780.215	17203.29
780.55	17341.37
780.884	17171.2
781.218	17124.42
781.552	17131.2
781.886	17127.36
782.22	17015.5
782.554	16971.88
782.888	16898.89
783.222	16900.93
783.556	16811.44
783.889	16890.08
784.223	16753.81
784.557	16671.1
784.89	16764.88
785.224	16659.58
785.557	16679.91
785.891	16531.67
786.224	16546.81
786.558	16563.76
786.891	16408.74
787.224	16404.22
787.557	16356.53
787.891	16448.96
788.224	16387.49
788.557	16298.23
788.89	16290.77
789.223	16265.91
789.556	16124
789.888	16183.43
790.221	16025.69
790.554	16001.74
790.887	16071.12
791.219	15990.89
791.552	15927.62
791.884	15886.49
792.217	15915.64
792.549	15780.28
792.882	15717
793.214	15590.23
793.546	15675.42
793.879	15574.86
794.211	15523.33
794.543	15529.89
794.875	15489.66
795.207	15552.26
795.539	15430.23
795.871	15411.7
796.203	15327.63
796.535	15296
796.867	15264.58
797.198	15257.81
797.53	15151.59
797.862	15082.44
798.193	15121.31
798.525	15029.79
798.856	15106.62
799.188	14963.58
799.519	14848.78
799.85	14796.12
800.182	14834.54
800.513	14853.97
800.844	14706.63
801.175	14726.29
801.506	14731.49
801.837	14653.3
802.168	14626.86
802.499	14600.42
802.83	14489.01
803.161	14465.51
803.491	14463.48
803.822	14402.01
804.153	14317.72
804.483	14285.18
804.814	14231.39
805.145	14218.06
805.475	14209.92
805.805	14236.36
806.136	14177.16
806.466	14123.15
806.796	14130.15
807.126	13978.52
807.457	13912.76
807.787	13914.11
808.117	13884.06
808.447	13799.76
808.777	13889.03
809.107	13862.36
809.436	13824.85
809.766	13736.26
810.096	13729.71
810.426	13692.42
810.755	13719.99
811.085	13683.61
811.414	13647.68
811.744	13644.29
812.073	13455.37
812.403	13502.37
812.732	13416.95
813.061	13385.09
813.39	13328.36
813.719	13359.78
814.049	13360.68
814.378	13364.97
814.707	13250.63
815.036	13215.15
815.365	13151.87
815.693	13021.25
816.022	13128.14
816.351	13073.68
816.68	13001.59
817.008	13022.61
817.337	12901.71
817.665	12907.81
817.994	12947.58
818.322	12964.31
818.651	12802.05
818.979	12819
819.307	12833.69
819.636	12807.25
819.964	12770.86
820.292	12836.63
820.62	12765.89
820.948	12687.03
821.276	12664.65
821.604	12703.52
821.932	12722.73
822.259	12691.77
822.587	12636.41
822.915	12727.7
823.243	12719.57
823.57	12605.45
823.898	12687.48
824.225	12648.16
824.553	12665.33
824.88	12734.03
825.207	12670.98
825.535	12674.37
825.862	12691.77
826.189	12604.32
826.516	12690.87
826.843	12786.01
827.17	12720.47
827.497	12747.14
827.824	12666.23
828.151	12741.26
828.478	12709.17
828.805	12814.25
829.131	12684.54
829.458	12615.39
829.785	12617.87
830.111	12667.82
830.438	12773.8
830.764	12681.15
831.09	12747.36
831.417	12592.79
831.743	12714.14
832.069	12680.47
832.395	12596.18
832.722	12595.5
833.048	12606.58
833.374	12582.62
833.7	12611.09
834.026	12614.26
834.351	12614.48
834.677	12558.67
835.003	12598.21
835.329	12525
835.654	12472.12
835.98	12503.98
836.306	12478.22
836.631	12448.84
836.956	12428.95
837.282	12413.36
837.607	12366.13
837.932	12404.32
838.258	12443.19
838.583	12359.35
838.908	12337.88
839.233	12271.44
839.558	12303.31
839.883	12198.9
840.208	12215.63
840.533	12252.01
840.858	12196.19
841.182	12253.36
841.507	12221.95
841.832	12195.06
842.156	12113.03
842.481	12085.69
842.805	12038
843.13	12057.44
843.454	11971.56
843.778	11981.06
844.103	11960.94
844.427	11928.18
844.751	11891.79
845.075	11954.84
845.399	11849.76
845.723	11786.94
846.047	11752.13
846.371	11711.91
846.695	11699.25
847.019	11596.43
847.343	11548.07
847.666	11471.69
847.99	11419.94
848.313	11421.97
848.637	11440.05
848.96	11378.58
849.284	11324.35
849.607	11265.59
849.931	11197.8
850.254	11148.31
850.577	11097.91
850.9	10991.02
851.223	10964.58
851.546	11004.58
851.869	10882.33
852.192	10933.4
852.515	10802.33
852.838	10814.76
853.161	10745.83
853.483	10676.46
853.806	10644.37
854.129	10636.01
854.451	10639.62
854.774	10565.95
855.096	10545.61
855.419	10493.41
855.741	10412.51
856.063	10438.5
856.385	10398.95
856.708	10402.57
857.03	10297.71
857.352	10336.35
857.674	10324.38
857.996	10308.78
858.318	10193.98
858.64	10204.83
858.961	10212.06
859.283	10073.08
859.605	10068.34
859.926	10084.16
860.248	10038.73
860.57	10084.16
860.891	10000.77
861.212	10022.91
861.534	10013.2
861.855	9925.06
862.176	9967.32
862.498	9959.41
862.819	9939.07
863.14	9931.17
863.461	9832.64
863.782	9783.82
864.103	9822.47
864.424	9790.38
864.745	9840.32
865.065	9684.17
865.386	9764.84
865.707	9712.19
866.027	9726.88
866.348	9694.11
866.668	9700.21
866.989	9715.58
867.309	9646.43
867.63	9599.87
867.95	9610.04
868.27	9572.76
868.59	9568.69
868.91	9570.72
869.23	9507.67
869.55	9480.1
869.87	9553.32
870.19	9516.71
870.51	9520.55
870.83	9475.81
871.15	9427
871.469	9441.01
871.789	9421.35
872.109	9367.56
872.428	9393.55
872.748	9398.52
873.067	9382.71
873.386	9397.17
873.706	9424.29
874.025	9303.84
874.344	9233.56
874.663	9317.85
874.982	9252.99
875.301	9254.12
875.62	9221.13
875.939	9191.3
876.258	9244.63
876.577	9163.73
876.896	9172.54
877.214	9113.11
877.533	9122.83
877.852	9158.53
878.17	9139.55
878.489	9106.78
878.807	9073.56
879.125	9049.15
879.444	9061.13
879.762	9065.43
880.08	9047.8
880.398	8975.71
880.716	9030.85
881.034	8921.25
881.352	8974.81
881.67	8952.89
881.988	8934.81
882.306	8852.1
882.624	8860.91
882.941	8850.74
883.259	8792.21
883.577	8766.9
883.894	8798.77
884.212	8778.2
884.529	8712.44
884.846	8774.13
885.164	8732.78
885.481	8716.51
885.798	8769.16
886.115	8612.33
886.432	8637.19
886.75	8613.69
887.067	8596.06
887.383	8562.61
887.7	8513.12
888.017	8473.12
888.334	8569.39
888.651	8483.75
888.967	8438.32
889.284	8436.29
889.6	8357.2
889.917	8338.44
890.233	8364.88
890.55	8263.86
890.866	8333.92
891.182	8232.23
891.498	8263.64
891.815	8244.2
892.131	8215.73
892.447	8192.45
892.763	8174.83
893.079	8157.88
893.395	8115.85
893.71	8027.94
894.026	8060.48
894.342	8039.24
894.657	8034.49
894.973	7983.65
895.289	7990.43
895.604	7930.77
895.92	7933.93
896.235	7844.67
896.55	7855.29
896.865	7866.13
897.181	7828.62
897.496	7808.96
897.811	7792.01
898.126	7789.98
898.441	7697.78
898.756	7617.78
899.071	7625.46
899.386	7668.4
899.7	7601.96
900.015	7595.86
900.33	7526.48
900.644	7475.64
900.959	7558.12
901.273	7472.7
901.588	7477.67
901.902	7353.15
902.216	7342.31
902.531	7339.82
902.845	7313.38
903.159	7269.31
903.473	7284.91
903.787	7227.06
904.101	7221.86
904.415	7227.73
904.729	7197.23
905.042	7110.67
905.356	7120.39
905.67	7080.39
905.984	7063.44
906.297	7052.6
906.611	7004.69
906.924	7029.32
907.237	6969.44
907.551	6905.48
907.864	6913.17
908.177	6883.11
908.491	6866.61
908.804	6796.11
909.117	6838.14
909.43	6790.46
909.743	6736.67
910.056	6741.42
910.368	6696.67
910.681	6620.07
910.994	6630.91
911.307	6588.2
911.619	6544.14
911.932	6554.08
912.244	6575.1
912.557	6459.39
912.869	6449.45
913.181	6421.2
913.494	6422.78
913.806	6372.16
914.118	6318.15
914.43	6351.37
914.742	6334.88
915.054	6239.06
915.366	6230.02
915.678	6208.33
915.99	6198.61
916.302	6157.48
916.613	6118.61
916.925	6171.72
917.236	6149.34
917.548	6057.82
917.859	6118.61
918.171	6029.35
918.482	6009.46
918.794	5990.93
919.105	5995
919.416	5938.73
919.727	5927.88
920.038	5922.01
920.349	5855.34
920.66	5885.62
920.971	5806.53
921.282	5773.08
921.593	5795
921.903	5775.34
922.214	5693.76
922.525	5689.02
922.835	5667.1
923.146	5621.9
923.456	5621.45
923.767	5597.95
924.077	5580.09
924.387	5539.64
924.697	5567.66
925.008	5525.18
925.318	5519.98
925.628	5510.72
925.938	5483.82
926.248	5425.75
926.558	5418.52
926.867	5359.76
927.177	5339.87
927.487	5332.64
927.796	5332.19
928.106	5298.07
928.416	5233.21
928.725	5282.7
929.034	5201.12
929.344	5199.76
929.653	5213.78
929.962	5143.04
930.271	5118.41
930.581	5113.21
930.89	5080.9
931.199	5088.81
931.508	5071.63
931.817	5045.19
932.125	5045.19
932.434	4985.31
932.743	4986.44
933.051	4955.25
933.36	4901.24
933.669	4900.56
933.977	4864.18
934.286	4905.31
934.594	4819.44
934.902	4808.36
935.21	4768.82
935.519	4799.32
935.827	4736.95
936.135	4725.88
936.443	4733.79
936.751	4719.33
937.059	4680.23
937.367	4640.23
937.674	4673.22
937.982	4679.1
938.29	4640.01
938.597	4589.84
938.905	4531.31
939.213	4552.32
939.52	4531.99
939.827	4540.57
940.135	4422.61
940.442	4464.19
940.749	4463.51
941.056	4460.12
941.363	4426.45
941.67	4430.52
941.977	4396.85
942.284	4365.44
942.591	4366.11
942.898	4330.41
943.205	4317.3
943.511	4299.68
943.818	4250.86
944.125	4249.05
944.431	4273.46
944.738	4244.31
945.044	4197.76
945.35	4209.96
945.657	4166.35
945.963	4145.1
946.269	4138.32
946.575	4085.22
946.881	4069.17
947.187	4097.65
947.493	4042.73
947.799	4064.65
948.105	4058.55
948.41	4019.46
948.716	4005.45
949.022	3982.85
949.327	3965.45
949.633	3918.67
949.938	3948.72
950.244	3908.72
950.549	3876.64
950.854	3862.17
951.16	3856.75
951.465	3834.38
951.77	3834.83
952.075	3793.7
952.38	3793.25
952.685	3767.49
952.99	3726.81
953.294	3761.16
953.599	3719.8
953.904	3725.23
954.209	3694.49
954.513	3662.86
954.818	3650.88
955.122	3659.47
955.426	3660.6
955.731	3576.3
956.035	3581.28
956.339	3564.78
956.643	3618.79
956.948	3524.78
957.252	3539.47
957.556	3556.87
957.86	3525.91
958.163	3476.87
958.467	3473.71
958.771	3485.01
959.075	3445.01
959.378	3410.66
959.682	3411.56
959.985	3393.94
960.289	3362.07
960.592	3361.17
960.896	3347.61
961.199	3348.29
961.502	3337.21
961.805	3329.08
962.108	3291.79
962.411	3298.57
962.714	3263.32
963.017	3267.84
963.32	3264.22
963.623	3195.07
963.926	3185.13
964.228	3190.55
964.531	3153.26
964.833	3166.37
965.136	3174.28
965.438	3168.63
965.741	3129.31
966.043	3072.36
966.345	3080.95
966.648	3060.39
966.95	3123.89
967.252	3085.02
967.554	3086.37
967.856	3067.84
968.158	3026.49
968.46	3020.16
968.761	3019.71
969.063	2991.01
969.365	2979.71
969.666	2989.43
969.968	2920.28
970.269	2951.91
970.571	2930.22
970.872	2902.65
971.174	2927.28
971.475	2918.69
971.776	2873.72
972.077	2900.39
972.378	2859.26
972.679	2835.53
972.98	2847.06
973.281	2833.27
973.582	2820.39
973.883	2798.25
974.183	2790.34
974.484	2820.39
974.785	2741.98
975.085	2763.22
975.386	2778.59
975.686	2736.1
975.986	2732.94
976.287	2716.44
976.587	2649.32
976.887	2646.16
977.187	2647.74
977.487	2658.59
977.787	2656.55
978.087	2612.71
978.387	2620.17
978.687	2633.96
978.987	2567.52
979.286	2575.65
979.586	2574.52
979.885	2543.11
980.185	2553.05
980.484	2539.27
980.784	2525.26
981.083	2491.81
981.382	2534.07
981.682	2461.53
981.981	2500.63
982.28	2478.25
982.579	2469.67
982.878	2450.46
983.177	2432.15
983.475	2443
983.774	2435.77
984.073	2423.34
984.372	2411.36
984.67	2400.74
984.969	2397.35
985.267	2370.69
985.566	2336.79
985.864	2342.44
986.162	2339.73
986.461	2375.66
986.759	2364.36
987.057	2307.41
987.355	2280.07
987.653	2296.79
987.951	2270.12
988.249	2263.57
988.547	2307.19
988.844	2266.51
989.142	2237.81
989.44	2214.76
989.737	2228.77
990.035	2212.05
990.332	2213.63
990.63	2187.41
990.927	2177.25
991.224	2157.13
991.521	2138.6
991.819	2147.42
992.116	2171.6
992.413	2137.7
992.71	2097.47
993.006	2101.31
993.303	2111.94
993.6	2098.83
993.897	2075.78
994.193	2081.65
994.49	2066.74
994.787	2071.26
995.083	2044.82
995.379	2004.59
995.676	2004.59
995.972	2003.92
996.268	1997.59
996.565	1977.48
996.861	1962.79
997.157	1979.96
997.453	1952.62
997.749	1954.43
998.044	1941.77
998.34	1932.28
998.636	1943.58
998.932	1929.57
999.227	1893.18
999.523	1916.23
999.818	1904.71
1000.114	1884.37
1000.409	1927.53
1000.704	1828.78
1001	1873.07
1001.295	1820.19
1001.59	1847.08
1001.885	1862.9
1002.18	1803.24
1002.475	1805.5
1002.77	1806.86
1003.065	1789.91
1003.359	1773.19
1003.654	1759.18
1003.949	1767.76
1004.243	1727.77
1004.538	1745.39
1004.832	1732.96
1005.127	1707.2
1005.421	1694.09
1005.715	1709.69
1006.009	1704.72
1006.304	1698.61
1006.598	1676.24
1006.892	1661.1
1007.186	1657.48
1007.48	1657.48
1007.773	1627.88
1008.067	1605.73
1008.361	1603.02
1008.655	1583.14
1008.948	1618.16
1009.242	1585.62
1009.535	1534.32
1009.829	1592.18
1010.122	1582.23
1010.415	1546.75
1010.708	1551.95
1011.001	1543.36
1011.295	1539.52
1011.588	1497.26
1011.881	1511.73
1012.173	1516.25
1012.466	1506.75
1012.759	1462.69
1013.052	1483.48
1013.344	1459.75
1013.637	1462.24
1013.93	1467.89
1014.222	1477.83
1014.514	1423.59
1014.807	1420.43
1015.099	1416.59
1015.391	1415.91
1015.683	1386.08
1015.976	1403.93
1016.268	1416.36
1016.56	1374.33
1016.851	1347.66
1017.143	1360.09
1017.435	1360.09
1017.727	1334.78
1018.018	1342.46
1018.31	1344.72
1018.602	1330.94
1018.893	1354.22
1019.185	1342.69
1019.476	1284.84
1019.767	1278.29
1020.058	1276.93
1020.35	1278.96
1020.641	1267.44
1020.932	1278.96
1021.223	1285.52
1021.514	1287.55
1021.804	1239.87
1022.095	1210.94
1022.386	1238.96
1022.677	1207.78
1022.967	1218.63
1023.258	1196.25
1023.548	1186.31
1023.839	1188.57
1024.129	1171.85
1024.419	1168.01
1024.709	1160.77
1025	1155.12
1025.29	1140.44
1025.58	1171.85
1025.87	1130.49
1026.16	1113.77
1026.449	1106.31
1026.739	1088.01
1027.029	1107.89
1027.319	1097.73
1027.608	1116.26
1027.898	1071.06
1028.187	1065.18
1028.477	1045.98
1028.766	1066.99
1029.055	1066.77
1029.344	1047.33
1029.634	1089.14
1029.923	1034.9
1030.212	1027.67
1030.501	1027.44
1030.79	1057.95
1031.078	1017.73
1031.367	1011.17
1031.656	1022.47
1031.945	1011.4
1032.233	1002.36
1032.522	996.26
1032.81	967.33
1033.099	960.55
1033.387	976.82
1033.675	957.84
1033.963	952.64
1034.251	962.59
1034.54	928.92
1034.828	921.01
1035.116	925.3
1035.403	908.8
1035.691	918.07
1035.979	892.76
1036.267	915.13
1036.554	901.57
1036.842	871.74
1037.129	902.25
1037.417	893.21
1037.704	873.32
1037.992	856.83
1038.279	862.03
1038.566	867.22
1038.853	867.22
1039.14	867.22
