Data from hue_330_FLMS001491_42.txt Node
Date: Mon Feb 06 15:45:26 GMT 2017
User: dcchb
Spectrometer: FLMS00149
Trigger mode: 0
Integration Time (sec): 2.000000E-2
Scans to average: 10
Electric dark correction enabled: true
Nonlinearity correction enabled: false
Boxcar width: 0
XAxis mode: Wavelengths
Number of Pixels in Spectrum: 2048
>>>>>Begin Spectral Data<<<<<
341.393	-17.58
341.776	-17.58
342.16	-17.58
342.543	-57.36
342.927	-63.01
343.31	-70.01
343.693	-49
344.077	-69.79
344.46	-77.24
344.843	-53.52
345.226	-47.64
345.61	-16
345.993	-20.75
346.376	-4.03
346.759	2.75
347.142	24.22
347.525	54.73
347.908	57.89
348.291	54.73
348.674	99.25
349.057	114.39
349.44	123.65
349.823	140.6
350.206	173.6
350.588	177.89
350.971	198
351.354	226.25
351.737	221.05
352.119	215.4
352.502	273.03
352.884	251.79
353.267	263.09
353.65	282.52
354.032	300.37
354.414	292.24
354.797	310.77
355.179	308.51
355.562	310.77
355.944	327.27
356.326	338.11
356.709	340.15
357.091	343.76
357.473	346.7
357.855	336.08
358.238	349.64
358.62	333.14
359.002	320.94
359.384	331.79
359.766	348.73
360.148	330.2
360.53	350.54
360.912	332.91
361.294	320.03
361.676	302.63
362.057	320.03
362.439	339.69
362.821	319.81
363.203	321.62
363.584	341.28
363.966	320.49
364.348	310.32
364.729	318.45
365.111	314.16
365.493	338.79
365.874	293.37
366.256	310.54
366.637	302.41
367.019	308.73
367.4	303.54
367.781	325.23
368.163	298.11
368.544	292.24
368.925	295.4
369.306	316.42
369.688	318.9
370.069	327.72
370.45	322.07
370.831	297.21
371.212	315.06
371.593	306.7
371.974	315.29
372.355	311.22
372.736	311.45
373.117	320.71
373.498	325.46
373.879	298.79
374.26	284.1
374.641	298.34
375.021	327.94
375.402	299.7
375.783	303.99
376.163	320.71
376.544	324.33
376.925	326.81
377.305	315.06
377.686	314.38
378.066	323.2
378.447	333.37
378.827	309.41
379.208	325.46
379.588	326.36
379.968	309.19
380.349	342.18
380.729	327.04
381.109	348.73
381.489	351.67
381.87	344.67
382.25	338.11
382.63	342.63
383.01	332.24
383.39	341.95
383.77	336.98
384.15	340.6
384.53	339.92
384.91	347.83
385.29	342.86
385.67	343.31
386.049	343.08
386.429	349.86
386.809	345.57
387.189	349.41
387.568	351.67
387.948	326.59
388.328	341.05
388.707	351.67
389.087	341.95
389.466	366.36
389.846	349.41
390.225	343.54
390.605	357.77
390.984	365.23
391.363	364.1
391.743	379.92
392.122	365.91
392.501	380.37
392.881	377.66
393.26	360.26
393.639	366.59
394.018	355.97
394.397	373.59
394.776	385.34
395.155	360.26
395.534	354.38
395.913	363.87
396.292	375.17
396.671	374.95
397.05	363.87
397.429	376.98
397.808	393.25
398.186	368.85
398.565	382.63
398.944	386.47
399.323	398.22
399.701	390.31
400.08	396.42
400.458	368.62
400.837	393.25
401.215	386.47
401.594	398
401.972	396.19
402.351	386.02
402.729	408.39
403.107	403.87
403.486	416.08
403.864	383.54
404.242	405.23
404.62	413.14
404.999	415.17
405.377	402.29
405.755	418.11
406.133	398.45
406.511	423.99
406.889	439.13
407.267	405.46
407.645	438
408.023	428.51
408.401	434.83
408.779	467.15
409.156	449.07
409.534	438
409.912	445.68
410.29	467.15
410.667	458.34
411.045	479.13
411.422	475.06
411.8	471.67
412.178	499.46
412.555	476.41
412.933	497.43
413.31	501.27
413.687	503.31
414.065	504.44
414.442	507.6
414.819	506.7
415.197	512.35
415.574	534.49
415.951	531.55
416.328	565.68
416.705	537.88
417.082	543.98
417.46	542.63
417.837	576.75
418.214	548.05
418.591	572.68
418.967	570.87
419.344	586.69
419.721	561.61
420.098	592.34
420.475	595.73
420.852	598.9
421.228	629.18
421.605	616.07
421.982	632.57
422.358	637.54
422.735	656.75
423.111	658.33
423.488	647.03
423.864	660.59
424.241	652.68
424.617	670.31
424.994	668.27
425.37	677.76
425.746	661.27
426.123	674.37
426.499	695.17
426.875	691.32
427.251	716.41
427.627	734.71
428.003	712.57
428.379	727.03
428.756	715.05
429.132	724.77
429.507	741.04
429.883	759.34
430.259	776.75
430.635	787.14
431.011	764.77
431.387	771.55
431.763	794.15
432.138	803.41
432.514	820.13
432.89	839.12
433.265	828.5
433.641	816.97
434.016	846.57
434.392	836.4
434.767	854.48
435.143	865.78
435.518	881.83
435.894	877.53
436.269	881.83
436.644	890.19
437.02	913.24
437.395	905.33
437.77	910.75
438.145	934.26
438.52	917.08
438.895	947.36
439.271	926.12
439.646	953.01
440.021	969.73
440.395	964.31
440.77	953.92
441.145	976.97
441.52	972.45
441.895	1012.45
442.27	990.98
442.645	965.21
443.019	999.34
443.394	1009.51
443.769	1008.15
444.143	1011.09
444.518	1027.13
444.892	1026.68
445.267	1020.13
445.641	1025.55
446.016	1024.87
446.39	1055.61
446.764	1073.91
447.139	1044.53
447.513	1082.05
447.887	1059.22
448.262	1089.05
448.636	1077.75
449.01	1088.83
449.384	1081.6
449.758	1109.62
450.132	1091.31
450.506	1116.85
450.88	1074.36
451.254	1117.75
451.628	1106.91
452.002	1110.07
452.376	1137.64
452.75	1134.02
453.123	1131.31
453.497	1139
453.871	1171.76
454.244	1163.4
454.618	1169.5
454.992	1198.2
455.365	1202.95
455.739	1221.48
456.112	1232.33
456.486	1234.59
456.859	1217.86
457.232	1235.49
457.606	1222.38
457.979	1232.33
458.352	1283.85
458.725	1278.2
459.099	1309.39
459.472	1283.85
459.845	1311.65
460.218	1326.11
460.591	1321.59
460.964	1340.57
461.337	1375.83
461.71	1382.15
462.083	1372.89
462.456	1379.44
462.829	1361.59
463.201	1419.89
463.574	1420.34
463.947	1449.04
464.32	1416.28
464.692	1420.57
465.065	1416.05
465.438	1463.05
465.81	1484.3
466.183	1513.22
466.555	1512.77
466.928	1544.18
467.3	1541.47
467.672	1576.5
468.045	1600.9
468.417	1600.45
468.789	1597.06
469.161	1592.77
469.534	1603.16
469.906	1644.74
470.278	1652.65
470.65	1678.19
471.022	1679.32
471.394	1706.21
471.766	1718.64
472.138	1740.34
472.51	1792.54
472.882	1750.73
473.253	1799.77
473.625	1848.36
473.997	1848.58
474.369	1856.72
474.74	1863.5
475.112	1917.96
475.484	1945.98
475.855	1944.85
476.227	1999.31
476.598	1986.66
476.97	2053.55
477.341	2074.11
477.713	2087.22
478.084	2086.54
478.455	2124.96
478.827	2132.87
479.198	2220.77
479.569	2205.41
479.94	2252.86
480.311	2256.25
480.682	2279.76
481.053	2357.04
481.424	2373.99
481.795	2398.4
482.166	2412.41
482.537	2442.01
482.908	2486.53
483.279	2522.69
483.65	2525.85
484.021	2570.82
484.391	2630.03
484.762	2619.18
485.133	2661.44
485.503	2650.59
485.874	2707.54
486.244	2727.65
486.615	2747.77
486.985	2777.82
487.356	2854.66
487.726	2878.16
488.097	2929.91
488.467	2922.23
488.837	2980.53
489.207	3001.32
489.578	3032.96
489.948	3070.47
490.318	3094.42
490.688	3124.25
491.058	3138.04
491.428	3153.86
491.798	3193.4
492.168	3242.67
492.538	3304.59
492.908	3291.48
493.278	3363.34
493.648	3327.64
494.017	3369.67
494.387	3392.27
494.757	3417.35
495.126	3443.79
495.496	3468.88
495.866	3486.73
496.235	3521.08
496.605	3515.2
496.974	3545.03
497.344	3579.16
497.713	3587.29
498.082	3621.19
498.452	3637.91
498.821	3656.44
499.19	3664.8
499.559	3704.13
499.928	3738.25
500.298	3719.49
500.667	3794.97
501.036	3696.67
501.405	3772.15
501.774	3828.64
502.143	3825.93
502.512	3842.65
502.88	3837.91
503.249	3835.42
503.618	3876.78
503.987	3935.53
504.356	3939.83
504.724	3944.57
505.093	3948.87
505.462	3961.29
505.83	3927.4
506.199	4002.42
506.567	4001.29
506.936	4009.43
507.304	4084.68
507.672	4102.76
508.041	4070.9
508.409	4116.54
508.777	4138.24
509.145	4126.04
509.514	4109.99
509.882	4138.92
510.25	4117
510.618	4149.99
510.986	4171.91
511.354	4228.18
511.722	4212.14
512.09	4242.64
512.458	4249.42
512.826	4287.84
513.193	4277.22
513.561	4315.64
513.929	4338.46
514.297	4348.18
514.664	4390.66
515.032	4334.62
515.4	4342.08
515.767	4419.59
516.135	4366.93
516.502	4370.32
516.869	4441.28
517.237	4424.33
517.604	4458.91
517.972	4480.15
518.339	4469.98
518.706	4499.13
519.073	4478.12
519.44	4514.73
519.808	4565.57
520.175	4528.06
520.542	4582.52
520.909	4585.91
521.276	4591.79
521.643	4626.14
522.009	4648.96
522.376	4648.06
522.743	4669.3
523.11	4692.12
523.477	4737.32
523.843	4760.14
524.21	4740.93
524.577	4804.21
524.943	4782.74
525.31	4834.27
525.676	4908.84
526.043	4834.72
526.409	4911.55
526.776	4949.97
527.142	4953.36
527.508	4980.25
527.874	4985.22
528.241	5017.99
528.607	5004.66
528.973	5086.01
529.339	5094.15
529.705	5147.25
530.071	5145.9
530.437	5210.53
530.803	5220.02
531.169	5207.82
531.535	5228.61
531.901	5233.8
532.267	5269.51
532.632	5303.86
532.998	5280.81
533.364	5299.56
533.73	5358.32
534.095	5386.57
534.461	5371.65
534.826	5467.02
535.192	5443.29
535.557	5469.28
535.923	5450.75
536.288	5521.25
536.653	5552.89
537.019	5535.72
537.384	5552.21
537.749	5556.28
538.114	5605.54
538.479	5620.46
538.845	5635.15
539.21	5636.05
539.575	5664.07
539.94	5690.06
540.305	5744.3
540.67	5764.64
541.034	5785.2
541.399	5780
541.764	5796.73
542.129	5831.75
542.494	5887.57
542.858	5880.34
543.223	5926.89
543.587	5998.53
543.952	5993.11
544.316	5979.32
544.681	5961.47
545.045	5983.61
545.41	6012.77
545.774	6049.37
546.138	6068.81
546.503	6110.16
546.867	6113.55
547.231	6171.86
547.595	6154.68
547.959	6247.34
548.324	6200.78
548.688	6196.26
549.052	6258.18
549.416	6343.38
549.779	6326.2
550.143	6304.51
550.507	6330.27
550.871	6374.11
551.235	6410.95
551.599	6401.91
551.962	6409.59
552.326	6459.53
552.689	6519.19
553.053	6522.81
553.417	6516.03
553.78	6577.27
554.143	6593.09
554.507	6582.24
554.87	6594.22
555.234	6633.09
555.597	6631.05
555.96	6618.63
556.323	6635.35
556.686	6692.75
557.05	6767.32
557.413	6743.59
557.776	6732.75
558.139	6812.29
558.502	6831.05
558.865	6822.91
559.228	6883.7
559.59	6864.72
559.953	6912.63
560.316	6907.21
560.679	6988.11
561.041	6971.84
561.404	7039.41
561.767	7100.65
562.129	7040.99
562.492	7094.77
562.854	7059.07
563.217	7104.71
563.579	7119.86
563.941	7155.11
564.304	7163.7
564.666	7229.46
565.028	7212.96
565.39	7277.37
565.753	7277.37
566.115	7313.07
566.477	7323.92
566.839	7312.17
567.201	7408.21
567.563	7340.19
567.925	7421.09
568.287	7368.89
568.648	7491.82
569.01	7490.01
569.372	7575.66
569.734	7514.42
570.095	7645.04
570.457	7713.51
570.819	7655.43
571.18	7664.47
571.542	7720.29
571.903	7764.58
572.265	7815.2
572.626	7890.23
572.987	7875.09
573.349	7899.27
573.71	7908.08
574.071	8019.94
574.432	8051.36
574.794	8136.33
575.155	8208.41
575.516	8172.93
575.877	8278.24
576.238	8341.52
576.599	8363.44
576.96	8452.02
577.32	8532.02
577.681	8688.63
578.042	8711.23
578.403	8794.39
578.763	8825.12
579.124	8922.29
579.485	9052.46
579.845	9183.3
580.206	9247.48
580.566	9350.3
580.927	9437.76
581.287	9595.27
581.648	9711.65
582.008	9772.21
582.368	9993.23
582.728	10085.65
583.089	10229.38
583.449	10370.39
583.809	10592.31
584.169	10705.52
584.529	10870.49
584.889	11072.52
585.249	11200.43
585.609	11433.19
585.969	11717.47
586.329	11860.3
586.688	12116.79
587.048	12243.79
587.408	12406.95
587.768	12695.98
588.127	12875.41
588.487	13079.02
588.846	13428.84
589.206	13600.36
589.565	13827.7
589.925	14094.14
590.284	14295.94
590.643	14573.9
591.003	14877.17
591.362	15137.5
591.721	15354.21
592.08	15696.58
592.44	15964.14
592.799	16217.7
593.158	16419.05
593.517	16769.32
593.876	17100.16
594.235	17284.56
594.593	17552.8
594.952	17893.58
595.311	18218.09
595.67	18519.1
596.029	18833.67
596.387	19116.83
596.746	19502.58
597.104	19577.38
597.463	19912.97
597.822	20313.63
598.18	20497.13
598.538	20750.68
598.897	21131.92
599.255	21262.31
599.613	21877.21
599.972	22015.73
600.33	22242.62
600.688	22491.43
601.046	22918.54
601.404	23212.77
601.762	23438.3
602.12	23779.76
602.478	23936.36
602.836	24287.09
603.194	24430.36
603.552	24732.5
603.91	24969.78
604.268	25200.06
604.625	25450.22
604.983	25749.65
605.341	25974.73
605.698	26196.64
606.056	26615.39
606.413	26809.51
606.771	27094.7
607.128	27284.3
607.485	27435.03
607.843	27680.44
608.2	28048.57
608.557	28359.07
608.914	28326.3
609.272	28738.95
609.629	28881.99
609.986	29285.83
610.343	29181.65
610.7	29643.1
611.057	29776.21
611.414	29995.41
611.771	30214.16
612.127	30336.87
612.484	30590.42
612.841	30813.02
613.198	30920.81
613.554	31123.97
613.911	31294.36
614.267	31636.72
614.624	31660.23
614.98	31889.83
615.337	32250.04
615.693	32283.04
616.05	32431.28
616.406	32568.45
616.762	32756.7
617.118	32784.94
617.475	32960.53
617.831	33259.73
618.187	33255.89
618.543	33504.7
618.899	33755.99
619.255	33738.59
619.611	33860.17
619.967	34001.63
620.323	34336.54
620.678	34221.52
621.034	34198.92
621.39	34321.17
621.746	34376.09
622.101	34803.65
622.457	34688.17
622.812	34793.03
623.168	35079.8
623.523	35068.05
623.879	35340.13
624.234	35183.98
624.589	35381.71
624.945	35496.28
625.3	35517.53
625.655	35531.76
626.01	35647.92
626.365	35838.65
626.72	35773.11
627.075	35943.05
627.43	35897.18
627.785	35796.39
628.14	36078.64
628.495	36157.06
628.85	36102.82
629.205	36060.11
629.559	36341.69
629.914	36271.63
630.269	36281.12
630.623	36210.84
630.978	36315.47
631.332	36398.41
631.687	36586.88
632.041	36422.81
632.396	36517.5
632.75	36357.28
633.104	36487.22
633.459	36524.73
633.813	36469.37
634.167	36573.77
634.521	36705.07
634.875	36601.11
635.229	36545.3
635.583	36428.24
635.937	36580.32
636.291	36539.65
636.645	36542.81
636.999	36555.01
637.352	36667.78
637.706	36465.75
638.06	36674.78
638.413	36549.36
638.767	36436.6
639.121	36486.09
639.474	36363.38
639.828	36450.38
640.181	36374.91
640.534	36558.63
640.888	36404.28
641.241	36314.57
641.594	36339.43
641.947	36517.27
642.301	36416.26
642.654	36392.98
643.007	36603.83
643.36	36459.87
643.713	36336.71
644.066	36563.37
644.419	36402.02
644.771	36173.1
645.124	35856.5
645.477	35846.11
645.83	35578.32
646.182	35429.17
646.535	35317.76
646.888	35395.95
647.24	35190.76
647.593	35492.67
647.945	35337.87
648.298	35266.91
648.65	35237.53
649.002	35185.33
649.355	35200.92
649.707	35191.89
650.059	35373.58
650.411	35837.07
650.763	35861.02
651.115	36293.55
651.467	35955.03
651.819	36048.59
652.171	36023.5
652.523	35861.7
652.875	36129.26
653.227	36013.11
653.578	36166.78
653.93	36011.07
654.282	35877.97
654.633	35743.06
654.985	35914.35
655.337	35985.99
655.688	35850.17
656.039	35959.55
656.391	35655.83
656.742	35678.88
657.094	35783.96
657.445	35915.93
657.796	35731.31
658.147	35758.88
658.498	35801.36
658.849	35859.21
659.2	35803.39
659.551	35731.08
659.902	35806.33
660.253	35785.54
660.604	35814.47
660.955	35564.76
661.306	35855.37
661.656	35674.36
662.007	35633
662.358	35672.55
662.708	35567.02
663.059	35687.24
663.409	35424.2
663.76	35596.39
664.11	35630.97
664.461	35680.91
664.811	35711.87
665.161	35510.3
665.511	35579.67
665.862	35539.22
666.212	35710.06
666.562	35659.67
666.912	35625.09
667.262	35504.87
667.612	35487.92
667.962	35560.01
668.312	35561.37
668.662	35626.9
669.011	35578.54
669.361	35547.58
669.711	35566.11
670.06	35457.42
670.41	35479.11
670.76	35295.39
671.109	35512.55
671.459	35466.68
671.808	35396.85
672.157	35488.37
672.507	35267.14
672.856	35221.72
673.205	35438.21
673.554	35461.26
673.904	35273.24
674.253	35573.8
674.602	35341.94
674.951	34838.9
675.3	34683.42
675.649	35285.89
675.998	35230.75
676.346	35279.79
676.695	35205.44
677.044	34973.81
677.393	35148.27
677.741	35176.07
678.09	35087.26
678.438	34995.73
678.787	35143.53
679.135	35090.87
679.484	34845
679.832	34936.75
680.181	34761.39
680.529	34963.87
680.877	34847.49
681.225	34880.71
681.573	35014.26
681.922	34686.59
682.27	34696.98
682.618	34608.4
682.966	34551.9
683.314	34578.57
683.661	34405.92
684.009	34253.83
684.357	34178.58
684.705	34300.38
685.053	34367.5
685.4	34226.04
685.748	34176.32
686.095	34082.08
686.443	33934.97
686.79	33919.6
687.138	33991.69
687.485	33984.91
687.832	33826.95
688.18	33760.51
688.527	33678.03
688.874	33793.96
689.221	33562.32
689.568	33577.92
689.915	33509.9
690.262	33421.08
690.609	33413.85
690.956	33358.71
691.303	33305.83
691.65	33145.61
691.997	33121.43
692.344	32873.53
692.69	32845.05
693.037	32978.16
693.383	32539.53
693.73	32798.5
694.077	32535.68
694.423	32580.88
694.769	32378.4
695.116	32383.6
695.462	32370.72
695.808	32298.63
696.155	32399.19
696.501	32036.26
696.847	32074
697.193	31907.68
697.539	31976.83
697.885	31754.01
698.231	31580.68
698.577	31652.77
698.923	31521.47
699.269	31327.81
699.614	31370.97
699.96	31207.13
700.306	31305.89
700.651	31153.12
700.997	31070.41
701.342	31078.1
701.688	31064.99
702.033	30792.68
702.379	30832
702.724	30809.4
703.069	30832.68
703.415	30454.16
703.76	30475.85
704.105	30439.92
704.45	30338.23
704.795	30239.02
705.14	30079.03
705.485	30148.4
705.83	29975.07
706.175	29955.86
706.52	29873.83
706.865	29943.44
707.209	29801.97
707.554	29666.83
707.899	29759.49
708.243	29677.91
708.588	29558.81
708.932	29420.74
709.277	29389.55
709.621	29338.25
709.966	29117.69
710.31	29324.7
710.654	29031.37
710.998	29102.55
711.342	29124.25
711.687	29004.03
712.031	28888.1
712.375	28823.69
712.719	28845.16
713.063	28734.2
713.407	28915.44
713.75	28716.8
714.094	28687.88
714.438	28502.8
714.782	28431.16
715.125	28464.83
715.469	28400.65
715.812	28307.32
716.156	28124.05
716.499	28129.25
716.843	28180.09
717.186	28105.97
717.53	28088.12
717.873	28118.4
718.216	28125.86
718.559	27855.81
718.902	27707.11
719.246	27802.93
719.589	27787.56
719.932	27614.23
720.275	27656.04
720.617	27636.15
720.96	27552.31
721.303	27573.1
721.646	27512.77
721.989	27420.34
722.331	27427.12
722.674	27299.89
723.016	27334.46
723.359	27270.74
723.701	27202.94
724.044	27066.22
724.386	26936.06
724.729	27058.77
725.071	26929.05
725.413	26870.52
725.755	26963.4
726.097	26912.78
726.439	26697.19
726.782	26753.92
727.124	26826.46
727.465	26666.23
727.807	26521.38
728.149	26538.55
728.491	26471.21
728.833	26579
729.175	26429.63
729.516	26473.47
729.858	26402.06
730.199	26389.86
730.541	26341.04
730.882	26298.11
731.224	26361.16
731.565	26207.04
731.906	26263.98
732.248	26270.54
732.589	26023.09
732.93	25939.25
733.271	26082.52
733.612	26020.15
733.953	25903.32
734.294	25920.04
734.635	25759.37
734.976	25885.69
735.317	25860.83
735.658	25713.26
735.999	25792.13
736.339	25695.41
736.68	25781.51
737.021	25579.48
737.361	25531.8
737.702	25666.26
738.042	25478.69
738.383	25410
738.723	25490.22
739.063	25470.79
739.404	25369.09
739.744	25229.44
740.084	25337.23
740.424	25346.95
740.764	25242.32
741.104	25340.62
741.444	25131.36
741.784	25093.85
742.124	25077.8
742.464	25045.26
742.804	25081.87
743.143	24910.57
743.483	24938.6
743.823	24971.59
744.162	24879.84
744.502	24918.48
744.841	24826.06
745.181	24849.11
745.52	24748.32
745.86	24805.04
746.199	24654.08
746.538	24615.67
746.877	24624.25
747.216	24543.13
747.556	24549.23
747.895	24451.83
748.234	24396.01
748.573	24433.07
748.911	24401.21
749.25	24445.73
749.589	24163.7
749.928	24245.96
750.267	24335.45
750.605	24102.01
750.944	24177.49
751.283	24023.82
751.621	24130.93
751.96	23991.05
752.298	23900.88
752.636	23898.17
752.975	23743.37
753.313	23676.03
753.651	23764.62
753.989	23699.98
754.327	23705.18
754.666	23507.45
755.004	23436.26
755.342	23506.54
755.679	23531.4
756.017	23430.84
756.355	23349.48
756.693	23302.93
757.031	23331.41
757.368	23230.84
757.706	23045.76
758.044	23087.12
758.381	23027.91
758.719	22971.87
759.056	23088.7
759.394	22848.48
759.731	22704.53
760.068	22808.03
760.405	22595.61
760.743	22662.72
761.08	22665.44
761.417	22456.4
761.754	22415.5
762.091	22374.14
762.428	22245.56
762.765	22168.73
763.102	22193.36
763.438	22069.97
763.775	22027.26
764.112	21981.61
764.449	21967.37
764.785	21908.84
765.122	21707.95
765.458	21695.07
765.795	21683.99
766.131	21576.2
766.467	21501.62
766.804	21390.67
767.14	21291.91
767.476	21444.45
767.812	21325.81
768.148	21305.02
768.485	21145.48
768.821	21015.08
769.157	21104.12
769.492	20844.92
769.828	20856.67
770.164	20846.5
770.5	20766.05
770.836	20740.51
771.171	20614.19
771.507	20500.52
771.842	20486.74
772.178	20312.73
772.513	20385.72
772.849	20235.67
773.184	20217.14
773.519	20105.5
773.855	20109.34
774.19	20007.2
774.525	19964.72
774.86	19823.48
775.195	19877.26
775.53	19727.43
775.865	19613.31
776.2	19581.22
776.535	19363.38
776.87	19368.12
777.205	19358.86
777.539	19184.62
777.874	19297.84
778.209	19143.04
778.543	19068.47
778.878	18967.91
779.212	18983.72
779.547	18856.5
779.881	18868.25
780.215	18771.3
780.55	18771.3
780.884	18661.7
781.218	18561.59
781.552	18594.58
781.886	18408.37
782.22	18346.9
782.554	18308.49
782.888	18128.83
783.222	18022.62
783.556	17890.19
783.889	17997.08
784.223	17871.44
784.557	17749.18
784.89	17773.81
785.224	17739.46
785.557	17623.31
785.891	17542.63
786.224	17497.44
786.558	17618.79
786.891	17322.52
787.224	17312.81
787.557	17179.25
787.891	17270.32
788.224	17203.21
788.557	17020.16
788.89	17151.68
789.223	17075.53
789.556	16996.66
789.888	16910.78
790.221	16835.98
790.554	16748.3
790.887	16748.75
791.219	16596.89
791.552	16545.82
791.884	16549.21
792.217	16450.23
792.549	16457.01
792.882	16271.93
793.214	16221.31
793.546	16282.33
793.879	16184.93
794.211	16045.27
794.543	16153.97
794.875	16073.07
795.207	16059.06
795.539	15990.36
795.871	16009.11
796.203	15827.2
796.535	15696.13
796.867	15697.71
797.198	15682.79
797.53	15701.32
797.862	15508.56
798.193	15613.87
798.525	15402.58
798.856	15513.31
799.188	15303.82
799.519	15290.26
799.85	15181.79
800.182	15189.47
800.513	15194.45
800.844	15127.1
801.175	15208.46
801.506	15089.14
801.837	14999.42
802.168	14921.91
802.499	14951.29
802.83	14823.16
803.161	14811.63
803.491	14738.64
803.822	14762.59
804.153	14702.93
804.483	14593.78
804.814	14510.62
805.145	14523.28
805.475	14435.14
805.805	14465.2
806.136	14400.34
806.466	14361.25
806.796	14416.61
807.126	14253.9
807.457	14308.82
807.787	14177.75
808.117	14129.84
808.447	14168.26
808.777	14135.26
809.107	14019.79
809.436	14049.39
809.766	13988.83
810.096	13966.68
810.426	13935.04
810.755	13949.73
811.085	13846.01
811.414	13779.79
811.744	13771.21
812.073	13729.62
812.403	13660.02
812.732	13555.39
813.061	13513.59
813.39	13548.16
813.719	13551.1
814.049	13568.73
814.378	13435.17
814.707	13356.08
815.036	13398.33
815.365	13349.07
815.693	13234.5
816.022	13227.72
816.351	13231.11
816.68	13161.28
817.008	13194.27
817.337	13055.74
817.665	13038.34
817.994	13023.65
818.322	13115.63
818.651	12961.74
818.979	12937.56
819.307	12993.83
819.636	12927.16
819.964	12817.56
820.292	12957.44
820.62	12889.87
820.948	12844.68
821.276	12891
821.604	12877.9
821.932	12864.11
822.259	12883.77
822.587	12830.21
822.915	12756.32
823.243	12801.74
823.57	12766.71
823.898	12684.45
824.225	12782.08
824.553	12676.32
824.88	12767.62
825.207	12826.15
825.535	12739.37
825.862	12757
826.189	12656.66
826.516	12777.33
826.843	12794.06
827.17	12757
827.497	12797.22
827.824	12627.28
828.151	12800.61
828.478	12729.2
828.805	12766.49
829.131	12681.74
829.458	12690.33
829.785	12588.41
830.111	12727.17
830.438	12816.2
830.764	12747.96
831.09	12738.24
831.417	12617.34
831.743	12733.27
832.069	12729.2
832.395	12634.96
832.722	12700.05
833.048	12535.98
833.374	12612.59
833.7	12564.23
834.026	12519.04
834.351	12531.24
834.677	12550.67
835.003	12586.38
835.329	12593.84
835.654	12498.92
835.98	12552.03
836.306	12508.64
836.631	12603.1
836.956	12483.78
837.282	12455.99
837.607	12419.83
837.932	12381.64
838.258	12402.65
838.583	12376.21
838.908	12297.8
839.233	12318.36
839.558	12359.04
839.883	12256.67
840.208	12260.28
840.533	12249.89
840.858	12213.28
841.182	12268.87
841.507	12154.75
841.832	12070.69
842.156	12090.57
842.481	12122.44
842.805	12037.01
843.13	12016
843.454	11974.64
843.778	11954.3
844.103	11964.93
844.427	11839.05
844.751	11947.07
845.075	11849.22
845.399	11830.24
845.723	11750.47
846.047	11745.5
846.371	11641.09
846.695	11660.3
847.019	11686.97
847.343	11570.59
847.666	11492.85
847.99	11393.64
848.313	11486.29
848.637	11349.12
848.96	11342.34
849.284	11325.62
849.607	11274.55
849.931	11251.5
850.254	11119.75
850.577	11065.97
850.9	10960.66
851.223	10993.2
851.546	10966.53
851.869	10866.2
852.192	10904.16
852.515	10777.39
852.838	10776.71
853.161	10754.34
853.483	10713.21
853.806	10645.86
854.129	10687.9
854.451	10593.21
854.774	10503.95
855.096	10550.73
855.419	10473.21
855.741	10466.66
856.063	10367.91
856.385	10445.64
856.708	10389.83
857.03	10281.81
857.352	10285.2
857.674	10235.48
857.996	10245.87
858.318	10209.49
858.64	10284.07
858.961	10148.02
859.283	10111.87
859.605	10073.68
859.926	10103.28
860.248	10081.36
860.57	10039.55
860.891	10073.22
861.212	10004.75
861.534	9920.46
861.855	9917.97
862.176	10007.69
862.498	9889.27
862.819	9939.89
863.14	9852.66
863.461	9833
863.782	9757.07
864.103	9806.56
864.424	9772.44
864.745	9718.88
865.065	9754.14
865.386	9704.87
865.707	9651.54
866.027	9667.81
866.348	9685.21
866.668	9630.75
866.989	9616.51
867.309	9514.59
867.63	9563.41
867.95	9557.53
868.27	9538.55
868.59	9527.25
868.91	9570.19
869.23	9489.28
869.55	9482.28
869.87	9492.9
870.19	9423.98
870.51	9487.02
870.83	9473.92
871.15	9397.31
871.469	9394.6
871.789	9414.71
872.109	9379.68
872.428	9382.17
872.748	9262.17
873.067	9357.08
873.386	9307.59
873.706	9359.8
874.025	9241.61
874.344	9227.14
874.663	9254.49
874.982	9305.33
875.301	9209.29
875.62	9136.98
875.939	9223.3
876.258	9249.06
876.577	9127.71
876.896	9150.54
877.214	9128.62
877.533	9061.73
877.852	9112.57
878.17	9179.46
878.489	9070.31
878.807	9099.46
879.125	9120.71
879.444	9054.49
879.762	8997.09
880.08	8985.57
880.398	8943.54
880.716	8975.17
881.034	8935.63
881.352	8909.64
881.67	8908.73
881.988	8879.81
882.306	8892.24
882.624	8834.16
882.941	8837.1
883.259	8799.81
883.577	8762.98
883.894	8719.81
884.212	8743.09
884.529	8757.78
884.846	8698.57
885.164	8656.31
885.481	8666.48
885.798	8668.74
886.115	8609.99
886.432	8628.97
886.75	8555.07
887.067	8630.32
887.383	8530.21
887.7	8489.54
888.017	8536.99
888.334	8475.3
888.651	8435.07
888.967	8401.4
889.284	8314.63
889.6	8388.52
889.917	8302.42
890.233	8357.56
890.55	8323.21
890.866	8337.68
891.182	8228.75
891.498	8307.39
891.815	8213.61
892.131	8199.15
892.447	8174.74
892.763	8136.78
893.079	8093.61
893.395	8115.08
893.71	8107.17
894.026	8084.8
894.342	8046.16
894.657	7977.23
894.973	7982.43
895.289	7986.95
895.604	7961.19
895.92	7939.27
896.235	7871.25
896.55	7816.33
896.865	7842.55
897.181	7840.29
897.496	7779.5
897.811	7768.88
898.126	7752.61
898.441	7703.34
898.756	7756
899.071	7623.12
899.386	7609.11
899.7	7603.01
900.015	7512.84
900.33	7492.73
900.644	7473.07
900.959	7467.19
901.273	7417.93
901.588	7444.59
901.902	7406.63
902.216	7375.67
902.531	7310.36
902.845	7372.73
903.159	7251.83
903.473	7257.48
903.787	7204.82
904.101	7179.29
904.415	7216.35
904.729	7170.48
905.042	7087.77
905.356	7077.6
905.67	7096.13
905.984	7086.18
906.297	7027.43
906.611	7002.57
906.924	7028.56
907.237	6956.92
907.551	6954.66
907.864	6937.26
908.177	6906.3
908.491	6843.25
908.804	6826.53
909.117	6778.85
909.43	6756.47
909.743	6695.01
910.056	6772.75
910.368	6698.62
910.681	6647.33
910.994	6619.76
911.307	6659.3
911.619	6577.5
911.932	6555.58
912.244	6532.75
912.557	6477.84
912.869	6482.36
913.181	6428.8
913.494	6455.01
913.806	6412.3
914.118	6404.85
914.43	6329.82
914.742	6323.49
915.054	6268.8
915.366	6298.86
915.678	6215.47
915.99	6205.53
916.302	6121.01
916.613	6172.54
916.925	6193.1
917.236	6116.94
917.548	6116.72
917.859	6109.03
918.171	6003.05
918.482	6032.2
918.794	6050.5
919.105	5923.05
919.416	5923.73
919.727	5951.98
920.038	5900
920.349	5924.18
920.66	5818.65
920.971	5864.29
921.282	5796.95
921.593	5784.52
921.903	5696.62
922.214	5706.33
922.525	5678.54
922.835	5668.59
923.146	5689.61
923.456	5630.18
923.767	5627.24
924.077	5574.13
924.387	5537.75
924.697	5536.62
925.008	5566.9
925.318	5532.55
925.628	5474.02
925.938	5462.95
926.248	5377.08
926.558	5371.65
926.867	5388.83
927.177	5350.41
927.487	5335.95
927.796	5293.91
928.106	5261.15
928.416	5198.78
928.725	5226.12
929.034	5211.88
929.344	5235.84
929.653	5199.45
929.962	5131.21
930.271	5076.97
930.581	5130.08
930.89	5081.26
931.199	5083.98
931.508	5070.87
931.817	5048.95
932.125	4998.56
932.434	5047.82
932.743	4926.92
933.051	4926.47
933.36	4914.49
933.669	4909.74
933.977	4892.57
934.286	4814.38
934.594	4850.99
934.902	4800.59
935.21	4774.83
935.519	4797.2
935.827	4768.28
936.135	4743.87
936.443	4709.52
936.751	4704.33
937.059	4723.31
937.367	4637.89
937.674	4664.1
937.982	4667.72
938.29	4600.15
938.597	4590.43
938.905	4577.55
939.213	4514.27
939.52	4506.14
939.827	4533.48
940.135	4553.14
940.442	4476.31
940.749	4475.4
941.056	4432.69
941.363	4433.82
941.67	4418.68
941.977	4381.62
942.284	4347.95
942.591	4296.65
942.898	4308.4
943.205	4296.43
943.511	4285.81
943.818	4289.87
944.125	4221.17
944.431	4215.07
944.738	4227.73
945.044	4164.68
945.35	4165.36
945.657	4138.01
945.963	4168.52
946.269	4129.43
946.575	4098.24
946.881	4081.74
947.187	4046.04
947.493	4061.63
947.799	4049.43
948.105	4041.07
948.41	3979.37
948.716	4052.37
949.022	3975.53
949.327	3928.07
949.633	3914.52
949.938	3939.37
950.244	3918.58
950.549	3851.24
950.854	3872.26
951.16	3829.32
951.465	3846.95
951.77	3835.42
952.075	3782.99
952.38	3798.59
952.685	3776.89
952.99	3733.96
953.294	3747.29
953.599	3702.54
953.904	3687.86
954.209	3678.59
954.513	3644.47
954.818	3635.65
955.122	3676.33
955.426	3637.69
955.731	3641.98
956.035	3542.77
956.339	3568.31
956.643	3594.07
956.948	3529.89
957.252	3518.14
957.556	3516.11
957.86	3485.37
958.163	3503
958.467	3477.24
958.771	3439.73
959.075	3454.87
959.378	3452.83
959.682	3404.47
959.985	3388.65
960.289	3385.49
960.592	3372.16
960.896	3350.01
961.199	3332.16
961.502	3324.47
961.805	3309.79
962.108	3323.8
962.411	3258.26
962.714	3271.59
963.017	3239.51
963.32	3260.07
963.623	3262.1
963.926	3207.19
964.228	3167.19
964.531	3188.43
964.833	3215.55
965.136	3199.05
965.438	3172.84
965.741	3118.83
966.043	3124.03
966.345	3132.16
966.648	3114.31
966.95	3080.64
967.252	3057.82
967.554	3051.94
967.856	3060.3
968.158	3033.86
968.46	3041.77
968.761	2993.64
969.063	2993.64
969.365	2972.85
969.666	2993.18
969.968	2980.75
970.269	2890.81
970.571	2916.35
970.872	2885.16
971.174	2899.4
971.475	2920.42
971.776	2894.2
972.077	2865.73
972.378	2847.43
972.679	2829.35
972.98	2823.47
973.281	2823.02
973.582	2782.34
973.883	2771.27
974.183	2770.14
974.484	2748.44
974.785	2749.8
975.085	2772.17
975.386	2752.29
975.686	2686.53
975.986	2675.45
976.287	2705.96
976.587	2678.16
976.887	2675
977.187	2637.26
977.487	2642.91
977.787	2595.23
978.087	2624.15
978.387	2606.98
978.687	2606.3
978.987	2566.98
979.286	2575.57
979.586	2583.25
979.885	2579.86
980.185	2534.21
980.484	2536.7
980.784	2531.5
981.083	2502.12
981.382	2505.51
981.682	2474.33
981.981	2446.31
982.28	2440.2
982.579	2479.53
982.878	2459.86
983.177	2434.1
983.475	2445.18
983.774	2423.93
984.073	2395.01
984.372	2393.43
984.67	2387.32
984.969	2400.66
985.267	2368.57
985.566	2355.46
985.864	2338.74
986.162	2312.75
986.461	2299.87
986.759	2328.79
987.057	2290.15
987.355	2321.79
987.653	2303.71
987.951	2296.48
988.249	2259.19
988.547	2259.19
988.844	2273.2
989.142	2248.8
989.44	2226.88
989.737	2217.61
990.035	2193.88
990.332	2151.17
990.63	2191.4
990.927	2174.22
991.224	2142.81
991.521	2150.27
991.819	2142.81
992.116	2123.15
992.413	2135.13
992.71	2107.33
993.006	2093.55
993.303	2085.41
993.6	2070.5
993.897	2078.86
994.193	2038.63
994.49	2069.14
994.787	2029.14
995.083	2042.7
995.379	2004.74
995.676	2049.25
995.972	1993.44
996.268	1971.52
996.565	1984.85
996.861	1985.3
997.157	1983.27
997.453	1976.71
997.749	1942.36
998.044	1938.52
998.34	1918.41
998.636	1938.75
998.932	1942.36
999.227	1879.54
999.523	1905.3
999.818	1898.3
1000.114	1876.38
1000.409	1870.95
1000.704	1850.16
1001	1808.36
1001.295	1852.2
1001.59	1847.68
1001.885	1805.87
1002.18	1792.76
1002.475	1830.95
1002.77	1793.22
1003.065	1762.48
1003.359	1787.11
1003.654	1729.26
1003.949	1735.59
1004.243	1733.78
1004.538	1718.42
1004.832	1717.96
1005.127	1745.08
1005.421	1717.74
1005.715	1698.08
1006.009	1644.29
1006.304	1650.39
1006.598	1696.27
1006.892	1680.9
1007.186	1663.05
1007.48	1660.34
1007.773	1629.15
1008.067	1591.19
1008.361	1627.34
1008.655	1605.2
1008.948	1599.1
1009.242	1602.26
1009.535	1579.66
1009.829	1568.81
1010.122	1555.03
1010.415	1575.37
1010.708	1558.87
1011.001	1515.48
1011.295	1520
1011.588	1520
1011.881	1500.34
1012.173	1516.39
1012.466	1493.34
1012.759	1494.24
1013.052	1473.9
1013.344	1491.08
1013.637	1481.13
1013.93	1447.46
1014.222	1434.35
1014.514	1451.76
1014.807	1419.67
1015.099	1448.59
1015.391	1431.19
1015.683	1417.18
1015.976	1387.8
1016.268	1394.81
1016.56	1382.38
1016.851	1373.79
1017.143	1379.44
1017.435	1366.56
1017.727	1369.72
1018.018	1367.69
1018.31	1335.83
1018.602	1326.56
1018.893	1292.21
1019.185	1335.37
1019.476	1298.99
1019.767	1286.34
1020.058	1288.14
1020.35	1307.8
1020.641	1247.24
1020.932	1270.07
1021.223	1294.25
1021.514	1261.7
1021.804	1260.8
1022.095	1222.38
1022.386	1249.95
1022.677	1220.58
1022.967	1209.05
1023.258	1200.01
1023.548	1220.35
1023.839	1206.79
1024.129	1208.6
1024.419	1182.84
1024.709	1169.28
1025	1159.56
1025.29	1158.43
1025.58	1147.58
1025.87	1139.9
1026.16	1131.31
1026.449	1128.37
1026.739	1101.71
1027.029	1126.11
1027.319	1099.22
1027.608	1102.39
1027.898	1112.78
1028.187	1064.2
1028.477	1082.95
1028.766	1048.6
1029.055	1029.17
1029.344	1065.1
1029.634	1070.52
1029.923	1025.33
1030.212	1044.08
1030.501	1063.07
1030.79	1013.8
1031.078	1016.96
1031.367	1018.09
1031.656	1016.51
1031.945	996.17
1032.233	991.43
1032.522	978.1
1032.81	961.6
1033.099	970.64
1033.387	977.42
1033.675	984.65
1033.963	937.64
1034.251	967.47
1034.54	948.94
1034.828	957.76
1035.116	926.12
1035.403	934.48
1035.691	917.31
1035.979	923.18
1036.267	920.47
1036.554	912.79
1036.842	891.09
1037.129	885.22
1037.417	877.31
1037.704	894.26
1037.992	889.51
1038.279	851.09
1038.566	857.42
1038.853	857.42
1039.14	857.42
