Data from hue_32_FLMS001491_00010.txt Node
Date: Tue Feb 07 17:22:51 GMT 2017
User: dcchb
Spectrometer: FLMS00149
Trigger mode: 0
Integration Time (sec): 2.000000E-2
Scans to average: 10
Electric dark correction enabled: true
Nonlinearity correction enabled: false
Boxcar width: 0
XAxis mode: Wavelengths
Number of Pixels in Spectrum: 2048
>>>>>Begin Spectral Data<<<<<
341.393	-20.54
341.776	-20.54
342.16	-20.54
342.543	-55.56
342.927	-82
343.31	-63.25
343.693	-64.38
344.077	-53.53
344.46	-66.64
344.843	-54.89
345.226	-34.55
345.61	-24.15
345.993	-25.73
346.376	-8.11
346.759	-16.92
347.142	23.08
347.525	36.41
347.908	65.11
348.291	75.73
348.674	80.03
349.057	131.78
349.44	146.01
349.823	138.1
350.206	153.47
350.588	201.15
350.971	219.46
351.354	229.63
351.737	248.16
352.119	267.82
352.502	278.89
352.884	281.83
353.267	270.3
353.65	280.7
354.032	287.93
354.414	313.01
354.797	321.15
355.179	317.76
355.562	325.9
355.944	334.71
356.326	342.84
356.709	322.96
357.091	338.78
357.473	349.62
357.855	349.17
358.238	364.54
358.62	333.58
359.002	354.37
359.384	342.17
359.766	355.05
360.148	352.56
360.53	331.77
360.912	352.56
361.294	331.09
361.676	334.71
362.057	331.77
362.439	338.78
362.821	335.16
363.203	322.96
363.584	335.84
363.966	319.79
364.348	310.98
364.729	327.48
365.111	331.09
365.493	322.73
365.874	324.54
366.256	326.8
366.637	305.1
367.019	303.52
367.4	327.03
367.781	318.89
368.163	321.6
368.544	318.66
368.925	298.78
369.306	295.84
369.688	306.23
370.069	299.91
370.45	328.61
370.831	304.65
371.212	339.45
371.593	311.21
371.974	319.79
372.355	316.86
372.736	318.89
373.117	322.96
373.498	310.98
373.879	312.79
374.26	320.7
374.641	323.41
375.021	325.44
375.402	327.03
375.783	340.58
376.163	338.78
376.544	319.12
376.925	336.06
377.305	315.27
377.686	315.5
378.066	320.7
378.447	342.39
378.827	322.96
379.208	330.19
379.588	340.13
379.968	337.87
380.349	335.16
380.729	327.7
381.109	354.82
381.489	335.84
381.87	351.21
382.25	349.17
382.63	344.43
383.01	350.53
383.39	332.22
383.77	352.56
384.15	357.98
384.53	374.48
384.91	364.09
385.29	348.04
385.67	362.5
386.049	356.18
386.429	366.57
386.809	345.33
387.189	336.06
387.568	370.19
387.948	362.05
388.328	372.45
388.707	356.63
389.087	367.25
389.466	361.37
389.846	364.99
390.225	372
390.605	348.72
390.984	361.6
391.363	358.21
391.743	353.69
392.122	380.58
392.501	365.44
392.881	384.42
393.26	358.21
393.639	371.09
394.018	392.56
394.397	383.07
394.776	384.2
395.155	395.95
395.534	381.71
395.913	380.13
396.292	371.54
396.671	396.63
397.05	386.46
397.429	396.63
397.808	376.29
398.186	388.04
398.565	383.07
398.944	411.77
399.323	397.53
399.701	400.7
400.08	385.55
400.458	394.14
400.837	411.77
401.215	386.46
401.594	391.66
401.972	406.57
402.351	391.43
402.729	409.06
403.107	409.96
403.486	422.84
403.864	411.32
404.242	413.58
404.62	424.88
404.999	427.59
405.377	412.67
405.755	423.75
406.133	423.97
406.511	454.93
406.889	451.54
407.267	429.17
407.645	428.94
408.023	449.28
408.401	430.3
408.779	445.89
409.156	448.6
409.534	466
409.912	442.28
410.29	459.45
410.667	475.04
411.045	461.71
411.422	468.49
411.8	455.84
412.178	475.5
412.555	475.95
412.933	465.78
413.31	477.76
413.687	496.29
414.065	488.83
414.442	483.63
414.819	506.91
415.197	503.74
415.574	500.13
415.951	496.51
416.328	485.44
416.705	505.1
417.082	511.88
417.46	497.42
417.837	510.75
418.214	517.08
418.591	532.9
418.967	504.87
419.344	538.77
419.721	539.22
420.098	527.7
420.475	520.01
420.852	545.32
421.228	553.23
421.605	544.19
421.982	530.18
422.358	533.35
422.735	562.27
423.111	556.17
423.488	546.91
423.864	576.51
424.241	578.09
424.617	586.45
424.994	575.38
425.37	584.87
425.746	555.72
426.123	570.18
426.499	575.61
426.875	583.29
427.251	598.43
427.627	609.73
428.003	607.92
428.379	604.53
428.756	605.44
429.132	590.52
429.507	637.07
429.883	633.91
430.259	644.31
430.635	643.18
431.011	628.26
431.387	659.67
431.763	645.44
432.138	642.05
432.514	678.2
432.89	669.16
433.265	684.53
433.641	692.44
434.016	678.88
434.392	675.49
434.767	714.36
435.143	705.55
435.518	699.9
435.894	755.94
436.269	722.04
436.644	729.27
437.02	719.33
437.395	732.44
437.77	741.7
438.145	751.65
438.52	740.8
438.895	760.01
439.271	764.08
439.646	775.15
440.021	769.27
440.395	749.16
440.77	765.66
441.145	768.6
441.52	794.13
441.895	783.96
442.27	788.48
442.645	794.13
443.019	812.89
443.394	810.85
443.769	813.57
444.143	814.92
444.518	809.72
444.892	815.83
445.267	835.71
445.641	834.81
446.016	822.83
446.39	831.87
446.764	833.68
447.139	828.26
447.513	862.6
447.887	868.25
448.262	860.34
448.636	857.41
449.01	885.88
449.384	853.57
449.758	901.47
450.132	895.6
450.506	902.6
450.88	926.56
451.254	902.15
451.628	937.18
452.002	908.48
452.376	920.46
452.75	907.8
453.123	951.87
453.497	953.22
453.871	956.16
454.244	976.5
454.618	985.54
454.992	968.82
455.365	1001.13
455.739	1019.66
456.112	1000.91
456.486	1023.73
456.859	1046.55
457.232	1039.55
457.606	1045.88
457.979	1072.32
458.352	1094.46
458.725	1076.84
459.099	1082.26
459.472	1115.25
459.845	1104.41
460.218	1140.79
460.591	1137.85
460.964	1155.25
461.337	1195.48
461.71	1212.88
462.083	1179.21
462.456	1204.29
462.829	1191.18
463.201	1240.67
463.574	1234.57
463.947	1238.19
464.32	1270.5
464.692	1294.46
465.065	1285.64
465.438	1294.23
465.81	1357.73
466.183	1315.25
466.555	1364.74
466.928	1378.3
467.3	1373.1
467.672	1437.73
468.045	1477.5
468.417	1442.48
468.789	1454.91
469.161	1470.05
469.534	1505.53
469.906	1536.71
470.278	1575.13
470.65	1567.22
471.022	1612.64
471.394	1621.23
471.766	1641.12
472.138	1669.59
472.51	1706.65
472.882	1753.88
473.253	1783.94
473.625	1791.85
473.997	1827.32
474.369	1839.75
474.74	1879.75
475.112	1922.92
475.484	1961.56
475.855	2000.65
476.227	2019.64
476.598	2058.51
476.97	2101.67
477.341	2178.73
477.713	2212.63
478.084	2220.08
478.455	2283.13
478.827	2305.73
479.198	2398.61
479.569	2450.13
479.94	2553.41
480.311	2555.44
480.682	2618.26
481.053	2694.42
481.424	2767.87
481.795	2768.99
482.166	2845.38
482.537	2946.17
482.908	2994.98
483.279	3053.28
483.65	3110.68
484.021	3224.12
484.391	3288.98
484.762	3320.39
485.133	3412.59
485.503	3490.56
485.874	3590.89
486.244	3606.26
486.615	3724.68
486.985	3808.29
487.356	3877.89
487.726	3919.25
488.097	4054.16
488.467	4087.6
488.837	4168.05
489.207	4294.6
489.578	4320.82
489.948	4452.11
490.318	4501.15
490.688	4540.7
491.058	4636.29
491.428	4776.85
491.798	4843.74
492.168	4945.89
492.538	5004.87
492.908	5084.19
493.278	5157.41
493.648	5307.01
494.017	5308.59
494.387	5436.5
494.757	5512.2
495.126	5605.76
495.496	5645.08
495.866	5791.29
496.235	5831.29
496.605	5906.31
496.974	5971.17
497.344	6044.16
497.713	6094.33
498.082	6174.56
498.452	6248.9
498.821	6353.53
499.19	6397.83
499.559	6481.67
499.928	6532.06
500.298	6593.3
500.667	6705.16
501.036	6704.03
501.405	6881.66
501.774	6827.65
502.143	6924.82
502.512	7032.84
502.88	7084.59
503.249	7070.35
503.618	7160.74
503.987	7225.37
504.356	7286.16
504.724	7338.59
505.093	7407.29
505.462	7400.51
505.83	7499.49
506.199	7570
506.567	7711.92
506.936	7714.4
507.304	7789.65
507.672	7916.2
508.041	7874.17
508.409	7948.07
508.777	8079.14
509.145	8081.85
509.514	8101.96
509.882	8240.72
510.25	8261.73
510.618	8270.77
510.986	8375.18
511.354	8405.68
511.722	8505.12
512.09	8570.88
512.458	8560.03
512.826	8674.83
513.193	8712.34
513.561	8755.96
513.929	8811.1
514.297	8883.41
514.664	8938.55
515.032	9007.02
515.4	9033.46
515.767	9102.61
516.135	9096.96
516.502	9124.99
516.869	9233.46
517.237	9284.98
517.604	9255.6
517.972	9392.55
518.339	9480.91
518.706	9421.48
519.073	9528.59
519.44	9524.52
519.808	9655.14
520.175	9602.49
520.542	9730.17
520.909	9781.69
521.276	9712.32
521.643	9898.3
522.009	9924.06
522.376	10041.57
522.743	10083.83
523.11	10136.48
523.477	10243.37
523.843	10261.91
524.21	10361.79
524.577	10419.42
524.943	10430.71
525.31	10492.41
525.676	10619.41
526.043	10614.89
526.409	10656.25
526.776	10853.98
527.142	10873.87
527.508	10885.39
527.874	10981.89
528.241	11039.51
528.607	11093.52
528.973	11259.85
529.339	11075.9
529.705	11267.53
530.071	11330.8
530.437	11454.42
530.803	11519.95
531.169	11532.38
531.535	11510.91
531.901	11562.21
532.267	11625.71
532.632	11710.23
532.998	11712.04
533.364	11827.51
533.73	11859.83
534.095	11925.36
534.461	11933.5
534.826	12000.62
535.192	12089.2
535.557	12175.98
535.923	12170.56
536.288	12250.78
536.653	12353.83
537.019	12285.35
537.384	12325.35
537.749	12437.22
538.114	12453.03
538.479	12507.04
538.845	12594.27
539.21	12510.89
539.575	12628.4
539.94	12724.89
540.305	12760.14
540.67	12788.84
541.034	12888.95
541.399	12876.3
541.764	12996.3
542.129	13013.02
542.494	13052.11
542.858	13088.72
543.223	13100.93
543.587	13217.53
543.952	13171.66
544.316	13241.49
544.681	13259.57
545.045	13424.31
545.41	13397.19
545.774	13486.91
546.138	13583.85
546.503	13602.83
546.867	13595.38
547.231	13775.94
547.595	13737.75
547.959	13791.76
548.324	13878.76
548.688	13831.98
549.052	13944.07
549.416	13987.46
549.779	14022.71
550.143	14063.16
550.507	14040.79
550.871	14195.14
551.235	14234.46
551.599	14245.53
551.962	14240.33
552.326	14337.28
552.689	14437.16
553.053	14358.07
553.417	14437.84
553.78	14529.82
554.143	14545.18
554.507	14644.16
554.87	14626.99
555.234	14760.32
555.597	14772.3
555.96	14879.86
556.323	14876.25
556.686	14798.51
557.05	15010.26
557.413	15005.96
557.776	15093.87
558.139	15149.23
558.502	15202.79
558.865	15212.51
559.228	15289.12
559.59	15360.53
559.953	15342.45
560.316	15464.71
560.679	15620.86
561.041	15581.77
561.404	15688.88
561.767	15761.87
562.129	15764.59
562.492	15864.7
562.854	15873.06
563.217	15822.44
563.579	15975.88
563.941	15988.53
564.304	16017.01
564.666	16121.19
565.028	16171.58
565.39	16178.59
565.753	16278.24
566.115	16345.59
566.477	16378.13
566.839	16444.57
567.201	16617.67
567.563	16536.99
567.925	16713.49
568.287	16722.98
568.648	16758.01
569.01	16833.71
569.372	17035.51
569.734	16948.28
570.095	17109.41
570.457	17179.24
570.819	17247.94
571.18	17270.99
571.542	17382.62
571.903	17424.88
572.265	17464.65
572.626	17574.03
572.987	17583.75
573.349	17626.91
573.71	17739
574.071	17849.95
574.432	17922.95
574.794	18068.25
575.155	18175.37
575.516	18073.9
575.877	18364.74
576.238	18370.17
576.599	18509.82
576.96	18610.61
577.32	18760.89
577.681	18854.67
578.042	18937.38
578.403	19090.15
578.763	19159.75
579.124	19307.32
579.485	19555.22
579.845	19636.35
580.206	19838.83
580.566	19872.27
580.927	20039.95
581.287	20321.3
581.648	20392.71
582.008	20686.94
582.368	20814.4
582.728	20896.88
583.089	21108.63
583.449	21214.39
583.809	21530.76
584.169	21675.39
584.529	21827.02
584.889	22173.46
585.249	22280.35
585.609	22455.93
585.969	22807.56
586.329	22924.85
586.688	23157.39
587.048	23400.32
587.408	23546.98
587.768	23760.99
588.127	24068.55
588.487	24202.1
588.846	24548.99
589.206	24683
589.565	24871.01
589.925	25312.13
590.284	25541.5
590.643	25715.74
591.003	26077.99
591.362	26381.26
591.721	26536.51
592.08	26910.96
592.44	27139.43
592.799	27378.74
593.158	27515.46
593.517	27956.13
593.876	28217.14
594.235	28403.35
594.593	28641.99
594.952	28958.14
595.311	29161.97
595.67	29420.95
596.029	29797.44
596.387	30036.53
596.746	30396.29
597.104	30421.6
597.463	30696.17
597.822	31127.57
598.18	31106.33
598.538	31511.52
598.897	31791.06
599.255	31822.92
599.613	32509.91
599.972	32508.1
600.33	32857.24
600.688	32837.36
601.046	33309.21
601.404	33631.69
601.762	33685.47
602.12	34063.09
602.478	34122.75
602.836	34355.06
603.194	34487.03
603.552	34606.8
603.91	34659.91
604.268	35201.81
604.625	35253.79
604.983	35621.69
605.341	35723.16
605.698	36045.18
606.056	36212.41
606.413	36328.56
606.771	36539.63
607.128	36783.47
607.485	36712.74
607.843	37115.21
608.2	37279.73
608.557	37588.87
608.914	37546.39
609.272	37774.63
609.629	38052.14
609.986	38177.1
610.343	38251.45
610.7	38573.7
611.057	38587.94
611.414	38816.63
611.771	39040.13
612.127	39262.5
612.484	39262.05
612.841	39438.09
613.198	39480.35
613.554	39718.31
613.911	39875.14
614.267	40132.98
614.624	40008.92
614.98	40165.53
615.337	40474.9
615.693	40504.95
616.05	40721.22
616.406	40922.12
616.762	40843.7
617.118	41021.77
617.475	40953.98
617.831	41188.32
618.187	41320.52
618.543	41528.43
618.899	41763.45
619.255	41740.17
619.611	41692.04
619.967	41943.56
620.323	42086.83
620.678	42067.4
621.034	42035.53
621.39	42185.36
621.746	42191.46
622.101	42764.1
622.457	42390.33
622.812	42517.55
623.168	42615.18
623.523	42717.78
623.879	42819.92
624.234	42483.2
624.589	42876.41
624.945	43036.64
625.3	43138.1
625.655	43085.68
626.01	43138.78
626.365	43282.05
626.72	43209.06
627.075	43082.06
627.43	43214.71
627.785	43181.94
628.14	43268.95
628.495	43383.52
628.85	43374.48
629.205	43297.42
629.559	43537.64
629.914	43357.98
630.269	43545.32
630.623	43412.9
630.978	43405.21
631.332	43477.08
631.687	43657.19
632.041	43543.29
632.396	43566.79
632.75	43365.89
633.104	43601.59
633.459	43369.74
633.813	43493.57
634.167	43724.3
634.521	43445.21
634.875	43647.47
635.229	43419.9
635.583	43370.19
635.937	43445.44
636.291	43449.06
636.645	43410.86
636.999	43344.88
637.352	43492.67
637.706	43363.18
638.06	43398.44
638.413	43276.18
638.767	43306.69
639.121	43454.25
639.474	43091.55
639.828	43215.84
640.181	43228.95
640.534	43241.6
640.888	43093.13
641.241	42995.51
641.594	43182.4
641.947	43154.83
642.301	43180.81
642.654	43092.45
643.007	43209.97
643.36	43130.19
643.713	43077.31
644.066	43089.29
644.419	43032.12
644.771	42833.93
645.124	42426.71
645.477	42325.47
645.83	42045.25
646.182	41805.93
646.535	41864.24
646.888	41923.22
647.24	41610.46
647.593	41951.92
647.945	41800.29
648.298	41709.21
648.65	41639.39
649.002	41597.35
649.355	41751.25
649.707	41702.21
650.059	41929.77
650.411	42402.98
650.763	42307.16
651.115	42755.97
651.467	42670.32
651.819	42665.57
652.171	42499.25
652.523	42433.94
652.875	42511.9
653.227	42328.63
653.578	42601.85
653.93	42452.92
654.282	42337.67
654.633	42289.54
654.985	42352.13
655.337	42312.14
655.688	42302.19
656.039	42468.29
656.391	42193.04
656.742	42250.22
657.094	42285.47
657.445	42313.94
657.796	42099.94
658.147	42256.54
658.498	42210.22
658.849	42281.4
659.2	42105.36
659.551	42101.07
659.902	42138.13
660.253	42189.2
660.604	42273.72
660.955	42034.86
661.306	42198.47
661.656	42115.76
662.007	42168.86
662.358	42246.6
662.708	42097.45
663.059	42194.85
663.409	42062.65
663.76	42159.37
664.11	42188.98
664.461	42176.09
664.811	42147.39
665.161	42076.89
665.511	42104.46
665.862	42065.81
666.212	42132.48
666.562	42123.89
666.912	41937.68
667.262	42080.96
667.612	41931.58
667.962	42066.49
668.312	41956.89
668.662	42092.71
669.011	41942.2
669.361	42017.68
669.711	41915.08
670.06	41866.72
670.41	41800.74
670.76	41880.73
671.109	42055.87
671.459	41864.69
671.808	41879.15
672.157	41942.88
672.507	41545.83
672.856	41697.91
673.205	41772.72
673.554	41809.78
673.904	41695.2
674.253	41829.89
674.602	41699.95
674.951	41232.39
675.3	41069.91
675.649	41621.53
675.998	41687.75
676.346	41530.91
676.695	41625.6
677.044	41441.42
677.393	41527.98
677.741	41657.24
678.09	41459.73
678.438	41403.69
678.787	41583.34
679.135	41499.28
679.484	41164.37
679.832	41442.1
680.181	41169.79
680.529	41402.33
680.877	41026.97
681.225	40986.07
681.573	41258.15
681.922	40987.65
682.27	40863.13
682.618	40804.38
682.966	40712.86
683.314	40818.62
683.661	40816.36
684.009	40635.8
684.357	40547.66
684.705	40497.04
685.053	40703.36
685.4	40424.73
685.748	40340.44
686.095	40363.71
686.443	40389.25
686.79	40132.98
687.138	40096.83
687.485	40164.62
687.832	40040.56
688.18	40125.3
688.527	39789.49
688.874	39806.67
689.221	39741.81
689.568	39677.18
689.915	39605.31
690.262	39510.4
690.609	39520.8
690.956	39349.28
691.303	39362.84
691.65	39192.9
691.997	39253.46
692.344	38944.77
692.69	38758.11
693.037	38920.59
693.383	38565.12
693.73	38750.42
694.077	38585
694.423	38507.49
694.769	38498.23
695.116	38237.67
695.462	38310.66
695.808	37966.94
696.155	38220.94
696.501	37860.05
696.847	38029.08
697.193	37782.76
697.539	37909.77
697.885	37548.42
698.231	37698.02
698.577	37442.89
698.923	37376.9
699.269	37297.8
699.614	37090.58
699.96	37038.15
700.306	37045.83
700.651	36982.33
700.997	36686.07
701.342	36690.59
701.688	36582.34
702.033	36501.89
702.379	36451.05
702.724	36353.2
703.069	36436.81
703.415	36154.33
703.76	36033.88
704.105	36140.55
704.45	36039.53
704.795	35801.8
705.14	35711.18
705.485	35716.38
705.83	35467.34
706.175	35576.95
706.52	35494.46
706.865	35304.64
707.209	35288.37
707.554	35204.75
707.899	35235.03
708.243	35078.2
708.588	35002.05
708.932	34833.01
709.277	34794.59
709.621	34846.34
709.966	34656.74
710.31	34704.65
710.654	34475.05
710.998	34552.11
711.342	34346.02
711.687	34392.57
712.031	34182.63
712.375	34035.07
712.719	34161.84
713.063	34101.28
713.407	34227.83
713.75	33975.18
714.094	34032.58
714.438	33764.11
714.782	33688.86
715.125	33583.33
715.469	33769.08
715.812	33474.4
716.156	33440.28
716.499	33454.74
716.843	33472.82
717.186	33237.35
717.53	33402.99
717.873	33268.31
718.216	33235.09
718.559	33110.34
718.902	32990.12
719.246	32899.28
719.589	32803.01
719.932	32726.85
720.275	32765.49
720.617	32723.24
720.96	32693.18
721.303	32674.88
721.646	32673.07
721.989	32503.13
722.331	32593.75
722.674	32400.08
723.016	32557.82
723.359	32409.35
723.701	32398.5
724.044	32100.65
724.386	32015.68
724.729	32139.3
725.071	32110.14
725.413	31967.78
725.755	31953.54
726.097	31883.26
726.439	31688.01
726.782	31695.01
727.124	31914.67
727.465	31702.02
727.807	31725.3
728.149	31611.17
728.491	31411.86
728.833	31508.58
729.175	31456.38
729.516	31433.1
729.858	31368.47
730.199	31379.99
730.541	31238.08
730.882	31264.29
731.224	31311.07
731.565	31129.38
731.906	31078.53
732.248	31204.41
732.589	30925.77
732.93	30997.63
733.271	30978.2
733.612	30920.35
733.953	31021.13
734.294	30707.92
734.635	30760.12
734.976	30779.78
735.317	30543.86
735.658	30686
735.999	30517.64
736.339	30492.11
736.68	30577.08
737.021	30537.98
737.361	30379.79
737.702	30398.33
738.042	30303.64
738.383	30205.56
738.723	30381.83
739.063	30270.64
739.404	30247.37
739.744	30086.47
740.084	29943.42
740.424	30061.16
740.764	30059.12
741.104	30061.61
741.444	29889.41
741.784	29850.99
742.124	29862.07
742.464	29761.05
742.804	29737.55
743.143	29768.29
743.483	29701.39
743.823	29559.25
744.162	29655.29
744.502	29561.28
744.841	29503.21
745.181	29715.63
745.52	29354.51
745.86	29559.7
746.199	29324.68
746.538	29331.69
746.877	29500.04
747.216	29440.38
747.556	29323.1
747.895	29358.8
748.234	29171.46
748.573	29145.25
748.911	29182.99
749.25	29069.32
749.589	28879.04
749.928	29029.32
750.267	28999.04
750.605	28914.75
750.944	28834.52
751.283	28730.35
751.621	28874.75
751.96	28656
752.298	28560.63
752.636	28646.73
752.975	28462.33
753.313	28358.6
753.651	28440.86
753.989	28380.52
754.327	28199.06
754.666	28185.5
755.004	28260.53
755.342	28128.33
755.679	28068.89
756.017	28006.75
756.355	28154.32
756.693	27924.72
757.031	27987.99
757.368	27729.47
757.706	27797.94
758.044	27667.55
758.381	27700.99
758.719	27459.87
759.056	27472.98
759.394	27348.46
759.731	27144.4
760.068	27388.46
760.405	27162.48
760.743	27140.56
761.08	27163.83
761.417	26927.23
761.754	26931.75
762.091	26796.16
762.428	26777.4
762.765	26677.97
763.102	26636.16
763.438	26615.15
763.775	26421.25
764.112	26385.78
764.449	26404.53
764.785	26303.52
765.122	26140.58
765.458	26040.93
765.795	25964.09
766.131	25987.14
766.467	25836.41
766.804	25868.27
767.14	25758.45
767.476	25668.96
767.812	25532.24
768.148	25606.81
768.485	25393.26
768.821	25246.14
769.157	25290.66
769.492	25087.96
769.828	25099.71
770.164	24880.96
770.5	24863.56
770.836	24959.82
771.171	24748.3
771.507	24685.48
771.842	24511.93
772.178	24519.38
772.513	24385.15
772.849	24241.42
773.184	24274.19
773.519	24217.47
773.855	24092.73
774.19	23960.08
774.525	23916.24
774.86	23890.7
775.195	23785.84
775.53	23686.41
775.865	23536.13
776.2	23381.11
776.535	23320.32
776.87	23205.52
777.205	23179.53
777.539	23053.66
777.874	23084.39
778.209	22948.35
778.543	22885.08
778.878	22769.15
779.212	22776.38
779.547	22603.95
779.881	22645.53
780.215	22414.58
780.55	22505.88
780.884	22429.27
781.218	22349.27
781.552	22275.15
781.886	22146.11
782.22	22027.92
782.554	22017.75
782.888	21827.93
783.222	21686.92
783.556	21637.2
783.889	21660.48
784.223	21393.14
784.557	21393.82
784.89	21493.7
785.224	21380.71
785.557	21215.97
785.891	21136.65
786.224	21060.49
786.558	21107.95
786.891	20836.54
787.224	20800.16
787.557	20748.18
787.891	20661.18
788.224	20706.15
788.557	20608.98
788.89	20499.15
789.223	20520.39
789.556	20347.06
789.888	20340.51
790.221	20264.35
790.554	20060.29
790.887	20145.49
791.219	19975.32
791.552	20046.51
791.884	19881.77
792.217	19847.64
792.549	19785.5
792.882	19711.83
793.214	19599.51
793.546	19523.36
793.879	19404.26
794.211	19256.02
794.543	19425.96
794.875	19263.25
795.207	19327.43
795.539	19136.7
795.871	19179.18
796.203	18970.6
796.535	18936.48
796.867	18889.7
797.198	18770.16
797.53	18891.51
797.862	18668.69
798.193	18708.46
798.525	18642.93
798.856	18605.41
799.188	18424.18
799.519	18387.57
799.85	18237.97
800.182	18244.52
800.513	18239.1
800.844	18184.86
801.175	18213.56
801.506	18113
801.837	17976.28
802.168	17992.78
802.499	17984.19
802.83	17928.14
803.161	17764.98
803.491	17819.45
803.822	17849.05
804.153	17634.59
804.483	17455.16
804.814	17572.67
805.145	17516.86
805.475	17452.9
805.805	17358.67
806.136	17302.17
806.466	17392.11
806.796	17350.08
807.126	17163.87
807.457	17157.77
807.787	17190.76
808.117	17074.61
808.447	16957.1
808.777	17069.41
809.107	16928.17
809.436	16834.61
809.766	16931.11
810.096	16753.71
810.426	16748.97
810.755	16728.85
811.085	16585.35
811.414	16580.61
811.744	16440.73
812.073	16503.78
812.403	16465.36
812.732	16466.94
813.061	16384.46
813.39	16353.95
813.719	16220.39
814.049	16307.85
814.378	16223.33
814.707	16087.51
815.036	16061.3
815.365	16052.26
815.693	15874.87
816.022	15951.47
816.351	15845.94
816.68	15874.87
817.008	15926.84
817.337	15694.53
817.665	15581.31
817.994	15663.57
818.322	15619.28
818.651	15690.24
818.979	15567.75
819.307	15570.47
819.636	15510.58
819.964	15399.4
820.292	15511.48
820.62	15492.73
820.948	15374.77
821.276	15509
821.604	15487.53
821.932	15520.52
822.259	15425.84
822.587	15403.24
822.915	15460.19
823.243	15459.96
823.57	15374.77
823.898	15416.12
824.225	15293.86
824.553	15289.12
824.88	15316.01
825.207	15466.51
825.535	15392.39
825.862	15436.91
826.189	15285.05
826.516	15339.29
826.843	15401.88
827.17	15382
827.497	15382.45
827.824	15294.77
828.151	15364.37
828.478	15300.64
828.805	15436.23
829.131	15333.18
829.458	15330.25
829.785	15283.02
830.111	15265.84
830.438	15374.77
830.764	15368.21
831.09	15306.07
831.417	15170.48
831.743	15261.32
832.069	15320.53
832.395	15177.93
832.722	15208.89
833.048	15211.61
833.374	15200.76
833.7	15134.77
834.026	15103.13
834.351	15342.68
834.677	15076.02
835.003	15165.28
835.329	15125.51
835.654	15053.64
835.98	15073.98
836.306	15015.68
836.631	15015.9
836.956	15002.12
837.282	15045.06
837.607	14868.56
837.932	14981.56
838.258	14968.67
838.583	14936.13
838.908	14855.91
839.233	14819.07
839.558	14808.9
839.883	14749.02
840.208	14678.06
840.533	14664.73
840.858	14783.37
841.182	14655.01
841.507	14622.47
841.832	14501.79
842.156	14526.43
842.481	14542.24
842.805	14486.65
843.13	14503.6
843.454	14408.69
843.778	14395.81
844.103	14307.9
844.427	14391.51
844.751	14390.16
845.075	14263.38
845.399	14227
845.723	14089.38
846.047	14184.51
846.371	14070.17
846.695	14065.87
847.019	13918.53
847.343	13869.95
847.666	13838.31
847.99	13767.35
848.313	13746.56
848.637	13622.49
848.96	13662.04
849.284	13617.07
849.607	13509.5
849.931	13524.87
850.254	13353.58
850.577	13277.19
850.9	13270.19
851.223	13271.54
851.546	13187.48
851.869	13084.66
852.192	13187.7
852.515	13039.23
852.838	12949.97
853.161	12944.09
853.483	12853.48
853.806	12806.92
854.129	12817.54
854.451	12735.06
854.774	12631.33
855.096	12652.58
855.419	12678.11
855.741	12651.67
856.063	12550.21
856.385	12505.69
856.708	12510.89
857.03	12490.77
857.352	12475.18
857.674	12411.91
857.996	12280.16
858.318	12275.64
858.64	12229.99
858.961	12234.96
859.283	12190.22
859.605	12110.9
859.926	12137.56
860.248	12157
860.57	12037.68
860.891	12065.02
861.212	11909.77
861.534	11939.15
861.855	11903.67
862.176	11903.44
862.498	11868.64
862.819	11958.58
863.14	11802.88
863.461	11776.67
863.782	11750.91
864.103	11729.66
864.424	11749.55
864.745	11764.69
865.065	11706.39
865.386	11594.53
865.707	11607.63
866.027	11627.75
866.348	11602.44
866.668	11556.11
866.989	11572.83
867.309	11490.12
867.63	11556.79
867.95	11543.45
868.27	11438.37
868.59	11449.67
868.91	11421.65
869.23	11450.57
869.55	11312.73
869.87	11419.61
870.19	11434.08
870.51	11434.08
870.83	11425.94
871.15	11296
871.469	11238.15
871.789	11359.05
872.109	11227.53
872.428	11221.88
872.748	11229.34
873.067	11185.27
873.386	11293.06
873.706	11159.96
874.025	11112.28
874.344	11070.25
874.663	11144.37
874.982	11143.24
875.301	11092.84
875.62	11057.36
875.939	11030.02
876.258	11038.38
876.577	10974.65
876.896	11037.25
877.214	10995.22
877.533	10978.5
877.852	10945.73
878.17	10963.58
878.489	10904.83
878.807	10804.26
879.125	10895.79
879.444	10871.15
879.762	10821.89
880.08	10762.46
880.398	10779.63
880.716	10781.44
881.034	10688.79
881.352	10691.72
881.67	10704.15
881.988	10632.29
882.306	10586.87
882.624	10627.32
882.941	10555
883.259	10489.92
883.577	10528.11
883.894	10522.69
884.212	10498.51
884.529	10548.23
884.846	10487.21
885.164	10381.68
885.481	10411.51
885.798	10363.15
886.115	10368.57
886.432	10335.8
886.75	10261
887.067	10273.66
887.383	10209.7
887.7	10223.71
888.017	10218.52
888.334	10225.97
888.651	10196.37
888.967	10160.67
889.284	10110.5
889.6	10068.92
889.917	10019.2
890.233	10033.44
890.55	9901.91
890.866	9966.09
891.182	9961.8
891.498	9877.06
891.815	9805.65
892.131	9824.18
892.447	9789.38
892.763	9780.79
893.079	9779.21
893.395	9703.05
893.71	9674.35
894.026	9697.4
894.342	9642.71
894.657	9557.97
894.973	9597.97
895.289	9580.79
895.604	9540.79
895.92	9473.23
896.235	9438.65
896.55	9412.21
896.865	9367.01
897.181	9354.13
897.496	9344.64
897.811	9299.44
898.126	9248.37
898.441	9268.49
898.756	9194.36
899.071	9154.82
899.386	9204.31
899.7	9112.56
900.015	9016.97
900.33	8999.57
900.644	8954.14
900.959	9012.22
901.273	8898.1
901.588	8810.42
901.902	8840.02
902.216	8857.65
902.531	8796.63
902.845	8748.72
903.159	8725.45
903.473	8681.16
903.787	8641.61
904.101	8531.33
904.415	8639.58
904.729	8600.71
905.042	8502.4
905.356	8526.13
905.67	8479.58
905.984	8483.42
906.297	8406.13
906.611	8410.2
906.924	8416.53
907.237	8315.74
907.551	8294.73
907.864	8281.62
908.177	8251.34
908.491	8201.39
908.804	8175.18
909.117	8136.99
909.43	8109.42
909.743	8070.78
910.056	8066.93
910.368	7974.73
910.681	7972.25
910.994	7982.42
911.307	7910.33
911.619	7790.78
911.932	7888.63
912.244	7816.32
912.557	7820.84
912.869	7725.93
913.181	7761.41
913.494	7724.34
913.806	7641.86
914.118	7616.1
914.43	7534.97
914.742	7575.65
915.054	7494.29
915.366	7515.08
915.678	7435.99
915.99	7427.63
916.302	7336.11
916.613	7322.77
916.925	7389.21
917.236	7318.71
917.548	7275.32
917.859	7245.94
918.171	7251.14
918.482	7179.73
918.794	7139.5
919.105	7151.48
919.416	7056.34
919.727	7073.29
920.038	7036.45
920.349	6968.66
920.66	6991.93
920.971	6982.22
921.282	6930.92
921.593	6833.52
921.903	6876.01
922.214	6845.05
922.525	6822
922.835	6742.68
923.146	6730.7
923.456	6695.22
923.767	6667.88
924.077	6651.38
924.387	6614.09
924.697	6585.17
925.008	6636.01
925.318	6551.49
925.628	6579.97
925.938	6472.85
926.248	6406.19
926.558	6368.45
926.867	6424.94
927.177	6394.89
927.487	6330.26
927.796	6296.36
928.106	6317.38
928.416	6267.66
928.725	6267.89
929.034	6183.82
929.344	6217.04
929.653	6179.3
929.962	6178.4
930.271	6062.02
930.581	6070.6
930.89	6081.9
931.199	5987.89
931.508	6011.62
931.817	5982.24
932.125	5967.1
932.434	5901.57
932.743	5932.53
933.051	5877.16
933.36	5872.42
933.669	5813.66
933.977	5777.5
934.286	5740.67
934.594	5813.89
934.902	5682.82
935.21	5726.66
935.519	5712.87
935.827	5663.83
936.135	5570.5
936.443	5597.62
936.751	5581.35
937.059	5609.82
937.367	5559.88
937.674	5516.95
937.982	5498.64
938.29	5449.15
938.597	5498.41
938.905	5364.41
939.213	5384.97
939.52	5339.1
939.827	5390.62
940.135	5305.43
940.442	5291.19
940.749	5260.68
941.056	5272.88
941.363	5205.99
941.67	5190.63
941.977	5173.23
942.284	5126
942.591	5147.46
942.898	5089.39
943.205	5079.67
943.511	5089.84
943.818	5106.79
944.125	5026.11
944.431	5031.08
944.738	5033.57
945.044	4980.69
945.35	4927.81
945.657	4920.58
945.963	4863.63
946.269	4810.52
946.575	4840.58
946.881	4836.06
947.187	4836.51
947.493	4825.44
947.799	4767.81
948.105	4781.15
948.41	4769.17
948.716	4746.8
949.022	4689.62
949.327	4735.95
949.633	4632.45
949.938	4597.65
950.244	4632.45
950.549	4586.8
950.854	4587.25
951.16	4570.76
951.465	4530.53
951.77	4528.95
952.075	4487.37
952.38	4512.45
952.685	4470.87
952.99	4421.83
953.294	4421.61
953.599	4370.53
953.904	4351.78
954.209	4358.11
954.513	4343.42
954.818	4336.41
955.122	4311.1
955.426	4279.92
955.731	4262.29
956.035	4241.05
956.339	4212.35
956.643	4231.1
956.948	4217.32
957.252	4216.41
957.556	4192.91
957.86	4102.29
958.163	4161.95
958.467	4134.16
958.771	4110.88
959.075	4068.17
959.378	4045.35
959.682	4081.28
959.985	4020.71
960.289	3994.95
960.592	3991.34
960.896	3942.3
961.199	3972.35
961.502	3919.47
961.805	3944.78
962.108	3865.46
962.411	3907.27
962.714	3861.17
963.017	3813.49
963.32	3860.72
963.623	3869.53
963.926	3819.14
964.228	3754.73
964.531	3761.96
964.833	3765.58
965.136	3679.48
965.438	3711.57
965.741	3688.29
966.043	3690.55
966.345	3678.35
966.648	3634.28
966.95	3646.26
967.252	3626.15
967.554	3569.88
967.856	3599.03
968.158	3573.27
968.46	3583.89
968.761	3522.42
969.063	3499.15
969.365	3479.71
969.666	3513.61
969.968	3468.86
970.269	3472.71
970.571	3440.62
970.872	3415.31
971.174	3404.68
971.475	3376.44
971.776	3381.41
972.077	3343.9
972.378	3378.92
972.679	3347.06
972.98	3330.79
973.281	3310.45
973.582	3302.54
973.883	3294.63
974.183	3272.03
974.484	3253.95
974.785	3225.71
975.085	3218.47
975.386	3245.82
975.686	3216.21
975.986	3172.6
976.287	3176.67
976.587	3143.9
976.887	3161.75
977.187	3167.63
977.487	3129.21
977.787	3122.43
978.087	3108.65
978.387	3058.93
978.687	3103
978.987	3064.13
979.286	3021.87
979.586	3044.02
979.885	3021.64
980.185	2980.97
980.484	2973.96
980.784	2969.44
981.083	2969.67
981.382	2944.36
981.682	2959.72
981.981	2886.73
982.28	2902.55
982.579	2910.91
982.878	2864.59
983.177	2857.35
983.475	2846.06
983.774	2820.75
984.073	2839.05
984.372	2824.36
984.67	2801.08
984.969	2775.77
985.267	2791.37
985.566	2748.2
985.864	2741.65
986.162	2753.63
986.461	2743.46
986.759	2673.63
987.057	2686.96
987.355	2698.04
987.653	2692.39
987.951	2656
988.249	2656
988.547	2649.68
988.844	2655.1
989.142	2642.67
989.44	2580.75
989.737	2580.75
990.035	2563.8
990.332	2569.9
990.63	2533.97
990.927	2554.09
991.224	2525.39
991.521	2494.43
991.819	2525.61
992.116	2489
992.413	2479.29
992.71	2491.94
993.006	2454.43
993.303	2467.53
993.6	2459.85
993.897	2404.26
994.193	2421.43
994.49	2413.75
994.787	2390.02
995.083	2365.84
995.379	2385.5
995.676	2342.79
995.972	2369.91
996.268	2353.19
996.565	2305.73
996.861	2316.35
997.157	2306.18
997.453	2312.06
997.749	2299.85
998.044	2276.8
998.34	2258.95
998.636	2235.68
998.932	2216.69
999.227	2218.5
999.523	2212.63
999.818	2200.65
1000.114	2235.9
1000.409	2159.52
1000.704	2119.29
1001	2178.95
1001.295	2130.37
1001.59	2113.42
1001.885	2124.04
1002.18	2132.63
1002.475	2090.82
1002.77	2091.05
1003.065	2082.69
1003.359	2029.13
1003.654	2046.53
1003.949	2060.09
1004.243	2032.29
1004.538	2004.5
1004.832	1985.74
1005.127	2025.29
1005.421	1999.07
1005.715	1962.24
1006.009	1959.3
1006.304	1928.34
1006.598	1946.42
1006.892	1922.92
1007.186	1919.53
1007.48	1925.85
1007.773	1902.58
1008.067	1868.91
1008.361	1878.17
1008.655	1891.5
1008.948	1883.82
1009.242	1851.28
1009.535	1836.59
1009.829	1846.53
1010.122	1821.22
1010.415	1801.11
1010.708	1773.09
1011.001	1788.46
1011.295	1798.17
1011.588	1755.69
1011.881	1756.82
1012.173	1729.7
1012.466	1727.44
1012.759	1723.6
1013.052	1744.16
1013.344	1702.81
1013.637	1653.54
1013.93	1675.69
1014.222	1665.52
1014.514	1689.93
1014.807	1665.3
1015.099	1625.97
1015.391	1655.13
1015.683	1610.61
1015.976	1584.85
1016.268	1606.99
1016.56	1601.12
1016.851	1579.87
1017.143	1575.81
1017.435	1578.52
1017.727	1545.52
1018.018	1535.13
1018.31	1553.43
1018.602	1530.61
1018.893	1496.71
1019.185	1500.33
1019.476	1495.58
1019.767	1484.51
1020.058	1491.51
1020.35	1470.05
1020.641	1443.83
1020.932	1460.55
1021.223	1449.93
1021.514	1449.71
1021.804	1399.77
1022.095	1415.13
1022.386	1387.56
1022.677	1391.4
1022.967	1403.38
1023.258	1369.48
1023.548	1373.1
1023.839	1366.32
1024.129	1349.15
1024.419	1329.26
1024.709	1340.78
1025	1346.43
1025.29	1307.11
1025.58	1285.19
1025.87	1302.82
1026.16	1339.65
1026.449	1291.52
1026.739	1263.95
1027.029	1270.5
1027.319	1263.95
1027.608	1254.91
1027.898	1230.73
1028.187	1231.86
1028.477	1200.45
1028.766	1211.07
1029.055	1216.95
1029.344	1204.52
1029.634	1204.52
1029.923	1184.4
1030.212	1216.72
1030.501	1168.81
1030.79	1168.36
1031.078	1165.87
1031.367	1139.43
1031.656	1129.94
1031.945	1145.76
1032.233	1118.42
1032.522	1148.92
1032.81	1136.27
1033.099	1085.65
1033.387	1078.87
1033.675	1089.27
1033.963	1082.03
1034.251	1095.14
1034.54	1047.23
1034.828	1059.66
1035.116	1059.66
1035.403	1062.15
1035.691	1041.36
1035.979	1028.48
1036.267	1037.74
1036.554	1022.83
1036.842	1008.82
1037.129	987.35
1037.417	986.44
1037.704	1016.05
1037.992	990.74
1038.279	954.81
1038.566	985.54
1038.853	985.54
1039.14	985.54
