Data from hue_270_FLMS001491_00092.txt Node
Date: Tue Feb 07 15:57:56 GMT 2017
User: dcchb
Spectrometer: FLMS00149
Trigger mode: 0
Integration Time (sec): 2.000000E-2
Scans to average: 10
Electric dark correction enabled: true
Nonlinearity correction enabled: false
Boxcar width: 0
XAxis mode: Wavelengths
Number of Pixels in Spectrum: 2048
>>>>>Begin Spectral Data<<<<<
341.393	-11.89
341.776	-11.89
342.16	-11.89
342.543	-56.64
342.927	-74.26
343.31	-57.31
343.693	-77.2
344.077	-77.43
344.46	-55.73
344.843	-43.98
345.226	-51.21
345.61	-26.58
345.993	-25.68
346.376	-2.85
346.759	-0.59
347.142	33.76
347.525	55.68
347.908	67.2
348.291	90.93
348.674	76.92
349.057	94.09
349.44	111.49
349.823	116.24
350.206	157.37
350.588	208.67
350.971	209.8
351.354	200.31
351.737	207.99
352.119	262.45
352.502	263.58
352.884	275.11
353.267	266.07
353.65	288.44
354.032	289.57
354.414	288.66
354.797	281.66
355.179	302.22
355.562	300.87
355.944	311.26
356.326	317.82
356.709	333.86
357.091	325.05
357.473	320.75
357.855	342.9
358.238	330.92
358.62	331.83
359.002	328.21
359.384	345.39
359.766	351.26
360.148	318.49
360.53	330.25
360.912	325.05
361.294	328.44
361.676	322.79
362.057	337.7
362.439	330.02
362.821	329.57
363.203	313.3
363.584	311.04
363.966	325.05
364.348	330.25
364.729	317.14
365.111	305.61
365.493	309
365.874	294.99
366.256	333.18
366.637	295.22
367.019	311.71
367.4	305.39
367.781	292.51
368.163	312.84
368.544	296.35
368.925	293.18
369.306	310.59
369.688	293.41
370.069	310.36
370.45	294.77
370.831	319.4
371.212	306.97
371.593	312.84
371.974	307.87
372.355	300.64
372.736	317.14
373.117	310.36
373.498	326.4
373.879	310.13
374.26	307.87
374.641	297.48
375.021	314.43
375.402	311.94
375.783	324.37
376.163	311.49
376.544	310.36
376.925	311.49
377.305	322.11
377.686	329.12
378.066	337.03
378.447	301.09
378.827	332.28
379.208	336.57
379.588	316.23
379.968	311.94
380.349	320.3
380.729	330.47
381.109	342.45
381.489	337.48
381.87	357.14
382.25	346.06
382.63	318.04
383.01	330.02
383.39	330.25
383.77	342.22
384.15	346.52
384.53	326.18
384.91	374.99
385.29	329.79
385.67	365.95
386.049	328.89
386.429	328.44
386.809	353.75
387.189	344.03
387.568	345.84
387.948	358.27
388.328	357.14
388.707	338.15
389.087	351.04
389.466	362.34
389.846	363.01
390.225	368.89
390.605	376.12
390.984	368.89
391.363	369.79
391.743	375.67
392.122	391.26
392.501	374.09
392.881	366.18
393.26	388.55
393.639	356.23
394.018	369.34
394.397	388.78
394.776	372.05
395.155	383.35
395.534	393.97
395.913	397.14
396.292	418.15
396.671	392.84
397.05	403.69
397.429	404.14
397.808	392.16
398.186	406.85
398.565	384.03
398.944	408.44
399.323	410.47
399.701	415.44
400.08	417.7
400.458	419.73
400.837	418.38
401.215	438.94
401.594	423.58
401.972	425.61
402.351	429.45
402.729	430.13
403.107	427.64
403.486	429.9
403.864	432.84
404.242	416.12
404.62	450.69
404.999	463.12
405.377	465.84
405.755	450.69
406.133	477.13
406.511	461.99
406.889	476.23
407.267	464.71
407.645	470.13
408.023	483.91
408.401	497.92
408.779	491.15
409.156	498.38
409.534	496.79
409.912	492.05
410.29	510.81
410.667	516.68
411.045	521.43
411.422	515.55
411.8	523.91
412.178	560.52
412.555	552.61
412.933	557.36
413.31	550.58
413.687	572.27
414.065	579.05
414.442	589
414.819	587.87
415.197	605.04
415.574	601.42
415.951	608.88
416.328	620.63
416.705	619.05
417.082	621.76
417.46	631.93
417.837	633.97
418.214	642.33
418.591	661.99
418.967	665.83
419.344	656.34
419.721	680.97
420.098	659.5
420.475	669.22
420.852	682.55
421.228	719.61
421.605	732.27
421.982	717.13
422.358	728.2
422.735	733.62
423.111	760.06
423.488	774.98
423.864	796.67
424.241	769.1
424.617	778.6
424.994	803.23
425.37	812.94
425.746	813.62
426.123	842.55
426.499	867.18
426.875	853.17
427.251	874.86
427.627	898.59
428.003	875.54
428.379	894.98
428.756	911.02
429.132	894.75
429.507	945.14
429.883	930.91
430.259	965.26
430.635	951.47
431.011	970.91
431.387	975.88
431.763	996.89
432.138	1005.93
432.514	1025.14
432.89	1024.24
433.265	1038.48
433.641	1064.46
434.016	1071.47
434.392	1107.4
434.767	1122.32
435.143	1123.9
435.518	1147.85
435.894	1148.76
436.269	1176.78
436.644	1205.25
437.02	1214.29
437.395	1218.81
437.77	1245.25
438.145	1246.61
438.52	1279.15
438.895	1267.85
439.271	1275.76
439.646	1321.41
440.021	1341.74
440.395	1334.96
440.77	1321.18
441.145	1363.44
441.52	1397.56
441.895	1412.48
442.27	1401.86
442.645	1419.93
443.019	1446.37
443.394	1449.54
443.769	1471.91
444.143	1451.12
444.518	1478.01
444.892	1483.44
445.267	1469.42
445.641	1530.89
446.016	1492.25
446.39	1548.74
446.764	1540.16
447.139	1546.26
447.513	1575.86
447.887	1533.38
448.262	1589.87
448.636	1566.6
449.01	1600.27
449.384	1619.93
449.758	1624.22
450.132	1659.25
450.506	1624.45
450.88	1612.92
451.254	1632.58
451.628	1678.01
452.002	1670.1
452.376	1693.83
452.75	1718.91
453.123	1718.23
453.497	1736.31
453.871	1752.81
454.244	1762.98
454.618	1792.35
454.992	1819.47
455.365	1792.81
455.739	1846.36
456.112	1849.98
456.486	1874.16
456.859	1896.76
457.232	1910.99
457.606	1914.38
457.979	1923.88
458.352	1963.65
458.725	2000.94
459.099	1987.83
459.472	2016.3
459.845	2054.95
460.218	2052.69
460.591	2065.34
460.964	2067.6
461.337	2170.65
461.71	2150.54
462.083	2155.51
462.456	2183.98
462.829	2168.62
463.201	2215.39
463.574	2208.39
463.947	2267.82
464.32	2315.73
464.692	2297.43
465.065	2320.25
465.438	2335.84
465.81	2367.93
466.183	2397.76
466.555	2442.73
466.928	2447.25
467.3	2464.88
467.672	2479.79
468.045	2530.87
468.417	2506.91
468.789	2546.23
469.161	2558.21
469.534	2607.93
469.906	2661.94
470.278	2687.25
470.65	2691.31
471.022	2757.98
471.394	2810.63
471.766	2832.1
472.138	2822.38
472.51	2859.67
472.882	2891.31
473.253	2939.22
473.625	2972.44
473.997	3033.23
474.369	3036.62
474.74	3038.42
475.112	3117.97
475.484	3149.15
475.855	3209.04
476.227	3213.56
476.598	3298.98
476.97	3275.93
477.341	3323.61
477.713	3375.14
478.084	3424.18
478.455	3500.33
478.827	3491.74
479.198	3573.1
479.569	3595.92
479.94	3666.66
480.311	3717.28
480.682	3724.96
481.053	3820.1
481.424	3829.81
481.795	3876.82
482.166	3899.64
482.537	3983.93
482.908	4060.99
483.279	4124.95
483.65	4135.57
484.021	4186.87
484.391	4224.83
484.762	4272.74
485.133	4285.62
485.503	4335.11
485.874	4413.75
486.244	4409.91
486.615	4520.19
486.985	4542.79
487.356	4614.88
487.726	4641.09
488.097	4708.66
488.467	4767.42
488.837	4803.8
489.207	4857.13
489.578	4895.78
489.948	4978.94
490.318	4955.43
490.688	4982.1
491.058	5103.45
491.428	5078.6
491.798	5130.12
492.168	5225.48
492.538	5254.18
492.908	5273.84
493.278	5341.19
493.648	5370.79
494.017	5391.58
494.387	5479.71
494.757	5482.2
495.126	5540.05
495.496	5528.3
495.866	5522.43
496.235	5597.23
496.605	5652.59
496.974	5660.5
497.344	5715.41
497.713	5723.32
498.082	5755.19
498.452	5801.74
498.821	5840.84
499.19	5792.7
499.559	5912.02
499.928	5890.33
500.298	5872.02
500.667	5979.36
501.036	5977.78
501.405	6028.85
501.774	5956.99
502.143	6035.86
502.512	6050.32
502.88	6145.69
503.249	6083.77
503.618	6163.31
503.987	6134.61
504.356	6153.37
504.724	6161.28
505.093	6213.03
505.462	6218.9
505.83	6206.25
506.199	6311.11
506.567	6340.26
506.936	6316.3
507.304	6382.29
507.672	6388.62
508.041	6372.12
508.409	6445.79
508.777	6550.42
509.145	6495.96
509.514	6456.41
509.882	6540.7
510.25	6488.73
510.618	6572.34
510.986	6517.2
511.354	6610.98
511.722	6634.94
512.09	6704.32
512.458	6646.69
512.826	6636.97
513.193	6651.44
513.561	6733.92
513.929	6787.93
514.297	6724.43
514.664	6784.77
515.032	6837.65
515.4	6875.16
515.767	6822.96
516.135	6837.19
516.502	6783.41
516.869	6853.24
517.237	6882.62
517.604	6812.79
517.972	6903.63
518.339	6901.15
518.706	6937.53
519.073	6894.82
519.44	6967.36
519.808	6994.93
520.175	6944.08
520.542	7019.56
520.909	7060.92
521.276	6971.2
521.643	7046.68
522.009	7062.05
522.376	7093.01
522.743	7124.19
523.11	7191.76
523.477	7209.61
523.843	7238.99
524.21	7250.06
524.577	7294.36
524.943	7277.63
525.31	7285.09
525.676	7361.7
526.043	7354.24
526.409	7363.96
526.776	7456.61
527.142	7411.64
527.508	7449.61
527.874	7448.48
528.241	7446.22
528.607	7482.15
528.973	7570.51
529.339	7506.78
529.705	7598.08
530.071	7660.67
530.437	7615.03
530.803	7669.26
531.169	7699.32
531.535	7652.31
531.901	7688.47
532.267	7717.85
532.632	7716.27
532.998	7779.09
533.364	7780.45
533.73	7713.78
534.095	7802.59
534.461	7867.22
534.826	7769.37
535.192	7787
535.557	7892.98
535.923	7786.55
536.288	7900.67
536.653	7889.14
537.019	7865.19
537.384	7894.57
537.749	7864.06
538.114	7853.66
538.479	7909.71
538.845	7909.71
539.21	7884.4
539.575	7956.26
539.94	7920.1
540.305	7942.02
540.67	7923.27
541.034	7937.28
541.399	7980.67
541.764	7965.3
542.129	7975.47
542.494	8001.68
542.858	7993.09
543.223	7960.33
543.587	8008.91
543.952	8032.87
544.316	7999.2
544.681	8026.77
545.045	8068.12
545.41	8053.88
545.774	8063.38
546.138	8066.54
546.503	8095.47
546.867	8077.16
547.231	8034.68
547.595	8161.23
547.959	8150.83
548.324	8078.74
548.688	8158.97
549.052	8139.53
549.416	8149.7
549.779	8168.46
550.143	8113.54
550.507	8114.45
550.871	8224.73
551.235	8116.26
551.599	8253.43
551.962	8208.68
552.326	8212.3
552.689	8258.17
553.053	8173.43
553.417	8175.69
553.78	8271.96
554.143	8255.91
554.507	8212.3
554.87	8243.26
555.234	8350.83
555.597	8288.45
555.96	8343.82
556.323	8297.04
556.686	8320.32
557.05	8346.53
557.413	8360.09
557.776	8395.8
558.139	8439.86
558.502	8396.7
558.865	8434.44
559.228	8497.04
559.59	8490.03
559.953	8532.97
560.316	8515.79
560.679	8584.49
561.041	8540.88
561.404	8631.27
561.767	8662.23
562.129	8646.86
562.492	8690.03
562.854	8704.71
563.217	8704.94
563.579	8838.5
563.941	8758.95
564.304	8812.96
564.666	8872.85
565.028	8810.7
565.39	8844.82
565.753	8866.74
566.115	8969.57
566.477	8968.89
566.839	9000.3
567.201	9062.67
567.563	9036.91
567.925	9132.5
568.287	9144.03
568.648	9144.25
569.01	9170.69
569.372	9181.54
569.734	9233.74
570.095	9256.56
570.457	9236
570.819	9283.46
571.18	9339.73
571.542	9390.35
571.903	9400.52
572.265	9447.07
572.626	9451.14
572.987	9467.63
573.349	9485.26
573.71	9487.52
574.071	9556.22
574.432	9586.05
574.794	9654.75
575.155	9651.36
575.516	9620.85
575.877	9736.55
576.238	9765.25
576.599	9755.99
576.96	9734.29
577.32	9747.17
577.681	9830.79
578.042	9806.83
578.403	9836.44
578.763	9880.95
579.124	9928.41
579.485	9963.89
579.845	10003.44
580.206	9989.65
580.566	10028.52
580.927	10007.73
581.287	10149.2
581.648	10106.26
582.008	10144.9
582.368	10199.59
582.728	10138.58
583.089	10198.46
583.449	10307.16
583.809	10290.44
584.169	10352.35
584.529	10355.52
584.889	10382.18
585.249	10395.29
585.609	10414.95
585.969	10429.42
586.329	10415.86
586.688	10531.79
587.048	10433.26
587.408	10508.28
587.768	10593.25
588.127	10529.3
588.487	10571.56
588.846	10673.48
589.206	10564.78
589.565	10644.78
589.925	10631.9
590.284	10721.38
590.643	10739.92
591.003	10803.64
591.362	10790.31
591.721	10866.24
592.08	10884.09
592.44	10843.64
592.799	10892
593.158	10894.71
593.517	10874.15
593.876	10942.4
594.235	10920.25
594.593	10955.05
594.952	11011.55
595.311	11025.11
595.67	11069.62
596.029	11141.26
596.387	11131.54
596.746	11197.3
597.104	11134.93
597.463	11129.74
597.822	11147.81
598.18	11124.99
598.538	11129.06
598.897	11291.99
599.255	11118.66
599.613	11212.22
599.972	11213.8
600.33	11261.71
600.688	11237.3
601.046	11261.48
601.404	11299.45
601.762	11322.5
602.12	11361.82
602.478	11366.57
602.836	11325.44
603.194	11266.68
603.552	11341.03
603.91	11274.36
604.268	11393.46
604.625	11333.8
604.983	11405.43
605.341	11326.79
605.698	11389.39
606.056	11499.9
606.413	11383.97
606.771	11536.05
607.128	11462.38
607.485	11481.82
607.843	11486.79
608.2	11533.11
608.557	11625.77
608.914	11500.12
609.272	11590.51
609.629	11611.76
609.986	11634.58
610.343	11616.73
610.7	11673.68
611.057	11634.36
611.414	11570.63
611.771	11645.88
612.127	11651.98
612.484	11683.85
612.841	11725.43
613.198	11701.25
613.554	11723.17
613.911	11818.98
614.267	11759.55
614.624	11676.39
614.98	11761.58
615.337	11734.24
615.693	11872.31
616.05	11837.74
616.406	11856.27
616.762	11802.94
617.118	11841.13
617.475	11839.32
617.831	11891.98
618.187	11950.05
618.543	11856.04
618.899	11959.32
619.255	11945.53
619.611	11954.8
619.967	11945.99
620.323	11947.12
620.678	11988.47
621.034	12008.36
621.39	11891.3
621.746	11941.47
622.101	11964.97
622.457	11865.31
622.812	12016.49
623.168	11917.51
623.523	11995.48
623.879	12070.5
624.234	11970.84
624.589	11925.87
624.945	11924.52
625.3	11987.34
625.655	12059.43
626.01	12065.76
626.365	11969.94
626.72	11904.4
627.075	11913.9
627.43	11872.09
627.785	11927.68
628.14	11886.55
628.495	11982.37
628.85	11952.76
629.205	11877.96
629.559	11984.85
629.914	11807.23
630.269	11862.15
630.623	11883.16
630.978	11878.64
631.332	11841.58
631.687	11859.89
632.041	11817.63
632.396	11819.89
632.75	11781.47
633.104	11854.91
633.459	11759.55
633.813	11718.87
634.167	11724.75
634.521	11760.68
634.875	11762.49
635.229	11795.71
635.583	11661.47
635.937	11713.45
636.291	11666.67
636.645	11674.13
636.999	11654.47
637.352	11692.66
637.706	11630.97
638.06	11634.58
638.413	11595.71
638.767	11515.26
639.121	11619.89
639.474	11537.18
639.828	11536.96
640.181	11506.22
640.534	11568.82
640.888	11523.62
641.241	11491.08
641.594	11521.36
641.947	11498.99
642.301	11447.69
642.654	11578.31
643.007	11440.24
643.36	11469.39
643.713	11367.24
644.066	11497.86
644.419	11437.52
644.771	11362.72
645.124	11240.69
645.477	11301.71
645.83	11225.1
646.182	11179.23
646.535	11100.36
646.888	11074.82
647.24	11138.55
647.593	11076.4
647.945	11029.17
648.298	10996.41
648.65	10945.56
649.002	10989.4
649.355	11005.9
649.707	10924.32
650.059	11052
650.411	11137.87
650.763	11183.52
651.115	11274.82
651.467	11289.28
651.819	11303.97
652.171	11239.34
652.523	11310.52
652.875	11268.04
653.227	11208.15
653.578	11374.47
653.93	11302.84
654.282	11261.03
654.633	11229.39
654.985	11314.59
655.337	11229.62
655.688	11235.04
656.039	11275.49
656.391	11150.3
656.742	11189.4
657.094	11251.31
657.445	11291.99
657.796	11252.9
658.147	11328.15
658.498	11210.86
658.849	11327.24
659.2	11271.65
659.551	11241.6
659.902	11276.4
660.253	11205.67
660.604	11271.88
660.955	11164.54
661.306	11247.02
661.656	11232.33
662.007	11249.96
662.358	11290.18
662.708	11238.21
663.059	11274.14
663.409	11218.09
663.76	11309.84
664.11	11339.22
664.461	11257.64
664.811	11301.71
665.161	11284.08
665.511	11240.69
665.862	11392.78
666.212	11242.05
666.562	11316.17
666.912	11239.11
667.262	11180.81
667.612	11224.42
667.962	11223.29
668.312	11141.94
668.662	11281.82
669.011	11244.76
669.361	11207.7
669.711	11234.14
670.06	11239.34
670.41	11209.28
670.76	11159.34
671.109	11190.52
671.459	11178.77
671.808	11208.38
672.157	11184.2
672.507	11147.81
672.856	11166.34
673.205	11196.4
673.554	11137.19
673.904	11144.2
674.253	11249.51
674.602	11124.76
674.951	11053.13
675.3	10936.75
675.649	11083.18
675.998	11125.22
676.346	11057.87
676.695	11007.93
677.044	11005.67
677.393	11041.38
677.741	11082.73
678.09	11037.31
678.438	11019.23
678.787	10973.81
679.135	11013.81
679.484	10890.42
679.832	10970.19
680.181	10912.11
680.529	10892
680.877	10822.85
681.225	10953.24
681.573	10913.24
681.922	10853.81
682.27	10871.89
682.618	10877.31
682.966	10785.79
683.314	10834.6
683.661	10755.28
684.009	10745.11
684.357	10700.59
684.705	10701.95
685.053	10637.32
685.4	10622.4
685.748	10620.37
686.095	10578.79
686.443	10623.99
686.79	10545.34
687.138	10586.02
687.485	10590.54
687.832	10520.03
688.18	10531.11
688.527	10431.9
688.874	10418.79
689.221	10369.98
689.568	10356.65
689.915	10372.24
690.262	10322.3
690.609	10264.9
690.956	10243.66
691.303	10291.34
691.65	10166.15
691.997	10228.29
692.344	10103.32
692.69	10114.85
693.037	10089.31
693.383	10062.42
693.73	10099.03
694.077	9997.34
694.423	9974.51
694.769	9990.78
695.116	9858.36
695.462	9849.32
695.808	9871.69
696.155	9850.22
696.501	9677.57
696.847	9738.36
697.193	9671.02
697.539	9729.55
697.885	9661.98
698.231	9571.36
698.577	9625.82
698.923	9575.2
699.269	9511.93
699.614	9507.63
699.96	9458.37
700.306	9461.76
700.651	9351.93
700.997	9378.6
701.342	9368.43
701.688	9254.76
702.033	9312.61
702.379	9291.37
702.724	9271.93
703.069	9229.67
703.415	9169.34
703.76	9117.59
704.105	9116.68
704.45	9076
704.795	9003.92
705.14	9049.79
705.485	9047.98
705.83	8918.95
706.175	8955.1
706.52	8938.61
706.865	8902.68
707.209	8879.17
707.554	8857.93
707.899	8857.7
708.243	8849.8
708.588	8779.29
708.932	8788.33
709.277	8702.68
709.621	8690.48
709.966	8692.96
710.31	8666.52
710.654	8580.42
710.998	8589.24
711.342	8662.23
711.687	8572.51
712.031	8558.28
712.375	8564.15
712.719	8472.63
713.063	8553.53
713.407	8598.73
713.75	8507.21
714.094	8508.34
714.438	8440.54
714.782	8405.74
715.125	8415
715.469	8390.15
715.812	8366.42
716.156	8364.61
716.499	8369.81
716.843	8376.14
717.186	8353.09
717.53	8355.57
717.873	8398.06
718.216	8288.91
718.559	8334.1
718.902	8202.13
719.246	8237.83
719.589	8182.69
719.932	8216.82
720.275	8160.77
720.617	8154.67
720.96	8194.9
721.303	8225.63
721.646	8207.78
721.989	8137.72
722.331	8170.94
722.674	8127.55
723.016	8108.12
723.359	8185.63
723.701	8169.14
724.044	8095.24
724.386	8008.24
724.729	8098.18
725.071	8054.79
725.413	8056.6
725.755	8016.15
726.097	8001.91
726.439	7986.09
726.782	8045.97
727.124	8029.25
727.465	7969.82
727.807	8008.24
728.149	8033.32
728.491	7937.73
728.833	8004.17
729.175	7968.46
729.516	7985.19
729.858	7970.04
730.199	7980.21
730.541	7967.56
730.882	7900.67
731.224	8016.6
731.565	7884.4
731.906	7946.32
732.248	7889.59
732.589	7879.88
732.93	7929.82
733.271	7935.02
733.612	7918.07
733.953	7905.41
734.294	7911.29
734.635	7815.7
734.976	7888.69
735.317	7848.69
735.658	7880.1
735.999	7854.34
736.339	7909.03
736.68	7923.72
737.021	7919.42
737.361	7861.35
737.702	7892.31
738.042	7866.09
738.383	7896.15
738.723	7867.67
739.063	7864.28
739.404	7912.19
739.744	7875.58
740.084	7893.66
740.424	7914.68
740.764	7985.64
741.104	8008.24
741.444	7929.82
741.784	7966.65
742.124	7960.78
742.464	8005.75
742.804	8010.04
743.143	7979.76
743.483	8059.99
743.823	8054.79
744.162	8091.4
744.502	8140.89
744.841	8026.77
745.181	8220.66
745.52	8177.04
745.86	8215.91
746.199	8195.35
746.538	8211.85
746.877	8323.71
747.216	8393.76
747.556	8342.92
747.895	8402.35
748.234	8426.3
748.573	8430.37
748.911	8482.35
749.25	8578.84
749.589	8605.51
749.928	8680.99
750.267	8728.89
750.605	8712.62
750.944	8822.45
751.283	8872.17
751.621	8925.5
751.96	8942.22
752.298	9186.74
752.636	9217.47
752.975	9241.88
753.313	9255.66
753.651	9428.99
753.989	9448.88
754.327	9560.74
754.666	9639.15
755.004	9691.13
755.342	9869.66
755.679	9955.08
756.017	10122.98
756.355	10266.48
756.693	10292.92
757.031	10465.12
757.368	10563.2
757.706	10683.65
758.044	10762.74
758.381	10973.36
758.719	11131.54
759.056	11269.39
759.394	11345.78
759.731	11449.28
760.068	11689.72
760.405	11715.48
760.743	11934.91
761.08	12115.47
761.417	12199.99
761.754	12410.61
762.091	12472.53
762.428	12626.19
762.765	12749.81
763.102	13003.13
763.438	13161.55
763.775	13278.38
764.112	13388.89
764.449	13573.97
764.785	13730.12
765.122	13795.2
765.458	13934.86
765.795	14140.5
766.131	14259.6
766.467	14352.7
766.804	14519.93
767.14	14575.07
767.476	14871.11
767.812	14846.25
768.148	15116.75
768.485	15121.5
768.821	15228.16
769.157	15373.01
769.492	15464.99
769.828	15580.69
770.164	15659.11
770.5	15742.5
770.836	15865.66
771.171	15998.53
771.507	15994.47
771.842	16122.37
772.178	16268.36
772.513	16397.85
772.849	16449.6
773.184	16468.35
773.519	16608.24
773.855	16618.63
774.19	16770.04
774.525	16673.54
774.86	16896.36
775.195	16891.84
775.53	16936.36
775.865	17014.78
776.2	16909.47
776.535	17010.26
776.87	17092.52
777.205	17068.11
777.539	17046.87
777.874	17200.08
778.209	17245.96
778.543	17219.07
778.878	17124.83
779.212	17265.62
779.547	17257.48
779.881	17412.28
780.215	17388.1
780.55	17479.63
780.884	17279.4
781.218	17443.69
781.552	17396.01
781.886	17381.1
782.22	17455.67
782.554	17366.63
782.888	17290.7
783.222	17383.58
783.556	17314.88
783.889	17249.57
784.223	17301.78
784.557	17307.65
784.89	17364.6
785.224	17303.13
785.557	17247.77
785.891	17370.02
786.224	17260.87
786.558	17314.21
786.891	17150.37
787.224	17099.3
787.557	17080.77
787.891	17200.76
788.224	17139.97
788.557	17088.45
788.89	17096.13
789.223	17065.85
789.556	17035.34
789.888	17055.91
790.221	16970.94
790.554	16839.64
790.887	16987.89
791.219	16904.5
791.552	16881
791.884	16838.96
792.217	16855.01
792.549	16912.18
792.882	16741.11
793.214	16713.77
793.546	16714.9
793.879	16709.7
794.211	16546.54
794.543	16582.93
794.875	16590.16
795.207	16641.23
795.539	16552.42
795.871	16551.97
796.203	16471.29
796.535	16328.24
796.867	16330.28
797.198	16429.03
797.53	16347.68
797.862	16278.53
798.193	16245.31
798.525	16325.08
798.856	16238.53
799.188	16081.7
799.519	16108.36
799.85	16004.64
800.182	15942.94
800.513	16023.84
800.844	15851.19
801.175	15989.95
801.506	15927.8
801.837	15878.54
802.168	15814.58
802.499	15815.94
802.83	15801.93
803.161	15696.17
803.491	15657.53
803.822	15713.57
804.153	15575.95
804.483	15495.04
804.814	15479
805.145	15539.79
805.475	15489.17
805.805	15400.81
806.136	15448.49
806.466	15347.48
806.796	15329.17
807.126	15242.85
807.457	15253.92
807.787	15318.55
808.117	15245.11
808.447	15066.36
808.777	15215.28
809.107	15070.65
809.436	15109.29
809.766	15153.81
810.096	15044.89
810.426	15028.39
810.755	14990.65
811.085	15010.09
811.414	14876.53
811.744	14772.8
812.073	14839.47
812.403	14789.3
812.732	14834.95
813.061	14769.41
813.39	14627.5
813.719	14723.99
814.049	14723.09
814.378	14674.95
814.707	14575.07
815.036	14638.12
815.365	14589.08
815.693	14389.31
816.022	14470.44
816.351	14442.19
816.68	14352.25
817.008	14401.51
817.337	14292.14
817.665	14287.62
817.994	14252.82
818.322	14261.86
818.651	14211.69
818.979	14173.72
819.307	14180.28
819.636	14119.49
819.964	14129.66
820.292	14201.75
820.62	14161.52
820.948	14073.61
821.276	14119.26
821.604	14023.22
821.932	14101.18
822.259	14200.39
822.587	14145.25
822.915	14071.58
823.243	14094.18
823.57	14050.34
823.898	14092.37
824.225	14012.15
824.553	14082.43
824.88	14014.18
825.207	14151.58
825.535	14072.03
825.862	14171.92
826.189	14093.73
826.516	14079.49
826.843	14166.49
827.17	14159.94
827.497	14171.69
827.824	14143.89
828.151	14088.75
828.478	14114.29
828.805	14175.08
829.131	14143.89
829.458	14094.86
829.785	14075.19
830.111	14110.67
830.438	14158.36
830.764	14070.22
831.09	14177.34
831.417	14110.22
831.743	14144.35
832.069	14092.82
832.395	14029.32
832.722	14147.06
833.048	13974.86
833.374	14129.43
833.7	14073.61
834.026	13984.35
834.351	14025.25
834.677	13965.37
835.003	14117.23
835.329	14024.35
835.654	14008.76
835.98	13949.55
836.306	14004.69
836.631	13869.55
836.956	13921.53
837.282	13984.58
837.607	13874.75
837.932	13857.35
838.258	13891.02
838.583	13813.28
838.908	13786.39
839.233	13818.48
839.558	13753.4
839.883	13660.74
840.208	13702.32
840.533	13631.59
840.858	13691.7
841.182	13645.38
841.507	13634.75
841.832	13499.16
842.156	13586.17
842.481	13597.47
842.805	13465.49
843.13	13459.17
843.454	13446.28
843.778	13450.58
844.103	13337.59
844.427	13327.42
844.751	13312.05
845.075	13295.55
845.399	13258.04
845.723	13143.24
846.047	13175.78
846.371	13066.18
846.695	13123.58
847.019	13005.39
847.343	12929.91
847.666	12878.62
847.99	12835.68
848.313	12752.29
848.637	12681.33
848.96	12703.93
849.284	12661.9
849.607	12571.73
849.931	12551.39
850.254	12476.59
850.577	12409.02
850.9	12345.07
851.223	12364.05
851.546	12275.02
851.869	12185.3
852.192	12292.64
852.515	12121.57
852.838	12120.67
853.161	12149.82
853.483	12107.11
853.806	11980.11
854.129	12023.72
854.451	11871.19
854.774	11852.88
855.096	11825.08
855.419	11771.98
855.741	11736.05
856.063	11810.17
856.385	11681.13
856.708	11633.45
857.03	11621.7
857.352	11641.81
857.674	11572.66
857.996	11546.22
858.318	11411.76
858.64	11407.02
858.961	11475.72
859.283	11392.78
859.605	11336.51
859.926	11297.41
860.248	11291.99
860.57	11308.71
860.891	11190.3
861.212	11189.85
861.534	11167.25
861.855	11115.05
862.176	11082.51
862.498	11165.21
862.819	11147.14
863.14	11099.91
863.461	11013.58
863.782	11026.69
864.103	11008.16
864.424	10957.08
864.745	11010.64
865.065	10910.08
865.386	10868.05
865.707	10900.82
866.027	10901.49
866.348	10897.88
866.668	10906.92
866.989	10837.09
867.309	10815.62
867.63	10750.31
867.95	10794.38
868.27	10737.88
868.59	10747.82
868.91	10669.86
869.23	10687.94
869.55	10691.56
869.87	10666.02
870.19	10690.65
870.51	10738.11
870.83	10646.81
871.15	10592.35
871.469	10572.91
871.789	10625.12
872.109	10581.95
872.428	10523.65
872.748	10513.25
873.067	10534.05
873.386	10569.75
873.706	10478.23
874.025	10407.72
874.344	10401.62
874.663	10410.88
874.982	10405.01
875.301	10398.91
875.62	10421.28
875.939	10304.22
876.258	10315.52
876.577	10343.54
876.896	10298.35
877.214	10272.81
877.533	10257.44
877.852	10196.65
878.17	10329.53
878.489	10295.63
878.807	10256.09
879.125	10289.98
879.444	10234.39
879.762	10203.43
880.08	10099.71
880.398	10096.99
880.716	10109.42
881.034	10106.26
881.352	10078.01
881.67	9976.32
881.988	10011.57
882.306	9931.12
882.624	9961.86
882.941	9840.28
883.259	9821.97
883.577	9900.39
883.894	9855.64
884.212	9827.4
884.529	9803.44
884.846	9760.73
885.164	9749.21
885.481	9737
885.798	9812.48
886.115	9692.26
886.432	9723.9
886.75	9616.33
887.067	9708.3
887.383	9661.75
887.7	9637.8
888.017	9604.58
888.334	9526.16
888.651	9525.03
888.967	9499.27
889.284	9466.05
889.6	9440.29
889.917	9378.82
890.233	9422.44
890.55	9395.09
890.866	9339.05
891.182	9284.36
891.498	9267.41
891.815	9218.37
892.131	9227.86
892.447	9172.72
892.763	9172.95
893.079	9152.84
893.395	9076.91
893.71	9111.26
894.026	9069
894.342	9031.49
894.657	8972.28
894.973	8979.06
895.289	8897.93
895.604	8966.4
895.92	8878.5
896.235	8846.41
896.55	8826.75
896.865	8724.6
897.181	8736.8
897.496	8743.81
897.811	8709.46
898.126	8685.73
898.441	8649.57
898.756	8628.11
899.071	8553.53
899.386	8582.68
899.7	8523.93
900.015	8437.38
900.33	8445.51
900.644	8448.45
900.959	8410.94
901.273	8372.07
901.588	8324.61
901.902	8275.57
902.216	8318.28
902.531	8310.37
902.845	8144.73
903.159	8149.02
903.473	8113.32
903.787	8118.06
904.101	8079.65
904.415	8074.22
904.729	8066.99
905.042	7999.87
905.356	7970.27
905.67	7922.59
905.984	7892.98
906.297	7881.46
906.611	7822.93
906.924	7865.64
907.237	7823.83
907.551	7756.26
907.864	7748.36
908.177	7728.47
908.491	7663.16
908.804	7646.21
909.117	7559.21
909.43	7575.7
909.743	7511.98
910.056	7505.65
910.368	7420.45
910.681	7429.04
910.994	7417.06
911.307	7422.94
911.619	7312.43
911.932	7321.7
912.244	7266.79
912.557	7268.82
912.869	7221.36
913.181	7210.97
913.494	7187.01
913.806	7126
914.118	7123.74
914.43	7078.99
914.742	6980.01
915.054	6983.86
915.366	6996.96
915.678	6956.29
915.99	6965.1
916.302	6867.47
916.613	6911.54
916.925	6860.24
917.236	6848.94
917.548	6776.18
917.859	6750.19
918.171	6776.63
918.482	6723.07
918.794	6697.76
919.105	6641.04
919.416	6646.01
919.727	6624.54
920.038	6523.98
920.349	6571.21
920.66	6494.83
920.971	6538.67
921.282	6485.79
921.593	6445.56
921.903	6438.56
922.214	6370.76
922.525	6331.44
922.835	6306.59
923.146	6330.99
923.456	6354.72
923.767	6279.24
924.077	6239.02
924.387	6247.38
924.697	6173.26
925.008	6089.87
925.318	6142.97
925.628	6153.6
925.938	6063.65
926.248	6040.83
926.558	6048.29
926.867	6006.71
927.177	5962.64
927.487	5947.5
927.796	5930.55
928.106	5914.51
928.416	5935.3
928.725	5851
929.034	5833.38
929.344	5840.61
929.653	5770.33
929.962	5796.54
930.271	5729.88
930.581	5733.04
930.89	5706.83
931.199	5671.12
931.508	5615.53
931.817	5612.14
932.125	5639.26
932.434	5611.91
932.743	5526.27
933.051	5541.18
933.36	5482.43
933.669	5495.53
933.977	5472.03
934.286	5429.09
934.594	5455.08
934.902	5357.01
935.21	5387.51
935.519	5296.22
935.827	5318.14
936.135	5288.31
936.443	5310.45
936.751	5287.4
937.059	5241.53
937.367	5217.8
937.674	5224.13
937.982	5182.77
938.29	5166.05
938.597	5175.32
938.905	5044.7
939.213	5082.89
939.52	5068.88
939.827	5080.63
940.135	5040.18
940.442	4984.81
940.749	5006.05
941.056	4982.55
941.363	4967.86
941.67	4946.62
941.977	4872.27
942.284	4881.54
942.591	4871.82
942.898	4867.98
943.205	4796.12
943.511	4838.38
943.818	4796.12
944.125	4778.72
944.431	4736.68
944.738	4744.82
945.044	4665.5
945.35	4677.48
945.657	4651.49
945.963	4616.91
946.269	4624.37
946.575	4587.76
946.881	4556.58
947.187	4563.13
947.493	4540.08
947.799	4541.66
948.105	4532.17
948.41	4491.94
948.716	4481.32
949.022	4432.51
949.327	4422.34
949.633	4395.22
949.938	4369.69
950.244	4349.35
950.549	4339.41
950.854	4307.99
951.16	4300.08
951.465	4260.99
951.77	4278.62
952.075	4242.23
952.38	4231.16
952.685	4208.56
952.99	4171.95
953.294	4159.98
953.599	4163.37
953.904	4098.28
954.209	4148
954.513	4097.15
954.818	4065.29
955.122	4044.5
955.426	4045.4
955.731	4064.38
956.035	4030.71
956.339	3997.49
956.643	3960.66
956.948	3968.12
957.252	3958.62
957.556	3908
957.86	3935.35
958.163	3907.55
958.467	3915.91
958.771	3877.04
959.075	3878.4
959.378	3823.26
959.682	3842.92
959.985	3811.28
960.289	3820.55
960.592	3765.86
960.896	3790.04
961.199	3753.88
961.502	3750.04
961.805	3684.51
962.108	3686.99
962.411	3721.57
962.714	3664.85
963.017	3624.85
963.32	3678.41
963.623	3646.77
963.926	3586.43
964.228	3555.02
964.531	3579.88
964.833	3590.5
965.136	3544.17
965.438	3534.46
965.741	3488.58
966.043	3506.89
966.345	3485.42
966.648	3474.12
966.95	3458.52
967.252	3414.01
967.554	3437.28
967.856	3400.9
968.158	3353.67
968.46	3370.17
968.761	3342.82
969.063	3378.08
969.365	3345.31
969.666	3321.35
969.968	3287.91
970.269	3312.54
970.571	3251.98
970.872	3257.4
971.174	3231.19
971.475	3231.19
971.776	3231.64
972.077	3240.9
972.378	3209.27
972.679	3171.75
972.98	3160
973.281	3124.97
973.582	3155.26
973.883	3121.81
974.183	3119.78
974.484	3131.08
974.785	3098.08
975.085	3092.21
975.386	3038.87
975.686	3040.46
975.986	3035.49
976.287	3070.06
976.587	3004.07
976.887	3007.69
977.187	3010.85
977.487	2972.44
977.787	2944.64
978.087	2912.55
978.387	2918.43
978.687	2917.75
978.987	2874.36
979.286	2892.89
979.586	2880.46
979.885	2866.68
980.185	2851.31
980.484	2832.33
980.784	2816.51
981.083	2793.46
981.382	2784.42
981.682	2779.22
981.981	2743.06
982.28	2738.32
982.579	2744.19
982.878	2729.05
983.177	2711.65
983.475	2707.13
983.774	2681.14
984.073	2641.37
984.372	2664.2
984.67	2675.95
984.969	2659.68
985.267	2646.12
985.566	2643.86
985.864	2622.16
986.162	2599.56
986.461	2594.82
986.759	2583.52
987.057	2561.6
987.355	2510.75
987.653	2547.36
987.951	2493.13
988.249	2524.99
988.547	2524.09
988.844	2470.53
989.142	2484.31
989.44	2459.23
989.737	2426.24
990.035	2450.19
990.332	2452
990.63	2432.34
990.927	2433.92
991.224	2428.27
991.521	2402.51
991.819	2377.88
992.116	2385.56
992.413	2332.23
992.71	2364.32
993.006	2332.45
993.303	2379.01
993.6	2301.04
993.897	2311.44
994.193	2294.71
994.49	2261.95
994.787	2330.19
995.083	2238.44
995.379	2268.05
995.676	2239.57
995.972	2228.5
996.268	2222.4
996.565	2232.57
996.861	2169.52
997.157	2189.18
997.453	2195.73
997.749	2203.64
998.044	2133.81
998.34	2170.42
998.636	2127.26
998.932	2129.97
999.227	2089.97
999.523	2066.25
999.818	2078.9
1000.114	2062.86
1000.409	2068.05
1000.704	2052.23
1001	2033.7
1001.295	2031.9
1001.59	2001.16
1001.885	2047.26
1002.18	2014.27
1002.475	1990.54
1002.77	1984.21
1003.065	1963.65
1003.359	1966.81
1003.654	1915.29
1003.949	1896.31
1004.243	1893.59
1004.538	1907.61
1004.832	1917.77
1005.127	1918.23
1005.421	1884.55
1005.715	1855.4
1006.009	1854.05
1006.304	1856.76
1006.598	1810.21
1006.892	1846.36
1007.186	1804.78
1007.48	1813.6
1007.773	1793.48
1008.067	1796.65
1008.361	1769.98
1008.655	1747.84
1008.948	1754.84
1009.242	1735.41
1009.535	1760.49
1009.829	1708.29
1010.122	1735.86
1010.415	1722.07
1010.708	1680.49
1011.001	1692.24
1011.295	1680.72
1011.588	1705.12
1011.881	1637.56
1012.173	1649.76
1012.466	1605.47
1012.759	1654.96
1013.052	1635.3
1013.344	1591
1013.637	1609.53
1013.93	1602.53
1014.222	1544
1014.514	1553.49
1014.807	1544.68
1015.099	1544.9
1015.391	1577.22
1015.683	1521.63
1015.976	1542.19
1016.268	1525.02
1016.56	1517.33
1016.851	1476.2
1017.143	1497.67
1017.435	1470.1
1017.727	1457.45
1018.018	1457
1018.31	1451.8
1018.602	1449.31
1018.893	1441.63
1019.185	1424.91
1019.476	1418.8
1019.767	1415.19
1020.058	1407.28
1020.35	1383.78
1020.641	1383.1
1020.932	1388.97
1021.223	1340.16
1021.514	1349.2
1021.804	1337.22
1022.095	1329.32
1022.386	1338.35
1022.677	1320.95
1022.967	1316.89
1023.258	1322.54
1023.548	1288.86
1023.839	1301.97
1024.129	1243.67
1024.419	1273.72
1024.709	1243.67
1025	1261.52
1025.29	1244.35
1025.58	1208.41
1025.87	1238.24
1026.16	1209.32
1026.449	1222.65
1026.739	1214.29
1027.029	1178.81
1027.319	1200.73
1027.608	1155.08
1027.898	1172.94
1028.187	1158.7
1028.477	1179.26
1028.766	1145.82
1029.055	1173.39
1029.344	1118.02
1029.634	1110.11
1029.923	1124.57
1030.212	1115.08
1030.501	1116.67
1030.79	1125.25
1031.078	1111.47
1031.367	1083.67
1031.656	1073.95
1031.945	1074.86
1032.233	1052.03
1032.522	1058.81
1032.81	1077.34
1033.099	1065.37
1033.387	1024.46
1033.675	1024.46
1033.963	1050.9
1034.251	1045.93
1034.54	1031.47
1034.828	992.83
1035.116	992.15
1035.403	1005.03
1035.691	991.47
1035.979	980.4
1036.267	962.77
1036.554	948.53
1036.842	952.6
1037.129	961.19
1037.417	968.19
1037.704	948.31
1037.992	936.78
1038.279	936.56
1038.566	913.06
1038.853	913.06
1039.14	913.06
