Data from hue_250_FLMS001491_00061.txt Node
Date: Tue Feb 07 16:01:17 GMT 2017
User: dcchb
Spectrometer: FLMS00149
Trigger mode: 0
Integration Time (sec): 2.000000E-2
Scans to average: 10
Electric dark correction enabled: true
Nonlinearity correction enabled: false
Boxcar width: 0
XAxis mode: Wavelengths
Number of Pixels in Spectrum: 2048
>>>>>Begin Spectral Data<<<<<
341.393	-0.99
341.776	-0.99
342.16	-0.99
342.543	-72.4
342.927	-78.05
343.31	-70.37
343.693	-64.04
344.077	-83.25
344.46	-69.24
344.843	-31.04
345.226	-62.91
345.61	-26.52
345.993	-16.13
346.376	-23.36
346.759	37.43
347.142	31.1
347.525	35.85
347.908	52.12
348.291	87.37
348.674	88.27
349.057	114.71
349.44	100.03
349.823	132.12
350.206	156.52
350.588	194.03
350.971	212.11
351.354	207.37
351.737	211.89
352.119	247.59
352.502	245.78
352.884	253.92
353.267	255.5
353.65	291.66
354.032	280.13
354.414	297.08
354.797	278.78
355.179	308.61
355.562	304.54
355.944	297.99
356.326	317.65
356.709	323.07
357.091	325.56
357.473	328.95
357.855	335.5
358.238	328.27
358.62	318.55
359.002	334.6
359.384	327.82
359.766	333.92
360.148	339.34
360.53	324.43
360.912	328.72
361.294	340.02
361.676	319.45
362.057	307.7
362.439	316.97
362.821	297.99
363.203	302.28
363.584	299.34
363.966	337.53
364.348	312.22
364.729	310.64
365.111	308.83
365.493	298.89
365.874	301.6
366.256	313.13
366.637	315.61
367.019	310.19
367.4	318.78
367.781	314.71
368.163	315.61
368.544	290.53
368.925	299.12
369.306	310.87
369.688	290.98
370.069	310.19
370.45	302.73
370.831	319.68
371.212	315.84
371.593	304.77
371.974	303.86
372.355	306.8
372.736	299.34
373.117	316.52
373.498	302.73
373.879	303.18
374.26	311.09
374.641	300.47
375.021	301.15
375.402	328.27
375.783	302.73
376.163	325.56
376.544	336.86
376.925	319.45
377.305	328.95
377.686	304.99
378.066	316.07
378.447	310.42
378.827	328.72
379.208	321.26
379.588	330.75
379.968	343.41
380.349	332.79
380.729	326.46
381.109	335.95
381.489	321.94
381.87	327.36
382.25	320.36
382.63	358.1
383.01	336.4
383.39	326.69
383.77	336.4
384.15	342.28
384.53	328.27
384.91	347.7
385.29	341.38
385.67	322.17
386.049	337.53
386.429	379.11
386.809	347.7
387.189	354.26
387.568	343.86
387.948	353.13
388.328	366.46
388.707	355.16
389.087	344.76
389.466	366.91
389.846	367.59
390.225	375.72
390.605	373.69
390.984	358.55
391.363	384.31
391.743	368.49
392.122	390.64
392.501	401.49
392.881	379.11
393.26	382.05
393.639	395.61
394.018	371.43
394.397	388.61
394.776	403.52
395.155	405.78
395.534	407.81
395.913	396.51
396.292	386.57
396.671	399.68
397.05	421.83
397.429	417.08
397.808	405.55
398.186	412.11
398.565	411.66
398.944	415.05
399.323	422.73
399.701	421.37
400.08	412.11
400.458	440.36
400.837	439
401.215	427.47
401.594	442.62
401.972	413.69
402.351	420.47
402.729	445.55
403.107	427.02
403.486	432.22
403.864	434.71
404.242	464.99
404.62	453.24
404.999	440.36
405.377	453.46
405.755	461.82
406.133	467.47
406.511	482.61
406.889	462.5
407.267	493.24
407.645	511.54
408.023	488.04
408.401	502.05
408.779	503.18
409.156	505.44
409.534	511.31
409.912	513.12
410.29	521.26
410.667	554.48
411.045	548.15
411.422	545.89
411.8	533.91
412.178	561.48
412.555	571.88
412.933	571.2
413.31	570.75
413.687	580.24
414.065	592.67
414.442	599.45
414.819	615.94
415.197	605.55
415.574	622.5
415.951	609.39
416.328	650.75
416.705	629.96
417.082	658.88
417.46	645.77
417.837	649.39
418.214	660.91
418.591	653.68
418.967	672.44
419.344	695.04
419.721	689.16
420.098	698.65
420.475	708.6
420.852	722.16
421.228	723.06
421.605	712.66
421.982	739.33
422.358	756.51
422.735	762.38
423.111	761.7
423.488	769.16
423.864	779.33
424.241	789.95
424.617	811.87
424.994	813.45
425.37	823.4
425.746	843.51
426.123	851.64
426.499	850.97
426.875	882.6
427.251	876.95
427.627	882.15
428.003	911.53
428.379	907.24
428.756	937.52
429.132	937.07
429.507	948.82
429.883	942.04
430.259	962.83
430.635	967.8
431.011	978.65
431.387	1019.1
431.763	1025.2
432.138	1017.74
432.514	1043.05
432.89	1042.6
433.265	1070.17
433.641	1063.62
434.016	1086.21
434.392	1128.93
434.767	1118.76
435.143	1163.27
435.518	1160.79
435.894	1185.19
436.269	1184.29
436.644	1208.7
437.02	1258.64
437.395	1237.4
437.77	1258.41
438.145	1300.45
438.52	1301.35
438.895	1322.14
439.271	1298.19
439.646	1365.3
440.021	1355.13
440.395	1332.76
440.77	1381.8
441.145	1360.33
441.52	1403.04
441.895	1396.49
442.27	1430.84
442.645	1436.49
443.019	1472.19
443.394	1457.05
443.769	1476.03
444.143	1512.87
444.518	1498.63
444.892	1484.85
445.267	1529.82
445.641	1531.17
446.016	1537.73
446.39	1543.83
446.764	1584.96
447.139	1539.08
447.513	1554.9
447.887	1580.44
448.262	1593.32
448.636	1636.48
449.01	1598.97
449.384	1657.72
449.758	1653.66
450.132	1649.59
450.506	1693.2
450.88	1705.86
451.254	1725.07
451.628	1707.67
452.002	1767.1
452.376	1734.33
452.75	1770.49
453.123	1770.26
453.497	1805.52
453.871	1811.17
454.244	1856.36
454.618	1851.84
454.992	1881.67
455.365	1874.89
455.739	1913.54
456.112	1927.32
456.486	1953.54
456.859	1995.79
457.232	2013.65
457.606	2018.39
457.979	2052.97
458.352	2033.99
458.725	2093.87
459.099	2135.9
459.472	2162.34
459.845	2144.27
460.218	2151.72
460.591	2186.07
460.964	2194.43
461.337	2259.97
461.71	2276.01
462.083	2284.83
462.456	2286.41
462.829	2310.36
463.201	2382.45
463.574	2390.13
463.947	2408.89
464.32	2431.26
464.692	2477.36
465.065	2502.22
465.438	2489.12
465.81	2543.13
466.183	2558.94
466.555	2584.48
466.928	2665.83
467.3	2624.03
467.672	2664.93
468.045	2710.35
468.417	2735.44
468.789	2726.17
469.161	2788.77
469.534	2816.56
469.906	2825.83
470.278	2894.98
470.65	2881.65
471.022	2983.11
471.394	3040.97
471.766	3054.75
472.138	3052.72
472.51	3155.31
472.882	3179.72
473.253	3188.98
473.625	3243.9
473.997	3295.65
474.369	3320.05
474.74	3347.85
475.112	3419.49
475.484	3425.59
475.855	3497.45
476.227	3560.5
476.598	3591.23
476.97	3615.64
477.341	3693.38
477.713	3814.96
478.084	3771.12
478.455	3854.5
478.827	3911
479.198	4005.91
479.569	3976.53
479.94	4036.65
480.311	4126.59
480.682	4229.63
481.053	4288.62
481.424	4348.73
481.795	4376.98
482.166	4416.52
482.537	4522.96
482.908	4546.91
483.279	4583.98
483.65	4646.57
484.021	4748.04
484.391	4842.05
484.762	4859.9
485.133	4836.85
485.503	4955.04
485.874	5019.22
486.244	5056.73
486.615	5141.02
486.985	5183.51
487.356	5275.71
487.726	5360.9
488.097	5433.22
488.467	5406.55
488.837	5559.77
489.207	5558.64
489.578	5677.05
489.948	5693.1
490.318	5788.92
490.688	5774.68
491.058	5923.15
491.428	5953.66
491.798	5934.67
492.168	6048.8
492.538	6100.32
492.908	6169.02
493.278	6183.71
493.648	6213.76
494.017	6270.94
494.387	6327.43
494.757	6381.67
495.126	6464.38
495.496	6453.98
495.866	6561.1
496.235	6569.69
496.605	6573.75
496.974	6625.5
497.344	6706.18
497.713	6684.94
498.082	6771.04
498.452	6861.2
498.821	6850.58
499.19	6853.75
499.559	6938.49
499.928	6937.81
500.298	6994.31
500.667	6993.18
501.036	7002.22
501.405	7121.08
501.774	7121.76
502.143	7158.15
502.512	7293.96
502.88	7264.36
503.249	7269.55
503.618	7351.36
503.987	7279.95
504.356	7357.24
504.724	7389.78
505.093	7377.35
505.462	7324.24
505.83	7479.27
506.199	7533.05
506.567	7603.11
506.936	7562.2
507.304	7552.49
507.672	7571.92
508.041	7659.6
508.409	7746.83
508.777	7810.56
509.145	7786.38
509.514	7750.22
509.882	7855.53
510.25	7808.75
510.618	7915.19
510.986	7953.15
511.354	7978.46
511.722	8038.35
512.09	8078.35
512.458	8008.07
512.826	8079.93
513.193	8114.05
513.561	8168.51
513.929	8201.96
514.297	8247.38
514.664	8240.38
515.032	8269.98
515.4	8300.04
515.767	8309.53
516.135	8339.13
516.502	8326.25
516.869	8357.89
517.237	8415.51
517.604	8415.51
517.972	8449.86
518.339	8505.91
518.706	8452.35
519.073	8500.71
519.44	8528.05
519.808	8617.99
520.175	8602.85
520.542	8689.4
520.909	8720.82
521.276	8685.11
521.643	8759.23
522.009	8774.6
522.376	8773.24
522.743	8819.8
523.11	8915.84
523.477	8957.87
523.843	8977.08
524.21	9037.64
524.577	9066.57
524.943	9019.57
525.31	9060.69
525.676	9162.61
526.043	9172.56
526.409	9212.55
526.776	9274.25
527.142	9328.48
527.508	9316.05
527.874	9271.08
528.241	9345.43
528.607	9401.93
528.973	9399.44
529.339	9432.21
529.705	9436.5
530.071	9482.38
530.437	9523.51
530.803	9577.74
531.169	9554.47
531.535	9467.24
531.901	9553.79
532.267	9587.91
532.632	9601.92
532.998	9688.02
533.364	9673.56
533.73	9734.35
534.095	9704.07
534.461	9718.3
534.826	9703.84
535.192	9680.34
535.557	9780.22
535.923	9728.7
536.288	9780.9
536.653	9705.2
537.019	9776.61
537.384	9801.47
537.749	9843.27
538.114	9769.6
538.479	9800.11
538.845	9789.04
539.21	9763.27
539.575	9851.86
539.94	9779.32
540.305	9893.67
540.67	9846.66
541.034	9848.47
541.399	9827.91
541.764	9912.2
542.129	9859.54
542.494	9879.66
542.858	9908.36
543.223	9862.71
543.587	9895.93
543.952	9932.54
544.316	9911.07
544.681	9925.3
545.045	9947.9
545.41	9967.56
545.774	10015.02
546.138	9956.26
546.503	9984.51
546.867	9891.41
547.231	9949.71
547.595	9958.07
547.959	9994.68
548.324	9980.67
548.688	9994.68
549.052	10022.48
549.416	10008.69
549.779	9990.84
550.143	10011.86
550.507	10067
550.871	9998.75
551.235	10008.01
551.599	10106.09
551.962	10057.5
552.326	10064.06
552.689	10114.23
553.053	10059.99
553.417	10059.99
553.78	10133.43
554.143	10086.43
554.507	10142.93
554.87	10145.64
555.234	10204.39
555.597	10151.51
555.96	10236.48
556.323	10192.19
556.686	10167.11
557.05	10210.27
557.413	10219.99
557.776	10212.08
558.139	10325.97
558.502	10310.38
558.865	10221.57
559.228	10346.31
559.59	10344.5
559.953	10460.43
560.316	10416.14
560.679	10433.77
561.041	10477.83
561.404	10492.07
561.767	10515.8
562.129	10529.36
562.492	10669.01
562.854	10537.27
563.217	10544.04
563.579	10616.81
563.941	10740.65
564.304	10723.93
564.666	10707.43
565.028	10774.55
565.39	10785.62
565.753	10857.93
566.115	10827.88
566.477	10958.5
566.839	10914.2
567.201	10946.75
567.563	10960.08
567.925	11074.88
568.287	11017.48
568.648	11108.78
569.01	11147.19
569.372	11174.54
569.734	11120.53
570.095	11214.76
570.457	11140.41
570.819	11240.3
571.18	11219.51
571.542	11366.4
571.903	11342.67
572.265	11347.64
572.626	11356.45
572.987	11363.01
573.349	11439.16
573.71	11381.08
574.071	11464.7
574.432	11559.84
574.794	11657.91
575.155	11593.96
575.516	11583.34
575.877	11622.21
576.238	11645.71
576.599	11638.71
576.96	11682.55
577.32	11693.62
577.681	11842.99
578.042	11826.04
578.403	11793.05
578.763	11778.36
579.124	11859.49
579.485	11763.45
579.845	11965.7
580.206	11926.38
580.566	11912.6
580.927	12010.22
581.287	12050.67
581.648	11949.43
582.008	12036.89
582.368	11924.8
582.728	12092.7
583.089	12110.11
583.449	12025.59
583.809	12120.5
584.169	12156.43
584.529	12111.69
584.889	12225.13
585.249	12113.72
585.609	12131.35
585.969	12193.49
586.329	12181.06
586.688	12157.11
587.048	12301.29
587.408	12250.44
587.768	12286.6
588.127	12237.56
588.487	12256.09
588.846	12298.8
589.206	12299.03
589.565	12331.34
589.925	12365.47
590.284	12392.81
590.643	12366.82
591.003	12412.92
591.362	12444.56
591.721	12456.54
592.08	12449.31
592.44	12464.67
592.799	12417.67
593.158	12428.52
593.517	12579.92
593.876	12430.55
594.235	12451.79
594.593	12556.65
594.952	12486.82
595.311	12403.2
595.67	12508.96
596.029	12565.69
596.387	12572.24
596.746	12692.69
597.104	12515.07
597.463	12537.44
597.822	12647.72
598.18	12548.74
598.538	12571.34
598.897	12668.73
599.255	12522.98
599.613	12744.89
599.972	12629.64
600.33	12647.72
600.688	12625.8
601.046	12610.43
601.404	12645.23
601.762	12646.81
602.12	12717.32
602.478	12706.47
602.836	12726.81
603.194	12679.81
603.552	12742.63
603.91	12640.49
604.268	12728.85
604.625	12700.6
604.983	12746.02
605.341	12795.29
605.698	12786.47
606.056	12720.94
606.413	12765.46
606.771	12837.09
607.128	12795.74
607.485	12768.17
607.843	12818.56
608.2	12835.51
608.557	12882.29
608.914	12831.22
609.272	12831.67
609.629	12984.43
609.986	12955.05
610.343	12976.3
610.7	12956.18
611.057	12930.87
611.414	12890.65
611.771	13008.16
612.127	13053.13
612.484	13101.72
612.841	13087.93
613.198	12995.96
613.554	13030.31
613.911	13057.2
614.267	13043.87
614.624	13007.71
614.98	13016.97
615.337	13121.6
615.693	13111.66
616.05	13024.88
616.406	13190.08
616.762	13046.13
617.118	13144.88
617.475	13088.16
617.831	13153.24
618.187	13213.81
618.543	13181.49
618.899	13235.27
619.255	13138.1
619.611	13144.2
619.967	13218.1
620.323	13281.6
620.678	13196.86
621.034	13161.6
621.39	13213.35
621.746	13188.5
622.101	13251.77
622.457	13326.34
622.812	13172.68
623.168	13269.4
623.523	13196.18
623.879	13288.15
624.234	13128.16
624.589	13256.74
624.945	13143.07
625.3	13361.37
625.655	13220.13
626.01	13275.95
626.365	13234.82
626.72	13248.38
627.075	13271.88
627.43	13139.91
627.785	13215.61
628.14	13224.88
628.495	13313.92
628.85	13217.42
629.205	13184.88
629.559	13217.19
629.914	13109.63
630.269	13153.24
630.623	13088.61
630.978	13079.12
631.332	13059.23
631.687	13114.6
632.041	13060.36
632.396	13114.82
632.75	13064.66
633.104	13115.28
633.459	12931.78
633.813	12953.02
634.167	12957.09
634.521	12998.44
634.875	13028.05
635.229	12967.03
635.583	12880.03
635.937	12917.32
636.291	12904.66
636.645	12939.46
636.999	12932.46
637.352	12922.29
637.706	12794.16
638.06	12879.35
638.413	12808.17
638.767	12847.04
639.121	12872.12
639.474	12761.16
639.828	12743.99
640.181	12751.44
640.534	12792.8
640.888	12696.98
641.241	12669.64
641.594	12628.96
641.947	12721.16
642.301	12648.62
642.654	12658.34
643.007	12700.82
643.36	12675.51
643.713	12597.78
644.066	12656.53
644.419	12635.52
644.771	12496.76
645.124	12374.96
645.477	12385.13
645.83	12314.17
646.182	12297.9
646.535	12202.31
646.888	12180.61
647.24	12062.65
647.593	12228.07
647.945	12080.73
648.298	12165.25
648.65	12073.5
649.002	12047.73
649.355	12101.74
649.707	12083.21
650.059	12156.43
650.411	12305.81
650.763	12383.09
651.115	12452.02
651.467	12399.82
651.819	12412.47
652.171	12400.95
652.523	12392.36
652.875	12374.51
653.227	12271.91
653.578	12386.71
653.93	12390.1
654.282	12259.03
654.633	12296.54
654.985	12290.67
655.337	12334.73
655.688	12336.09
656.039	12420.61
656.391	12248.41
656.742	12355.97
657.094	12310.1
657.445	12286.6
657.796	12359.82
658.147	12268.52
658.498	12193.94
658.849	12285.47
659.2	12221.29
659.551	12259.71
659.902	12359.14
660.253	12285.24
660.604	12269.2
660.955	12216.54
661.306	12286.6
661.656	12185.36
662.007	12262.19
662.358	12226.94
662.708	12336.99
663.059	12298.35
663.409	12237.79
663.76	12304.22
664.11	12310.78
664.461	12222.19
664.811	12336.31
665.161	12292.93
665.511	12250.89
665.862	12256.54
666.212	12250.67
666.562	12323.66
666.912	12284.79
667.262	12243.66
667.612	12160.73
667.962	12257.22
668.312	12267.39
668.662	12271.23
669.011	12265.58
669.361	12188.97
669.711	12193.72
670.06	12181.06
670.41	12118.92
670.76	12160.27
671.109	12223.1
671.459	12209.31
671.808	12079.6
672.157	12254.06
672.507	12179.71
672.856	12163.66
673.205	12116.21
673.554	12140.16
673.904	12127.51
674.253	12124.12
674.602	12105.36
674.951	11981.07
675.3	11903.33
675.649	12077.11
675.998	12054.74
676.346	12076.43
676.695	12118.01
677.044	12009.99
677.393	12000.96
677.741	12049.54
678.09	11957.79
678.438	12054.06
678.787	12008.41
679.135	11975.42
679.484	11865.82
679.832	11962.54
680.181	11859.49
680.529	11908.53
680.877	11857.46
681.225	11911.47
681.573	11937.45
681.922	11853.16
682.27	11783.79
682.618	11838.47
682.966	11720.29
683.314	11784.92
683.661	11739.04
684.009	11729.55
684.357	11555.32
684.705	11611.59
685.053	11562.78
685.4	11618.14
685.748	11477.13
686.095	11477.58
686.443	11449.78
686.79	11500.86
687.138	11495.66
687.485	11375.89
687.832	11385.83
688.18	11435.55
688.527	11381.31
688.874	11341.31
689.221	11265.83
689.568	11318.94
689.915	11282.78
690.262	11210.24
690.609	11184.93
690.956	11156.68
691.303	11178.15
691.65	11026.97
691.997	11104.48
692.344	11007.31
692.69	10991.94
693.037	11044.37
693.383	10893.64
693.73	10958.27
694.077	10890.02
694.423	10827.65
694.769	10833.3
695.116	10754.43
695.462	10817.71
695.808	10717.15
696.155	10732.51
696.501	10674.89
696.847	10637.38
697.193	10500.2
697.539	10623.82
697.885	10557.15
698.231	10435.35
698.577	10426.99
698.923	10410.71
699.269	10370.72
699.614	10277.16
699.96	10247.1
700.306	10318.74
700.651	10234.9
700.997	10209.82
701.342	10175.92
701.688	10138.86
702.033	10121.46
702.379	10089.14
702.724	10118.29
703.069	10092.53
703.415	9984.96
703.76	9932.31
704.105	9958.75
704.45	9958.98
704.795	9866.1
705.14	9806.44
705.485	9815.7
705.83	9800.79
706.175	9728.47
706.52	9716.04
706.865	9661.36
707.209	9641.7
707.554	9605.76
707.899	9671.3
708.243	9565.31
708.588	9598.76
708.932	9503.17
709.277	9498.87
709.621	9472.21
709.966	9424.53
710.31	9468.14
710.654	9359.9
710.998	9406.22
711.342	9407.13
711.687	9358.99
712.031	9317.18
712.375	9306.79
712.719	9326
713.063	9366.67
713.407	9352.44
713.75	9239.9
714.094	9274.7
714.438	9237.19
714.782	9246.45
715.125	9241.93
715.469	9246.9
715.812	9146.12
716.156	9068.15
716.499	9119
716.843	9031.77
717.186	9053.01
717.53	9067.47
717.873	9145.21
718.216	9029.28
718.559	9057.3
718.902	8991.09
719.246	8969.85
719.589	8956.74
719.932	8908.38
720.275	8986.12
720.617	8928.49
720.96	8935.05
721.303	8898.21
721.646	8975.95
721.989	8838.78
722.331	8857.99
722.674	8851.21
723.016	8901.83
723.359	8894.82
723.701	8875.16
724.044	8794.94
724.386	8760.14
724.729	8782.06
725.071	8762.85
725.413	8752.45
725.755	8655.51
726.097	8704.32
726.439	8752.91
726.782	8719.69
727.124	8699.8
727.465	8716.3
727.807	8666.58
728.149	8701.61
728.491	8689.18
728.833	8682.17
729.175	8656.18
729.516	8596.98
729.858	8617.77
730.199	8745.22
730.541	8635.17
730.882	8605.34
731.224	8630.42
731.565	8613.02
731.906	8553.59
732.248	8587.94
732.589	8583.42
732.93	8592.01
733.271	8568.05
733.612	8567.37
733.953	8537.32
734.294	8563.08
734.635	8502.06
734.976	8552.68
735.317	8511.78
735.658	8502.52
735.999	8597.43
736.339	8533.48
736.68	8543.42
737.021	8498.9
737.361	8506.36
737.702	8566.24
738.042	8519.47
738.383	8474.27
738.723	8516.53
739.063	8530.54
739.404	8537.09
739.744	8547.26
740.084	8531.22
740.424	8561.72
740.764	8538.22
741.104	8598.56
741.444	8554.49
741.784	8494.38
742.124	8544.78
742.464	8573.48
742.804	8526.7
743.143	8512.01
743.483	8566.7
743.823	8503.42
744.162	8505
744.502	8585.68
744.841	8537.77
745.181	8563.31
745.52	8570.09
745.86	8643.53
746.199	8666.13
746.538	8649.63
746.877	8668.39
747.216	8787.25
747.556	8754.94
747.895	8782.51
748.234	8848.27
748.573	8825.22
748.911	8845.56
749.25	8832.45
749.589	8912
749.928	8966.69
750.267	9047.81
750.605	9065.89
750.944	9045.33
751.283	9112.44
751.621	9195.61
751.96	9217.53
752.298	9264.53
752.636	9329.16
752.975	9371.87
753.313	9424.53
753.651	9568.48
753.989	9596.27
754.327	9655.03
754.666	9688.47
755.004	9823.61
755.342	9934.57
755.679	9962.37
756.017	10010.95
756.355	10114.45
756.693	10200.1
757.031	10313.09
757.368	10302.24
757.706	10435.35
758.044	10540.66
758.381	10610.03
758.719	10758.28
759.056	10879.86
759.394	10908.78
759.731	10878.73
760.068	11040.98
760.405	11071.26
760.743	11245.5
761.08	11367.75
761.417	11405.72
761.754	11548.76
762.091	11613.62
762.428	11665.37
762.765	11809.32
763.102	11913.05
763.438	11926.38
763.775	12014.29
764.112	12157.56
764.449	12350.78
764.785	12348.52
765.122	12359.82
765.458	12535.63
765.795	12560.71
766.131	12709.64
766.467	12789.18
766.804	12845.45
767.14	12946.47
767.476	13041.38
767.812	13039.57
768.148	13101.49
768.485	13094.49
768.821	13207.93
769.157	13306.46
769.492	13308.72
769.828	13374.48
770.164	13294.48
770.5	13447.7
770.836	13536.73
771.171	13507.81
771.507	13564.08
771.842	13492.67
772.178	13661.02
772.513	13773.56
772.849	13751.19
773.184	13735.15
773.519	13895.82
773.855	13811.76
774.19	13846.56
774.525	13919.32
774.86	13934.69
775.195	13895.14
775.53	13922.04
775.865	13910.96
776.2	13888.82
776.535	13910.51
776.87	13921.58
777.205	13941.24
777.539	13854.47
777.874	14067.34
778.209	13951.41
778.543	13997.51
778.878	13967.01
779.212	14010.85
779.547	13887.69
779.881	13937.63
780.215	13925.65
780.55	14019.21
780.884	13958.87
781.218	13928.81
781.552	14006.33
781.886	13890.4
782.22	13881.81
782.554	13873.9
782.888	13805.88
783.222	13781.7
783.556	13725.88
783.889	13760.01
784.223	13671.42
784.557	13706.45
784.89	13753.9
785.224	13601.82
785.557	13599.11
785.891	13539.45
786.224	13584.87
786.558	13618.09
786.891	13483.18
787.224	13521.59
787.557	13444.08
787.891	13434.82
788.224	13473.69
788.557	13416.29
788.89	13411.54
789.223	13439.11
789.556	13424.42
789.888	13408.15
790.221	13370.19
790.554	13218.1
790.887	13284.09
791.219	13202.73
791.552	13167.7
791.884	13208.83
792.217	13163.41
792.549	13084.54
792.882	13124.09
793.214	12970.87
793.546	13015.62
793.879	12901.04
794.211	12973.13
794.543	12916.86
794.875	12887.03
795.207	12939.01
795.539	12867.6
795.871	12867.37
796.203	12746.25
796.535	12715.97
796.867	12739.24
797.198	12700.15
797.53	12692.91
797.862	12632.35
798.193	12620.6
798.525	12484.56
798.856	12577.66
799.188	12460.15
799.519	12420.15
799.85	12397.56
800.182	12460.15
800.513	12379.93
800.844	12301.96
801.175	12389.19
801.506	12337.44
801.837	12266.71
802.168	12286.37
802.499	12192.59
802.83	12141.29
803.161	12155.08
803.491	12094.51
803.822	12063.33
804.153	11993.72
804.483	11957.79
804.814	11949.21
805.145	11944.46
805.475	11893.16
805.805	11875.08
806.136	11888.19
806.466	11842.09
806.796	11865.82
807.126	11758.25
807.457	11699.72
807.787	11700.62
808.117	11635.32
808.447	11710.12
808.777	11621.53
809.107	11604.81
809.436	11582.89
809.766	11576.11
810.096	11525.49
810.426	11415.66
810.755	11394.64
811.085	11468.54
811.414	11375.21
811.744	11374.08
812.073	11370.46
812.403	11403.23
812.732	11275.32
813.061	11242.33
813.39	11215.89
813.719	11251.82
814.049	11249.79
814.378	11172.05
814.707	11169.57
815.036	11166.63
815.365	11071.04
815.693	11072.39
816.022	11076.46
816.351	10991.26
816.68	10951.94
817.008	11045.05
817.337	10904.94
817.665	10881.21
817.994	10899.52
818.322	10942.23
818.651	10843.47
818.979	10901.78
819.307	10928.67
819.636	10901.55
819.964	10784.72
820.292	10776.58
820.62	10786.52
820.948	10775.9
821.276	10833.53
821.604	10756.47
821.932	10867.2
822.259	10809.35
822.587	10695.68
822.915	10696.36
823.243	10838.05
823.57	10736.81
823.898	10736.81
824.225	10730.48
824.553	10736.13
824.88	10763.47
825.207	10760.54
825.535	10833.53
825.862	10808.22
826.189	10686.87
826.516	10804.83
826.843	10781.55
827.17	10784.49
827.497	10803.7
827.824	10782.91
828.151	10821.78
828.478	10831.04
828.805	10818.16
829.131	10765.96
829.458	10720.99
829.785	10663.14
830.111	10747.88
830.438	10872.4
830.764	10744.27
831.09	10790.14
831.417	10687.77
831.743	10813.19
832.069	10748.33
832.395	10701.55
832.722	10808.22
833.048	10743.36
833.374	10746.53
833.7	10678.05
834.026	10701.33
834.351	10683.25
834.677	10686.64
835.003	10676.92
835.329	10669.47
835.654	10659.07
835.98	10615.91
836.306	10576.36
836.631	10582.69
836.956	10611.39
837.282	10641.67
837.607	10582.46
837.932	10580.43
838.258	10528
838.583	10474.22
838.908	10440.32
839.233	10451.62
839.558	10464.27
839.883	10402.13
840.208	10358.29
840.533	10339.08
840.858	10434.22
841.182	10293.66
841.507	10337.04
841.832	10303.6
842.156	10325.75
842.481	10306.99
842.805	10263.83
843.13	10214.11
843.454	10197.84
843.778	10162.59
844.103	10143.6
844.427	10183.6
844.751	10122.59
845.075	10116.26
845.399	10060.22
845.723	10019.54
846.047	10027
846.371	9948.81
846.695	9924.85
847.019	9817.51
847.343	9897.51
847.666	9738.19
847.99	9781.13
848.313	9714.69
848.637	9711.75
848.96	9678.53
849.284	9589.49
849.607	9575.71
849.931	9608.48
850.254	9480.12
850.577	9440.57
850.9	9370.29
851.223	9360.35
851.546	9398.09
851.869	9304.08
852.192	9350.63
852.515	9242.38
852.838	9274.02
853.161	9255.72
853.483	9201.93
853.806	9115.16
854.129	9127.81
854.451	9102.05
854.774	9070.64
855.096	9041.03
855.419	8982.28
855.741	9010.3
856.063	8980.24
856.385	8964.88
856.708	8899.34
857.03	8888.04
857.352	8836.97
857.674	8821.6
857.996	8745.67
858.318	8779.12
858.64	8686.92
858.961	8711.1
859.283	8679.46
859.605	8627.49
859.926	8673.13
860.248	8589.29
860.57	8553.81
860.891	8569.18
861.212	8581.16
861.534	8477.21
861.855	8524.89
862.176	8530.99
862.498	8459.13
862.819	8554.72
863.14	8443.54
863.461	8477.43
863.782	8395.63
864.103	8415.29
864.424	8419.35
864.745	8453.25
865.065	8366.47
865.386	8320.83
865.707	8337.1
866.027	8334.61
866.348	8349.98
866.668	8341.84
866.989	8282.86
867.309	8218.91
867.63	8309.53
867.95	8300.94
868.27	8168.51
868.59	8204.45
868.91	8173.49
869.23	8146.37
869.55	8134.16
869.87	8192.02
870.19	8185.91
870.51	8140.72
870.83	8176.65
871.15	8058.91
871.469	8054.84
871.789	8106.37
872.109	8097.1
872.428	8070.44
872.748	8065.01
873.067	8105.01
873.386	8058.01
873.706	8053.49
874.025	7988.41
874.344	7947.95
874.663	7992.93
874.982	7967.39
875.301	7893.94
875.62	7946.82
875.939	7961.06
876.258	7926.71
876.577	7912.48
876.896	7851.69
877.214	7915.19
877.533	7888.07
877.852	7868.41
878.17	7838.13
878.489	7806.94
878.807	7812.59
879.125	7776.89
879.444	7761.52
879.762	7772.37
880.08	7757
880.398	7794.51
880.716	7736.21
881.034	7697.11
881.352	7694.18
881.67	7638.81
881.988	7660.73
882.306	7623.67
882.624	7654.63
882.941	7559.72
883.259	7619.15
883.577	7545.71
883.894	7513.62
884.212	7496.67
884.529	7576.44
884.846	7486.05
885.164	7512.03
885.481	7493.96
885.798	7450.11
886.115	7382.77
886.432	7425.71
886.75	7393.39
887.067	7399.72
887.383	7354.52
887.7	7362.66
888.017	7322.66
888.334	7317.46
888.651	7342.55
888.967	7314.53
889.284	7257.35
889.6	7229.33
889.917	7161.31
890.233	7161.53
890.55	7161.53
890.866	7169.67
891.182	7171.48
891.498	7100.97
891.815	7114.08
892.131	7075.66
892.447	7071.82
892.763	7016.23
893.079	7016.45
893.395	6981.2
893.71	7003.12
894.026	6950.24
894.342	6971.03
894.657	6941.43
894.973	6890.13
895.289	6853.29
895.604	6871.6
895.92	6778.27
896.235	6763.81
896.55	6771.71
896.865	6762
897.181	6771.94
897.496	6727.2
897.811	6701.21
898.126	6686.52
898.441	6620.98
898.756	6644.49
899.071	6606.97
899.386	6585.05
899.7	6525.39
900.015	6561.32
900.33	6492.4
900.644	6497.15
900.959	6450.37
901.273	6451.72
901.588	6417.37
901.902	6390.48
902.216	6350.48
902.531	6300.77
902.845	6344.16
903.159	6295.57
903.473	6242.24
903.787	6225.51
904.101	6177.61
904.415	6204.05
904.729	6120.43
905.042	6129.7
905.356	6152.3
905.67	6114.1
905.984	6076.82
906.297	5988.91
906.611	6038.17
906.924	6055.12
907.237	6006.76
907.551	6015.12
907.864	5988.91
908.177	5971.96
908.491	5916.14
908.804	5908.01
909.117	5919.99
909.43	5835.47
909.743	5771.97
910.056	5799.08
910.368	5771.06
910.681	5815.36
910.994	5740.56
911.307	5701.91
911.619	5662.59
911.932	5712.99
912.244	5634.57
912.557	5633.89
912.869	5571.07
913.181	5600.67
913.494	5547.57
913.806	5482.03
914.118	5525.19
914.43	5500.56
914.742	5496.72
915.054	5482.48
915.366	5450.85
915.678	5386.21
915.99	5400.68
916.302	5363.39
916.613	5298.98
916.925	5339.44
917.236	5277.52
917.548	5217.18
917.859	5282.94
918.171	5223.51
918.482	5192.32
918.794	5212.21
919.105	5144.41
919.416	5160.01
919.727	5119.1
920.038	5098.31
920.349	5087.01
920.66	5072.55
920.971	5082.95
921.282	5023.74
921.593	5003.17
921.903	5009.5
922.214	4953.68
922.525	4951.2
922.835	4901.71
923.146	4853.57
923.456	4892.67
923.767	4845.44
924.077	4886.34
924.387	4823.52
924.697	4792.78
925.008	4788.94
925.318	4770.19
925.628	4731.09
925.938	4697.42
926.248	4731.09
926.558	4695.61
926.867	4732.22
927.177	4644.76
927.487	4617.87
927.796	4614.26
928.106	4607.93
928.416	4596.4
928.725	4568.38
929.034	4550.08
929.344	4537.88
929.653	4493.36
929.962	4440.48
930.271	4486.58
930.581	4510.98
930.89	4471.66
931.199	4389.18
931.508	4393.47
931.817	4429.63
932.125	4350.76
932.434	4419.23
932.743	4332.46
933.051	4351.89
933.36	4309.41
933.669	4275.74
933.977	4280.25
934.286	4262.18
934.594	4260.37
934.902	4247.94
935.21	4198.22
935.519	4176.53
935.827	4153.25
936.135	4129.07
936.443	4142.41
936.751	4092.91
937.059	4099.24
937.367	4045.23
937.674	4076.87
937.982	4085.23
938.29	4013.6
938.597	4017.21
938.905	3992.35
939.213	3955.29
939.52	3957.55
939.827	3966.36
940.135	3942.64
940.442	3879.59
940.749	3932.02
941.056	3904.45
941.363	3877.1
941.67	3861.51
941.977	3829.42
942.284	3766.6
942.591	3787.39
942.898	3798.46
943.205	3734.51
943.511	3749.42
943.818	3723.89
944.125	3725.24
944.431	3719.14
944.738	3705.81
945.044	3694.96
945.35	3647.05
945.657	3609.76
945.963	3626.71
946.269	3585.13
946.575	3566.83
946.881	3574.28
947.187	3580.84
947.493	3505.13
947.799	3555.53
948.105	3500.84
948.41	3511.46
948.716	3499.71
949.022	3484.57
949.327	3498.35
949.633	3430.79
949.938	3452.25
950.244	3421.97
950.549	3413.84
950.854	3402.76
951.16	3383.1
951.465	3338.81
951.77	3336.55
952.075	3318.7
952.38	3282.99
952.685	3303.56
952.99	3287.74
953.294	3262.43
953.599	3313.95
953.904	3294.74
954.209	3219.27
954.513	3203.9
954.818	3205.93
955.122	3188.31
955.426	3179.49
955.731	3167.52
956.035	3135.88
956.339	3129.78
956.643	3162.32
956.948	3124.58
957.252	3085.03
957.556	3092.72
957.86	3077.57
958.163	3099.27
958.467	3084.58
958.771	3086.39
959.075	3009.1
959.378	3012.04
959.682	3091.36
959.985	3034.86
960.289	2989.89
960.592	2963.45
960.896	2972.04
961.199	2956.67
961.502	2925.49
961.805	2943.11
962.108	2898.6
962.411	2884.13
962.714	2893.62
963.017	2890.01
963.32	2905.15
963.623	2881.87
963.926	2861.99
964.228	2818.6
964.531	2824.47
964.833	2838.71
965.136	2754.42
965.438	2804.36
965.741	2768.66
966.043	2765.49
966.345	2724.14
966.648	2767.53
966.95	2728.66
967.252	2699.73
967.554	2704.25
967.856	2694.53
968.158	2627.42
968.46	2647.76
968.761	2649.34
969.063	2649.34
969.365	2627.64
969.666	2599.39
969.968	2625.38
970.269	2581.77
970.571	2622.45
970.872	2547.19
971.174	2596.68
971.475	2562.11
971.776	2529.79
972.077	2533.63
972.378	2514.43
972.679	2477.14
972.98	2478.49
973.281	2491.15
973.582	2486.18
973.883	2485.05
974.183	2499.96
974.484	2436.01
974.785	2406.41
975.085	2450.25
975.386	2411.38
975.686	2417.93
975.986	2395.78
976.287	2377.71
976.587	2389.23
976.887	2361.44
977.187	2369.8
977.487	2339.97
977.787	2319.18
978.087	2323.02
978.387	2323.47
978.687	2311.72
978.987	2292.74
979.286	2280.08
979.586	2274.88
979.885	2279.18
980.185	2231.04
980.484	2232.17
980.784	2215
981.083	2215.22
981.382	2214.32
981.682	2260.42
981.981	2210.93
982.28	2200.08
982.579	2213.19
982.878	2168.9
983.177	2161.67
983.475	2153.3
983.774	2119.18
984.073	2134.32
984.372	2118.28
984.67	2120.54
984.969	2124.15
985.267	2130.93
985.566	2108.56
985.864	2065.17
986.162	2095.23
986.461	2070.14
986.759	2072.63
987.057	2019.75
987.355	2038.51
987.653	2021.33
987.951	2035.57
988.249	1992.63
988.547	2027.88
988.844	2039.18
989.142	1962.35
989.44	1999.18
989.737	1994.67
990.035	1950.6
990.332	1972.07
990.63	1959.19
990.927	1935.23
991.224	1957.15
991.521	1939.75
991.819	1904.72
992.116	1928
992.413	1910.37
992.71	1883.48
993.006	1871.28
993.303	1877.38
993.6	1840.09
993.897	1870.37
994.193	1857.95
994.49	1868.11
994.787	1792.86
995.083	1803.26
995.379	1806.65
995.676	1785.41
995.972	1788.34
996.268	1795.57
996.565	1779.08
996.861	1758.74
997.157	1771.17
997.453	1750.15
997.749	1761
998.044	1726.65
998.34	1716.93
998.636	1714.22
998.932	1728.91
999.227	1721.23
999.523	1722.36
999.818	1684.62
1000.114	1665.18
1000.409	1672.41
1000.704	1659.76
1001	1652.98
1001.295	1639.19
1001.59	1641.68
1001.885	1620.89
1002.18	1592.64
1002.475	1596.48
1002.77	1575.02
1003.065	1619.99
1003.359	1558.74
1003.654	1590.61
1003.949	1556.71
1004.243	1554.9
1004.538	1549.71
1004.832	1524.39
1005.127	1541.12
1005.421	1533.21
1005.715	1522.59
1006.009	1522.36
1006.304	1511.97
1006.598	1491.18
1006.892	1494.11
1007.186	1483.49
1007.48	1450.05
1007.773	1450.27
1008.067	1421.12
1008.361	1446.43
1008.655	1441.01
1008.948	1431.97
1009.242	1467
1009.535	1411.4
1009.829	1392.87
1010.122	1377.05
1010.415	1393.1
1010.708	1407.34
1011.001	1349.48
1011.295	1353.55
1011.588	1361.69
1011.881	1327.79
1012.173	1332.99
1012.466	1330.05
1012.759	1334.34
1013.052	1330.05
1013.344	1313.33
1013.637	1314
1013.93	1294.57
1014.222	1307.23
1014.514	1289.15
1014.807	1288.69
1015.099	1290.73
1015.391	1279.66
1015.683	1253.22
1015.976	1259.09
1016.268	1264.51
1016.56	1249.83
1016.851	1222.48
1017.143	1215.48
1017.435	1241.69
1017.727	1184.06
1018.018	1217.74
1018.31	1207.34
1018.602	1184.06
1018.893	1182.03
1019.185	1160.11
1019.476	1178.64
1019.767	1171.64
1020.058	1155.37
1020.35	1149.26
1020.641	1151.07
1020.932	1139.09
1021.223	1148.59
1021.514	1113.11
1021.804	1106.55
1022.095	1116.27
1022.386	1108.36
1022.677	1103.16
1022.967	1082.82
1023.258	1086.21
1023.548	1078.76
1023.839	1075.37
1024.129	1043.73
1024.419	1078.98
1024.709	1066.78
1025	1045.54
1025.29	1040.11
1025.58	1032.2
1025.87	994.01
1026.16	1017.97
1026.449	1005.54
1026.739	1010.74
1027.029	1003.28
1027.319	983.17
1027.608	987.01
1027.898	989.95
1028.187	965.09
1028.477	988.82
1028.766	960.79
1029.055	935.94
1029.344	954.24
1029.634	955.6
1029.923	964.18
1030.212	936.84
1030.501	946.11
1030.79	932.77
1031.078	929.38
1031.367	933
1031.656	894.58
1031.945	918.76
1032.233	906.33
1032.522	887.35
1032.81	932.09
1033.099	879.21
1033.387	882.15
1033.675	872.21
1033.963	882.15
1034.251	866.33
1034.54	846.67
1034.828	853.45
1035.116	859.55
1035.403	833.79
1035.691	837.41
1035.979	833.79
1036.267	821.59
1036.554	814.81
1036.842	824.07
1037.129	823.85
1037.417	805.32
1037.704	807.8
1037.992	802.61
1038.279	795.37
1038.566	787.92
1038.853	787.92
1039.14	787.92
