Data from hue_90_FLMS001491_80.txt Node
Date: Mon Feb 06 15:25:39 GMT 2017
User: dcchb
Spectrometer: FLMS00149
Trigger mode: 0
Integration Time (sec): 2.000000E-2
Scans to average: 10
Electric dark correction enabled: true
Nonlinearity correction enabled: false
Boxcar width: 0
XAxis mode: Wavelengths
Number of Pixels in Spectrum: 2048
>>>>>Begin Spectral Data<<<<<
341.393	-11.47
341.776	-11.47
342.16	-11.47
342.543	-60.96
342.927	-53.5
343.31	-63.9
343.693	-73.61
344.077	-58.02
344.46	-65.93
344.843	-45.59
345.226	-46.95
345.61	-9.89
345.993	-20.96
346.376	5.93
346.759	-9.43
347.142	15.65
347.525	41.41
347.908	54.74
348.291	65.37
348.674	106.27
349.057	104.91
349.44	130.45
349.823	148.53
350.206	181.52
350.588	195.08
350.971	200.5
351.354	234.17
351.737	231.91
352.119	259.94
352.502	244.12
352.884	281.41
353.267	281.63
353.65	304
354.032	279.82
354.414	324.79
354.797	297
355.179	310.56
355.562	320.05
355.944	316.21
356.326	338.58
356.709	323.66
357.091	376.77
357.473	321.4
357.855	339.48
358.238	337.9
358.62	336.09
359.002	332.25
359.384	300.16
359.766	337.9
360.148	334.74
360.53	320.27
360.912	309.65
361.294	363.66
361.676	320.95
362.057	339.71
362.439	325.7
362.821	328.86
363.203	343.78
363.584	347.17
363.966	357.79
364.348	320.27
364.729	302.87
365.111	321.86
365.493	312.36
365.874	312.36
366.256	315.53
366.637	311.46
367.019	286.38
367.4	325.47
367.781	301.74
368.163	299.71
368.544	310.33
368.925	313.95
369.306	319.82
369.688	312.36
370.069	304.46
370.45	331.57
370.831	284.34
371.212	308.52
371.593	322.76
371.974	322.53
372.355	327.73
372.736	329.54
373.117	312.36
373.498	309.88
373.879	319.82
374.26	308.75
374.641	322.76
375.021	302.87
375.402	302.2
375.783	320.5
376.163	324.34
376.544	325.7
376.925	305.81
377.305	326.83
377.686	345.13
378.066	321.63
378.447	299.71
378.827	318.69
379.208	316.43
379.588	327.28
379.968	310.33
380.349	349.65
380.729	316.66
381.109	320.95
381.489	342.87
381.87	338.35
382.25	341.06
382.63	344
383.01	310.33
383.39	333.38
383.77	335.64
384.15	339.48
384.53	338.8
384.91	340.84
385.29	348.3
385.67	354.17
386.049	367.96
386.429	340.39
386.809	359.37
387.189	345.58
387.568	365.02
387.948	344.91
388.328	356.88
388.707	358.24
389.087	356.88
389.466	366.83
389.846	334.06
390.225	359.82
390.605	362.31
390.984	377.22
391.363	362.98
391.743	347.62
392.122	376.77
392.501	382.19
392.881	377.9
393.26	371.35
393.639	377.67
394.018	355.3
394.397	366.15
394.776	364.11
395.155	367.73
395.534	367.73
395.913	358.24
396.292	367.96
396.671	382.42
397.05	385.13
397.429	379.03
397.808	382.87
398.186	384.91
398.565	393.04
398.944	381.97
399.323	378.13
399.701	395.98
400.08	377.67
400.458	395.53
400.837	397.11
401.215	395.07
401.594	404.11
401.972	414.51
402.351	405.47
402.729	411.12
403.107	397.33
403.486	402.53
403.864	398.92
404.242	396.43
404.62	402.08
404.999	412.48
405.377	426.03
405.755	427.39
406.133	421.29
406.511	421.97
406.889	423.55
407.267	405.02
407.645	426.71
408.023	448.18
408.401	431.01
408.779	445.92
409.156	460.84
409.534	449.08
409.912	429.88
410.29	440.5
410.667	451.57
411.045	453.6
411.422	471.91
411.8	459.93
412.178	459.25
412.555	468.74
412.933	466.94
413.31	474.17
413.687	473.49
414.065	471
414.442	450.89
414.819	474.17
415.197	483.89
415.574	486.37
415.951	499.7
416.328	496.09
416.705	485.69
417.082	513.72
417.46	492.25
417.837	500.83
418.214	488.86
418.591	489.08
418.967	503.32
419.344	522.3
419.721	520.49
420.098	515.52
420.475	526.82
420.852	517.11
421.228	529.53
421.605	514.39
421.982	522.3
422.358	546.03
422.735	551.23
423.111	533.15
423.488	558.46
423.864	563.88
424.241	567.5
424.617	549.65
424.994	584.67
425.37	573.15
425.746	560.27
426.123	564.79
426.499	570.89
426.875	574.96
427.251	594.62
427.627	592.13
428.003	604.56
428.379	595.3
428.756	620.61
429.132	605.46
429.507	604.33
429.883	608.63
430.259	640.27
430.635	642.07
431.011	624.9
431.387	616.54
431.763	646.14
432.138	631.9
432.514	661.28
432.89	644.33
433.265	689.3
433.641	663.77
434.016	658.8
434.392	681.62
434.767	683.43
435.143	684.11
435.518	703.31
435.894	710.55
436.269	699.93
436.644	709.42
437.02	724.56
437.395	706.03
437.77	746.25
438.145	751
438.52	725.01
438.895	736.99
439.271	741.28
439.646	756.87
440.021	769.75
440.395	757.78
440.77	770.21
441.145	783.31
441.52	786.48
441.895	774.5
442.27	777.44
442.645	753.93
443.019	792.13
443.394	795.97
443.769	797.78
444.143	807.72
444.518	819.92
444.892	814.27
445.267	823.99
445.641	829.19
446.016	817.89
446.39	814.72
446.764	866.47
447.139	843.65
447.513	836.87
447.887	856.31
448.262	869.41
448.636	882.52
449.01	890.65
449.384	879.13
449.758	882.97
450.132	873.48
450.506	914.38
450.88	894.5
451.254	907.6
451.628	898.11
452.002	935.63
452.376	924.1
452.75	941.05
453.123	952.12
453.497	987.15
453.871	993.7
454.244	1000.26
454.618	991.44
454.992	966.58
455.365	1010.65
455.739	1008.39
456.112	1031.22
456.486	1034.61
456.859	1046.81
457.232	1074.83
457.606	1051.55
457.979	1095.62
458.352	1098.33
458.725	1103.76
459.099	1134.26
459.472	1156.86
459.845	1143.98
460.218	1183.75
460.591	1169.07
460.964	1141.72
461.337	1203.87
461.71	1220.59
462.083	1232.79
462.456	1239.12
462.829	1268.5
463.201	1256.52
463.574	1263.3
463.947	1335.39
464.32	1325.22
464.692	1314.37
465.065	1319.34
465.438	1357.08
465.81	1369.74
466.183	1407.03
466.555	1436.4
466.928	1422.62
467.3	1444.31
467.672	1458.32
468.045	1527.25
468.417	1514.82
468.789	1570.64
469.161	1555.72
469.534	1601.14
469.906	1633.01
470.278	1643.63
470.65	1671.88
471.022	1684.08
471.394	1742.16
471.766	1749.39
472.138	1797.52
472.51	1831.87
472.882	1888.82
473.253	1907.12
473.625	1941.47
473.997	1977.63
474.369	2038.87
474.74	2037.29
475.112	2078.19
475.484	2140.79
475.855	2212.2
476.227	2235.7
476.598	2340.33
476.97	2393.89
477.341	2427.56
477.713	2475.02
478.084	2474.12
478.455	2602.7
478.827	2648.8
479.198	2724.5
479.569	2752.98
479.94	2857.61
480.311	2973.09
480.682	3004.05
481.053	3110.26
481.424	3164.04
481.795	3283.36
482.166	3334.43
482.537	3406.29
482.908	3507.76
483.279	3570.36
483.65	3685.16
484.021	3815.1
484.391	3888.99
484.762	3995.66
485.133	4032.49
485.503	4136.67
485.874	4256.22
486.244	4351.35
486.615	4473.84
486.985	4595.87
487.356	4679.71
487.726	4799.7
488.097	4941.4
488.467	4984.33
488.837	5175.29
489.207	5306.13
489.578	5394.49
489.948	5448.5
490.318	5650.53
490.688	5705.22
491.058	5864.08
491.428	6013.91
491.798	6080.8
492.168	6282.83
492.538	6312.66
492.908	6462.71
493.278	6605.53
493.648	6707.68
494.017	6781.57
494.387	6958.74
494.757	7014.11
495.126	7119.64
495.496	7205.52
495.866	7361.67
496.235	7496.58
496.605	7598.95
496.974	7716.01
497.344	7823.13
497.713	7897.93
498.082	8044.82
498.452	8083.01
498.821	8262.66
499.19	8272.61
499.559	8377.69
499.928	8484.35
500.298	8625.59
500.667	8765.48
501.036	8725.7
501.405	8870.33
501.774	8907.84
502.143	9015.64
502.512	9090.21
502.88	9203.43
503.249	9302.41
503.618	9425.8
503.987	9459.24
504.356	9511.22
504.724	9626.7
505.093	9598
505.462	9661.95
505.83	9751.89
506.199	9872.57
506.567	9952.34
506.936	9923.41
507.304	10165.66
507.672	10153.46
508.041	10220.58
508.409	10341.48
508.777	10372.21
509.145	10448.14
509.514	10461.48
509.882	10551.19
510.25	10619.21
510.618	10728.59
510.986	10753.67
511.354	10827.57
511.722	10854.69
512.09	10944.85
512.458	10984.17
512.826	11052.2
513.193	11036.6
513.561	11046.32
513.929	11128.8
514.297	11229.82
514.664	11273.66
515.032	11278.63
515.4	11402.02
515.767	11358.4
516.135	11480.66
516.502	11415.8
516.869	11541
517.237	11549.36
517.604	11557.49
517.972	11589.36
518.339	11651.95
518.706	11688.79
519.073	11771.5
519.44	11791.38
519.808	11761.1
520.175	11839.29
520.542	11961.55
520.909	11983.47
521.276	11942.79
521.643	12042
522.009	11961.55
522.376	12078.61
522.743	12175.56
523.11	12206.52
523.477	12231.15
523.843	12308.66
524.21	12336.91
524.577	12371.48
524.943	12439.5
525.31	12463.01
525.676	12457.36
526.043	12482.44
526.409	12472.95
526.776	12645.83
527.142	12641.08
527.508	12600.63
527.874	12732.83
528.241	12680.85
528.607	12696.9
528.973	12737.8
529.339	12703.45
529.705	12833.17
530.071	12840.62
530.437	12863.22
530.803	12780.96
531.169	12909.1
531.535	12791.36
531.901	12809.89
532.267	12824.8
532.632	12821.64
532.998	12888.08
533.364	12910.9
533.73	12847.63
534.095	12898.7
534.461	12823.22
534.826	12936.67
535.192	12815.99
535.557	12909.77
535.923	12801.3
536.288	12845.82
536.653	12908.19
537.019	12835.88
537.384	12784.35
537.749	12787.29
538.114	12782.32
538.479	12774.18
538.845	12845.14
539.21	12638.59
539.575	12765.37
539.94	12631.14
540.305	12711.36
540.67	12640.18
541.034	12656.9
541.399	12706.84
541.764	12693.28
542.129	12623.68
542.494	12599.95
542.858	12671.81
543.223	12511.37
543.587	12601.08
543.952	12519.28
544.316	12496.45
544.681	12430.24
545.045	12461.88
545.41	12425.49
545.774	12474.53
546.138	12445.6
546.503	12399.96
546.867	12346.85
547.231	12319.28
547.595	12319.96
547.959	12251.26
548.324	12299.39
548.688	12194.09
549.052	12242.9
549.416	12265.95
549.779	12164.93
550.143	12228.66
550.507	12151.38
550.871	12158.61
551.235	12025.73
551.599	12065.95
551.962	12084.03
552.326	12105.05
552.689	12105.05
553.053	12041.32
553.417	11972.17
553.78	12068.89
554.143	12040.42
554.507	12026.63
554.87	11966.97
555.234	12037.48
555.597	11864.15
555.96	11933.08
556.323	11981.21
556.686	11932.17
557.05	11940.76
557.413	11975.33
557.776	11909.57
558.139	11933.98
558.502	11860.76
558.865	11823.02
559.228	11952.28
559.59	11971.27
559.953	11954.09
560.316	11958.84
560.679	12013.07
561.041	11990.48
561.404	11942.34
561.767	11972.62
562.129	12008.33
562.492	12077.71
562.854	12067.76
563.217	12014.88
563.579	12022.11
563.941	12018.27
564.304	12112.51
564.666	12107.08
565.028	12062.11
565.39	12083.35
565.753	12103.24
566.115	12108.21
566.477	12037.93
566.839	12181.66
567.201	12232.28
567.563	12169.45
567.925	12259.17
568.287	12230.47
568.648	12232.73
569.01	12253.52
569.372	12245.38
569.734	12253.97
570.095	12295.55
570.457	12296
570.819	12365.61
571.18	12412.16
571.542	12328.77
571.903	12407.19
572.265	12390.24
572.626	12402.89
572.987	12471.59
573.349	12468.2
573.71	12347.53
574.071	12411.93
574.432	12531.48
574.794	12515.66
575.155	12554.98
575.516	12461.2
575.877	12491.25
576.238	12457.13
576.599	12548.88
576.96	12516.11
577.32	12541.2
577.681	12631.59
578.042	12559.27
578.403	12552.49
578.763	12495.1
579.124	12571.03
579.485	12566.73
579.845	12670.01
580.206	12530.57
580.566	12531.7
580.927	12507.07
581.287	12574.87
581.648	12518.37
582.008	12590.46
582.368	12436.34
582.728	12562.44
583.089	12550.46
583.449	12552.72
583.809	12479.73
584.169	12593.85
584.529	12423.23
584.889	12622.55
585.249	12552.95
585.609	12477.92
585.969	12588.43
586.329	12538.03
586.688	12505.04
587.048	12511.37
587.408	12523.79
587.768	12424.59
588.127	12478.6
588.487	12425.27
588.846	12589.78
589.206	12431.82
589.565	12507.52
589.925	12489.45
590.284	12401.31
590.643	12472.27
591.003	12448.77
591.362	12448.77
591.721	12375.32
592.08	12407.87
592.44	12414.42
592.799	12399.28
593.158	12383.23
593.517	12412.84
593.876	12416.23
594.235	12337.36
594.593	12316.57
594.952	12443.35
595.311	12321.31
595.67	12331.94
596.029	12456.45
596.387	12362.67
596.746	12440.18
597.104	12405.38
597.463	12312.05
597.822	12390.69
598.18	12341.65
598.538	12241.54
598.897	12297.13
599.255	12238.38
599.613	12446.51
599.972	12376.45
600.33	12363.12
600.688	12374.87
601.046	12357.02
601.404	12456
601.762	12325.83
602.12	12374.65
602.478	12384.36
602.836	12402.89
603.194	12314.08
603.552	12279.51
603.91	12338.72
604.268	12272.95
604.625	12281.99
604.983	12378.94
605.341	12299.85
605.698	12338.49
606.056	12337.81
606.413	12382.1
606.771	12309.34
607.128	12396.79
607.485	12346.62
607.843	12430.69
608.2	12458.49
608.557	12427.07
608.914	12393.85
609.272	12469.56
609.629	12460.52
609.986	12472.5
610.343	12390.47
610.7	12570.8
611.057	12487.41
611.414	12448.54
611.771	12532.16
612.127	12546.17
612.484	12523.34
612.841	12586.84
613.198	12554.08
613.554	12536.22
613.911	12602.21
614.267	12521.31
614.624	12562.66
614.98	12613.28
615.337	12615.54
615.693	12619.16
616.05	12526.05
616.406	12649.67
616.762	12613.74
617.118	12637.24
617.475	12635.66
617.831	12737.35
618.187	12617.13
618.543	12722.43
618.899	12710.23
619.255	12672.49
619.611	12712.72
619.967	12758.59
620.323	12775.09
620.678	12745.48
621.034	12643.57
621.39	12674.75
621.746	12687.63
622.101	12741.64
622.457	12742.55
622.812	12753.39
623.168	12724.47
623.523	12664.58
623.879	12841.3
624.234	12700.06
624.589	12771.7
624.945	12764.92
625.3	12823.67
625.655	12763.79
626.01	12764.24
626.365	12733.28
626.72	12678.14
627.075	12675.66
627.43	12682.89
627.785	12653.74
628.14	12755.88
628.495	12639.05
628.85	12647.63
629.205	12736.44
629.559	12715.65
629.914	12719.27
630.269	12687.18
630.623	12641.76
630.978	12598.6
631.332	12626.39
631.687	12656.67
632.041	12639.27
632.396	12617.58
632.75	12576.45
633.104	12630.01
633.459	12524.7
633.813	12464.14
634.167	12511.82
634.521	12581.19
634.875	12500.97
635.229	12413.97
635.583	12401.09
635.937	12375.1
636.291	12440.86
636.645	12426.62
636.999	12391.14
637.352	12444.7
637.706	12267.98
638.06	12364.03
638.413	12396.34
638.767	12316.12
639.121	12416.23
639.474	12262.78
639.828	12289
640.181	12236.8
640.534	12260.3
640.888	12227.31
641.241	12200.19
641.594	12280.19
641.947	12206.97
642.301	12228.44
642.654	12176.69
643.007	12204.26
643.36	12175.78
643.713	12181.21
644.066	12198.38
644.419	12136.46
644.771	12049.23
645.124	12003.13
645.477	11843.36
645.83	11868.67
646.182	11773.31
646.535	11768.56
646.888	11794.77
647.24	11776.7
647.593	11829.8
647.945	11729.01
648.298	11715.23
648.65	11680.88
649.002	11668.9
649.355	11744.38
649.707	11734.44
650.059	11814.21
650.411	11851.95
650.763	11908.9
651.115	12028.44
651.467	11994.77
651.819	12009.68
652.171	11970.36
652.523	12006.07
652.875	11983.47
653.227	11932.17
653.578	12017.59
653.93	11996.35
654.282	11933.98
654.633	11875.22
654.985	11886.07
655.337	11904.6
655.688	11983.24
656.039	11950.02
656.391	11920.87
656.742	11940.99
657.094	11957.03
657.445	11995.9
657.796	12003.13
658.147	11906.64
658.498	11986.18
658.849	11931.95
659.2	11957.71
659.551	11974.43
659.902	12025.28
660.253	11959.52
660.604	12029.57
660.955	11860.76
661.306	12029.8
661.656	12046.52
662.007	12022.34
662.358	12007.42
662.708	12064.82
663.059	11968.56
663.409	11953.19
663.76	11998.61
664.11	11970.82
664.461	11999.97
664.811	12052.85
665.161	12046.29
665.511	11952.96
665.862	12013.07
666.212	12028.44
666.562	11995
666.912	11991.15
667.262	11977.14
667.612	12005.84
667.962	11992.51
668.312	11983.92
668.662	12033.19
669.011	11982.34
669.361	11949.8
669.711	12017.14
670.06	11950.7
670.41	11902.34
670.76	11864.15
671.109	11995.67
671.459	11921.78
671.808	11997.48
672.157	11946.18
672.507	11827.09
672.856	11931.49
673.205	11924.71
673.554	11944.15
673.904	11867.54
674.253	12026.86
674.602	11893.3
674.951	11799.75
675.3	11654.89
675.649	11899.4
675.998	11810.82
676.346	11813.76
676.695	11831.84
677.044	11755.45
677.393	11748.67
677.741	11763.81
678.09	11773.76
678.438	11844.49
678.787	11760.88
679.135	11743.02
679.484	11701.44
679.832	11704.83
680.181	11656.02
680.529	11715.91
680.877	11612.18
681.225	11636.36
681.573	11667.32
681.922	11568.11
682.27	11517.72
682.618	11511.17
682.966	11464.16
683.314	11487.44
683.661	11513.65
684.009	11397.95
684.357	11361.34
684.705	11399.3
685.053	11429.81
685.4	11392.98
685.748	11365.41
686.095	11311.85
686.443	11284.51
686.79	11326.31
687.138	11279.08
687.485	11218.74
687.832	11198.18
688.18	11230.04
688.527	11154.57
688.874	11165.64
689.221	11042.7
689.568	11028.69
689.915	11025.98
690.262	11010.61
690.609	11009.48
690.956	10905.53
691.303	10923.84
691.65	10870.05
691.997	10900.11
692.344	10850.84
692.69	10768.81
693.037	10812.43
693.383	10739.66
693.73	10653.34
694.077	10710.74
694.423	10670.74
694.769	10676.61
695.116	10518.42
695.462	10556.39
695.808	10579.89
696.155	10568.37
696.501	10462.15
696.847	10465.54
697.193	10352.55
697.539	10343.29
697.885	10186.91
698.231	10216.06
698.577	10217.87
698.923	10196.85
699.269	10197.98
699.614	10035.95
699.96	10026.23
700.306	10126.8
700.651	9974.48
700.997	9898.55
701.342	9994.6
701.688	9917.99
702.033	9845.9
702.379	9848.61
702.724	9755.96
703.069	9808.16
703.415	9661.72
703.76	9715.28
704.105	9702.63
704.45	9720.03
704.795	9583.31
705.14	9574.95
705.485	9587.83
705.83	9559.58
706.175	9522.29
706.52	9479.13
706.865	9489.52
707.209	9409.3
707.554	9350.55
707.899	9439.58
708.243	9356.19
708.588	9438.23
708.932	9308.06
709.277	9270.77
709.621	9308.96
709.966	9172.24
710.31	9210.89
710.654	9161.17
710.998	9139.03
711.342	9084.56
711.687	9147.61
712.031	9045.69
712.375	9025.81
712.719	9024.23
713.063	8998.92
713.407	9102.87
713.75	8936.09
714.094	8998.01
714.438	8929.99
714.782	8944.45
715.125	8878.24
715.469	8951.46
715.812	8872.37
716.156	8854.51
716.499	8882.99
716.843	8839.15
717.186	8799.83
717.53	8865.59
717.873	8792.82
718.216	8793.95
718.559	8777.9
718.902	8699.26
719.246	8689.55
719.589	8660.85
719.932	8657.91
720.275	8618.13
720.617	8587.63
720.96	8640.06
721.303	8671.47
721.646	8627.63
721.989	8607.51
722.331	8647.29
722.674	8599.15
723.016	8614.75
723.359	8604.8
723.701	8598.47
724.044	8518.48
724.386	8518.48
724.729	8508.31
725.071	8461.53
725.413	8550.11
725.755	8533.62
726.097	8449.55
726.439	8465.82
726.782	8393.51
727.124	8551.24
727.465	8495.88
727.807	8480.29
728.149	8391.25
728.491	8395.09
728.833	8431.93
729.175	8381.08
729.516	8406.62
729.858	8414.07
730.199	8421.08
730.541	8426.5
730.882	8434.19
731.224	8492.26
731.565	8386.73
731.906	8399.84
732.248	8440.74
732.589	8387.18
732.93	8365.94
733.271	8353.28
733.612	8413.17
733.953	8446.61
734.294	8353.28
734.635	8378.14
734.976	8401.42
735.317	8272.38
735.658	8337.92
735.999	8371.36
736.339	8321.65
736.68	8412.72
737.021	8425.37
737.361	8316.45
737.702	8417.24
738.042	8336.56
738.383	8381.53
738.723	8416.33
739.063	8367.29
739.404	8412.49
739.744	8451.36
740.084	8400.74
740.424	8424.24
740.764	8394.64
741.104	8480.96
741.444	8398.71
741.784	8422.43
742.124	8482.32
742.464	8494.75
742.804	8478.48
743.143	8466.27
743.483	8512.15
743.823	8515.99
744.162	8499.04
744.502	8647.29
744.841	8527.97
745.181	8609.1
745.52	8570.9
745.86	8614.07
746.199	8686.83
746.538	8693.61
746.877	8727.74
747.216	8734.52
747.556	8781.75
747.895	8812.48
748.234	8819.03
748.573	8921.63
748.911	8968.18
749.25	9038.69
749.589	9119.36
749.928	9102.87
750.267	9157.78
750.605	9224.9
750.944	9286.82
751.283	9371.56
751.621	9437.77
751.96	9452.01
752.298	9588.28
752.636	9627.15
752.975	9666.69
753.313	9777.2
753.651	9893.13
753.989	9972.9
754.327	10013.13
754.666	10081.37
755.004	10160.69
755.342	10383.74
755.679	10441.36
756.017	10469.61
756.355	10605.2
756.693	10665.09
757.031	10806.78
757.368	10922.71
757.706	11066.66
758.044	11179.2
758.381	11306.43
758.719	11380.55
759.056	11557.72
759.394	11684.5
759.731	11746.87
760.068	11902.57
760.405	11995.67
760.743	12160.64
761.08	12240.41
761.417	12417.13
761.754	12542.55
762.091	12623.68
762.428	12841.07
762.765	12800.17
763.102	13152.03
763.438	13124.46
763.775	13262.53
764.112	13337.11
764.449	13500.27
764.785	13600.38
765.122	13789.3
765.458	13885.79
765.795	14025.45
766.131	14154.49
766.467	14206.91
766.804	14321.26
767.14	14306.35
767.476	14515.38
767.812	14521.03
768.148	14777.75
768.485	14858.2
768.821	14842.83
769.157	14936.16
769.492	15043.28
769.828	15199.2
770.164	15185.65
770.5	15305.42
770.836	15353.78
771.171	15487.56
771.507	15476.49
771.842	15534.79
772.178	15615.69
772.513	15671.28
772.849	15739.3
773.184	15761.68
773.519	15898.4
773.855	15877.38
774.19	15938.39
774.525	15989.24
774.86	16113.31
775.195	16081.44
775.53	16125.73
775.865	16055
776.2	16100.42
776.535	16112.4
776.87	16187.88
777.205	16187.88
777.539	16132.51
777.874	16236.47
778.209	16175
778.543	16179.07
778.878	16228.56
779.212	16323.92
779.547	16157.15
779.881	16288.44
780.215	16223.58
780.55	16337.71
780.884	16221.32
781.218	16219.97
781.552	16312.4
781.886	16242.34
782.22	16216.58
782.554	16207.31
782.888	16221.55
783.222	16196.24
783.556	16152.4
783.889	16125.96
784.223	16006.42
784.557	16149.91
784.89	16139.07
785.224	16125.06
785.557	15950.15
785.891	16049.8
786.224	16044.15
786.558	16031.5
786.891	15909.92
787.224	15875.12
787.557	15985.17
787.891	15939.75
788.224	15836.7
788.557	15986.98
788.89	15851.39
789.223	15876.02
789.556	15819.08
789.888	15749.02
790.221	15746.08
790.554	15661.57
790.887	15724.61
791.219	15521.23
791.552	15608.69
791.884	15585.86
792.217	15484.85
792.549	15458.86
792.882	15401.23
793.214	15391.52
793.546	15470.38
793.879	15276.94
794.211	15276.72
794.543	15348.81
794.875	15273.55
795.207	15333.44
795.539	15198.3
795.871	15207.34
796.203	15147.45
796.535	15107
796.867	15067.46
797.198	14991.98
797.53	14976.61
797.862	14907.01
798.193	14996.27
798.525	14853.68
798.856	14932.09
799.188	14811.42
799.519	14827.46
799.85	14741.59
800.182	14682.83
800.513	14721.25
800.844	14559.9
801.175	14640.58
801.506	14650.07
801.837	14557.87
802.168	14457.3
802.499	14507.47
802.83	14355.84
803.161	14314.93
803.491	14354.71
803.822	14385.21
804.153	14321.71
804.483	14232.45
804.814	14240.81
805.145	14197.65
805.475	14157.2
805.805	14132.11
806.136	14019.35
806.466	14055.73
806.796	14090.08
807.126	13857.09
807.457	13947.94
807.787	13923.76
808.117	13930.09
808.447	13770.32
808.777	13893.25
809.107	13804.67
809.436	13763.08
809.766	13789.3
810.096	13718.57
810.426	13648.51
810.755	13674.27
811.085	13687.38
811.414	13626.36
811.744	13467.95
812.073	13512.7
812.403	13532.13
812.732	13401.51
813.061	13439.03
813.39	13312.02
813.719	13367.16
814.049	13367.84
814.378	13394.05
814.707	13253.72
815.036	13255.3
815.365	13245.58
815.693	13132.82
816.022	13102.31
816.351	13113.61
816.68	13029.32
817.008	13117.45
817.337	12975.76
817.665	12967.17
817.994	12981.18
818.322	12969.66
818.651	12892.82
818.979	12853.73
819.307	12960.39
819.636	12890.34
819.964	12839.04
820.292	12851.7
820.62	12877.01
820.948	12852.6
821.276	12839.72
821.604	12823.9
821.932	12795.2
822.259	12894.63
822.587	12808.08
822.915	12801.3
823.243	12862.77
823.57	12720.63
823.898	12866.16
824.225	12756.56
824.553	12782.55
824.88	12758.82
825.207	12846.95
825.535	12780.06
825.862	12832.49
826.189	12820.96
826.516	12846.05
826.843	12822.09
827.17	12871.36
827.497	12874.07
827.824	12840.17
828.151	12887.4
828.478	12837.01
828.805	12915.2
829.131	12695.32
829.458	12768.31
829.785	12677.24
830.111	12764.24
830.438	12888.08
830.764	12756.11
831.09	12799.95
831.417	12678.14
831.743	12806.05
832.069	12812.15
832.395	12698.48
832.722	12786.84
833.048	12673.62
833.374	12727.18
833.7	12707.52
834.026	12726.05
834.351	12780.06
834.677	12686.73
835.003	12852.6
835.329	12743.45
835.654	12690.8
835.98	12637.46
836.306	12659.61
836.631	12605.83
836.956	12576.67
837.282	12597.01
837.607	12455.77
837.932	12432.5
838.258	12537.58
838.583	12491.71
838.908	12489.45
839.233	12454.42
839.558	12413.74
839.883	12418.04
840.208	12431.14
840.533	12358.83
840.858	12297.36
841.182	12345.95
841.507	12327.87
841.832	12363.57
842.156	12272.73
842.481	12221.2
842.805	12269.56
843.13	12156.12
843.454	12148.21
843.778	12067.08
844.103	12142.79
844.427	12098.04
844.751	12146.63
845.075	12057.59
845.399	12021.21
845.723	11924.49
846.047	11965.84
846.371	11812.18
846.695	11884.26
847.019	11781.89
847.343	11633.42
847.666	11632.07
847.99	11597.49
848.313	11630.26
848.637	11508.23
848.96	11473.43
849.284	11413.09
849.607	11406.76
849.931	11368.8
850.254	11261.23
850.577	11189.14
850.9	11109.82
851.223	11116.37
851.546	11090.84
851.869	11017.62
852.192	11085.19
852.515	10949.37
852.838	10955.02
853.161	10928.58
853.483	10883.16
853.806	10868.02
854.129	10765.42
854.451	10778.3
854.774	10686.78
855.096	10680
855.419	10627.12
855.741	10653.34
856.063	10599.78
856.385	10524.75
856.708	10560
857.03	10425.32
857.352	10452.21
857.674	10448.82
857.996	10373.12
858.318	10318.66
858.64	10335.38
858.961	10323.85
859.283	10314.81
859.605	10209.51
859.926	10158.21
860.248	10259.9
860.57	10179
860.891	10198.43
861.212	10146.23
861.534	10049.06
861.855	10106.46
862.176	10038.66
862.498	10094.03
862.819	10008.83
863.14	10046.57
863.461	10056.97
863.782	9890.64
864.103	9983.07
864.424	9909.63
864.745	9914.37
865.065	9905.56
865.386	9837.76
865.707	9869.18
866.027	9948.27
866.348	9829.18
866.668	9840.02
866.989	9814.26
867.309	9721.61
867.63	9760.03
867.95	9703.3
868.27	9735.62
868.59	9732
868.91	9656.07
869.23	9630.54
869.55	9663.31
869.87	9684.77
870.19	9620.37
870.51	9566.36
870.83	9608.62
871.15	9632.12
871.469	9507.15
871.789	9550.77
872.109	9579.69
872.428	9480.03
872.748	9563.65
873.067	9482.97
873.386	9516.64
873.706	9403.43
874.025	9404.78
874.344	9440.71
874.663	9502.18
874.982	9386.25
875.301	9406.36
875.62	9298.34
875.939	9341.05
876.258	9341.05
876.577	9278.91
876.896	9276.87
877.214	9301.28
877.533	9289.08
877.852	9322.07
878.17	9269.42
878.489	9245.01
878.807	9294.28
879.125	9198.01
879.444	9204.33
879.762	9132.7
880.08	9145.13
880.398	9108.97
880.716	9171.57
881.034	9062.87
881.352	9109.42
881.67	9102.42
881.988	9047.05
882.306	9096.31
882.624	9001.4
882.941	8960.72
883.259	8965.02
883.577	8903.33
883.894	8964.34
884.212	8841.86
884.529	8871.91
884.846	8879.37
885.164	8876.89
885.481	8828.52
885.798	8814.06
886.115	8842.31
886.432	8735.65
886.75	8782.42
887.067	8805.25
887.383	8690
887.7	8704.46
888.017	8664.69
888.334	8657.46
888.651	8645.7
888.967	8598.25
889.284	8577.46
889.6	8481.87
889.917	8471.7
890.233	8458.82
890.55	8449.1
890.866	8423.34
891.182	8433.96
891.498	8437.12
891.815	8371.81
892.131	8377.01
892.447	8360.06
892.763	8320.52
893.079	8330.91
893.395	8256.34
893.71	8267.86
894.026	8223.12
894.342	8183.34
894.657	8123.91
894.973	8164.36
895.289	8170.24
895.604	8122.78
895.92	8087.53
896.235	8002.11
896.55	7990.58
896.865	7997.13
897.181	7941.32
897.496	7929.11
897.811	7915.33
898.126	7875.1
898.441	7852.28
898.756	7789.23
899.071	7733.19
899.386	7761.89
899.7	7695.45
900.015	7687.99
900.33	7601.44
900.644	7591.95
900.959	7606.41
901.273	7596.01
901.588	7498.84
901.902	7492.74
902.216	7468.33
902.531	7465.4
902.845	7449.8
903.159	7332.75
903.473	7338.39
903.787	7295.68
904.101	7286.42
904.415	7283.48
904.729	7283.48
905.042	7222.24
905.356	7228.34
905.67	7180.43
905.984	7184.5
906.297	7133.43
906.611	7116.03
906.924	7063.37
907.237	7009.14
907.551	7016.82
907.864	6977.27
908.177	6954
908.491	6924.17
908.804	6923.94
909.117	6911.74
909.43	6881.23
909.743	6770.5
910.056	6797.17
910.368	6732.99
910.681	6703.61
910.994	6716.49
911.307	6647.79
911.619	6620.45
911.932	6652.54
912.244	6598.3
912.557	6583.39
912.869	6580
913.181	6559.43
913.494	6452.99
913.806	6457.74
914.118	6478.08
914.43	6427.68
914.742	6433.11
915.054	6380.45
915.366	6324.41
915.678	6295.03
915.99	6260.91
916.302	6308.59
916.613	6245.54
916.925	6250.51
917.236	6220.46
917.548	6171.65
917.859	6136.17
918.171	6203.51
918.482	6091.2
918.794	6057.98
919.105	6029.5
919.416	6030.63
919.727	6025.43
920.038	5963.74
920.349	5975.72
920.66	5926.45
920.971	5933.46
921.282	5887.81
921.593	5825.21
921.903	5871.09
922.214	5822.05
922.525	5780.02
922.835	5742.96
923.146	5695.27
923.456	5746.57
923.767	5690.75
924.077	5652.34
924.387	5671.09
924.697	5612.11
925.008	5563.98
925.318	5564.2
925.628	5528.05
925.938	5568.27
926.248	5505
926.558	5537.09
926.867	5468.61
927.177	5413.02
927.487	5436.75
927.796	5377.09
928.106	5373.7
928.416	5296.19
928.725	5329.18
929.034	5332.57
929.344	5366.7
929.653	5284.21
929.962	5215.96
930.271	5243.31
930.581	5248.96
930.89	5182.29
931.199	5151.56
931.508	5145.23
931.817	5142.29
932.125	5111.56
932.434	5142.07
932.743	5065.01
933.051	5032.69
933.36	5018.23
933.669	4966.03
933.977	4958.8
934.286	4948.63
934.594	4944.33
934.902	4917.44
935.21	4886.71
935.519	4834.28
935.827	4884.45
936.135	4830.66
936.443	4782.98
936.751	4805.35
937.059	4766.94
937.367	4714.96
937.674	4768.52
937.982	4725.81
938.29	4704.34
938.597	4687.62
938.905	4651.91
939.213	4610.1
939.52	4612.36
939.827	4665.47
940.135	4613.72
940.442	4560.39
940.749	4533.95
941.056	4565.36
941.363	4478.13
941.67	4511.35
941.977	4475.87
942.284	4401.07
942.591	4397.68
942.898	4360.17
943.205	4421.86
943.511	4354.29
943.818	4372.37
944.125	4314.75
944.431	4288.53
944.738	4288.76
945.044	4261.87
945.35	4274.75
945.657	4211.7
945.963	4254.18
946.269	4192.26
946.575	4191.13
946.881	4183.45
947.187	4156.33
947.493	4098.48
947.799	4114.75
948.105	4144.58
948.41	4067.29
948.716	4054.19
949.022	4053.51
949.327	4050.35
949.633	4002.66
949.938	4004.92
950.244	4015.32
950.549	3932.61
950.854	3940.74
951.16	3948.2
951.465	3953.85
951.77	3921.31
952.075	3905.72
952.38	3868.66
952.685	3870.24
952.99	3838.83
953.294	3790.92
953.599	3840.18
953.904	3771.48
954.209	3753.63
954.513	3753.18
954.818	3717.47
955.122	3746.85
955.426	3672.28
955.731	3705.95
956.035	3648.1
956.339	3618.94
956.643	3658.04
956.948	3598.38
957.252	3591.37
957.556	3629.34
957.86	3584.82
958.163	3564.71
958.467	3595.44
958.771	3549.79
959.075	3532.84
959.378	3495.56
959.682	3491.04
959.985	3441.32
960.289	3445.62
960.592	3456.24
960.896	3391.38
961.199	3405.84
961.502	3410.36
961.805	3398.39
962.108	3368.1
962.411	3351.15
962.714	3350.25
963.017	3321.1
963.32	3309.8
963.623	3305.28
963.926	3287.2
964.228	3280.2
964.531	3284.94
964.833	3243.81
965.136	3246.07
965.438	3173.98
965.741	3155.45
966.043	3165.17
966.345	3182.35
966.648	3183.48
966.95	3126.08
967.252	3157.94
967.554	3134.21
967.856	3086.98
968.158	3121.1
968.46	3077.72
968.761	3068.68
969.063	3027.32
969.365	3068.22
969.666	3034.55
969.968	3031.16
970.269	2967.44
970.571	2983.03
970.872	3003.14
971.174	2955.91
971.475	2950.04
971.776	2962.01
972.077	2953.43
972.378	2929.92
972.679	2945.52
972.98	2915.91
973.281	2875.01
973.582	2889.7
973.883	2856.93
974.183	2892.18
974.484	2848.12
974.785	2833.2
975.085	2821.23
975.386	2824.61
975.686	2788.91
975.986	2786.42
976.287	2745.07
976.587	2737.84
976.887	2703.71
977.187	2721.79
977.487	2696.48
977.787	2699.42
978.087	2680.21
978.387	2672.08
978.687	2672.3
978.987	2663.26
979.286	2663.72
979.586	2643.6
979.885	2619.87
980.185	2612.64
980.484	2618.07
980.784	2607.9
981.083	2553.21
981.382	2595.47
981.682	2564.51
981.981	2552.31
982.28	2514.79
982.579	2494.91
982.878	2526.54
983.177	2480.9
983.475	2540.1
983.774	2500.56
984.073	2514.57
984.372	2492.87
984.67	2471.4
984.969	2436.6
985.267	2428.92
985.566	2423.27
985.864	2417.85
986.162	2394.34
986.461	2382.37
986.759	2376.94
987.057	2362.71
987.355	2322.93
987.653	2343.72
987.951	2322.26
988.249	2324.52
988.547	2288.36
988.844	2297.17
989.142	2273.9
989.44	2243.61
989.737	2278.41
990.035	2234.57
990.332	2245.65
990.63	2221.69
990.927	2233.9
991.224	2223.5
991.521	2176.5
991.819	2200.45
992.116	2189.6
992.413	2160.23
992.71	2167.91
993.006	2176.04
993.303	2145.31
993.6	2129.27
993.897	2156.16
994.193	2154.8
994.49	2099.21
994.787	2098.31
995.083	2108.7
995.379	2075.71
995.676	2057.86
995.972	2071.41
996.268	2074.35
996.565	2030.74
996.861	2040.91
997.157	2011.08
997.453	2016.5
997.749	1988.25
998.044	1987.8
998.34	2018.53
998.636	1979.21
998.932	1956.16
999.227	1938.08
999.523	1913.23
999.818	1925.88
1000.114	1916.62
1000.409	1927.69
1000.704	1882.04
1001	1863.28
1001.295	1899.67
1001.59	1853.57
1001.885	1855.37
1002.18	1855.15
1002.475	1865.54
1002.77	1826.45
1003.065	1836.39
1003.359	1801.82
1003.654	1794.81
1003.949	1781.48
1004.243	1790.52
1004.538	1771.99
1004.832	1751.65
1005.127	1745.55
1005.421	1748.71
1005.715	1708.03
1006.009	1717.07
1006.304	1697.19
1006.598	1691.99
1006.892	1695.83
1007.186	1678.66
1007.48	1682.72
1007.773	1666.45
1008.067	1649.73
1008.361	1659.9
1008.655	1647.24
1008.948	1644.08
1009.242	1617.19
1009.535	1620.58
1009.829	1586.46
1010.122	1595.04
1010.415	1607.02
1010.708	1599.56
1011.001	1577.64
1011.295	1570.64
1011.588	1568.15
1011.881	1530.64
1012.173	1551.88
1012.466	1541.71
1012.759	1545.33
1013.052	1523.86
1013.344	1490.19
1013.637	1492.45
1013.93	1493.58
1014.222	1465.33
1014.514	1456.29
1014.807	1437.98
1015.099	1438.44
1015.391	1444.76
1015.683	1445.22
1015.976	1439.11
1016.268	1395.05
1016.56	1427.82
1016.851	1401.15
1017.143	1425.56
1017.435	1394.6
1017.727	1406.35
1018.018	1368.38
1018.31	1362.73
1018.602	1370.64
1018.893	1323.64
1019.185	1334.94
1019.476	1318.89
1019.767	1322.96
1020.058	1324.32
1020.35	1304.43
1020.641	1303.07
1020.932	1303.53
1021.223	1251.55
1021.514	1290.19
1021.804	1241.38
1022.095	1234.83
1022.386	1249.52
1022.677	1252.45
1022.967	1224.21
1023.258	1242.06
1023.548	1214.71
1023.839	1228.27
1024.129	1201.61
1024.419	1189.4
1024.709	1178.1
1025	1162.06
1025.29	1158.9
1025.58	1158.67
1025.87	1123.42
1026.16	1169.52
1026.449	1164.55
1026.739	1168.39
1027.029	1132.68
1027.319	1124.55
1027.608	1097.43
1027.898	1113.47
1028.187	1092.68
1028.477	1076.64
1028.766	1071.67
1029.055	1103.98
1029.344	1081.84
1029.634	1088.62
1029.923	1074.6
1030.212	1045.9
1030.501	1056.07
1030.79	1030.54
1031.078	1031.89
1031.367	1037.09
1031.656	1017.2
1031.945	1002.52
1032.233	1007.26
1032.522	1015.85
1032.81	972.69
1033.099	992.35
1033.387	986.47
1033.675	997.32
1033.963	975.4
1034.251	973.82
1034.54	974.27
1034.828	945.57
1035.116	956.19
1035.403	947.83
1035.691	947.15
1035.979	954.38
1036.267	947.83
1036.554	911.44
1036.842	917.55
1037.129	927.72
1037.417	905.34
1037.704	899.92
1037.992	911.44
1038.279	902.18
1038.566	862.41
1038.853	862.41
1039.14	862.41
