Data from hue_130_FLMS001491_00024.txt Node
Date: Tue Feb 07 16:57:23 GMT 2017
User: dcchb
Spectrometer: FLMS00149
Trigger mode: 0
Integration Time (sec): 2.000000E-2
Scans to average: 10
Electric dark correction enabled: true
Nonlinearity correction enabled: false
Boxcar width: 0
XAxis mode: Wavelengths
Number of Pixels in Spectrum: 2048
>>>>>Begin Spectral Data<<<<<
341.393	-0.1
341.776	-0.1
342.16	-0.1
342.543	-66.09
342.927	-70.83
343.31	-41.45
343.693	-45.97
344.077	-54.79
344.46	-65.86
344.843	-62.24
345.226	-49.36
345.61	-20.66
345.993	-38.97
346.376	-9.14
346.759	-4.84
347.142	11.88
347.525	60.01
347.908	57.98
348.291	78.54
348.674	86
349.057	98.88
349.44	116.73
349.823	130.97
350.206	151.08
350.588	172.1
350.971	203.06
351.354	227.69
351.737	216.17
352.119	248.93
352.502	260.69
352.884	262.72
353.267	277.63
353.65	277.18
354.032	307.01
354.414	298.65
354.797	292.55
355.179	310.18
355.562	309.5
355.944	314.24
356.326	333.23
356.709	327.12
357.091	342.04
357.473	353.34
357.855	335.71
358.238	347.46
358.62	348.37
359.002	342.49
359.384	367.8
359.766	327.58
360.148	351.53
360.53	345.65
360.912	348.14
361.294	320.57
361.676	342.94
362.057	346.56
362.439	329.16
362.821	324.86
363.203	323.28
363.584	334.58
363.966	322.83
364.348	299.33
364.729	328.71
365.111	324.64
365.493	313.11
365.874	328.03
366.256	311.08
366.637	324.64
367.019	309.27
367.4	334.58
367.781	312.44
368.163	308.82
368.544	301.14
368.925	303.4
369.306	316.73
369.688	328.03
370.069	316.95
370.45	306.79
370.831	335.03
371.212	328.71
371.593	294.58
371.974	328.25
372.355	315.83
372.736	309.72
373.117	321.93
373.498	329.16
373.879	313.11
374.26	323.51
374.641	331.87
375.021	316.28
375.402	312.21
375.783	311.98
376.163	335.49
376.544	307.46
376.925	318.31
377.305	320.57
377.686	322.6
378.066	310.85
378.447	326.9
378.827	312.44
379.208	330.29
379.588	354.02
379.968	349.5
380.349	352.21
380.729	337.07
381.109	330.74
381.489	341.81
381.87	348.82
382.25	328.48
382.63	359.21
383.01	339.55
383.39	354.47
383.77	342.72
384.15	336.84
384.53	359.67
384.91	370.96
385.29	349.04
385.67	363.96
386.049	350.63
386.429	347.91
386.809	336.39
387.189	359.21
387.568	355.82
387.948	368.03
388.328	360.34
388.707	378.2
389.087	347.46
389.466	365.99
389.846	372.09
390.225	368.03
390.605	373.45
390.984	375.94
391.363	375.03
391.743	381.36
392.122	391.3
392.501	396.5
392.881	395.37
393.26	379.55
393.639	397.4
394.018	387.24
394.397	387.91
394.776	407.12
395.155	410.06
395.534	391.53
395.913	398.53
396.292	377.97
396.671	395.37
397.05	400.34
397.429	396.73
397.808	391.76
398.186	398.08
398.565	393.11
398.944	406.67
399.323	407.12
399.701	398.08
400.08	419.78
400.458	416.84
400.837	413.45
401.215	417.29
401.594	411.42
401.972	429.49
402.351	403.73
402.729	411.64
403.107	431.08
403.486	432.88
403.864	420.46
404.242	425.88
404.62	421.36
404.999	441.92
405.377	440.34
405.755	435.14
406.133	423.17
406.511	434.01
406.889	443.05
407.267	449.38
407.645	458.42
408.023	471.98
408.401	469.72
408.779	436.5
409.156	481.92
409.534	466.78
409.912	461.13
410.29	475.37
410.667	480.11
411.045	471.75
411.422	469.95
411.8	480.34
412.178	486.22
412.555	483.05
412.933	512.43
413.31	499.32
413.687	500
414.065	507.01
414.442	505.2
414.819	521.24
415.197	516.5
415.574	514.01
415.951	538.42
416.328	550.17
416.705	538.42
417.082	531.86
417.46	540.68
417.837	535.03
418.214	540.9
418.591	548.14
418.967	561.69
419.344	538.19
419.721	566.89
420.098	581.13
420.475	555.59
420.852	553.78
421.228	566.44
421.605	577.29
421.982	573.45
422.358	588.59
422.735	585.87
423.111	576.84
423.488	607.12
423.864	610.96
424.241	598.98
424.617	612.77
424.994	603.05
425.37	607.34
425.746	600.79
426.123	629.49
426.499	624.74
426.875	597.85
427.251	617.06
427.627	625.65
428.003	625.87
428.379	676.27
428.756	646.21
429.132	668.13
429.507	659.77
429.883	657.28
430.259	654.8
430.635	689.37
431.011	698.87
431.387	685.08
431.763	698.41
432.138	695.48
432.514	715.14
432.89	715.36
433.265	693.22
433.641	720.79
434.016	726.21
434.392	728.47
434.767	751.07
435.143	741.12
435.518	755.14
435.894	728.24
436.269	773.44
436.644	771.63
437.02	807.56
437.395	797.62
437.77	798.07
438.145	816.6
438.52	828.35
438.895	817.51
439.271	828.58
439.646	834.91
440.021	841.23
440.395	856.38
440.77	837.39
441.145	860.9
441.52	879.65
441.895	884.4
442.27	878.75
442.645	871.52
443.019	884.17
443.394	901.8
443.769	887.34
444.143	895.7
444.518	898.86
444.892	899.31
445.267	926.88
445.641	936.83
446.016	911.06
446.39	931.63
446.764	930.27
447.139	931.63
447.513	942.7
447.887	949.48
448.262	949.93
448.636	957.16
449.01	955.81
449.384	981.57
449.758	1014.56
450.132	1031.06
450.506	996.03
450.88	1011.17
451.254	1002.36
451.628	1031.51
452.002	1048.69
452.376	1056.6
452.75	1044.85
453.123	1083.71
453.497	1083.49
453.871	1083.49
454.244	1129.59
454.618	1118.06
454.992	1118.52
455.365	1118.97
455.739	1151.96
456.112	1168.23
456.486	1166.88
456.859	1204.62
457.232	1183.37
457.606	1198.74
457.979	1247.55
458.352	1247.78
458.725	1264.73
459.099	1288
459.472	1281.22
459.845	1291.62
460.218	1321.67
460.591	1346.98
460.964	1324.16
461.337	1381.56
461.71	1372.52
462.083	1407.32
462.456	1410.94
462.829	1405.97
463.201	1452.97
463.574	1483.7
463.947	1464.04
464.32	1498.39
464.692	1507.43
465.065	1551.5
465.438	1560.99
465.81	1574.1
466.183	1600.99
466.555	1645.96
466.928	1667.43
467.3	1676.24
467.672	1709.91
468.045	1706.52
468.417	1763.92
468.789	1786.52
469.161	1789.91
469.534	1821.77
469.906	1880.98
470.278	1929.57
470.65	1922.34
471.022	1996.01
471.394	2024.93
471.766	2030.81
472.138	2091.15
472.51	2134.99
472.882	2148.55
473.253	2173.4
473.625	2258.37
473.997	2302.21
474.369	2335.21
474.74	2386.96
475.112	2418.37
475.484	2475.77
475.855	2557.57
476.227	2588.76
476.598	2676.67
476.97	2741.07
477.341	2789.43
477.713	2859.71
478.084	2939.71
478.455	3020.61
478.827	3104.45
479.198	3159.59
479.569	3212.25
479.94	3336.54
480.311	3432.58
480.682	3559.13
481.053	3606.59
481.424	3698.11
481.795	3790.31
482.166	3879.35
482.537	3979.68
482.908	4142.17
483.279	4203.41
483.65	4359.33
484.021	4467.58
484.391	4566.33
484.762	4665.99
485.133	4787.35
485.503	4864.18
485.874	5084.74
486.244	5145.98
486.615	5340.33
486.985	5433.43
487.356	5612.41
487.726	5655.12
488.097	5826.19
488.467	5944.38
488.837	6110.93
489.207	6303.01
489.578	6411.03
489.948	6492.39
490.318	6746.84
490.688	6774.19
491.058	6918.59
491.428	7131.69
491.798	7249.65
492.168	7448.07
492.538	7575.97
492.908	7686.03
493.278	7927.83
493.648	7980.93
494.017	8102.74
494.387	8288.95
494.757	8434.93
495.126	8567.36
495.496	8633.57
495.866	8727.36
496.235	8928.25
496.605	9039.66
496.974	9204.18
497.344	9313.78
497.713	9481.69
498.082	9568.69
498.452	9719.65
498.821	9828.34
499.19	9861.56
499.559	10082.35
499.928	10222.68
500.298	10249.58
500.667	10394.88
501.036	10476.01
501.405	10590.81
501.774	10658.83
502.143	10831.93
502.512	10871.71
502.88	11056.79
503.249	11085.94
503.618	11199.15
503.987	11337.68
504.356	11318.47
504.724	11370.9
505.093	11503.55
505.462	11569.09
505.83	11703.77
506.199	11838.23
506.567	11917.55
506.936	12005.24
507.304	12145.8
507.672	12193.93
508.041	12258.56
508.409	12365.23
508.777	12469.18
509.145	12493.13
509.514	12534.03
509.882	12674.14
510.25	12694.71
510.618	12873.23
510.986	12742.16
511.354	12943.06
511.722	13029.16
512.09	13113.68
512.458	13082.49
512.826	13232.32
513.193	13260.34
513.561	13314.81
513.929	13416.5
514.297	13493.33
514.664	13459.21
515.032	13576.72
515.4	13663.27
515.767	13673.21
516.135	13773.1
516.502	13608.58
516.869	13820.33
517.237	13872.3
517.604	13810.16
517.972	13943.04
518.339	13951.85
518.706	14031.17
519.073	14026.2
519.44	14148.68
519.808	14202.69
520.175	14172.86
520.542	14354.33
520.909	14329.92
521.276	14296.02
521.643	14459.86
522.009	14418.51
522.376	14484.04
522.743	14600.2
523.11	14711.83
523.477	14748.21
523.843	14735.78
524.21	14931.49
524.577	14905.5
524.943	14893.52
525.31	15043.12
525.676	15078.15
526.043	15037.25
526.409	15103.46
526.776	15258.93
527.142	15159.95
527.508	15168.32
527.874	15268.65
528.241	15353.62
528.607	15291.02
528.973	15401.98
529.339	15262.32
529.705	15337.8
530.071	15489.89
530.437	15448.31
530.803	15488.31
531.169	15463.22
531.535	15422.77
531.901	15451.02
532.267	15470.91
532.632	15536.44
532.998	15475.43
533.364	15426.16
533.73	15468.19
534.095	15529.66
534.461	15403.79
534.826	15491.25
535.192	15458.93
535.557	15550.68
535.923	15477.46
536.288	15484.69
536.653	15477.91
537.019	15358.82
537.384	15413.51
537.749	15422.77
538.114	15369.44
538.479	15300.29
538.845	15312.27
539.21	15285.6
539.575	15287.18
539.94	15292.61
540.305	15245.83
540.67	15181.42
541.034	15203.8
541.399	15216.9
541.764	15236.79
542.129	15149.11
542.494	15069.79
542.858	15117.02
543.223	15091.03
543.587	15090.35
543.952	14964.48
544.316	14999.05
544.681	14933.97
545.045	15020.98
545.41	14966.74
545.774	14967.87
546.138	14880.41
546.503	14824.37
546.867	14813.97
547.231	14923.8
547.595	14796.12
547.959	14783.69
548.324	14810.13
548.688	14686.29
549.052	14730.36
549.416	14760.87
549.779	14585.73
550.143	14572.4
550.507	14557.26
550.871	14593.19
551.235	14566.75
551.599	14607.43
551.962	14570.37
552.326	14461.44
552.689	14491.95
553.053	14433.19
553.417	14400.43
553.78	14539.86
554.143	14361.33
554.507	14378.96
554.87	14388.68
555.234	14479.29
555.597	14359.3
555.96	14390.71
556.323	14353.87
556.686	14313.88
557.05	14370.37
557.413	14334.67
557.776	14304.16
558.139	14417.6
558.502	14296.93
558.865	14323.59
559.228	14339.41
559.59	14267.32
559.953	14273.88
560.316	14378.51
560.679	14328.56
561.041	14411.73
561.404	14340.09
561.767	14419.63
562.129	14416.92
562.492	14430.26
562.854	14336.25
563.217	14391.61
563.579	14354.78
563.941	14474.55
564.304	14430.26
564.666	14489.01
565.028	14503.7
565.39	14470.48
565.753	14534.21
566.115	14552.74
566.477	14542.34
566.839	14572.4
567.201	14630.25
567.563	14598.39
567.925	14672.28
568.287	14605.17
568.648	14706.86
569.01	14792.05
569.372	14656.01
569.734	14672.96
570.095	14754.77
570.457	14722.68
570.819	14734.43
571.18	14627.99
571.542	14815.1
571.903	14764.03
572.265	14832.96
572.626	14806.07
572.987	14876.35
573.349	14915.89
573.71	14903.24
574.071	14917.02
574.432	14994.54
574.794	15015.55
575.155	14989.79
575.516	14907.76
575.877	14976.91
576.238	14983.91
576.599	15084.02
576.96	14924.93
577.32	15005.61
577.681	14996.34
578.042	15021.43
578.403	15025.49
578.763	15018.49
579.124	15043.12
579.485	15155.21
579.845	15044.48
580.206	14990.69
580.566	15023.91
580.927	14987.53
581.287	15005.61
581.648	14965.16
582.008	15027.08
582.368	14994.54
582.728	14993.86
583.089	15006.29
583.449	14960.64
583.809	14980.3
584.169	15103.46
584.529	14999.05
584.889	15084.48
585.249	14969.68
585.609	14904.59
585.969	14948.66
586.329	15070.01
586.688	15083.12
587.048	14976.91
587.408	14878.38
587.768	14918.38
588.127	14941.2
588.487	14843.35
588.846	15060.07
589.206	14742.34
589.565	14840.41
589.925	14839.74
590.284	14827.99
590.643	14890.81
591.003	14844.48
591.362	14841.77
591.721	14734.65
592.08	14819.62
592.44	14882.9
592.799	14854.2
593.158	14873.41
593.517	14810.13
593.876	14796.8
594.235	14816.91
594.593	14765.39
594.952	14800.87
595.311	14781.66
595.67	14771.04
596.029	14862.56
596.387	14769.23
596.746	14768.33
597.104	14783.47
597.463	14749.34
597.822	14851.04
598.18	14757.93
598.538	14739.4
598.897	14764.26
599.255	14637.26
599.613	14866.85
599.972	14787.99
600.33	14836.35
600.688	14760.64
601.046	14790.7
601.404	14834.99
601.762	14766.29
602.12	14783.02
602.478	14713.41
602.836	14772.17
603.194	14737.82
603.552	14830.7
603.91	14701.89
604.268	14759.29
604.625	14735.11
604.983	14828.66
605.341	14710.25
605.698	14761.77
606.056	14756.58
606.413	14722.9
606.771	14698.05
607.128	14708.44
607.485	14764.94
607.843	14702.34
608.2	14807.2
608.557	14852.62
608.914	14764.94
609.272	14867.98
609.629	14884.48
609.986	14811.94
610.343	14799.29
610.7	14848.55
611.057	14926.29
611.414	14870.92
611.771	14872.73
612.127	14995.21
612.484	14981.2
612.841	14994.76
613.198	14940.07
613.554	14952.5
613.911	15100.07
614.267	14972.84
614.624	14988.21
614.98	15014.2
615.337	15117.92
615.693	15006.51
616.05	15016.46
616.406	15125.15
616.762	14996.57
617.118	15061.65
617.475	15022.33
617.831	15127.41
618.187	15050.58
618.543	15103.68
618.899	15188.43
619.255	15116.79
619.611	15168.32
619.967	15265.94
620.323	15235.43
620.678	15247.18
621.034	15077.24
621.39	15157.47
621.746	15089.9
622.101	15315.66
622.457	15164.93
622.812	15239.05
623.168	15223.68
623.523	15109.56
623.879	15316.79
624.234	15094.42
624.589	15221.87
624.945	15242.21
625.3	15373.51
625.655	15220.74
626.01	15282.21
626.365	15174.42
626.72	15139.16
627.075	15183.23
627.43	15244.92
627.785	15132.16
628.14	15288.09
628.495	15270.91
628.85	15125.83
629.205	15144.81
629.559	15194.3
629.914	15190.46
630.269	15165.6
630.623	15165.38
630.978	15016.46
631.332	15086.51
631.687	15119.73
632.041	15073.63
632.396	15025.49
632.75	14996.34
633.104	15062.1
633.459	15016.46
633.813	14988.43
634.167	15000.64
634.521	14920.19
634.875	15046.51
635.229	15022.56
635.583	14877.25
635.937	14868.44
636.291	14822.11
636.645	14948.43
636.999	14811.49
637.352	14890.81
637.706	14711.6
638.06	14841.77
638.413	14783.02
638.767	14755.45
639.121	14802.9
639.474	14752.28
639.828	14722.68
640.181	14704.37
640.534	14731.94
640.888	14686.52
641.241	14543.02
641.594	14675.22
641.947	14640.19
642.301	14578.73
642.654	14693.3
643.007	14625.96
643.36	14679.52
643.713	14673.19
644.066	14658.05
644.419	14659.85
644.771	14554.77
645.124	14396.58
645.477	14363.59
645.83	14255.57
646.182	14136.48
646.535	14180.09
646.888	14178.29
647.24	14075.24
647.593	14215.57
647.945	14105.97
648.298	14028.23
648.65	13991.62
649.002	13864.17
649.355	14070.49
649.707	14087.67
650.059	14102.36
650.411	14252.41
650.763	14200.21
651.115	14435.91
651.467	14295.12
651.819	14307.55
652.171	14392.74
652.523	14356.36
652.875	14366.98
653.227	14282.92
653.578	14378.96
653.93	14340.32
654.282	14271.84
654.633	14349.13
654.985	14365.63
655.337	14365.17
655.688	14414.21
656.039	14482.01
656.391	14311.84
656.742	14411.05
657.094	14343.03
657.445	14427.54
657.796	14422.8
658.147	14351.16
658.498	14411.05
658.849	14402.91
659.2	14494.89
659.551	14366.98
659.902	14411.27
660.253	14406.3
660.604	14484.49
660.955	14415.57
661.306	14444.95
661.656	14410.14
662.007	14448.79
662.358	14419.18
662.708	14423.25
663.059	14541.89
663.409	14399.3
663.76	14477.71
664.11	14412.86
664.461	14501.89
664.811	14474.1
665.161	14529.91
665.511	14355.91
665.862	14428.67
666.212	14463.25
666.562	14553.87
666.912	14409.24
667.262	14411.73
667.612	14446.53
667.962	14359.52
668.312	14393.42
668.662	14478.62
669.011	14454.66
669.361	14425.28
669.711	14366.08
670.06	14426.87
670.41	14409.24
670.76	14396.13
671.109	14370.37
671.459	14399.07
671.808	14267.55
672.157	14372.18
672.507	14258.74
672.856	14314.78
673.205	14337.83
673.554	14371.95
673.904	14256.7
674.253	14365.85
674.602	14292.18
674.951	14119.98
675.3	13960.66
675.649	14315.23
675.998	14360.2
676.346	14219.41
676.695	14262.58
677.044	14202.01
677.393	14226.65
677.741	14212.41
678.09	14160.88
678.438	14173.54
678.787	14130.38
679.135	14140.55
679.484	14086.76
679.832	14072.53
680.181	13969.7
680.529	14060.55
680.877	13991.62
681.225	13971.06
681.573	14029.36
681.922	13912.98
682.27	13848.12
682.618	13963.83
682.966	13805.19
683.314	13880.89
683.661	13838.18
684.009	13717.96
684.357	13804.28
684.705	13696.04
685.053	13717.73
685.4	13650.39
685.748	13662.14
686.095	13624.4
686.443	13575.59
686.79	13484.07
687.138	13646.32
687.485	13562.71
687.832	13523.84
688.18	13435.71
688.527	13365.65
688.874	13423.95
689.221	13342.6
689.568	13275.71
689.915	13312.77
690.262	13216.95
690.609	13248.37
690.956	13130.4
691.303	13139.67
691.65	13138.76
691.997	13030.97
692.344	12903.52
692.69	12918.43
693.037	12881.37
693.383	12791.2
693.73	12852.44
694.077	12712.79
694.423	12754.14
694.769	12731.32
695.116	12675.73
695.462	12608.16
695.808	12548.5
696.155	12515.05
696.501	12600.47
696.847	12480.7
697.193	12317.09
697.539	12446.35
697.885	12355.51
698.231	12272.12
698.577	12255.4
698.923	12174.72
699.269	12216.53
699.614	12094.27
699.96	12072.35
700.306	12061.05
700.651	11966.37
700.997	11867.61
701.342	11910.32
701.688	11854.28
702.033	11834.39
702.379	11805.01
702.724	11731.34
703.069	11813.6
703.415	11767.73
703.76	11636.21
704.105	11608.41
704.45	11493.16
704.795	11548.3
705.14	11512.59
705.485	11469.2
705.83	11402.99
706.175	11424.69
706.52	11458.36
706.865	11283.45
707.209	11330.68
707.554	11286.84
707.899	11308.3
708.243	11317.8
708.588	11212.04
708.932	11099.27
709.277	11099.04
709.621	11023.79
709.966	11093.62
710.31	11060.63
710.654	10941.31
710.998	10950.12
711.342	10975.43
711.687	10932.72
712.031	10846.17
712.375	10828.99
712.719	10889.78
713.063	10732.95
713.407	10815.89
713.75	10785.61
714.094	10773.63
714.438	10697.92
714.782	10700.86
715.125	10697.92
715.469	10741.99
715.812	10669
716.156	10578.15
716.499	10630.13
716.843	10621.32
717.186	10546.06
717.53	10534.31
717.873	10531.83
718.216	10511.72
718.559	10428.1
718.902	10442.56
719.246	10506.52
719.589	10366.86
719.932	10400.76
720.275	10316.69
720.617	10373.87
720.96	10364.15
721.303	10399.18
721.646	10386.75
721.989	10312.62
722.331	10338.16
722.674	10292.51
723.016	10282.57
723.359	10303.81
723.701	10252.51
724.044	10255.45
724.386	10232.4
724.729	10260.2
725.071	10198.28
725.413	10265.62
725.755	10269.24
726.097	10191.5
726.439	10131.16
726.782	10140.65
727.124	10226.98
727.465	10128
727.807	10153.98
728.149	10149.69
728.491	10172.06
728.833	10061.56
729.175	10066.53
729.516	10131.84
729.858	10059.98
730.199	10079.64
730.541	10050.71
730.882	10030.6
731.224	10076.47
731.565	9980.43
731.906	10063.14
732.248	9984.5
732.589	10019.52
732.93	10050.26
733.271	9991.73
733.612	9978.17
733.953	10064.72
734.294	10029.47
734.635	9985.18
734.976	10011.62
735.317	9954.44
735.658	10018.85
735.999	9996.93
736.339	10060.2
736.68	10021.11
737.021	10000.32
737.361	10020.43
737.702	10094.78
738.042	10043.48
738.383	10000.77
738.723	10083.03
739.063	10056.59
739.404	10130.48
739.744	10058.39
740.084	10020.43
740.424	10089.58
740.764	10114.66
741.104	10141.56
741.444	10049.58
741.784	10044.83
742.124	10135.23
742.464	10184.49
742.804	10226.75
743.143	10187.66
743.483	10172.29
743.823	10223.59
744.162	10284.6
744.502	10319.18
744.841	10259.29
745.181	10441.43
745.52	10292.06
745.86	10472.39
746.199	10410.7
746.538	10480.3
746.877	10553.52
747.216	10638.27
747.556	10620.86
747.895	10580.87
748.234	10677.59
748.573	10741.54
748.911	10783.8
749.25	10899.95
749.589	10896.56
749.928	10899.95
750.267	11048.65
750.605	11067.86
750.944	11162.77
751.283	11231.47
751.621	11248.87
751.96	11358.02
752.298	11535.19
752.636	11604.34
752.975	11602.53
753.313	11721.63
753.651	11987.61
753.989	11982.41
754.327	12072.35
754.666	12125.23
755.004	12351.89
755.342	12441.61
755.679	12661.49
756.017	12692.67
756.355	12818.32
756.693	12903.29
757.031	13177.63
757.368	13183.51
757.706	13381.92
758.044	13499.89
758.381	13726.55
758.719	13839.99
759.056	13970.61
759.394	14110.49
759.731	14192.75
760.068	14382.8
760.405	14563.81
760.743	14702.34
761.08	14879.28
761.417	14987.08
761.754	15112.5
762.091	15332.83
762.428	15476.56
762.765	15617.8
763.102	15855.76
763.438	15899.37
763.775	16036.54
764.112	16244.22
764.449	16412.8
764.785	16483.76
765.122	16695.28
765.458	16782.06
765.795	16949.96
766.131	17129.85
766.467	17209.39
766.804	17260.92
767.14	17371.2
767.476	17561.7
767.812	17684.63
768.148	17828.58
768.485	17836.27
768.821	17983.61
769.157	18125.98
769.492	18151.74
769.828	18339.53
770.164	18391.96
770.5	18441.68
770.836	18592.41
771.171	18644.38
771.507	18688.68
771.842	18768.9
772.178	18868.11
772.513	18997.59
772.849	18996.69
773.184	18996.92
773.519	19175.89
773.855	19226.06
774.19	19298.6
774.525	19369.11
774.86	19354.42
775.195	19443.01
775.53	19321.65
775.865	19464.7
776.2	19451.59
776.535	19417.47
776.87	19448.2
777.205	19503.57
777.539	19547.41
777.874	19682.55
778.209	19516.22
778.543	19546.05
778.878	19581.31
779.212	19626.5
779.547	19557.13
779.881	19716.44
780.215	19570.23
780.55	19780.85
780.884	19621.98
781.218	19552.83
781.552	19693.85
781.886	19631.02
782.22	19758.25
782.554	19539.27
782.888	19585.15
783.222	19507.86
783.556	19473.97
783.889	19530.91
784.223	19367.98
784.557	19470.35
784.89	19541.08
785.224	19369.34
785.557	19394.87
785.891	19387.19
786.224	19276.91
786.558	19389
786.891	19301.54
787.224	19177.93
787.557	19239.17
787.891	19167.08
788.224	19214.09
788.557	19292.5
788.89	19254.08
789.223	19132.73
789.556	19097.25
789.888	19059.51
790.221	19015.45
790.554	18907.2
790.887	18965.73
791.219	18825.39
791.552	18858.61
791.884	18780.2
792.217	18754.66
792.549	18680.77
792.882	18574.1
793.214	18552.18
793.546	18697.26
793.879	18536.59
794.211	18474.44
794.543	18575.01
794.875	18464.95
795.207	18510.15
795.539	18413.65
795.871	18409.13
796.203	18307.67
796.535	18118.97
796.867	18098.18
797.198	18135.02
797.53	18227.22
797.862	17989.48
798.193	18056.38
798.525	17930.28
798.856	17966.43
799.188	17818.19
799.519	17791.52
799.85	17809.6
800.182	17660.23
800.513	17752.88
800.844	17601.25
801.175	17683.28
801.506	17623.17
801.837	17527.12
802.168	17505.88
802.499	17454.58
802.83	17269.73
803.161	17355.38
803.491	17409.39
803.822	17376.39
804.153	17223.18
804.483	17161.26
804.814	17147.47
805.145	17011.88
805.475	17047.36
805.805	17067.25
806.136	16979.57
806.466	17007.14
806.796	16921.26
807.126	16951.55
807.457	16840.59
807.787	16781.83
808.117	16741.83
808.447	16724.66
808.777	16759.91
809.107	16647.82
809.436	16618.67
809.766	16661.84
810.096	16599.69
810.426	16526.7
810.755	16570.54
811.085	16533.03
811.414	16473.59
811.744	16292.13
812.073	16342.52
812.403	16264.78
812.732	16216.65
813.061	16202.41
813.39	16129.65
813.719	16151.11
814.049	16201.74
814.378	16193.15
814.707	16092.13
815.036	16046.94
815.365	16013.72
815.693	15886.49
816.022	15971.46
816.351	15905.7
816.68	15836.77
817.008	15839.71
817.337	15632.03
817.665	15692.6
817.994	15667.06
818.322	15622.09
818.651	15587.29
818.979	15602.43
819.307	15621.64
819.636	15508.87
819.964	15468.19
820.292	15618.7
820.62	15505.26
820.948	15519.72
821.276	15560.62
821.604	15424.13
821.932	15573.28
822.259	15556.55
822.587	15460.51
822.915	15422.55
823.243	15391.36
823.57	15427.52
823.898	15474.97
824.225	15344.13
824.553	15429.55
824.88	15385.49
825.207	15426.16
825.535	15482.66
825.862	15509.32
826.189	15424.35
826.516	15493.51
826.843	15465.26
827.17	15456.9
827.497	15511.81
827.824	15463.22
828.151	15442.88
828.478	15476.1
828.805	15577.8
829.131	15388.88
829.458	15356.11
829.785	15288.99
830.111	15372.6
830.438	15496.44
830.764	15454.18
831.09	15460.51
831.417	15464.35
831.743	15485.6
832.069	15441.08
832.395	15325.15
832.722	15416.9
833.048	15302.32
833.374	15319.05
833.7	15305.49
834.026	15312.94
834.351	15324.92
834.677	15306.17
835.003	15276.34
835.329	15309.1
835.654	15222.78
835.98	15184.59
836.306	15232.49
836.631	15193.17
836.956	15182.55
837.282	15212.83
837.607	15149.79
837.932	15090.13
838.258	15171.03
838.583	15032.5
838.908	15039.05
839.233	15078.6
839.558	14972.84
839.883	14945.72
840.208	14974.2
840.533	14903.46
840.858	14910.24
841.182	14988.89
841.507	14900.07
841.832	14804.03
842.156	14753.64
842.481	14853.07
842.805	14724.94
843.13	14745.5
843.454	14736.24
843.778	14618.27
844.103	14616.47
844.427	14558.16
844.751	14581.89
845.075	14428.9
845.399	14535.11
845.723	14288.79
846.047	14444.49
846.371	14272.52
846.695	14313.42
847.019	14207.89
847.343	14181.9
847.666	13991.85
847.99	13994.11
848.313	14056.93
848.637	13903.26
848.96	13876.37
849.284	13825.07
849.607	13765.19
849.931	13758.41
850.254	13672.54
850.577	13582.37
850.9	13518.87
851.223	13541.69
851.546	13389.61
851.869	13311.64
852.192	13362.04
852.515	13278.42
852.838	13207.69
853.161	13188.71
853.483	13107.13
853.806	13059.44
854.129	13090.63
854.451	13024.64
854.774	12946
855.096	12908.26
855.419	12768.38
855.741	12870.3
856.063	12692
856.385	12833.69
856.708	12716.85
857.03	12675.95
857.352	12544.66
857.674	12578.55
857.996	12599.57
858.318	12543.75
858.64	12560.02
858.961	12367.94
859.283	12395.96
859.605	12333.36
859.926	12332.46
860.248	12246.81
860.57	12285
860.891	12324.77
861.212	12283.19
861.534	12174.04
861.855	12115.51
862.176	12169.52
862.498	12061.28
862.819	12120.26
863.14	12033.48
863.461	12028.51
863.782	12046.59
864.103	11984.22
864.424	11967.95
864.745	11985.8
865.065	11928.4
865.386	11917.1
865.707	11900.83
866.027	11907.84
866.348	11827.16
866.668	11933.6
866.989	11812.92
867.309	11730.44
867.63	11770.67
867.95	11713.72
868.27	11700.38
868.59	11660.61
868.91	11677.11
869.23	11632.59
869.55	11687.73
869.87	11696.32
870.19	11643.21
870.51	11657
870.83	11663.55
871.15	11480.5
871.469	11546.94
871.789	11514.63
872.109	11557.11
872.428	11412.03
872.748	11461.07
873.067	11451.35
873.386	11474.18
873.706	11404.8
874.025	11388.75
874.344	11328.64
874.663	11309.43
874.982	11295.88
875.301	11334.29
875.62	11283.67
875.939	11261.75
876.258	11202.54
876.577	11186.73
876.896	11169.32
877.214	11201.87
877.533	11156.9
877.852	11095.2
878.17	11144.24
878.489	11124.13
878.807	11030.12
879.125	11104.69
879.444	11056.79
879.762	10981.31
880.08	10975.21
880.398	10995.32
880.716	10996.67
881.034	10981.31
881.352	10977.47
881.67	10901.99
881.988	10875.55
882.306	10831.25
882.624	10783.57
882.941	10791.48
883.259	10731.82
883.577	10711.03
883.894	10768.88
884.212	10761.2
884.529	10757.36
884.846	10669.68
885.164	10631.03
885.481	10657.25
885.798	10615.44
886.115	10607.08
886.432	10630.81
886.75	10563.47
887.067	10538.38
887.383	10445.05
887.7	10508.78
888.017	10421.77
888.334	10461.55
888.651	10397.37
888.967	10323.02
889.284	10320.53
889.6	10262
889.917	10238.95
890.233	10243.47
890.55	10228.78
890.866	10200.54
891.182	10191.5
891.498	10103.14
891.815	9983.82
892.131	10022.46
892.447	10069.69
892.763	10032.41
893.079	9936.59
893.395	9945.85
893.71	9942.92
894.026	9838.51
894.342	9847.1
894.657	9744.05
894.973	9659.08
895.289	9679.65
895.604	9688.69
895.92	9626.77
896.235	9577.28
896.55	9664.28
896.865	9598.97
897.181	9539.99
897.496	9523.27
897.811	9494.11
898.126	9543.83
898.441	9401.46
898.756	9445.08
899.071	9351.75
899.386	9360.33
899.7	9220
900.015	9216.16
900.33	9137.51
900.644	9154.69
900.959	9153.33
901.273	9158.98
901.588	9066.56
901.902	8994.69
902.216	9011.19
902.531	9045.09
902.845	8924.41
903.159	8951.98
903.473	8881.25
903.787	8861.59
904.101	8754.93
904.415	8808.94
904.729	8761.93
905.042	8671.76
905.356	8665.44
905.67	8615.27
905.984	8624.08
906.297	8621.37
906.611	8563.07
906.924	8548.6
907.237	8533.69
907.551	8455.72
907.864	8393.13
908.177	8401.49
908.491	8380.02
908.804	8365.1
909.117	8295.95
909.43	8255.5
909.743	8206.24
910.056	8219.57
910.368	8163.75
910.681	8145
910.994	8139.57
911.307	8046.02
911.619	7997.43
911.932	8020.26
912.244	7966.7
912.557	7943.65
912.869	7898.9
913.181	7835.18
913.494	7850.99
913.806	7772.58
914.118	7775.74
914.43	7696.87
914.742	7709.75
915.054	7640.38
915.366	7657.55
915.678	7562.87
915.99	7594.28
916.302	7541.85
916.613	7497.56
916.925	7473.83
917.236	7471.12
917.548	7375.53
917.859	7465.24
918.171	7341.63
918.482	7360.61
918.794	7297.56
919.105	7259.82
919.416	7230.22
919.727	7189.77
920.038	7224.8
920.349	7182.76
920.66	7136.89
920.971	7032.94
921.282	7039.04
921.593	7019.15
921.903	6927.18
922.214	6957.23
922.525	6931.47
922.835	6870.45
923.146	6830.23
923.456	6862.55
923.767	6792.49
924.077	6748.65
924.387	6757.92
924.697	6690.57
925.008	6721.08
925.318	6663.45
925.628	6630.91
925.938	6613.29
926.248	6587.3
926.558	6600.41
926.867	6521.31
927.177	6506.17
927.487	6508.88
927.796	6406.96
928.106	6471.37
928.416	6366.74
928.725	6371.49
929.034	6354.76
929.344	6319.96
929.653	6338.27
929.962	6243.13
930.271	6242.45
930.581	6212.62
930.89	6190.47
931.199	6156.12
931.508	6135.78
931.817	6173.52
932.125	6138.72
932.434	6109.8
932.743	6099.63
933.051	6030.93
933.36	5989.35
933.669	5972.63
933.977	5960.87
934.286	5964.94
934.594	5932.17
934.902	5888.79
935.21	5864.61
935.519	5838.39
935.827	5814.21
936.135	5805.4
936.443	5707.32
936.751	5767.66
937.059	5717.72
937.367	5680.43
937.674	5677.49
937.982	5662.8
938.29	5602.24
938.597	5595.23
938.905	5456.03
939.213	5499.42
939.52	5489.02
939.827	5512.52
940.135	5443.37
940.442	5426.88
940.749	5416.48
941.056	5439.08
941.363	5380.1
941.67	5345.75
941.977	5339.2
942.284	5280.21
942.591	5258.29
942.898	5280.44
943.205	5308.01
943.511	5188.24
943.818	5235.7
944.125	5160.44
944.431	5130.61
944.738	5131.07
945.044	5075.25
945.35	5020.56
945.657	5017.62
945.963	5003.61
946.269	5018.3
946.575	4975.36
946.881	4978.08
947.187	4976.49
947.493	4893.33
947.799	4903.73
948.105	4865.76
948.41	4858.08
948.716	4861.02
949.022	4802.71
949.327	4817.4
949.633	4798.65
949.938	4769.04
950.244	4738.53
950.549	4726.33
950.854	4704.41
951.16	4673.68
951.465	4660.57
951.77	4668.25
952.075	4641.14
952.38	4606.11
952.685	4586.45
952.99	4588.93
953.294	4549.39
953.599	4510.97
953.904	4505.09
954.209	4452.21
954.513	4462.61
954.818	4464.19
955.122	4401.82
955.426	4400.69
955.731	4412.44
956.035	4382.84
956.339	4362.95
956.643	4357.3
956.948	4338.32
957.252	4291.54
957.556	4274.82
957.86	4270.52
958.163	4222.61
958.467	4217.42
958.771	4190.3
959.075	4216.29
959.378	4167.25
959.682	4167.02
959.985	4131.32
960.289	4099
960.592	4090.19
960.896	4104.43
961.199	4064.2
961.502	4083.86
961.805	4041.83
962.108	4007.71
962.411	4008.38
962.714	3969.29
963.017	3946.46
963.32	3940.81
963.623	3930.19
963.926	3873.02
964.228	3881.38
964.531	3901.49
964.833	3876.41
965.136	3892.45
965.438	3857.88
965.741	3818.33
966.043	3801.61
966.345	3718.22
966.648	3758.67
966.95	3785.34
967.252	3737.88
967.554	3697.43
967.856	3666.92
968.158	3649.3
968.46	3647.26
968.761	3638.9
969.063	3623.53
969.365	3549.64
969.666	3600.26
969.968	3577.66
970.269	3579.47
970.571	3572.24
970.872	3556.42
971.174	3484.1
971.475	3454.73
971.776	3479.58
972.077	3500.37
972.378	3452.92
972.679	3458.12
972.98	3410.66
973.281	3418.34
973.582	3435.07
973.883	3397.78
974.183	3396.42
974.484	3384.44
974.785	3339.7
975.085	3321.17
975.386	3322.98
975.686	3288.63
975.986	3279.14
976.287	3296.99
976.587	3217.44
976.887	3223.09
977.187	3245.24
977.487	3236.65
977.787	3207.73
978.087	3153.94
978.387	3183.32
978.687	3176.09
978.987	3096.54
979.286	3111.68
979.586	3094.51
979.885	3077.79
980.185	3066.26
980.484	3068.75
980.784	3056.54
981.083	3056.77
981.382	3031.69
981.682	2998.24
981.981	2974.06
982.28	3001.63
982.579	2982.65
982.878	3002.76
983.177	2944
983.475	2934.29
983.774	2915.53
984.073	2890.67
984.372	2924.8
984.67	2903.1
984.969	2875.98
985.267	2870.56
985.566	2857
985.864	2821.52
986.162	2830.56
986.461	2769.09
986.759	2808.87
987.057	2802.31
987.355	2779.72
987.653	2739.49
987.951	2735.42
988.249	2731.81
988.547	2745.37
988.844	2744.69
989.142	2700.4
989.44	2643.45
989.737	2688.64
990.035	2665.37
990.332	2660.85
990.63	2636.89
990.927	2612.49
991.224	2591.92
991.521	2626.27
991.819	2607.52
992.116	2570.91
992.413	2551.7
992.71	2537.69
993.006	2534.98
993.303	2513.51
993.6	2507.41
993.897	2517.35
994.193	2467.63
994.49	2508.54
994.787	2478.71
995.083	2443.9
995.379	2437.35
995.676	2421.08
995.972	2437.8
996.268	2383.34
996.565	2362.78
996.861	2372.27
997.157	2380.86
997.453	2357.13
997.749	2320.74
998.044	2323.46
998.34	2336.34
998.636	2284.59
998.932	2300.18
999.227	2271.93
999.523	2295.43
999.818	2263.8
1000.114	2243.68
1000.409	2257.69
1000.704	2243.91
1001	2232.61
1001.295	2193.29
1001.59	2166.62
1001.885	2197.36
1002.18	2141.31
1002.475	2168.43
1002.77	2160.3
1003.065	2137.92
1003.359	2117.59
1003.654	2113.29
1003.949	2126.85
1004.243	2095.44
1004.538	2074.65
1004.832	2063.8
1005.127	2053.41
1005.421	2025.16
1005.715	1991.26
1006.009	2025.38
1006.304	1990.36
1006.598	1994.42
1006.892	1961.88
1007.186	1956.23
1007.48	1949.23
1007.773	1950.13
1008.067	1923.24
1008.361	1911.49
1008.655	1919.62
1008.948	1915.11
1009.242	1907.42
1009.535	1851.6
1009.829	1887.76
1010.122	1839.63
1010.415	1847.08
1010.708	1829.68
1011.001	1805.96
1011.295	1812.28
1011.588	1800.31
1011.881	1775.22
1012.173	1763.92
1012.466	1796.24
1012.759	1758.27
1013.052	1762.34
1013.344	1749.91
1013.637	1751.27
1013.93	1712.17
1014.222	1695
1014.514	1710.36
1014.807	1694.77
1015.099	1692.96
1015.391	1658.39
1015.683	1649.35
1015.976	1668.11
1016.268	1656.35
1016.56	1649.35
1016.851	1647.54
1017.143	1604.38
1017.435	1607.54
1017.727	1619.97
1018.018	1592.4
1018.31	1578.84
1018.602	1563.93
1018.893	1566.19
1019.185	1542.91
1019.476	1532.06
1019.767	1507.66
1020.058	1550.14
1020.35	1507.43
1020.641	1493.65
1020.932	1485.51
1021.223	1487.77
1021.514	1427.66
1021.804	1468.11
1022.095	1473.31
1022.386	1424.27
1022.677	1446.19
1022.967	1432.41
1023.258	1423.14
1023.548	1385.85
1023.839	1366.19
1024.129	1400.77
1024.419	1409.13
1024.709	1357.15
1025	1362.35
1025.29	1349.7
1025.58	1319.19
1025.87	1354.44
1026.16	1302.47
1026.449	1301.79
1026.739	1302.47
1027.029	1310.83
1027.319	1312.18
1027.608	1286.19
1027.898	1275.57
1028.187	1273.54
1028.477	1242.13
1028.766	1240.09
1029.055	1223.37
1029.344	1229.7
1029.634	1230.6
1029.923	1234.67
1030.212	1222.02
1030.501	1202.13
1030.79	1201.23
1031.078	1172.98
1031.367	1177.05
1031.656	1185.86
1031.945	1168.46
1032.233	1122.13
1032.522	1144.73
1032.81	1130.72
1033.099	1107.44
1033.387	1137.05
1033.675	1119.19
1033.963	1117.39
1034.251	1092.53
1034.54	1091.4
1034.828	1092.3
1035.116	1088.69
1035.403	1069.03
1035.691	1071.06
1035.979	1055.01
1036.267	1057.73
1036.554	1023.38
1036.842	1041.91
1037.129	1035.13
1037.417	1007.33
1037.704	1008.69
1037.992	1015.24
1038.279	989.03
1038.566	995.58
1038.853	995.58
1039.14	995.58
