Data from hue_250_FLMS001491_00017.txt Node
Date: Tue Feb 07 16:00:37 GMT 2017
User: dcchb
Spectrometer: FLMS00149
Trigger mode: 0
Integration Time (sec): 2.000000E-2
Scans to average: 10
Electric dark correction enabled: true
Nonlinearity correction enabled: false
Boxcar width: 0
XAxis mode: Wavelengths
Number of Pixels in Spectrum: 2048
>>>>>Begin Spectral Data<<<<<
341.393	-11.86
341.776	-11.86
342.16	-11.86
342.543	-69.94
342.927	-59.32
343.31	-75.59
343.693	-77.4
344.077	-66.55
344.46	-59.55
344.843	-41.92
345.226	-37.4
345.61	-28.81
345.993	-22.49
346.376	-8.47
346.759	1.69
347.142	26.55
347.525	17.97
347.908	77.4
348.291	78.98
348.674	98.87
349.057	116.72
349.44	121.01
349.823	137.28
350.206	160.79
350.588	208.7
350.971	189.71
351.354	218.64
351.737	217.96
352.119	234.91
352.502	253.21
352.884	246.66
353.267	276.49
353.65	277.39
354.032	304.74
354.414	274.91
354.797	315.13
355.179	321.23
355.562	298.64
355.944	309.03
356.326	324.85
356.709	326.43
357.091	334.57
357.473	326.88
357.855	339.99
358.238	317.39
358.62	335.7
359.002	325.53
359.384	345.41
359.766	334.12
360.148	314.91
360.53	327.79
360.912	344.28
361.294	342.02
361.676	321.01
362.057	324.4
362.439	348.8
362.821	315.81
363.203	305.87
363.584	315.36
363.966	311.74
364.348	317.17
364.729	321.01
365.111	306.32
365.493	310.84
365.874	297.73
366.256	312.87
366.637	321.46
367.019	285.08
367.4	294.34
367.781	279.43
368.163	309.94
368.544	295.47
368.925	292.08
369.306	322.14
369.688	327.34
370.069	309.71
370.45	293.89
370.831	308.81
371.212	303.16
371.593	309.26
371.974	300.67
372.355	324.17
372.736	315.13
373.117	293.66
373.498	297.96
373.879	302.03
374.26	309.94
374.641	322.59
375.021	319.88
375.402	303.38
375.783	315.13
376.163	308.81
376.544	308.35
376.925	325.3
377.305	332.31
377.686	329.6
378.066	333.89
378.447	323.72
378.827	305.87
379.208	330.95
379.588	320.33
379.968	317.84
380.349	331.86
380.729	347
381.109	315.58
381.489	340.67
381.87	329.6
382.25	318.3
382.63	331.4
383.01	345.19
383.39	331.63
383.77	338.86
384.15	339.31
384.53	347.45
384.91	332.76
385.29	346.09
385.67	331.86
386.049	338.64
386.429	351.74
386.809	334.57
387.189	361.91
387.568	348.35
387.948	327.11
388.328	343.38
388.707	343.61
389.087	352.19
389.466	357.62
389.846	347
390.225	359.65
390.605	352.19
390.984	369.14
391.363	355.58
391.743	362.36
392.122	374.11
392.501	368.46
392.881	364.4
393.26	362.82
393.639	362.59
394.018	351.52
394.397	378.86
394.776	365.98
395.155	381.12
395.534	358.75
395.913	358.3
396.292	350.16
396.671	389.71
397.05	390.84
397.429	375.47
397.808	359.2
398.186	370.95
398.565	389.03
398.944	384.28
399.323	381.12
399.701	405.98
400.08	409.37
400.458	406.88
400.837	403.49
401.215	401.23
401.594	405.53
401.972	409.59
402.351	409.82
402.729	421.57
403.107	399.88
403.486	396.71
403.864	413.44
404.242	425.41
404.62	427.9
404.999	422.93
405.377	430.38
405.755	420.89
406.133	439.2
406.511	463.83
406.889	459.76
407.267	438.75
407.645	463.6
408.023	455.02
408.401	460.44
408.779	451.63
409.156	484.39
409.534	469.71
409.912	492.76
410.29	496.6
410.667	486.43
411.045	494.34
411.422	503.83
411.8	507.22
412.178	509.93
412.555	538.63
412.933	510.38
413.31	554.67
413.687	550.16
414.065	535.47
414.442	551.51
414.819	535.24
415.197	566.43
415.574	556.48
415.951	567.1
416.328	581.11
416.705	587.67
417.082	593.77
417.46	603.94
417.837	619.98
418.214	619.76
418.591	610.27
418.967	613.88
419.344	637.16
419.721	624.28
420.098	634.67
420.475	648.46
420.852	662.24
421.228	651.85
421.605	664.95
421.982	670.15
422.358	681.45
422.735	707.89
423.111	707.44
423.488	726.2
423.864	729.13
424.241	757.83
424.617	742.92
424.994	754.9
425.37	729.59
425.746	770.49
426.123	794.89
426.499	797.15
426.875	810.49
427.251	844.61
427.627	856.81
428.003	850.26
428.379	834.44
428.756	843.03
429.132	867.89
429.507	881.9
429.883	884.38
430.259	870.37
430.635	893.87
431.011	910.82
431.387	936.81
431.763	933.87
432.138	935.23
432.514	943.59
432.89	984.04
433.265	1018.84
433.641	1001.89
434.016	981.33
434.392	1019.97
434.767	1060.65
435.143	1044.83
435.518	1084.83
435.894	1114.21
436.269	1118.28
436.644	1114.43
437.02	1113.08
437.395	1132.74
437.77	1145.85
438.145	1196.69
438.52	1180.42
438.895	1220.65
439.271	1204.83
439.646	1247.54
440.021	1217.48
440.395	1280.08
440.77	1238.95
441.145	1275.56
441.52	1288.21
441.895	1305.39
442.27	1322.56
442.645	1326.86
443.019	1337.03
443.394	1350.36
443.769	1343.13
444.143	1361.21
444.518	1383.81
444.892	1385.61
445.267	1393.75
445.641	1433.75
446.016	1423.13
446.39	1422
446.764	1407.31
447.139	1462.45
447.513	1442.79
447.887	1466.06
448.262	1483.01
448.636	1482.79
449.01	1510.58
449.384	1514.88
449.758	1497.47
450.132	1541.77
450.506	1534.54
450.88	1555.1
451.254	1563.01
451.628	1584.48
452.002	1612.73
452.376	1618.38
452.75	1628.09
453.123	1658.37
453.497	1666.06
453.871	1666.28
454.244	1671.03
454.618	1702.89
454.992	1737.24
455.365	1716.23
455.739	1771.37
456.112	1767.3
456.486	1778.37
456.859	1773.4
457.232	1789.67
457.606	1836.22
457.979	1840.29
458.352	1891.59
458.725	1939.72
459.099	1911.7
459.472	1926.84
459.845	1938.82
460.218	2023.34
460.591	2034.64
460.964	2009.33
461.337	2054.3
461.71	2075.31
462.083	2085.26
462.456	2081.87
462.829	2133.16
463.201	2151.47
463.574	2154.18
463.947	2179.72
464.32	2226.27
464.692	2200.96
465.065	2247.96
465.438	2272.37
465.81	2302.43
466.183	2324.57
466.555	2330.22
466.928	2362.08
467.3	2398.24
467.672	2436.66
468.045	2463.78
468.417	2458.81
468.789	2478.47
469.161	2522.08
469.534	2579.25
469.906	2596.65
470.278	2625.58
470.65	2663.09
471.022	2664.45
471.394	2741.06
471.766	2737.22
472.138	2795.07
472.51	2843.65
472.882	2862.64
473.253	2887.72
473.625	2918
473.997	2955.29
474.369	2997.77
474.74	3024.21
475.112	3058.56
475.484	3124.1
475.855	3140.14
476.227	3151.22
476.598	3247.49
476.97	3273.47
477.341	3363.19
477.713	3387.82
478.084	3393.24
478.455	3478.44
478.827	3507.14
479.198	3631.66
479.569	3628.72
479.94	3670.52
480.311	3656.06
480.682	3776.28
481.053	3823.06
481.424	3878.88
481.795	3906.68
482.166	3975.15
482.537	4044.53
482.908	4076.84
483.279	4122.26
483.65	4204.07
484.021	4265.09
484.391	4310.06
484.762	4324.07
485.133	4321.36
485.503	4357.06
485.874	4507.34
486.244	4475.02
486.615	4577.17
486.985	4599.31
487.356	4711.18
487.726	4721.12
488.097	4792.53
488.467	4833.43
488.837	4901
489.207	4944.84
489.578	5014.22
489.948	5053.77
490.318	5105.29
490.688	5105.29
491.058	5172.63
491.428	5225.96
491.798	5266.87
492.168	5366.98
492.538	5433.87
492.908	5397.71
493.278	5415.79
493.648	5495.11
494.017	5587.08
494.387	5616.69
494.757	5624.82
495.126	5645.39
495.496	5705.5
495.866	5750.7
496.235	5770.13
496.605	5796.34
496.974	5798.83
497.344	5831.37
497.713	5874.76
498.082	5952.5
498.452	5967.41
498.821	5998.83
499.19	5996.34
499.559	6070.46
499.928	6079.73
500.298	6082.21
500.667	6138.71
501.036	6146.62
501.405	6217.35
501.774	6204.92
502.143	6263.45
502.512	6271.81
502.88	6291.47
503.249	6324.01
503.618	6397.01
503.987	6371.24
504.356	6354.75
504.724	6364.69
505.093	6381.64
505.462	6434.07
505.83	6471.13
506.199	6486.72
506.567	6599.71
506.936	6522.2
507.304	6648.53
507.672	6625.48
508.041	6695.98
508.409	6674.29
508.777	6710.45
509.145	6739.37
509.514	6677
509.882	6758.13
510.25	6724.23
510.618	6743.66
510.986	6754.96
511.354	6839.71
511.722	6893.49
512.09	6905.02
512.458	6858.24
512.826	6954.73
513.193	6904.79
513.561	6924
513.929	6990.44
514.297	7030.66
514.664	7008.06
515.032	7030.89
515.4	7082.41
515.767	7025.92
516.135	7062.75
516.502	7031.34
516.869	7171
517.237	7125.8
517.604	7081.51
517.972	7240.37
518.339	7167.16
518.706	7186.14
519.073	7132.13
519.44	7178.91
519.808	7245.8
520.175	7240.6
520.542	7269.53
520.909	7340.71
521.276	7292.8
521.643	7291.9
522.009	7341.84
522.376	7421.16
522.743	7411.9
523.11	7451.44
523.477	7446.47
523.843	7488.96
524.21	7507.94
524.577	7461.16
524.943	7594.94
525.31	7565.79
525.676	7593.13
526.043	7542.74
526.409	7636.3
526.776	7612.34
527.142	7588.39
527.508	7699.8
527.874	7640.59
528.241	7753.13
528.607	7686.01
528.973	7752.23
529.339	7716.29
529.705	7755.16
530.071	7783.64
530.437	7835.84
530.803	7832.45
531.169	7847.82
531.535	7759.91
531.901	7852.34
532.267	7748.16
532.632	7789.06
532.998	7864.54
533.364	7854.37
533.73	7782.51
534.095	7834.26
534.461	7841.71
534.826	7869.51
535.192	7913.13
535.557	7869.06
535.923	7801.72
536.288	7815.27
536.653	7783.19
537.019	7808.72
537.384	7884.88
537.749	7804.65
538.114	7811.21
538.479	7766.46
538.845	7853.47
539.21	7784.32
539.575	7816.4
539.94	7818.66
540.305	7817.08
540.67	7786.35
541.034	7800.13
541.399	7806.91
541.764	7780.93
542.129	7772.56
542.494	7735.95
542.858	7732.11
543.223	7760.59
543.587	7796.29
543.952	7761.26
544.316	7711.77
544.681	7727.82
545.045	7694.6
545.41	7712.45
545.774	7705
546.138	7775.5
546.503	7677.65
546.867	7659.57
547.231	7700.48
547.595	7707.71
547.959	7738.67
548.324	7697.76
548.688	7643.53
549.052	7655.96
549.416	7687.82
549.779	7648.27
550.143	7624.32
550.507	7694.83
550.871	7615.28
551.235	7602.85
551.599	7671.55
551.962	7664.77
552.326	7594.04
552.689	7657.54
553.053	7640.82
553.417	7588.39
553.78	7631.32
554.143	7590.87
554.507	7683.07
554.87	7649.86
555.234	7636.07
555.597	7615.05
555.96	7607.6
556.323	7683.07
556.686	7644.21
557.05	7652.79
557.413	7620.25
557.776	7591.1
558.139	7659.12
558.502	7662.96
558.865	7627.94
559.228	7671.1
559.59	7635.39
559.953	7687.37
560.316	7746.58
560.679	7625.22
561.041	7723.3
561.404	7789.51
561.767	7786.57
562.129	7740.7
562.492	7764.65
562.854	7791.55
563.217	7756.75
563.579	7795.84
563.941	7787.7
564.304	7784.32
564.666	7862.28
565.028	7811.43
565.39	7827.7
565.753	7902.5
566.115	7936.63
566.477	7964.88
566.839	7942.73
567.201	7951.77
567.563	7983.18
567.925	8009.62
568.287	7996.74
568.648	7953.12
569.01	8015.5
569.372	8071.77
569.734	8059.11
570.095	8110.41
570.457	8120.13
570.819	8159.45
571.18	8140.69
571.542	8133.68
571.903	8092.33
572.265	8172.1
572.626	8214.59
572.987	8212.1
573.349	8182.04
573.71	8191.99
574.071	8258.43
574.432	8331.87
574.794	8327.13
575.155	8307.01
575.516	8352.66
575.877	8355.6
576.238	8397.41
576.599	8382.94
576.96	8401.25
577.32	8458.2
577.681	8489.61
578.042	8486.22
578.403	8419.78
578.763	8472.66
579.124	8465.43
579.485	8414.81
579.845	8578.64
580.206	8609.38
580.566	8540.45
580.927	8565.31
581.287	8610.06
581.648	8630.39
582.008	8594.01
582.368	8628.81
582.728	8657.96
583.089	8622.94
583.449	8641.69
583.809	8714.46
584.169	8731.18
584.529	8674.69
584.889	8684.63
585.249	8674.91
585.609	8696.38
585.969	8755.14
586.329	8666.1
586.688	8819.99
587.048	8772.31
587.408	8789.94
587.768	8738.64
588.127	8807.79
588.487	8737.06
588.846	8807.34
589.206	8787
589.565	8822.03
589.925	8893.21
590.284	8793.33
590.643	8900.22
591.003	8885.3
591.362	8950.16
591.721	8861.8
592.08	8885.53
592.44	8929.14
592.799	8979.31
593.158	8986.32
593.517	8964.4
593.876	8917.39
594.235	8911.74
594.593	8880.56
594.952	8968.46
595.311	9012.31
595.67	9047.11
596.029	9014.34
596.387	9007.33
596.746	9062.47
597.104	8990.16
597.463	9029.03
597.822	9076.03
598.18	9008.24
598.538	9015.02
598.897	9053.66
599.255	9044.39
599.613	9113.09
599.972	9035.58
600.33	9064.51
600.688	9085.98
601.046	9073.77
601.404	9167.78
601.762	9045.75
602.12	9219.76
602.478	9200.1
602.836	9171.85
603.194	9057.73
603.552	9128.23
603.91	9096.15
604.268	9108.57
604.625	9110.83
604.983	9141.34
605.341	9104.51
605.698	9166.43
606.056	9184.05
606.413	9175.01
606.771	9197.39
607.128	9172.3
607.485	9104.51
607.843	9181.79
608.2	9228.12
608.557	9269.93
608.914	9190.61
609.272	9227.22
609.629	9247.78
609.986	9226.54
610.343	9262.92
610.7	9272.19
611.057	9298.63
611.414	9304.28
611.771	9363.71
612.127	9384.5
612.484	9390.37
612.841	9401.45
613.198	9394.22
613.554	9369.81
613.911	9406.65
614.267	9376.59
614.624	9285.97
614.98	9373.43
615.337	9350.83
615.693	9413.42
616.05	9380.88
616.406	9495.46
616.762	9449.13
617.118	9421.33
617.475	9382.92
617.831	9418.85
618.187	9455.68
618.543	9498.62
618.899	9514.67
619.255	9459.53
619.611	9489.36
619.967	9480.99
620.323	9524.16
620.678	9492.07
621.034	9482.58
621.39	9440.54
621.746	9436.48
622.101	9599.41
622.457	9445.06
622.812	9461.79
623.168	9459.3
623.523	9524.83
623.879	9555.34
624.234	9520.77
624.589	9484.16
624.945	9538.62
625.3	9497.72
625.655	9483.71
626.01	9507.21
626.365	9467.43
626.72	9469.69
627.075	9462.69
627.43	9408.91
627.785	9530.48
628.14	9418.62
628.495	9483.25
628.85	9403.03
629.205	9379.3
629.559	9445.29
629.914	9444.61
630.269	9478.28
630.623	9413.65
630.978	9379.75
631.332	9422.01
631.687	9462.92
632.041	9379.3
632.396	9387.89
632.75	9373.43
633.104	9370.26
633.459	9307.44
633.813	9374.1
634.167	9344.05
634.521	9297.04
634.875	9287.33
635.229	9247.55
635.583	9288.68
635.937	9305.86
636.291	9286.42
636.645	9245.52
636.999	9255.01
637.352	9263.6
637.706	9168.69
638.06	9191.74
638.413	9217.05
638.767	9213.66
639.121	9192.87
639.474	9133.43
639.828	9132.98
640.181	9152.19
640.534	9100.44
640.888	9135.69
641.241	9097.73
641.594	9075.81
641.947	9180.44
642.301	9084.62
642.654	9142.92
643.007	9073.09
643.36	9031.51
643.713	9065.64
644.066	9063.83
644.419	8964.62
644.771	8992.19
645.124	8895.47
645.477	8907.9
645.83	8890.27
646.182	8797.62
646.535	8790.62
646.888	8794.68
647.24	8707.23
647.593	8812.31
647.945	8718.08
648.298	8690.05
648.65	8763.27
649.002	8693.9
649.355	8740
649.707	8726.21
650.059	8780.45
650.411	8916.71
650.763	8921.69
651.115	8994
651.467	8904.29
651.819	8917.17
652.171	8930.5
652.523	8893.21
652.875	8936.6
653.227	8835.36
653.578	8985.41
653.93	8916.26
654.282	8874.68
654.633	8918.97
654.985	8945.41
655.337	8917.39
655.688	8910.84
656.039	8904.74
656.391	8869.26
656.742	8871.97
657.094	8862.48
657.445	8942.7
657.796	8908.58
658.147	8862.25
658.498	8938.41
658.849	8957.84
659.2	8912.2
659.551	8859.09
659.902	8885.08
660.253	8871.07
660.604	8937.28
660.955	8914
661.306	8879.43
661.656	8845.98
662.007	8894.34
662.358	8891.18
662.708	8970.95
663.059	8884.63
663.409	8836.04
663.76	8934.12
664.11	8897.73
664.461	8848.24
664.811	8915.36
665.161	8937.51
665.511	8839.2
665.862	8949.71
666.212	8942.93
666.562	8912.42
666.912	8867.9
667.262	8909.03
667.612	8904.29
667.962	9015.47
668.312	8933.21
668.662	8983.38
669.011	8912.65
669.361	8873.55
669.711	8887.79
670.06	8893.44
670.41	8863.83
670.76	8814.57
671.109	8888.01
671.459	8879.65
671.808	8888.92
672.157	8879.88
672.507	8788.81
672.856	8812.99
673.205	8812.08
673.554	8864.96
673.904	8764.63
674.253	8831.52
674.602	8837.39
674.951	8709.94
675.3	8652.99
675.649	8753.1
675.998	8764.85
676.346	8798.53
676.695	8844.85
677.044	8741.13
677.393	8700.68
677.741	8768.47
678.09	8710.62
678.438	8659.32
678.787	8681.92
679.135	8690.96
679.484	8664.07
679.832	8718.53
680.181	8586.55
680.529	8687.79
680.877	8602.82
681.225	8638.3
681.573	8603.28
681.922	8622.71
682.27	8530.51
682.618	8517.4
682.966	8467.23
683.314	8523.05
683.661	8474.24
684.009	8466.33
684.357	8371.42
684.705	8457.52
685.053	8448.48
685.4	8399.44
685.748	8340.46
686.095	8393.34
686.443	8312.89
686.79	8310.18
687.138	8330.97
687.485	8359.67
687.832	8332.55
688.18	8263.62
688.527	8266.56
688.874	8180.01
689.221	8244.42
689.568	8164.87
689.915	8194.02
690.262	8114.7
690.609	8179.33
690.956	8089.62
691.303	8116.74
691.65	8064.08
691.997	8094.14
692.344	8018.89
692.69	7997.42
693.037	8006.23
693.383	7923.52
693.73	7888.27
694.077	7871.77
694.423	7904.09
694.769	7866.57
695.116	7779.12
695.462	7834.26
695.808	7805.11
696.155	7811.88
696.501	7709.06
696.847	7705.45
697.193	7731.44
697.539	7629.74
697.885	7583.64
698.231	7534.38
698.577	7616.18
698.923	7562.63
699.269	7542.97
699.614	7470.2
699.96	7450.54
700.306	7450.99
700.651	7435.62
700.997	7389.3
701.342	7363.31
701.688	7337.1
702.033	7343.2
702.379	7316.53
702.724	7275.85
703.069	7290.99
703.415	7210.77
703.76	7217.32
704.105	7165.12
704.45	7170.77
704.795	7119.02
705.14	7033.83
705.485	7044.67
705.83	7033.15
706.175	7069.31
706.52	7033.37
706.865	7005.13
707.209	6970.78
707.554	6959.93
707.899	6974.17
708.243	6911.8
708.588	6921.74
708.932	6884.45
709.277	6875.41
709.621	6837.45
709.966	6779.82
710.31	6840.39
710.654	6782.53
710.998	6770.56
711.342	6799.71
711.687	6764.45
712.031	6724.23
712.375	6661.41
712.719	6695.76
713.063	6693.27
713.407	6719.48
713.75	6737.34
714.094	6659.82
714.438	6661.63
714.782	6656.66
715.125	6622.09
715.469	6556.55
715.812	6622.99
716.156	6533.05
716.499	6564.69
716.843	6594.97
717.186	6512.71
717.53	6532.14
717.873	6577.34
718.216	6552.48
718.559	6479.72
718.902	6467.74
719.246	6433.39
719.589	6487.4
719.932	6417.57
720.275	6438.36
720.617	6427.74
720.96	6421.41
721.303	6435.2
721.646	6437.01
721.989	6374.63
722.331	6347.74
722.674	6364.01
723.016	6365.37
723.359	6417.35
723.701	6403.11
724.044	6372.83
724.386	6379.61
724.729	6324.92
725.071	6324.47
725.413	6275.2
725.755	6348.42
726.097	6345.71
726.439	6288.99
726.782	6285.82
727.124	6295.54
727.465	6306.39
727.807	6273.85
728.149	6239.5
728.491	6290.34
728.833	6284.69
729.175	6224.81
729.516	6255.99
729.858	6235.2
730.199	6231.59
730.541	6186.39
730.882	6212.83
731.224	6303.45
731.565	6280.85
731.906	6237.46
732.248	6196.11
732.589	6173.51
732.93	6184.81
733.271	6263.9
733.612	6244.02
733.953	6191.81
734.294	6190.01
734.635	6237.69
734.976	6178.71
735.317	6160.63
735.658	6167.63
735.999	6194.53
736.339	6154.53
736.68	6202.66
737.021	6200.18
737.361	6194.53
737.702	6168.99
738.042	6199.27
738.383	6244.24
738.723	6211.48
739.063	6201.08
739.404	6255.09
739.744	6219.84
740.084	6223.45
740.424	6258.25
740.764	6288.31
741.104	6251.7
741.444	6232.04
741.784	6260.97
742.124	6297.35
742.464	6280.63
742.804	6255.77
743.143	6306.39
743.483	6315.88
743.823	6284.47
744.162	6334.18
744.502	6353.62
744.841	6319.72
745.181	6353.62
745.52	6409.44
745.86	6456.44
746.199	6414.86
746.538	6420.74
746.877	6510.22
747.216	6520.85
747.556	6552.94
747.895	6560.84
748.234	6589.09
748.573	6684.46
748.911	6644.01
749.25	6745.47
749.589	6733.04
749.928	6780.73
750.267	6864.34
750.605	6923.77
750.944	6925.58
751.283	6984.11
751.621	7027.95
751.96	6992.7
752.298	7144.33
752.636	7183.2
752.975	7223.2
753.313	7323.54
753.651	7340.26
753.989	7417.32
754.327	7481.95
754.666	7592
755.004	7728.05
755.342	7758.1
755.679	7836.74
756.017	7898.21
756.355	7989.96
756.693	8077.64
757.031	8201.71
757.368	8205.77
757.706	8398.99
758.044	8417.07
758.381	8565.99
758.719	8634.01
759.056	8767.57
759.394	8807.34
759.731	8898.64
760.068	8998.52
760.405	9045.75
760.743	9196.03
761.08	9371.39
761.417	9328.46
761.754	9502.46
762.091	9607.54
762.428	9687.32
762.765	9788.33
763.102	9846.41
763.438	10057.48
763.775	10084.37
764.112	10109.23
764.449	10334.53
764.785	10399.61
765.122	10426.96
765.458	10541.98
765.795	10629.89
766.131	10756.89
766.467	10792.37
766.804	10887.96
767.14	10933.38
767.476	11000.5
767.812	11049.99
768.148	11268.97
768.485	11249.53
768.821	11238.01
769.157	11445.69
769.492	11466.7
769.828	11552.35
770.164	11570.66
770.5	11554.84
770.836	11731.78
771.171	11680.71
771.507	11716.19
771.842	11749.41
772.178	11842.74
772.513	11896.75
772.849	11970.42
773.184	11993.7
773.519	12050.87
773.855	12053.58
774.19	12119.57
774.525	12070.53
774.86	12187.59
775.195	12177.65
775.53	12267.59
775.865	12169.74
776.2	12208.61
776.535	12220.36
776.87	12169.51
777.205	12230.53
777.539	12272.11
777.874	12240.7
778.209	12242.5
778.543	12264.42
778.878	12262.84
779.212	12210.41
779.547	12276.63
779.881	12273.46
780.215	12207.25
780.55	12332.9
780.884	12196.85
781.218	12249.73
781.552	12267.14
781.886	12212.45
782.22	12240.47
782.554	12211.09
782.888	12197.31
783.222	12101.72
783.556	12158.21
783.889	12142.84
784.223	12045.67
784.557	12061.94
784.89	12168.61
785.224	12090.42
785.557	12028.95
785.891	12016.52
786.224	12086.12
786.558	12002.51
786.891	11924.77
787.224	11877.54
787.557	11937.88
787.891	11943.53
788.224	11897.43
788.557	11908.5
788.89	11823.3
789.223	12000.02
789.556	11891.1
789.888	11850.2
790.221	11838.22
790.554	11753.93
790.887	11814.04
791.219	11742.86
791.552	11760.26
791.884	11764.32
792.217	11686.13
792.549	11611.56
792.882	11592.12
793.214	11566.59
793.546	11647.49
793.879	11499.7
794.211	11404.11
794.543	11572.01
794.875	11476.42
795.207	11481.17
795.539	11404.56
795.871	11483.65
796.203	11343.54
796.535	11348.52
796.867	11343.32
797.198	11296.31
797.53	11328.18
797.862	11225.35
798.193	11251.34
798.525	11185.36
798.856	11224.22
799.188	11104
799.519	11062.2
799.85	10993.72
800.182	10992.37
800.513	11079.82
800.844	10996.21
801.175	10992.59
801.506	10957.79
801.837	10881.18
802.168	10963.67
802.499	10891.35
802.83	10750.79
803.161	10810.68
803.491	10781.98
803.822	10775.42
804.153	10697.46
804.483	10657.23
804.814	10695.88
805.145	10652.49
805.475	10613.39
805.805	10620.4
806.136	10562.77
806.466	10604.58
806.796	10550.12
807.126	10463.11
807.457	10452.72
807.787	10472.15
808.117	10468.76
808.447	10366.17
808.777	10426.05
809.107	10383.34
809.436	10376.79
809.766	10357.35
810.096	10317.81
810.426	10283.91
810.755	10338.82
811.085	10280.29
811.414	10255.89
811.744	10194.65
812.073	10168.43
812.403	10188.09
812.732	10094.31
813.061	10113.29
813.39	10076.91
813.719	10061.54
814.049	10142.9
814.378	10023.13
814.707	9995.78
815.036	10078.72
815.365	9984.26
815.693	9847.76
816.022	9898.61
816.351	9910.81
816.68	9796.24
817.008	9858.38
817.337	9802.79
817.665	9737.03
817.994	9748.11
818.322	9720.54
818.651	9712.85
818.979	9588.56
819.307	9703.13
819.636	9665.4
819.964	9612.52
820.292	9664.94
820.62	9678.5
820.948	9615.91
821.276	9650.25
821.604	9576.36
821.932	9680.08
822.259	9615.68
822.587	9588.11
822.915	9582.91
823.243	9625.4
823.57	9630.37
823.898	9650.48
824.225	9622.46
824.553	9609.8
824.88	9639.63
825.207	9612.97
825.535	9596.24
825.862	9659.29
826.189	9611.61
826.516	9691.38
826.843	9666.3
827.17	9638.28
827.497	9683.25
827.824	9697.94
828.151	9732.06
828.478	9666.53
828.805	9642.8
829.131	9614.32
829.458	9646.19
829.785	9646.86
830.111	9650.93
830.438	9679.63
830.764	9643.02
831.09	9680.08
831.417	9620.43
831.743	9638.05
832.069	9662.23
832.395	9620.2
832.722	9660.88
833.048	9624.49
833.374	9645.96
833.7	9605.51
834.026	9591.95
834.351	9573.19
834.677	9514.89
835.003	9588.11
835.329	9571.16
835.654	9504.5
835.98	9463.82
836.306	9470.37
836.631	9548.79
836.956	9554.66
837.282	9483.71
837.607	9396.93
837.932	9469.92
838.258	9478.06
838.583	9482.8
838.908	9358.51
839.233	9413.42
839.558	9325.74
839.883	9365.52
840.208	9316.7
840.533	9370.71
840.858	9364.16
841.182	9306.99
841.507	9324.16
841.832	9310.83
842.156	9258.4
842.481	9262.47
842.805	9249.14
843.13	9162.36
843.454	9229.7
843.778	9147.44
844.103	9170.49
844.427	9121
844.751	9073.32
845.075	9116.03
845.399	9041.01
845.723	8952.65
846.047	9014.79
846.371	8915.13
846.695	8941.57
847.019	8822.71
847.343	8845.08
847.666	8825.42
847.99	8728.02
848.313	8709.26
848.637	8645.31
848.96	8670.62
849.284	8652.77
849.607	8626.1
849.931	8579.55
850.254	8523.05
850.577	8474.24
850.9	8428.82
851.223	8455.94
851.546	8352.21
851.869	8342.49
852.192	8330.97
852.515	8264.3
852.838	8251.65
853.161	8311.31
853.483	8222.95
853.806	8215.26
854.129	8213.68
854.451	8168.49
854.774	8051.88
855.096	8123.06
855.419	8026.79
855.741	8069.28
856.063	8042.84
856.385	8017.08
856.708	7949.96
857.03	7981.15
857.352	8006.23
857.674	7914.03
857.996	7879.91
858.318	7892.11
858.64	7924.88
858.961	7813.69
859.283	7755.16
859.605	7792.22
859.926	7774.37
860.248	7776.41
860.57	7753.81
860.891	7741.15
861.212	7757.2
861.534	7655.28
861.855	7676.52
862.176	7654.83
862.498	7671.55
862.819	7681.94
863.14	7645.34
863.461	7643.08
863.782	7532.12
864.103	7639.91
864.424	7533.93
864.745	7501.16
865.065	7556.52
865.386	7523.31
865.707	7550.2
866.027	7446.02
866.348	7462.97
866.668	7470.88
866.989	7514.49
867.309	7466.13
867.63	7444.89
867.95	7380.03
868.27	7394.04
868.59	7395.62
868.91	7410.99
869.23	7380.03
869.55	7256.87
869.87	7334.61
870.19	7311.56
870.51	7337.32
870.83	7342.97
871.15	7310.66
871.469	7250.77
871.789	7317.21
872.109	7259.36
872.428	7241.73
872.748	7260.26
873.067	7232.69
873.386	7228.62
873.706	7194.73
874.025	7161.73
874.344	7161.96
874.663	7185.69
874.982	7182.97
875.301	7180.26
875.62	7147.5
875.939	7089.87
876.258	7114.05
876.577	7128.97
876.896	7086.03
877.214	7041.51
877.533	7071.11
877.852	7079.02
878.17	7045.35
878.489	7036.09
878.807	7034.96
879.125	7027.95
879.444	6991.12
879.762	6972.59
880.08	6956.31
880.398	6974.84
880.716	6951.79
881.034	6911.57
881.352	6982.3
881.67	6914.28
881.988	6860.5
882.306	6885.58
882.624	6837.67
882.941	6826.15
883.259	6839.93
883.577	6795.41
883.894	6795.19
884.212	6772.14
884.529	6775.08
884.846	6742.76
885.164	6752.7
885.481	6680.84
885.798	6778.01
886.115	6742.31
886.432	6689.43
886.75	6692.82
887.067	6614.4
887.383	6639.03
887.7	6643.55
888.017	6596.55
888.334	6596.32
888.651	6555.42
888.967	6567.62
889.284	6596.55
889.6	6540.28
889.917	6462.32
890.233	6444.24
890.55	6485.14
890.866	6465.25
891.182	6446.95
891.498	6411.7
891.815	6370.57
892.131	6422.99
892.447	6332.83
892.763	6303.22
893.079	6361.08
893.395	6282.89
893.71	6329.21
894.026	6278.37
894.342	6235.2
894.657	6183.91
894.973	6245.15
895.289	6193.17
895.604	6153.17
895.92	6161.31
896.235	6100.07
896.55	6106.39
896.865	6121.08
897.181	6080.86
897.496	6087.18
897.811	6042.67
898.126	6021.65
898.441	6009.67
898.756	5988.88
899.071	5987.75
899.386	5931.93
899.7	5860.3
900.015	5893.74
900.33	5841.54
900.644	5846.96
900.959	5788.44
901.273	5803.58
901.588	5778.27
901.902	5703.69
902.216	5673.64
902.531	5704.37
902.845	5717.7
903.159	5609.46
903.473	5627.76
903.787	5626.18
904.101	5580.76
904.415	5549.57
904.729	5537.82
905.042	5537.14
905.356	5487.2
905.67	5523.13
905.984	5497.37
906.297	5513.19
906.611	5469.57
906.924	5431.38
907.237	5438.61
907.551	5406.3
907.864	5366.75
908.177	5350.93
908.491	5347.32
908.804	5325.4
909.117	5362.46
909.43	5268
909.743	5298.5
910.056	5251.05
910.368	5246.3
910.681	5212.86
910.994	5213.76
911.307	5150.71
911.619	5123.37
911.932	5128.79
912.244	5098.28
912.557	5077.72
912.869	5073.88
913.181	5033.88
913.494	5030.26
913.806	4965.86
914.118	5006.54
914.43	4958.17
914.742	4954.56
915.054	4926.99
915.366	4917.27
915.678	4860.78
915.99	4921.34
916.302	4838.63
916.613	4824.62
916.925	4799.31
917.236	4798.63
917.548	4786.2
917.859	4741.46
918.171	4717.05
918.482	4724.06
918.794	4691.97
919.105	4691.52
919.416	4654.91
919.727	4653.78
920.038	4639.31
920.349	4588.92
920.66	4596.15
920.971	4600.9
921.282	4550.28
921.593	4536.04
921.903	4531.52
922.214	4527.23
922.525	4475.25
922.835	4454.91
923.146	4423.05
923.456	4385.99
923.767	4410.39
924.077	4378.53
924.387	4353.44
924.697	4352.54
925.008	4294.46
925.318	4329.26
925.628	4341.02
925.938	4279.1
926.248	4259.89
926.558	4185.99
926.867	4251.07
927.177	4215.6
927.487	4188.25
927.796	4169.49
928.106	4177.86
928.416	4111.19
928.725	4159.78
929.034	4115.26
929.344	4116.84
929.653	4071.64
929.962	4101.47
930.271	4038.2
930.581	4016.96
930.89	4022.83
931.199	3985.09
931.508	3984.19
931.817	3972.89
932.125	3957.75
932.434	3941.48
932.743	3917.75
933.051	3901.25
933.36	3892.44
933.669	3887.02
933.977	3841.37
934.286	3862.16
934.594	3845.66
934.902	3791.88
935.21	3751.65
935.519	3816.74
935.827	3799.11
936.135	3751.65
936.443	3777.19
936.751	3697.42
937.059	3722.05
937.367	3673.24
937.674	3694.48
937.982	3682.05
938.29	3687.02
938.597	3653.12
938.905	3626.46
939.213	3585.78
939.52	3613.13
939.827	3584.65
940.135	3561.38
940.442	3555.73
940.749	3527.93
941.056	3552.56
941.363	3525.67
941.67	3508.5
941.977	3486.35
942.284	3476.63
942.591	3422.4
942.898	3440.93
943.205	3424.43
943.511	3433.24
943.818	3433.02
944.125	3333.81
944.431	3361.15
944.738	3367.03
945.044	3350.76
945.35	3287.03
945.657	3278.67
945.963	3292.68
946.269	3269.86
946.575	3271.21
946.881	3237.09
947.187	3234.83
947.493	3193.48
947.799	3210.65
948.105	3209.29
948.41	3146.24
948.716	3174.94
949.022	3130.2
949.327	3123.87
949.633	3102.18
949.938	3141.5
950.244	3119.58
950.549	3088.17
950.854	3056.08
951.16	3084.55
951.465	3070.31
951.77	3058.34
952.075	3010.66
952.38	3059.24
952.685	3008.62
952.99	2978.57
953.294	3005.01
953.599	3000.71
953.904	2945.35
954.209	2954.61
954.513	2929.53
954.818	2929.53
955.122	2911.9
955.426	2911.22
955.731	2904.9
956.035	2879.81
956.339	2872.35
956.643	2865.12
956.948	2831.45
957.252	2798.68
957.556	2777.89
957.86	2798.01
958.163	2771.79
958.467	2763.43
958.771	2785.8
959.075	2746.03
959.378	2738.12
959.682	2724.56
959.985	2734.5
960.289	2699.48
960.592	2698.12
960.896	2713.94
961.199	2689.53
961.502	2661.74
961.805	2674.17
962.108	2646.6
962.411	2650.66
962.714	2635.07
963.017	2602.53
963.32	2618.35
963.623	2596.2
963.926	2597.56
964.228	2552.81
964.531	2554.62
964.833	2567.96
965.136	2536.54
965.438	2553.72
965.741	2512.14
966.043	2501.29
966.345	2485.25
966.648	2471.69
966.95	2491.12
967.252	2432.37
967.554	2457.68
967.856	2440.27
968.158	2475.3
968.46	2406.83
968.761	2397.79
969.063	2405.7
969.365	2365.93
969.666	2374.97
969.968	2392.14
970.269	2377.45
970.571	2349.88
970.872	2344.91
971.174	2358.47
971.475	2350.56
971.776	2309.66
972.077	2295.19
972.378	2261.07
972.679	2319.15
972.98	2314.4
973.281	2290.45
973.582	2242.54
973.883	2212.94
974.183	2255.42
974.484	2227.17
974.785	2240.05
975.085	2232.14
975.386	2231.92
975.686	2175.87
975.986	2201.41
976.287	2188.76
976.587	2159.6
976.887	2133.62
977.187	2155.31
977.487	2159.38
977.787	2128.42
978.087	2112.37
978.387	2113.05
978.687	2123.9
978.987	2103.56
979.286	2070.57
979.586	2075.76
979.885	2094.97
980.185	2069.44
980.484	2056.33
980.784	2041.87
981.083	2040.74
981.382	2025.82
981.682	2011.13
981.981	2024.69
982.28	1984.24
982.579	1986.95
982.878	2012.49
983.177	1965.26
983.475	1985.15
983.774	1953.06
984.073	1958.25
984.372	1950.57
984.67	1949.89
984.969	1950.12
985.267	1924.58
985.566	1911.7
985.864	1918.25
986.162	1936.56
986.461	1887.07
986.759	1886.39
987.057	1864.02
987.355	1847.52
987.653	1866.05
987.951	1888.2
988.249	1861.76
988.547	1832.61
988.844	1861.76
989.142	1844.36
989.44	1834.19
989.737	1780.86
990.035	1807.07
990.332	1778.82
990.63	1788.31
990.927	1791.48
991.224	1796.68
991.521	1784.92
991.819	1755.77
992.116	1762.1
992.413	1748.09
992.71	1734.98
993.006	1734.08
993.303	1721.42
993.6	1712.38
993.897	1696.57
994.193	1700.41
994.49	1665.38
994.787	1676.68
995.083	1698.15
995.379	1688.88
995.676	1671.26
995.972	1681.2
996.268	1638.04
996.565	1632.39
996.861	1628.32
997.157	1621.99
997.453	1609.34
997.749	1605.72
998.044	1577.7
998.34	1591.48
998.636	1573.18
998.932	1546.96
999.227	1594.2
999.523	1553.52
999.818	1559.39
1000.114	1531.37
1000.409	1559.85
1000.704	1501.77
1001	1515.1
1001.295	1481.2
1001.59	1517.81
1001.885	1487.98
1002.18	1492.5
1002.475	1491.83
1002.77	1471.49
1003.065	1482.11
1003.359	1429.68
1003.654	1475.1
1003.949	1452.28
1004.243	1460.87
1004.538	1448.66
1004.832	1428.1
1005.127	1446.4
1005.421	1401.21
1005.715	1400.3
1006.009	1405.95
1006.304	1391.04
1006.598	1380.87
1006.892	1369.12
1007.186	1373.86
1007.48	1362.34
1007.773	1341.09
1008.067	1341.77
1008.361	1336.12
1008.655	1324.37
1008.948	1330.47
1009.242	1326.86
1009.535	1307.2
1009.829	1304.26
1010.122	1290.47
1010.415	1298.61
1010.708	1280.98
1011.001	1275.79
1011.295	1253.19
1011.588	1275.56
1011.881	1284.6
1012.173	1239.63
1012.466	1222
1012.759	1244.6
1013.052	1229.46
1013.344	1261.32
1013.637	1236.24
1013.93	1179.29
1014.222	1174.32
1014.514	1186.07
1014.807	1180.65
1015.099	1172.06
1015.391	1183.36
1015.683	1160.99
1015.976	1179.29
1016.268	1145.39
1016.56	1124.38
1016.851	1135
1017.143	1142.91
1017.435	1138.84
1017.727	1099.52
1018.018	1132.74
1018.31	1129.35
1018.602	1123.25
1018.893	1127.99
1019.185	1118.05
1019.476	1103.13
1019.767	1080.76
1020.058	1075.56
1020.35	1041.44
1020.641	1067.43
1020.932	1060.88
1021.223	1036.47
1021.514	1044.15
1021.804	1038.28
1022.095	1043.93
1022.386	1045.51
1022.677	1026.07
1022.967	1013.42
1023.258	1011.61
1023.548	979.3
1023.839	1009.8
1024.129	988.34
1024.419	982.46
1024.709	980.88
1025	980.65
1025.29	971.16
1025.58	988.56
1025.87	954.44
1026.16	955.34
1026.449	939.75
1026.739	936.81
1027.029	943.14
1027.319	906.08
1027.608	928.45
1027.898	925.06
1028.187	906.3
1028.477	905.63
1028.766	895
1029.055	917.6
1029.344	896.59
1029.634	896.36
1029.923	884.84
1030.212	894.1
1030.501	874.89
1030.79	883.71
1031.078	874.21
1031.367	861.11
1031.656	853.42
1031.945	843.48
1032.233	815.01
1032.522	844.84
1032.81	818.62
1033.099	835.8
1033.387	843.03
1033.675	811.62
1033.963	807.1
1034.251	829.47
1034.54	825.18
1034.828	811.62
1035.116	821.11
1035.403	816.36
1035.691	786.08
1035.979	795.12
1036.267	782.24
1036.554	801.67
1036.842	769.58
1037.129	777.72
1037.417	740.88
1037.704	754.22
1037.992	746.76
1038.279	767.1
1038.566	770.71
1038.853	770.71
1039.14	770.71
