Data from hue_80_FLMS001491_7.txt Node
Date: Mon Feb 06 15:22:22 GMT 2017
User: dcchb
Spectrometer: FLMS00149
Trigger mode: 0
Integration Time (sec): 2.000000E-2
Scans to average: 10
Electric dark correction enabled: true
Nonlinearity correction enabled: false
Boxcar width: 0
XAxis mode: Wavelengths
Number of Pixels in Spectrum: 2048
>>>>>Begin Spectral Data<<<<<
341.393	-13.33
341.776	-13.33
342.16	-13.33
342.543	-63.95
342.927	-50.39
343.31	-73.22
343.693	-67.57
344.077	-52.65
344.46	-68.25
344.843	-40.68
345.226	-53.78
345.61	-36.38
345.993	-27.34
346.376	6.55
346.759	-2.71
347.142	19.89
347.525	36.84
347.908	47.23
348.291	102.14
348.674	95.36
349.057	114.57
349.44	121.13
349.823	168.13
350.206	155.93
350.588	172.88
350.971	218.53
351.354	239.99
351.737	260.11
352.119	255.13
352.502	261.46
352.884	260.56
353.267	290.61
353.65	292.87
354.032	317.28
354.414	296.49
354.797	319.09
355.179	317.73
355.562	329.48
355.944	327.9
356.326	330.39
356.709	330.61
357.091	356.15
357.473	369.03
357.855	340.56
358.238	366.32
358.62	356.15
359.002	365.19
359.384	338.52
359.766	367.67
360.148	345.53
360.53	332.42
360.912	322.7
361.294	328.8
361.676	318.64
362.057	327.68
362.439	343.95
362.821	333.78
363.203	331.06
363.584	331.97
363.966	328.8
364.348	337.62
364.729	327.45
365.111	334.91
365.493	323.16
365.874	333.1
366.256	319.77
366.637	316.38
367.019	315.02
367.4	320.44
367.781	325.87
368.163	322.25
368.544	321.35
368.925	348.92
369.306	330.39
369.688	310.73
370.069	302.82
370.45	303.95
370.831	326.32
371.212	297.39
371.593	318.64
371.974	336.26
372.355	322.93
372.736	319.99
373.117	311.18
373.498	326.32
373.879	312.99
374.26	314.12
374.641	344.4
375.021	311.63
375.402	327
375.783	321.8
376.163	316.15
376.544	338.3
376.925	336.49
377.305	323.38
377.686	337.39
378.066	338.52
378.447	335.58
378.827	309.14
379.208	315.02
379.588	331.52
379.968	313.21
380.349	343.27
380.729	335.81
381.109	342.82
381.489	344.85
381.87	344.85
382.25	339.88
382.63	352.53
383.01	354.11
383.39	337.39
383.77	357.05
384.15	327.9
384.53	342.82
384.91	358.18
385.29	344.4
385.67	364.06
386.049	367.22
386.429	341.23
386.809	340.1
387.189	369.26
387.568	357.73
387.948	351.4
388.328	360.89
388.707	338.97
389.087	353.89
389.466	343.95
389.846	356.15
390.225	364.51
390.605	360.22
390.984	343.72
391.363	368.8
391.743	354.79
392.122	378.97
392.501	389.82
392.881	411.51
393.26	356.6
393.639	380.1
394.018	392.53
394.397	370.84
394.776	385.75
395.155	371.29
395.534	386.43
395.913	377.39
396.292	382.14
396.671	376.04
397.05	367
397.429	395.02
397.808	384.17
398.186	370.39
398.565	407.67
398.944	395.7
399.323	409.48
399.701	382.36
400.08	393.89
400.458	406.54
400.837	390.95
401.215	412.19
401.594	375.13
401.972	398.63
402.351	417.84
402.729	417.62
403.107	406.77
403.486	406.09
403.864	428.01
404.242	412.64
404.62	421.46
404.999	393.44
405.377	436.37
405.755	444.28
406.133	422.36
406.511	416.26
406.889	424.62
407.267	432.08
407.645	418.07
408.023	424.62
408.401	427.79
408.779	437.5
409.156	461.68
409.534	431.18
409.912	423.49
410.29	438.63
410.667	444.73
411.045	455.81
411.422	452.19
411.8	458.52
412.178	468.01
412.555	472.08
412.933	454.9
413.31	471.4
413.687	461.46
414.065	481.34
414.442	474.79
414.819	490.83
415.197	494.9
415.574	481.34
415.951	474.34
416.328	505.07
416.705	500.78
417.082	493.32
417.46	508.24
417.837	500.78
418.214	496.48
418.591	503.26
418.967	514.56
419.344	494
419.721	511.85
420.098	525.18
420.475	527.67
420.852	509.14
421.228	518.63
421.605	530.16
421.982	520.21
422.358	526.54
422.735	555.01
423.111	542.13
423.488	534.45
423.864	530.61
424.241	556.82
424.617	557.73
424.994	556.14
425.37	559.76
425.746	565.18
426.123	547.1
426.499	557.5
426.875	578.74
427.251	583.94
427.627	590.27
428.003	587.78
428.379	590.27
428.756	586.2
429.132	608.12
429.507	613.77
429.883	585.75
430.259	615.13
430.635	635.01
431.011	622.58
431.387	636.82
431.763	626.42
432.138	635.69
432.514	652.19
432.89	633.2
433.265	659.42
433.641	670.72
434.016	667.1
434.392	682.69
434.767	690.38
435.143	672.3
435.518	684.73
435.894	690.6
436.269	713.43
436.644	694.45
437.02	698.51
437.395	712.98
437.77	721.11
438.145	700.77
438.52	724.05
438.895	757.72
439.271	740.32
439.646	724.73
440.021	750.94
440.395	719.76
440.77	775.8
441.145	761.79
441.52	781
441.895	782.13
442.27	782.13
442.645	752.97
443.019	772.41
443.394	771.96
443.769	808.11
444.143	775.12
444.518	793.88
444.892	802.69
445.267	815.8
445.641	806.53
446.016	824.61
446.39	853.99
446.764	836.59
447.139	833.65
447.513	820.77
447.887	842.01
448.262	848.57
448.636	851.5
449.01	864.38
449.384	874.78
449.758	889.02
450.132	887.43
450.506	899.19
450.88	891.5
451.254	902.58
451.628	922.91
452.002	896.47
452.376	929.47
452.75	929.69
453.123	925.85
453.497	958.39
453.871	951.61
454.244	941.9
454.618	970.37
454.992	981.67
455.365	981.44
455.739	1003.36
456.112	997.26
456.486	991.39
456.859	1042.46
457.232	1054.44
457.606	1046.53
457.979	1053.31
458.352	1068.22
458.725	1091.72
459.099	1105.06
459.472	1119.97
459.845	1133.08
460.218	1132.85
460.591	1153.42
460.964	1177.14
461.337	1181.21
461.71	1191.16
462.083	1202.68
462.456	1195.45
462.829	1209.91
463.201	1211.27
463.574	1232.96
463.947	1246.29
464.32	1274.99
464.692	1310.47
465.065	1343.24
465.438	1326.97
465.81	1364.26
466.183	1384.14
466.555	1382.56
466.928	1413.52
467.3	1423.69
467.672	1455.78
468.045	1511.37
468.417	1498.27
468.789	1516.12
469.161	1561.09
469.534	1538.72
469.906	1585.04
470.278	1625.27
470.65	1656.45
471.022	1662.78
471.394	1724.93
471.766	1706.85
472.138	1764.47
472.51	1824.81
472.882	1845.83
473.253	1879.72
473.625	1921.53
473.997	1954.98
474.369	2011.25
474.74	2022.32
475.112	2081.98
475.484	2119.27
475.855	2162.88
476.227	2218.7
476.598	2279.94
476.97	2292.82
477.341	2416.89
477.713	2450.11
478.084	2462.31
478.455	2600.84
478.827	2592.47
479.198	2731.45
479.569	2742.07
479.94	2842.86
480.311	2902.75
480.682	3027.04
481.053	3132.12
481.424	3218.67
481.795	3287.82
482.166	3355.39
482.537	3379.12
482.908	3544.54
483.279	3596.52
483.65	3719
484.021	3856.4
484.391	3903.17
484.762	4039.67
485.133	4141.81
485.503	4205.99
485.874	4375.93
486.244	4428.58
486.615	4617.05
486.985	4688.46
487.356	4839.19
487.726	4949.02
488.097	5072.63
488.467	5157.15
488.837	5341.78
489.207	5464.94
489.578	5586.52
489.948	5718.49
490.318	5875.33
490.688	5955.32
491.058	6131.14
491.428	6294.52
491.798	6437.12
492.168	6556.44
492.538	6747.39
492.908	6844.57
493.278	6977.44
493.648	7062.19
494.017	7251.56
494.387	7400.94
494.757	7543.3
495.126	7661.72
495.496	7777.42
495.866	7901.71
496.235	8080.01
496.605	8231.2
496.974	8367.01
497.344	8427.12
497.713	8569.94
498.082	8723.39
498.452	8863.72
498.821	8937.39
499.19	9077.5
499.559	9222.81
499.928	9361.34
500.298	9480.2
500.667	9598.62
501.036	9682.91
501.405	9847.42
501.774	9936.91
502.143	10096.46
502.512	10178.04
502.88	10343.68
503.249	10373.06
503.618	10547.29
503.987	10595.65
504.356	10754.97
504.724	10844.69
505.093	10838.59
505.462	10976.66
505.83	11168.52
506.199	11254.85
506.567	11371.23
506.936	11402.41
507.304	11555.85
507.672	11710.43
508.041	11748.62
508.409	11890.53
508.777	11959.91
509.145	12085.56
509.514	12117.2
509.882	12278.1
510.25	12306.8
510.618	12443.06
510.986	12535.04
511.354	12625.43
511.722	12693.68
512.09	12857.97
512.458	12876.72
512.826	13001.01
513.193	13099.77
513.561	13163.95
513.929	13228.13
514.297	13363.49
514.664	13414.11
515.032	13412.08
515.4	13602.13
515.767	13638.51
516.135	13673.54
516.502	13609.13
516.869	13904.04
517.237	13888
517.604	13931.39
517.972	14027.43
518.339	14140.65
518.706	14170.25
519.073	14155.11
519.44	14317.59
519.808	14414.08
520.175	14413.63
520.542	14595.55
520.909	14601.88
521.276	14678.71
521.643	14801.87
522.009	14869.67
522.376	14970.91
522.743	14957.8
523.11	15162.77
523.477	15201.63
523.843	15257
524.21	15337.9
524.577	15449.99
524.943	15382.19
525.31	15452.25
525.676	15715.52
526.043	15671.23
526.409	15728.17
526.776	15853.59
527.142	15902.86
527.508	15896.98
527.874	16046.13
528.241	16172.91
528.607	16110.08
528.973	16214.26
529.339	16072.35
529.705	16177.65
530.071	16335.84
530.437	16390.08
530.803	16341.04
531.169	16513.92
531.535	16415.84
531.901	16440.02
532.267	16452.9
532.632	16529.73
532.998	16520.47
533.364	16577.87
533.73	16615.61
534.095	16657.64
534.461	16708.71
534.826	16678.43
535.192	16700.58
535.557	16866.9
535.923	16694.48
536.288	16788.71
536.653	16758.88
537.019	16775.83
537.384	16850.63
537.749	16789.16
538.114	16755.94
538.479	16775.83
538.845	16880.46
539.21	16752.78
539.575	16845.88
539.94	16764.53
540.305	16934.47
540.67	16814.7
541.034	16766.34
541.399	16800.01
541.764	16793.46
542.129	16922.94
542.494	16771.08
542.858	16834.59
543.223	16780.8
543.587	16858.54
543.952	16699.67
544.316	16861.25
544.681	16755.04
545.045	16811.08
545.41	16838.2
545.774	16814.7
546.138	16785.77
546.503	16771.08
546.867	16771.76
547.231	16864.42
547.595	16730.18
547.959	16925.2
548.324	16857.64
548.688	16831.42
549.052	16831.87
549.416	16719.11
549.779	16752.33
550.143	16696.96
550.507	16850.4
550.871	16771.31
551.235	16736.74
551.599	16874.58
551.962	16798.65
552.326	16733.8
552.689	16833.68
553.053	16715.04
553.417	16715.27
553.78	16893.34
554.143	16736.06
554.507	16747.58
554.87	16784.87
555.234	16874.81
555.597	16734.48
555.96	16743.51
556.323	16884.3
556.686	16847.69
557.05	16883.62
557.413	16861.03
557.776	16778.54
558.139	16963.17
558.502	16901.7
558.865	16901.02
559.228	16939.44
559.59	16969.05
559.953	16962.27
560.316	17143.5
560.679	17048.59
561.041	17116.61
561.404	17197.97
561.767	17280.68
562.129	17134.01
562.492	17171.07
562.854	17256.27
563.217	17159.55
563.579	17299.21
563.941	17393.44
564.304	17305.53
564.666	17508.24
565.028	17422.14
565.39	17498.3
565.753	17541.91
566.115	17570.39
566.477	17568.13
566.839	17608.35
567.201	17613.55
567.563	17625.98
567.925	17722.92
568.287	17637.95
568.648	17805.41
569.01	17734.22
569.372	17773.54
569.734	17744.62
570.095	17767.67
570.457	17815.12
570.819	17897.16
571.18	17885.63
571.542	18004.95
571.903	17907.78
572.265	18053.54
572.626	18046.98
572.987	18121.56
573.349	18069.58
573.71	18152.29
574.071	18133.53
574.432	18259.41
574.794	18300.31
575.155	18242.68
575.516	18122.69
575.877	18263.47
576.238	18294.89
576.599	18349.12
576.96	18303.02
577.32	18343.25
577.681	18411.72
578.042	18345.96
578.403	18447.2
578.763	18405.39
579.124	18355
579.485	18392.96
579.845	18437.03
580.206	18332.63
580.566	18416.46
580.927	18340.99
581.287	18507.54
581.648	18357.71
582.008	18577.59
582.368	18356.35
582.728	18511.15
583.089	18465.05
583.449	18393.19
583.809	18435.22
584.169	18489.46
584.529	18353.19
584.889	18555.44
585.249	18449.01
585.609	18490.81
585.969	18495.56
586.329	18369.01
586.688	18340.08
587.048	18412.4
587.408	18387.99
587.768	18386.18
588.127	18389.12
588.487	18332.85
588.846	18440.19
589.206	18264.15
589.565	18337.37
589.925	18332.63
590.284	18316.81
590.643	18360.2
591.003	18350.93
591.362	18404.94
591.721	18300.31
592.08	18360.42
592.44	18363.81
592.799	18229.35
593.158	18267.99
593.517	18295.11
593.876	18334.43
594.235	18338.27
594.593	18282.91
594.952	18320.2
595.311	18184.61
595.67	18295.79
596.029	18353.87
596.387	18272.74
596.746	18373.75
597.104	18292.4
597.463	18289.01
597.822	18309.8
598.18	18382.34
598.538	18213.31
598.897	18456.46
599.255	18152.52
599.613	18479.51
599.972	18274.55
600.33	18289.46
600.688	18233.42
601.046	18341.21
601.404	18387.09
601.762	18315
602.12	18414.88
602.478	18461.66
602.836	18343.92
603.194	18347.77
603.552	18286.52
603.91	18244.94
604.268	18449.91
604.625	18403.58
604.983	18380.76
605.341	18251.05
605.698	18389.12
606.056	18421.89
606.413	18396.35
606.771	18451.49
607.128	18351.16
607.485	18406.52
607.843	18393.64
608.2	18584.6
608.557	18544.15
608.914	18452.85
609.272	18588.66
609.629	18630.02
609.986	18639.74
610.343	18527.2
610.7	18597.25
611.057	18616.46
611.414	18536.46
611.771	18579.62
612.127	18696.68
612.484	18578.72
612.841	18703.69
613.198	18677.7
613.554	18681.77
613.911	18788.88
614.267	18800.41
614.624	18698.04
614.98	18810.35
615.337	18923.8
615.693	18869.79
616.05	18776
616.406	18912.05
616.762	18914.53
617.118	18877.92
617.475	18874.31
617.831	18937.81
618.187	18927.19
618.543	18840.18
618.899	19122.66
619.255	19037.69
619.611	19035.66
619.967	19118.59
620.323	19137.58
620.678	18998.37
621.034	18979.61
621.39	19020.29
621.746	18930.58
622.101	19182.77
622.457	19117.92
622.812	19121.76
623.168	19182.55
623.523	19135.99
623.879	19188.87
624.234	19007.18
624.589	19064.58
624.945	19037.69
625.3	19189.1
625.655	19030.46
626.01	19149.1
626.365	19183.68
626.72	19097.12
627.075	19077.92
627.43	19026.39
627.785	19106.62
628.14	19088.99
628.495	19093.74
628.85	19165.15
629.205	19056.22
629.559	19162.66
629.914	19101.42
630.269	19083.57
630.623	19052.83
630.978	18990.24
631.332	19067.3
631.687	19075.2
632.041	18967.86
632.396	18985.94
632.75	18928.77
633.104	18996.11
633.459	18891.25
633.813	18807.19
634.167	18873.4
634.521	18823.46
634.875	18869.56
635.229	18870.69
635.583	18767.19
635.937	18830.69
636.291	18774.87
636.645	18766.96
636.999	18632.28
637.352	18723.12
637.706	18689.9
638.06	18724.48
638.413	18718.83
638.767	18614.43
639.121	18645.16
639.474	18583.47
639.828	18587.53
640.181	18636.57
640.534	18632.05
640.888	18498.04
641.241	18486.29
641.594	18495.11
641.947	18476.8
642.301	18508.21
642.654	18475.67
643.007	18470.25
643.36	18452.4
643.713	18438.61
644.066	18477.03
644.419	18446.07
644.771	18290.82
645.124	18065.06
645.477	18061.9
645.83	18000.2
646.182	17872.52
646.535	17885.41
646.888	17901.45
647.24	17868.46
647.593	17871.62
647.945	17788.68
648.298	17752.3
648.65	17735.8
649.002	17702.59
649.355	17787.33
649.707	17783.26
650.059	17806.54
650.411	18136.25
650.763	18090.82
651.115	18268.45
651.467	18198.17
651.819	18122.69
652.171	18157.94
652.523	18095.57
652.875	18178.96
653.227	17983.03
653.578	18154.78
653.93	18161.1
654.282	18126.53
654.633	18042.01
654.985	18130.82
655.337	18085.4
655.688	18162.69
656.039	18167.88
656.391	17994.56
656.742	18201.56
657.094	18107.55
657.445	18169.24
657.796	18071.16
658.147	18088.79
658.498	18071.84
658.849	18149.35
659.2	18056.7
659.551	18036.14
659.902	18127.88
660.253	18097.38
660.604	18223.7
660.955	18106.87
661.306	18163.36
661.656	18171.27
662.007	18159.97
662.358	18140.54
662.708	18205.4
663.059	18185.96
663.409	18082.46
663.76	18175.12
664.11	18260.54
664.461	18165.17
664.811	18200.65
665.161	18128.79
665.511	18189.8
665.862	18145.96
666.212	18188
666.562	18200.43
666.912	18266.86
667.262	18168.79
667.612	18134.21
667.962	18190.48
668.312	18214.44
668.662	18232.29
669.011	18279.97
669.361	18199.97
669.711	18124.27
670.06	18142.35
670.41	18049.69
670.76	18143.7
671.109	18228.67
671.459	18169.24
671.808	18055.8
672.157	18164.72
672.507	17935.35
672.856	18054.67
673.205	17997.72
673.554	18101.9
673.904	18003.82
674.253	18123.82
674.602	17976.02
674.951	17778.52
675.3	17730.61
675.649	17986.19
675.998	17961.79
676.346	17944.16
676.695	17972.63
677.044	17855.58
677.393	17942.81
677.741	17968.34
678.09	17863.49
678.438	17776.48
678.787	17893.54
679.135	17802.92
679.484	17723.38
679.832	17746.43
680.181	17682.25
680.529	17709.82
680.877	17591.85
681.225	17592.76
681.573	17675.02
681.922	17605.19
682.27	17496.94
682.618	17494.68
682.966	17583.04
683.314	17515.02
683.661	17405.64
684.009	17388.92
684.357	17301.92
684.705	17225.99
685.053	17349.83
685.4	17259.66
685.748	17134.01
686.095	17229.6
686.443	17073.45
686.79	17065.99
687.138	17053.56
687.485	17109.15
687.832	17014.02
688.18	17048.82
688.527	16935.37
688.874	16947.58
689.221	16826
689.568	16836.62
689.915	16788.03
690.262	16729.73
690.609	16600.02
690.956	16623.52
691.303	16603.18
691.65	16549.17
691.997	16423.07
692.344	16457.87
692.69	16419.91
693.037	16490.87
693.383	16189.86
693.73	16248.39
694.077	16155.28
694.423	16131.1
694.769	16058.79
695.116	16123.19
695.462	15979.92
695.808	15882.07
696.155	15850.43
696.501	15842.07
696.847	15771.56
697.193	15700.83
697.539	15676.65
697.885	15665.8
698.231	15553.94
698.577	15620.15
698.923	15465.58
699.269	15449.09
699.614	15359.14
699.96	15328.41
700.306	15324.12
700.651	15115.76
700.997	15130.22
701.342	15180.62
701.688	15079.38
702.033	15011.81
702.379	15064.46
702.724	15002.77
703.069	14980.85
703.415	14812.94
703.76	14838.03
704.105	14787.18
704.45	14794.19
704.795	14642.1
705.14	14585.15
705.485	14544.02
705.83	14547.64
706.175	14566.62
706.52	14416.57
706.865	14401.66
707.209	14424.48
707.554	14288.44
707.899	14352.62
708.243	14205.73
708.588	14236.46
708.932	14137.93
709.277	14122.57
709.621	14086.18
709.966	14043.25
710.31	14037.6
710.654	13926.41
710.998	13891.16
711.342	13889.8
711.687	13848.22
712.031	13801.67
712.375	13792.18
712.719	13817.26
713.063	13761.9
713.407	13781.56
713.75	13767.1
714.094	13678.06
714.438	13589.93
714.782	13600.55
715.125	13530.49
715.469	13629.02
715.812	13534.79
716.156	13468.35
716.499	13512.19
716.843	13489.14
717.186	13471.28
717.53	13363.26
717.873	13418.18
718.216	13364.62
718.559	13273.78
718.902	13203.95
719.246	13308.8
719.589	13224.29
719.932	13216.15
720.275	13177.51
720.617	13200.78
720.96	13175.7
721.303	13110.39
721.646	13195.59
721.989	13038.08
722.331	13212.31
722.674	13095.7
723.016	13044.18
723.359	13041.01
723.701	13052.76
724.044	13016.15
724.386	12954.91
724.729	12998.98
725.071	12897.74
725.413	13011.41
725.755	13032.2
726.097	12925.99
726.439	12840.57
726.782	12892.32
727.124	12924.86
727.465	12886.67
727.807	12851.19
728.149	12878.98
728.491	12745.43
728.833	12831.75
729.175	12837.63
729.516	12793.34
729.858	12834.92
730.199	12831.53
730.541	12730.51
730.882	12733.45
731.224	12770.06
731.565	12720.8
731.906	12732.32
732.248	12744.3
732.589	12695.94
732.93	12728.93
733.271	12685.32
733.612	12712.89
733.953	12702.26
734.294	12719.21
734.635	12660.46
734.976	12721.7
735.317	12685.99
735.658	12655.94
735.999	12652.77
736.339	12658.42
736.68	12626.11
737.021	12670.63
737.361	12706.78
737.702	12728.7
738.042	12624.07
738.383	12724.19
738.723	12663.85
739.063	12713.79
739.404	12715.15
739.744	12707.24
740.084	12719.44
740.424	12721.93
740.764	12715.6
741.104	12708.37
741.444	12710.85
741.784	12722.15
742.124	12777.29
742.464	12845.09
742.804	12763.96
743.143	12833.33
743.483	12807.8
743.823	12762.83
744.162	12850.06
744.502	12925.31
744.841	12897.97
745.181	12950.39
745.52	12980.68
745.86	13081.69
746.199	13074.91
746.538	13061.35
746.877	13127.11
747.216	13090.5
747.556	13120.56
747.895	13223.83
748.234	13211.86
748.573	13301.35
748.911	13306.32
749.25	13414.34
749.589	13450.95
749.928	13453.88
750.267	13579.3
750.605	13704.72
750.944	13695.01
751.283	13689.58
751.621	13931.16
751.96	13838.96
752.298	13991.27
752.636	14062.68
752.975	14084.15
753.313	14202.56
753.651	14370.24
753.989	14438.94
754.327	14504.48
754.666	14527.98
755.004	14673.29
755.342	14782.21
755.679	14930.68
756.017	14902.88
756.355	15095.2
756.693	15081.86
757.031	15321.41
757.368	15285.02
757.706	15466.94
758.044	15595.97
758.381	15770.88
758.719	15836.65
759.056	15977.66
759.394	16008.62
759.731	16180.37
760.068	16345.11
760.405	16369.74
760.743	16543.29
761.08	16645.89
761.417	16656.96
761.754	16816.96
762.091	16882.04
762.428	17052.21
762.765	17091.08
763.102	17277.51
763.438	17343.95
763.775	17402.93
764.112	17624.85
764.449	17657.16
764.785	17649.48
765.122	17793.2
765.458	17814.22
765.795	17921.11
766.131	17947.78
766.467	18089.47
766.804	18043.59
767.14	18176.25
767.476	18312.06
767.812	18272.74
768.148	18479.29
768.485	18387.77
768.821	18388.67
769.157	18554.54
769.492	18569.46
769.828	18614.65
770.164	18599.74
770.5	18736
770.836	18791.37
771.171	18651.94
771.507	18801.31
771.842	18754.99
772.178	18771.03
772.513	18864.59
772.849	18940.97
773.184	18862.1
773.519	18985.04
773.855	18896
774.19	18979.61
774.525	18961.31
774.86	18893.97
775.195	18933.97
775.53	19000.63
775.865	18939.62
776.2	18791.82
776.535	18668.89
776.87	18889.22
777.205	18825.95
777.539	18839.05
777.874	18876.79
778.209	18647.87
778.543	18695.1
778.878	18681.54
779.212	18788.21
779.547	18765.61
779.881	18800.18
780.215	18588.89
780.55	18664.82
780.884	18480.42
781.218	18600.64
781.552	18598.61
781.886	18512.51
782.22	18451.04
782.554	18405.62
782.888	18296.69
783.222	18314.32
783.556	18240.42
783.889	18328.78
784.223	18170.82
784.557	18136.92
784.89	18187.54
785.224	18065.06
785.557	18047.66
785.891	18002.24
786.224	17846.08
786.558	17979.64
786.891	17861
787.224	17811.06
787.557	17632.3
787.891	17745.3
788.224	17744.17
788.557	17752.98
788.89	17708.46
789.223	17727.22
789.556	17564.06
789.888	17507.56
790.221	17468.47
790.554	17352.31
790.887	17432.31
791.219	17257.63
791.552	17256.95
791.884	17306.44
792.217	17146.22
792.549	17147.8
792.882	17033.22
793.214	17007.69
793.546	17048.14
793.879	16923.4
794.211	16781.48
794.543	16818.54
794.875	16860.12
795.207	16878.88
795.539	16731.99
795.871	16766.34
796.203	16640.92
796.535	16533.35
796.867	16531.77
797.198	16486.35
797.53	16529.28
797.862	16294.26
798.193	16372
798.525	16292
798.856	16269.63
799.188	16146.02
799.519	16150.54
799.85	16140.59
800.182	16075.06
800.513	16089.97
800.844	16005.91
801.175	16009.3
801.506	15944.89
801.837	15829.87
802.168	15860.15
802.499	15845.01
802.83	15675.97
803.161	15668.74
803.491	15689.53
803.822	15720.26
804.153	15583.55
804.483	15415.87
804.814	15452.02
805.145	15473.04
805.475	15344.91
805.805	15308.75
806.136	15338.81
806.466	15352.59
806.796	15301.52
807.126	15085.71
807.457	15061.07
807.787	15061.98
808.117	14991.47
808.447	14988.98
808.777	15006.39
809.107	14981.3
809.436	14906.5
809.766	14861.3
810.096	14858.37
810.426	14815.43
810.755	14805.26
811.085	14746.5
811.414	14784.7
811.744	14675.77
812.073	14572.27
812.403	14570.92
812.732	14544.93
813.061	14542.67
813.39	14510.13
813.719	14473.97
814.049	14582.89
814.378	14386.74
814.707	14335.22
815.036	14423.35
815.365	14331.83
815.693	14162.34
816.022	14190.14
816.351	14193.98
816.68	14176.8
817.008	14167.09
817.337	14002.57
817.665	14067.88
817.994	13997.6
818.322	13978.84
818.651	13955.11
818.979	13860.88
819.307	13974.32
819.636	13905.85
819.964	13793.54
820.292	13795.34
820.62	13864.49
820.948	13785.63
821.276	13877.83
821.604	13808.68
821.932	13744.95
822.259	13806.87
822.587	13820.65
822.915	13781.78
823.243	13766.19
823.57	13764.38
823.898	13837.6
824.225	13635.12
824.553	13708.11
824.88	13728.68
825.207	13832.63
825.535	13728.45
825.862	13717.15
826.189	13693.2
826.516	13749.92
826.843	13778.85
827.17	13764.84
827.497	13725.97
827.824	13768.68
828.151	13757.38
828.478	13759.64
828.805	13864.95
829.131	13778.85
829.458	13724.16
829.785	13642.58
830.111	13713.99
830.438	13780.65
830.764	13747.89
831.09	13746.98
831.417	13624.73
831.743	13707.21
832.069	13752.18
832.395	13664.95
832.722	13739.07
833.048	13686.87
833.374	13672.41
833.7	13530.04
834.026	13702.69
834.351	13639.42
834.677	13573.65
835.003	13606.87
835.329	13591.51
835.654	13519.64
835.98	13552.41
836.306	13570.26
836.631	13434.22
836.956	13593.09
837.282	13473.54
837.607	13410.04
837.932	13423.6
838.258	13434
838.583	13429.48
838.908	13332.3
839.233	13395.35
839.558	13284.4
839.883	13301.8
840.208	13176.15
840.533	13222.7
840.858	13295.02
841.182	13155.59
841.507	13161.46
841.832	13191.97
842.156	13126.21
842.481	13086.44
842.805	13073.1
843.13	13010.73
843.454	13015.93
843.778	13013.22
844.103	12896.16
844.427	12914.69
844.751	12849.83
845.075	12858.64
845.399	12882.37
845.723	12767.8
846.047	12818.87
846.371	12736.39
846.695	12754.24
847.019	12569.61
847.343	12523.29
847.666	12443.97
847.99	12477.64
848.313	12380.69
848.637	12283.52
848.96	12356.96
849.284	12256.17
849.607	12156.29
849.931	12135.95
850.254	12164.2
850.577	11969.18
850.9	11893.02
851.223	11996.97
851.546	11888.73
851.869	11755.62
852.192	11783.87
852.515	11791.33
852.838	11704.1
853.161	11711.56
853.483	11635.17
853.806	11644.21
854.129	11577.55
854.451	11563.09
854.774	11504.78
855.096	11489.42
855.419	11443.31
855.741	11412.81
856.063	11291.23
856.385	11344.33
856.708	11157.67
857.03	11207.16
857.352	11231.34
857.674	11154.73
857.996	11132.81
858.318	11049.43
858.64	11097.34
858.961	10975.76
859.283	10961.07
859.605	10972.37
859.926	10893.5
860.248	10884.01
860.57	10869.32
860.891	10912.26
861.212	10840.84
861.534	10785.25
861.855	10752.26
862.176	10781.86
862.498	10774.63
862.819	10791.13
863.14	10716.55
863.461	10660.74
863.782	10647.4
864.103	10671.58
864.424	10572.6
864.745	10585.48
865.065	10523.11
865.386	10566.5
865.707	10549.1
866.027	10507.75
866.348	10467.52
866.668	10500.51
866.989	10448.76
867.309	10366.28
867.63	10366.96
867.95	10377.58
868.27	10354.53
868.59	10355.21
868.91	10404.92
869.23	10357.69
869.55	10226.62
869.87	10295.55
870.19	10245.15
870.51	10236.79
870.83	10281.99
871.15	10149.79
871.469	10172.16
871.789	10216
872.109	10212.61
872.428	10102.79
872.748	10152.95
873.067	10152.28
873.386	10093.97
873.706	10102.79
874.025	10053.52
874.344	10012.17
874.663	10058.94
874.982	10027.31
875.301	9987.31
875.62	10001.77
875.939	9944.15
876.258	9970.13
876.577	9883.58
876.896	9924.94
877.214	9944.82
877.533	9821.66
877.852	9935.33
878.17	9882.9
878.489	9838.61
878.807	9867.09
879.125	9800.65
879.444	9794.09
879.762	9771.49
880.08	9777.82
880.398	9730.37
880.716	9698.5
881.034	9730.37
881.352	9724.72
881.67	9708.45
881.988	9691.72
882.306	9674.1
882.624	9628.22
882.941	9611.72
883.259	9556.13
883.577	9492.18
883.894	9479.07
884.212	9492.86
884.529	9505.06
884.846	9414.67
885.164	9438.17
885.481	9384.61
885.798	9380.77
886.115	9400.66
886.432	9335.8
886.75	9416.25
887.067	9325.4
887.383	9257.38
887.7	9272.98
888.017	9234.79
888.334	9258.06
888.651	9289.93
888.967	9214.22
889.284	9125.41
889.6	9098.07
889.917	9025.07
890.233	9082.93
890.55	9045.86
890.866	9006.77
891.182	8990.27
891.498	8969.26
891.815	8939.43
892.131	8877.73
892.447	8873.89
892.763	8790.5
893.079	8799.99
893.395	8734.46
893.71	8778.53
894.026	8797.96
894.342	8662.82
894.657	8648.13
894.973	8675.93
895.289	8621.69
895.604	8677.29
895.92	8589.15
896.235	8471.19
896.55	8511.41
896.865	8522.71
897.181	8446.11
897.496	8420.57
897.811	8416.5
898.126	8360.23
898.441	8366.79
898.756	8324.98
899.071	8266.68
899.386	8300.57
899.7	8256.51
900.015	8177.19
900.33	8178.77
900.644	8159.79
900.959	8186.45
901.273	8098.77
901.588	8002.05
901.902	8008.15
902.216	7935.84
902.531	7999.79
902.845	7938.1
903.159	7923.18
903.473	7911.88
903.787	7835.5
904.101	7711.44
904.415	7771.32
904.729	7715.73
905.042	7734.26
905.356	7676.86
905.67	7671.21
905.984	7681.38
906.297	7654.49
906.611	7536.07
906.924	7600.93
907.237	7545.11
907.551	7516.86
907.864	7404.55
908.177	7423.31
908.491	7432.35
908.804	7364.33
909.117	7297.89
909.43	7279.13
909.743	7284.1
910.056	7294.95
910.368	7226.48
910.681	7196.42
910.994	7115.29
911.307	7129.98
911.619	7106.03
911.932	7114.84
912.244	7025.58
912.557	7045.24
912.869	7002.98
913.181	6960.72
913.494	6933.38
913.806	6945.58
914.118	6880.5
914.43	6805.7
914.742	6834.17
915.054	6766.38
915.366	6780.61
915.678	6774.74
915.99	6757.34
916.302	6705.13
916.613	6663.33
916.925	6657.9
917.236	6664.23
917.548	6578.13
917.859	6595.98
918.171	6539.04
918.482	6458.36
918.794	6453.84
919.105	6479.15
919.416	6387.63
919.727	6415.65
920.038	6419.27
920.349	6417.01
920.66	6310.12
920.971	6253.85
921.282	6294.98
921.593	6283.22
921.903	6293.17
922.214	6203.68
922.525	6172.49
922.835	6139.27
923.146	6121.19
923.456	6075.32
923.767	6085.94
924.077	6073.06
924.387	6033.74
924.697	5992.38
925.008	5958.49
925.318	5948.54
925.628	5948.32
925.938	5856.57
926.248	5828.55
926.558	5827.19
926.867	5822.67
927.177	5813.86
927.487	5734.09
927.796	5681.43
928.106	5719.4
928.416	5677.59
928.725	5694.54
929.034	5644.37
929.344	5651.6
929.653	5617.48
929.962	5570.48
930.271	5576.58
930.581	5549.91
930.89	5496.35
931.199	5455.45
931.508	5477.14
931.817	5469.69
932.125	5480.99
932.434	5413.64
932.743	5349.01
933.051	5356.24
933.36	5353.76
933.669	5306.3
933.977	5255.91
934.286	5310.37
934.594	5214.33
934.902	5217.26
935.21	5146.31
935.519	5172.52
935.827	5196.93
936.135	5156.93
936.443	5092.3
936.751	5109.92
937.059	5144.95
937.367	4996.48
937.674	5101.56
937.982	4984.95
938.29	4983.15
938.597	5014.33
938.905	4967.1
939.213	4944.05
939.52	4888.69
939.827	4919.87
940.135	4878.97
940.442	4857.73
940.749	4840.32
941.056	4826.31
941.363	4787.67
941.67	4761.46
941.977	4754
942.284	4740.21
942.591	4695.7
942.898	4670.16
943.205	4680.1
943.511	4639.88
943.818	4626.77
944.125	4533.44
944.431	4559.43
944.738	4525.76
945.044	4510.16
945.35	4504.06
945.657	4477.17
945.963	4495.25
946.269	4467.91
946.575	4436.95
946.881	4383.39
947.187	4458.19
947.493	4375.7
947.799	4375.03
948.105	4338.64
948.41	4358.76
948.716	4304.75
949.022	4269.49
949.327	4271.98
949.633	4236.72
949.938	4271.3
950.244	4243.05
950.549	4168.7
950.854	4177.07
951.16	4188.59
951.465	4188.82
951.77	4134.13
952.075	4142.26
952.38	4083.96
952.685	4088.25
952.99	4057.07
953.294	4031.76
953.599	4037.86
953.904	4018.43
954.209	3994.02
954.513	4000.8
954.818	3931.65
955.122	3913.12
955.426	3918.54
955.731	3911.99
956.035	3913.34
956.339	3893.23
956.643	3892.1
956.948	3849.16
957.252	3837.19
957.556	3807.81
957.86	3791.54
958.163	3787.47
958.467	3708.15
958.771	3713.8
959.075	3725.33
959.378	3734.59
959.682	3703.86
959.985	3708.83
960.289	3691.65
960.592	3673.12
960.896	3634.71
961.199	3607.36
961.502	3562.62
961.805	3599.68
962.108	3565.33
962.411	3518.1
962.714	3513.13
963.017	3523.3
963.32	3548.61
963.623	3553.58
963.926	3451.89
964.228	3438.55
964.531	3476.97
964.833	3431.1
965.136	3422.28
965.438	3375.05
965.741	3399.23
966.043	3381.61
966.345	3351.55
966.648	3380.7
966.95	3382.28
967.252	3340.25
967.554	3338.9
967.856	3289.86
968.158	3311.1
968.46	3312.46
968.761	3267.03
969.063	3258.67
969.365	3217.09
969.666	3212.8
969.968	3176.41
970.269	3199.92
970.571	3190.65
970.872	3164.66
971.174	3140.71
971.475	3124.66
971.776	3138.22
972.077	3133.93
972.378	3091.9
972.679	3075.85
972.98	3072.24
973.281	3044.21
973.582	3027.27
973.883	3049.64
974.183	2995.63
974.484	2998.34
974.785	2949.53
975.085	2984.78
975.386	2969.87
975.686	2940.26
975.986	2937.55
976.287	2934.39
976.587	2898.68
976.887	2871.56
977.187	2864.78
977.487	2908.62
977.787	2829.98
978.087	2862.52
978.387	2813.49
978.687	2793.82
978.987	2802.64
979.286	2824.11
979.586	2771.45
979.885	2750.21
980.185	2728.97
980.484	2709.76
980.784	2710.89
981.083	2740.94
981.382	2704.11
981.682	2714.28
981.981	2705.24
982.28	2687.39
982.579	2605.13
982.878	2646.71
983.177	2635.18
983.475	2629.31
983.774	2622.53
984.073	2604.9
984.372	2578.24
984.67	2604.9
984.969	2580.27
985.267	2557.9
985.566	2521.97
985.864	2498.01
986.162	2535.53
986.461	2499.6
986.759	2486.26
987.057	2506.6
987.355	2474.29
987.653	2486.71
987.951	2475.42
988.249	2422.08
988.547	2426.38
988.844	2425.92
989.142	2435.64
989.44	2389.09
989.737	2393.61
990.035	2374.63
990.332	2377.34
990.63	2366.72
990.927	2377.11
991.224	2362.2
991.521	2328.53
991.819	2316.1
992.116	2299.6
992.413	2294.85
992.71	2253.95
993.006	2292.37
993.303	2271.35
993.6	2222.99
993.897	2223.44
994.193	2242.88
994.49	2241.52
994.787	2193.39
995.083	2173.95
995.379	2194.74
995.676	2201.3
995.972	2179.83
996.268	2186.61
996.565	2118.14
996.861	2133.96
997.157	2152.26
997.453	2095.31
997.749	2104.8
998.044	2070.45
998.34	2118.59
998.636	2068.65
998.932	2069.55
999.227	2076.33
999.523	2047.63
999.818	2028.65
1000.114	2043.79
1000.409	2036.1
1000.704	2015.09
1001	1981.64
1001.295	1986.39
1001.59	1980.06
1001.885	1961.53
1002.18	1963.34
1002.475	1940.97
1002.77	1939.16
1003.065	1928.76
1003.359	1880.63
1003.654	1920.63
1003.949	1883.34
1004.243	1874.3
1004.538	1883.57
1004.832	1853.51
1005.127	1841.53
1005.421	1842.89
1005.715	1827.75
1006.009	1801.53
1006.304	1803.79
1006.598	1785.04
1006.892	1770.8
1007.186	1775.09
1007.48	1760.86
1007.773	1747.07
1008.067	1741.42
1008.361	1717.02
1008.655	1720.41
1008.948	1712.5
1009.242	1689
1009.535	1709.79
1009.829	1703.46
1010.122	1668.88
1010.415	1679.05
1010.708	1646.74
1011.001	1658.04
1011.295	1642.67
1011.588	1632.5
1011.881	1595.66
1012.173	1632.27
1012.466	1611.26
1012.759	1587.75
1013.052	1584.14
1013.344	1589.79
1013.637	1587.75
1013.93	1558.83
1014.222	1553.86
1014.514	1551.6
1014.807	1527.42
1015.099	1512.05
1015.391	1515.21
1015.683	1521.99
1015.976	1489.68
1016.268	1502.11
1016.56	1481.54
1016.851	1472.28
1017.143	1480.19
1017.435	1488.1
1017.727	1463.01
1018.018	1453.52
1018.31	1399.96
1018.602	1400.87
1018.893	1409.91
1019.185	1398.83
1019.476	1377.59
1019.767	1396.57
1020.058	1383.24
1020.35	1382.79
1020.641	1362.68
1020.932	1349.8
1021.223	1342.79
1021.514	1336.46
1021.804	1275.45
1022.095	1317.25
1022.386	1326.07
1022.677	1298.72
1022.967	1303.47
1023.258	1304.82
1023.548	1265.5
1023.839	1273.64
1024.129	1245.62
1024.419	1265.73
1024.709	1241.78
1025	1246.52
1025.29	1220.31
1025.58	1213.53
1025.87	1221.21
1026.16	1203.58
1026.449	1195.9
1026.739	1199.06
1027.029	1176.69
1027.319	1159.52
1027.608	1181.44
1027.898	1174.88
1028.187	1139.86
1028.477	1121.33
1028.766	1145.96
1029.055	1156.13
1029.344	1124.94
1029.634	1101.67
1029.923	1091.95
1030.212	1107.99
1030.501	1085.85
1030.79	1059.86
1031.078	1082.91
1031.367	1072.29
1031.656	1059.41
1031.945	1059.41
1032.233	1065.06
1032.522	1045.62
1032.81	1031.61
1033.099	1037.94
1033.387	1029.58
1033.675	1018.28
1033.963	1003.14
1034.251	1033.42
1034.54	994.32
1034.828	997.26
1035.116	991.39
1035.403	982.8
1035.691	981.44
1035.979	976.92
1036.267	944.38
1036.554	952.74
1036.842	959.3
1037.129	942.57
1037.417	944.61
1037.704	930.82
1037.992	936.7
1038.279	916.81
1038.566	937.6
1038.853	937.6
1039.14	937.6
