Data from hue_340_FLMS001491_17.txt Node
Date: Mon Feb 06 15:42:21 GMT 2017
User: dcchb
Spectrometer: FLMS00149
Trigger mode: 0
Integration Time (sec): 2.000000E-2
Scans to average: 10
Electric dark correction enabled: true
Nonlinearity correction enabled: false
Boxcar width: 0
XAxis mode: Wavelengths
Number of Pixels in Spectrum: 2048
>>>>>Begin Spectral Data<<<<<
341.393	1.79
341.776	1.79
342.16	1.79
342.543	-54.7
342.927	-69.16
343.31	-63.06
343.693	-77.75
344.077	-53.35
344.46	-80.46
344.843	-62.39
345.226	-35.49
345.61	-6.79
345.993	-23.52
346.376	6.31
346.759	-0.01
347.142	23.71
347.525	38.85
347.908	52.41
348.291	79.08
348.674	101
349.057	101.45
349.44	118.4
349.823	159.53
350.206	145.97
350.588	209.25
350.971	221
351.354	237.04
351.737	241.11
352.119	220.09
352.502	258.96
352.884	274.55
353.267	279.75
353.65	285.85
354.032	281.11
354.414	291.5
354.797	317.94
355.179	317.27
355.562	318.4
355.944	315.46
356.326	321.79
356.709	323.37
357.091	311.62
357.473	332.41
357.855	330.82
358.238	336.47
358.62	331.05
359.002	329.92
359.384	340.32
359.766	326.98
360.148	331.95
360.53	325.4
360.912	343.25
361.294	344.84
361.676	329.92
362.057	333.31
362.439	322.46
362.821	317.27
363.203	322.69
363.584	324.05
363.966	331.5
364.348	318.85
364.729	323.59
365.111	308.68
365.493	326.98
365.874	297.61
366.256	317.49
366.637	324.5
367.019	324.95
367.4	305.06
367.781	322.01
368.163	297.83
368.544	304.84
368.925	297.83
369.306	322.24
369.688	311.16
370.069	314.1
370.45	317.27
370.831	310.26
371.212	311.84
371.593	320.66
371.974	305.74
372.355	300.77
372.736	293.09
373.117	304.61
373.498	312.52
373.879	299.64
374.26	320.66
374.641	322.92
375.021	317.04
375.402	292.63
375.783	333.31
376.163	325.63
376.544	308.23
376.925	315.23
377.305	297.61
377.686	310.94
378.066	308.23
378.447	310.03
378.827	307.77
379.208	319.07
379.588	309.13
379.968	320.2
380.349	333.99
380.729	348.68
381.109	338.06
381.489	319.3
381.87	331.28
382.25	340.09
382.63	328.34
383.01	318.62
383.39	329.24
383.77	340.32
384.15	329.47
384.53	329.47
384.91	330.6
385.29	332.18
385.67	358.85
386.049	357.49
386.429	337.83
386.809	341.9
387.189	352.97
387.568	342.58
387.948	354.78
388.328	362.24
388.707	342.12
389.087	334.67
389.466	354.55
389.846	353.65
390.225	346.87
390.605	353.65
390.984	355.68
391.363	354.78
391.743	361.56
392.122	350.03
392.501	376.93
392.881	375.8
393.26	365.4
393.639	364.72
394.018	369.69
394.397	350.03
394.776	364.04
395.155	376.25
395.534	351.16
395.913	383.03
396.292	374.44
396.671	378.51
397.05	371.95
397.429	377.15
397.808	373.76
398.186	375.34
398.565	382.8
398.944	387.77
399.323	363.59
399.701	371.28
400.08	381.22
400.458	388.45
400.837	381.44
401.215	413.31
401.594	380.09
401.972	409.47
402.351	390.26
402.729	384.16
403.107	389.81
403.486	410.6
403.864	421.9
404.242	390.94
404.62	400.43
404.999	401.56
405.377	406.08
405.755	393.2
406.133	427.32
406.511	409.69
406.889	421.9
407.267	404.95
407.645	432.52
408.023	423.25
408.401	421.44
408.779	421.22
409.156	449.01
409.534	447.43
409.912	433.19
410.29	427.55
410.667	460.54
411.045	443.82
411.422	465.28
411.8	453.76
412.178	472.06
412.555	486.98
412.933	459.86
413.31	485.4
413.687	491.95
414.065	498.5
414.442	495.79
414.819	502.12
415.197	482.91
415.574	471.61
415.951	496.02
416.328	513.42
416.705	506.41
417.082	536.92
417.46	533.76
417.837	531.72
418.214	527.66
418.591	550.25
418.967	545.51
419.344	538.95
419.721	554.77
420.098	540.08
420.475	529.46
420.852	562.23
421.228	554.77
421.605	571.04
421.982	559.07
422.358	568.78
422.735	583.93
423.111	559.29
423.488	600.42
423.864	565.17
424.241	600.87
424.617	593.19
424.994	597.48
425.37	622.12
425.746	605.17
426.123	601.55
426.499	614.43
426.875	594.55
427.251	649.23
427.627	651.27
428.003	622.34
428.379	650.36
428.756	667.09
429.132	648.78
429.507	678.61
429.883	659.86
430.259	664.83
430.635	671.15
431.011	682.23
431.387	665.05
431.763	687.88
432.138	707.99
432.514	709.12
432.89	700.98
433.265	723.81
433.641	705.96
434.016	737.82
434.392	749.34
434.767	738.05
435.143	759.97
435.518	761.32
435.894	761.32
436.269	776.69
436.644	770.81
437.02	771.94
437.395	788.44
437.77	787.99
438.145	812.17
438.52	792.51
438.895	812.39
439.271	810.13
439.646	830.92
440.021	821.21
440.395	852.84
440.77	848.1
441.145	835.67
441.52	864.14
441.895	851.49
442.27	830.92
442.645	876.57
443.019	883.13
443.394	874.99
443.769	877.93
444.143	885.61
444.518	884.03
444.892	901.21
445.267	879.28
445.641	906.18
446.016	897.14
446.39	896.69
446.764	906.18
447.139	918.83
447.513	933.52
447.887	904.37
448.262	938.49
448.636	919.51
449.01	931.03
449.384	951.83
449.758	923.35
450.132	952.96
450.506	943.92
450.88	967.87
451.254	954.99
451.628	977.81
452.002	962.67
452.376	985.5
452.75	997.47
453.123	991.82
453.497	988.89
453.871	1005.61
454.244	1030.02
454.618	1034.31
454.992	1049.45
455.365	1027.76
455.739	1046.96
456.112	1058.04
456.486	1054.65
456.859	1092.39
457.232	1096.91
457.606	1080.41
457.979	1093.06
458.352	1107.98
458.725	1116.11
459.099	1124.25
459.472	1134.19
459.845	1126.74
460.218	1130.58
460.591	1161.31
460.964	1173.97
461.337	1200.63
461.71	1208.32
462.083	1218.48
462.456	1224.13
462.829	1187.98
463.201	1211.25
463.574	1210.35
463.947	1258.26
464.32	1279.5
464.692	1271.59
465.065	1293.74
465.438	1293.96
465.81	1327.86
466.183	1334.41
466.555	1326.73
466.928	1365.83
467.3	1348.2
467.672	1369.44
468.045	1409.89
468.417	1417.8
468.789	1406.5
469.161	1458.7
469.534	1457.12
469.906	1456.22
470.278	1462.77
470.65	1509.1
471.022	1505.03
471.394	1536.67
471.766	1541.87
472.138	1567.63
472.51	1599.04
472.882	1582.54
473.253	1609.21
473.625	1633.39
473.997	1668.87
474.369	1668.64
474.74	1682.88
475.112	1689.43
475.484	1718.13
475.855	1764.69
476.227	1780.96
476.598	1842.2
476.97	1844.46
477.341	1891.01
477.713	1900.05
478.084	1903.21
478.455	1976.43
478.827	1969.65
479.198	2025.7
479.569	2015.98
479.94	2053.94
480.311	2097.33
480.682	2149.53
481.053	2127.84
481.424	2192.47
481.795	2206.48
482.166	2255.29
482.537	2266.82
482.908	2319.7
483.279	2304.33
483.65	2379.36
484.021	2419.36
484.391	2440.37
484.762	2452.58
485.133	2487.38
485.503	2469.75
485.874	2599.24
486.244	2582.97
486.615	2648.5
486.985	2667.94
487.356	2726.24
487.726	2725.56
488.097	2750.87
488.467	2765.34
488.837	2822.74
489.207	2871.1
489.578	2865.22
489.948	2922.39
490.318	2978.89
490.688	2999.46
491.058	3014.82
491.428	3045.56
491.798	3077.42
492.168	3140.47
492.538	3155.16
492.908	3197.64
493.278	3226.79
493.648	3239.22
494.017	3268.83
494.387	3316.73
494.757	3323.97
495.126	3366.23
495.496	3337.3
495.866	3367.35
496.235	3424.3
496.605	3466.79
496.974	3439.9
497.344	3514.92
497.713	3482.83
498.082	3559.89
498.452	3560.8
498.821	3560.12
499.19	3560.8
499.559	3587.46
499.928	3605.99
500.298	3679.89
500.667	3700.91
501.036	3705.2
501.405	3762.6
501.774	3743.62
502.143	3752.43
502.512	3809.6
502.88	3799.43
503.249	3819.32
503.618	3786.78
503.987	3829.94
504.356	3902.48
504.724	3895.25
505.093	3902.93
505.462	3895.7
505.83	3874.91
506.199	3971.18
506.567	3969.82
506.936	3965.53
507.304	4042.82
507.672	4024.29
508.041	4043.5
508.409	4060.22
508.777	4089.82
509.145	4139.76
509.514	4139.54
509.882	4115.36
510.25	4154.68
510.618	4170.72
510.986	4190.38
511.354	4169.37
511.722	4151.06
512.09	4250.04
512.458	4219.99
512.826	4237.61
513.193	4255.47
513.561	4273.32
513.929	4303.6
514.297	4312.19
514.664	4314.45
515.032	4350.83
515.4	4414.11
515.767	4349.48
516.135	4396.48
516.502	4426.76
516.869	4416.59
517.237	4483.48
517.604	4401
517.972	4482.35
518.339	4475.8
518.706	4469.02
519.073	4528.23
519.44	4482.81
519.808	4544.73
520.175	4541.34
520.542	4551.28
520.909	4590.37
521.276	4612.75
521.643	4683.7
522.009	4653.42
522.376	4694.33
522.743	4662.01
523.11	4713.31
523.477	4763.48
523.843	4755.79
524.21	4773.65
524.577	4848.22
524.943	4797.83
525.31	4879.63
525.676	4892.06
526.043	4956.01
526.409	4926.41
526.776	4962.79
527.142	4961.89
527.508	5007.09
527.874	5038.72
528.241	5059.29
528.607	5021.1
528.973	5081.89
529.339	5111.72
529.705	5124.82
530.071	5176.57
530.437	5205.5
530.803	5263.58
531.169	5282.78
531.535	5249.11
531.901	5307.64
532.267	5272.84
532.632	5327.98
532.998	5368.88
533.364	5333.86
533.73	5435.32
534.095	5414.08
534.461	5449.56
534.826	5454.53
535.192	5518.94
535.557	5524.13
535.923	5556.9
536.288	5591.03
536.653	5631.02
537.019	5586.51
537.384	5567.3
537.749	5655.2
538.114	5700.4
538.479	5679.61
538.845	5659.95
539.21	5732.26
539.575	5732.94
539.94	5723.9
540.305	5802.77
540.67	5770
541.034	5801.64
541.399	5809.1
541.764	5892.03
542.129	5922.99
542.494	5935.65
542.858	5987.4
543.223	5964.57
543.587	5970.45
543.952	6044.8
544.316	6065.14
544.681	6071.92
545.045	6052.48
545.41	6124.8
545.774	6146.49
546.138	6132.25
546.503	6112.14
546.867	6182.2
547.231	6232.82
547.595	6282.76
547.959	6264.45
548.324	6299.93
548.688	6336.99
549.052	6304
549.416	6297.67
549.779	6320.72
550.143	6353.04
550.507	6414.73
550.871	6465.35
551.235	6446.37
551.599	6475.75
551.962	6518.68
552.326	6507.16
552.689	6563.2
553.053	6510.55
553.417	6579.25
553.78	6656.08
554.143	6609.76
554.507	6649.75
554.87	6629.42
555.234	6662.64
555.597	6668.06
555.96	6705.35
556.323	6691.11
556.686	6666.03
557.05	6816.3
557.413	6764.55
557.776	6804.78
558.139	6910.76
558.502	6840.94
558.865	6849.52
559.228	6908.96
559.59	6943.53
559.953	6923.65
560.316	7045.9
560.679	6996.19
561.041	7037.54
561.404	7103.75
561.767	7123.64
562.129	7063.08
562.492	7166.8
562.854	7142.4
563.217	7181.27
563.579	7167.03
563.941	7258.55
564.304	7224.65
564.666	7317.53
565.028	7305.33
565.39	7351.43
565.753	7329.51
566.115	7404.54
566.477	7421.71
566.839	7450.64
567.201	7463.74
567.563	7427.14
567.925	7547.36
568.287	7508.94
568.648	7607.24
569.01	7619.22
569.372	7642.27
569.734	7641.82
570.095	7747.35
570.457	7694.92
570.819	7825.09
571.18	7807.92
571.542	7815.6
571.903	7799.55
572.265	7888.59
572.626	7955.03
572.987	7995.03
573.349	8004.52
573.71	8067.34
574.071	8097.63
574.432	8182.14
574.794	8279.54
575.155	8291.29
575.516	8328.35
575.877	8436.83
576.238	8457.62
576.599	8508.01
576.96	8494.23
577.32	8585.52
577.681	8730.83
578.042	8754.33
578.403	8813.09
578.763	8902.12
579.124	8970.6
579.485	9109.35
579.845	9231.61
580.206	9185.51
580.566	9343.69
580.927	9469.79
581.287	9609.45
581.648	9707.53
582.008	9843.34
582.368	9997.92
582.728	10150.91
583.089	10220.96
583.449	10307.74
583.809	10564.23
584.169	10739.59
584.529	10922.86
584.889	11095.74
585.249	11158.11
585.609	11330.31
585.969	11536.18
586.329	11726.91
586.688	11901.14
587.048	12127.35
587.408	12270.62
587.768	12558.3
588.127	12739.76
588.487	12906.54
588.846	13226.76
589.206	13337.94
589.565	13555.79
589.925	13944.25
590.284	14119.16
590.643	14310.57
591.003	14615.42
591.362	14909.65
591.721	15213.82
592.08	15388.73
592.44	15702.62
592.799	16019
593.158	16196.62
593.517	16463.06
593.876	16840.45
594.235	16976.94
594.593	17223.94
594.952	17663.25
595.311	17817.82
595.67	18132.39
596.029	18548.2
596.387	18882.65
596.746	19152.93
597.104	19339.36
597.463	19597.44
597.822	19868.62
598.18	20027.26
598.538	20444.19
598.897	20732.55
599.255	20827.91
599.613	21430.16
599.972	21550.61
600.33	21901.1
600.688	21989.69
601.046	22448.89
601.404	22726.85
601.762	22918.93
602.12	23289.99
602.478	23520.95
602.836	23868.96
603.194	23878.45
603.552	24350.53
603.91	24363.64
604.268	24637.08
604.625	24841.82
604.983	25209.04
605.341	25381.69
605.698	25763.6
606.056	25974.9
606.413	26082.69
606.771	26499.85
607.128	26717.7
607.485	26770.58
607.843	27065.94
608.2	27429.55
608.557	27744.79
608.914	27868.41
609.272	28102.75
609.629	28266.36
609.986	28559.69
610.343	28736.41
610.7	29037.87
611.057	29205.09
611.414	29220.23
611.771	29479.21
612.127	29835.36
612.484	29926.43
612.841	30079.42
613.198	30280.09
613.554	30352.41
613.911	30710.36
614.267	30910.36
614.624	30969.12
614.98	31211.14
615.337	31533.17
615.693	31419.95
616.05	31695.42
616.406	31963.67
616.762	32111.01
617.118	32135.41
617.475	32229.19
617.831	32455.4
618.187	32648.62
618.543	32781.04
618.899	33084.77
619.255	33197.53
619.611	33244.54
619.967	33400.46
620.323	33512.55
620.678	33582.83
621.034	33626.67
621.39	33711.87
621.746	33698.08
622.101	34234.79
622.457	34021.46
622.812	34143.27
623.168	34323.6
623.523	34401.12
623.879	34552.07
624.234	34380.32
624.589	34676.59
624.945	34714.78
625.3	34939.86
625.655	34964.49
626.01	35049.69
626.365	35129.46
626.72	35005.85
627.075	35188.44
627.43	35115.67
627.785	35186.63
628.14	35248.32
628.495	35585.72
628.85	35465.49
629.205	35452.61
629.559	35590.91
629.914	35498.49
630.269	35634.3
630.623	35441.77
630.978	35690.12
631.332	35678.14
631.687	35874.97
632.041	35696.45
632.396	35867.74
632.75	35636.11
633.104	35817.35
633.459	35879.27
633.813	35668.65
634.167	35844.69
634.521	35774.19
634.875	35899.15
635.229	35870
635.583	35759.05
635.937	35824.35
636.291	35681.76
636.645	35830
636.999	35764.92
637.352	35977.57
637.706	35706.17
638.06	36001.3
638.413	35833.62
638.767	35719.72
639.121	35894.64
639.474	35681.08
639.828	35744.13
640.181	35774.19
640.534	35857.35
640.888	35738.93
641.241	35613.74
641.594	35723.34
641.947	35770.12
642.301	35766.5
642.654	35693.96
643.007	35693.96
643.36	35707.75
643.713	35815.77
644.066	35828.42
644.419	35613.96
644.771	35440.18
645.124	35081.32
645.477	34968.11
645.83	34874.1
646.182	34717.49
646.535	34765.17
646.888	34917.49
647.24	34457.61
647.593	34898.05
647.945	34801.1
648.298	34548.68
648.65	34548.46
649.002	34501.68
649.355	34613.99
649.707	34586.2
650.059	34784.16
650.411	35144.37
650.763	35171.26
651.115	35650.57
651.467	35504.36
651.819	35400.86
652.171	35361.99
652.523	35477.02
652.875	35281.32
653.227	35110.48
653.578	35428.43
653.93	35338.72
654.282	35033.64
654.633	35213.98
654.985	35288.1
655.337	35276.8
655.688	35230.92
656.039	35349.34
656.391	35014.43
656.742	35192.51
657.094	35070.93
657.445	35274.76
657.796	35091.49
658.147	35197.48
658.498	35073.19
658.849	35113.19
659.2	34992.29
659.551	34979.41
659.902	35041.1
660.253	35048.33
660.604	35130.59
660.955	34900.54
661.306	35008.56
661.656	34958.61
662.007	35038.61
662.358	35061.89
662.708	35018.27
663.059	35018.73
663.409	34734.67
663.76	35074.09
664.11	35065.96
664.461	35070.7
664.811	35091.04
665.161	35027.31
665.511	34934.43
665.862	35038.16
666.212	35104.6
666.562	35026.86
666.912	35000.65
667.262	34955.68
667.612	35059.18
667.962	34918.84
668.312	34944.38
668.662	35089.68
669.011	34964.04
669.361	34915.9
669.711	34867.09
670.06	34826.64
670.41	34893.08
670.76	34703.25
671.109	34893.08
671.459	34908.67
671.808	34851.72
672.157	34893.31
672.507	34674.55
672.856	34783.03
673.205	34774.89
673.554	34838.39
673.904	34714.1
674.253	34955.22
674.602	34675.23
674.951	34276.37
675.3	34068.02
675.649	34752.52
675.998	34555.46
676.346	34610.83
676.695	34804.49
677.044	34518.4
677.393	34581
677.741	34679.75
678.09	34480.21
678.438	34460.32
678.787	34467.33
679.135	34479.31
679.484	34350.5
679.832	34369.48
680.181	34255.36
680.529	34362.47
680.877	34259.88
681.225	34344.17
681.573	34479.31
681.922	34287.45
682.27	34043.84
682.618	34189.6
682.966	33963.39
683.314	34234.57
683.661	33918.87
684.009	33719.78
684.357	33755.48
684.705	33775.82
685.053	33817.4
685.4	33598.2
685.748	33554.58
686.095	33623.96
686.443	33391.2
686.79	33421.48
687.138	33500.57
687.485	33526.56
687.832	33304.19
688.18	33423.06
688.527	33278.88
688.874	33188.04
689.221	33115.27
689.568	32937.42
689.915	32995.5
690.262	33021.49
690.609	32775.62
690.956	32710.99
691.303	32669.41
691.65	32415.86
691.997	32609.75
692.344	32243.88
692.69	32467.83
693.037	32342.19
693.383	32222.19
693.73	32193.04
694.077	31958.47
694.423	32026.49
694.769	31981.97
695.116	31893.61
695.462	31789.21
695.808	31695.65
696.155	31777.68
696.501	31576.1
696.847	31467.18
697.193	31438.48
697.539	31436
697.885	31179.05
698.231	31084.82
698.577	31042.56
698.923	31044.59
699.269	30844.82
699.614	30818.16
699.96	30725.73
700.306	30749.46
700.651	30478.73
700.997	30514.44
701.342	30502.23
701.688	30363.03
702.033	30297.49
702.379	30237.83
702.724	30258.85
703.069	30346.76
703.415	29884.62
703.76	29919.88
704.105	29995.81
704.45	29909.48
704.795	29757.17
705.14	29584.74
705.485	29662.71
705.83	29515.37
706.175	29608.47
706.52	29432.21
706.865	29382.72
707.209	29254.58
707.554	29158.32
707.899	29295.49
708.243	29070.41
708.588	29050.3
708.932	28867.48
709.277	28809.62
709.621	28942.5
709.966	28760.81
710.31	28875.84
710.654	28563.3
710.998	28505.68
711.342	28608.5
711.687	28492.57
712.031	28441.72
712.375	28298.9
712.719	28292.35
713.063	28256.87
713.407	28421.84
713.75	28217.77
714.094	28224.78
714.438	28021.62
714.782	28093.26
715.125	27952.25
715.469	27933.26
715.812	27788.86
716.156	27614.63
716.499	27735.3
716.843	27847.84
717.186	27602.2
717.53	27704.12
717.873	27631.12
718.216	27533.73
718.559	27451.24
718.902	27368.08
719.246	27425.03
719.589	27180.06
719.932	27180.74
720.275	27202.89
720.617	27079.5
720.96	27060.52
721.303	26974.19
721.646	27065.04
721.989	26920.18
722.331	26828.43
722.674	26879.73
723.016	26907.53
723.359	26691.04
723.701	26816.91
724.044	26711.6
724.386	26525.62
724.729	26612.39
725.071	26651.94
725.413	26596.12
725.755	26495.79
726.097	26466.41
726.439	26408.78
726.782	26338.05
727.124	26452.62
727.465	26370.14
727.807	26245.85
728.149	26193.87
728.491	26046.76
728.833	26101.9
729.175	26063.48
729.516	26032.97
729.858	25995.01
730.199	26000.66
730.541	25785.97
730.882	25884.05
731.224	26019.64
731.565	25822.36
731.906	25855.58
732.248	25852.64
732.589	25724.06
732.93	25524.74
733.271	25661.23
733.612	25650.61
733.953	25654.68
734.294	25502.59
734.635	25468.02
734.976	25529.94
735.317	25290.17
735.658	25415.14
735.999	25261.02
736.339	25308.47
736.68	25320.22
737.021	25263.28
737.361	25049.04
737.702	25248.14
738.042	25213.56
738.383	25081.13
738.723	25014.47
739.063	25063.96
739.404	25121.59
739.744	24960.01
740.084	24988.03
740.424	24883.85
740.764	24912.55
741.104	24946
741.444	24756.17
741.784	24712.1
742.124	24650.19
742.464	24794.36
742.804	24686.34
743.143	24636.63
743.483	24559.79
743.823	24523.86
744.162	24444.09
744.502	24590.98
744.841	24352.34
745.181	24522.5
745.52	24214.94
745.86	24356.86
746.199	24271.89
746.538	24166.58
746.877	24345.33
747.216	24242.74
747.556	24233.02
747.895	24128.62
748.234	24022.86
748.573	24028.73
748.911	23909.64
749.25	24077.32
749.589	23924.55
749.928	23958
750.267	24001.61
750.605	23844.78
750.944	23736.31
751.283	23682.75
751.621	23948.73
751.96	23665.8
752.298	23704
752.636	23619.93
752.975	23582.64
753.313	23480.95
753.651	23626.71
753.989	23379.71
754.327	23445.47
754.666	23230.34
755.004	23327.73
755.342	23329.77
755.679	23391.24
756.017	23066.5
756.355	23102.43
756.693	23053.17
757.031	23081.64
757.368	22922.77
757.706	22934.75
758.044	22998.48
758.381	22913.06
758.719	22764.81
759.056	22926.84
759.394	22666.06
759.731	22578.38
760.068	22563.23
760.405	22406.63
760.743	22329.12
761.08	22434.2
761.417	22267.42
761.754	22265.39
762.091	22158.95
762.428	22089.35
762.765	21966.41
763.102	22084.83
763.438	21967.32
763.775	21758.51
764.112	21778.4
764.449	21783.59
764.785	21615.91
765.122	21457.05
765.458	21541.57
765.795	21359.2
766.131	21380.21
766.467	21300.89
766.804	21268.35
767.14	21143.16
767.476	21160.79
767.812	21008.7
768.148	20992.65
768.485	20927.12
768.821	20864.07
769.157	20741.14
769.492	20723.51
769.828	20623.62
770.164	20536.17
770.5	20497.07
770.836	20513.34
771.171	20304.54
771.507	20290.07
771.842	20095.05
772.178	20101.83
772.513	20064.09
772.849	20114.94
773.184	19980.93
773.519	19850.76
773.855	19884.43
774.19	19814.61
774.525	19726.25
774.86	19711.56
775.195	19589.75
775.53	19489.19
775.865	19391.11
776.2	19258.24
776.535	19274.28
776.87	19169.88
777.205	19053.5
777.539	18953.39
777.874	19015.53
778.209	18862.77
778.543	18809.21
778.878	18729.89
779.212	18679.04
779.547	18580.97
779.881	18653.05
780.215	18517.92
780.55	18538.48
780.884	18436.56
781.218	18358.83
781.552	18380.07
781.886	18215.33
782.22	18197.25
782.554	18123.58
782.888	17945.5
783.222	17916.35
783.556	17733.53
783.889	17753.87
784.223	17670.71
784.557	17756.36
784.89	17599.52
785.224	17517.04
785.557	17557.49
785.891	17367.66
786.224	17390.26
786.558	17418.51
786.891	17181
787.224	17185.52
787.557	17088.58
787.891	17111.85
788.224	17075.7
788.557	17025.07
788.89	16916.83
789.223	16896.94
789.556	16813.33
789.888	16766.78
790.221	16563.17
790.554	16542.15
790.887	16400.91
791.219	16448.37
791.552	16461.25
791.884	16299.9
792.217	16352.32
792.549	16282.95
792.882	16117.53
793.214	16067.81
793.546	16131.77
793.879	15974.03
794.211	15967.93
794.543	15931.77
794.875	15832.34
795.207	15917.76
795.539	15825.11
795.871	15798.67
796.203	15593.93
796.535	15547.37
796.867	15539.69
797.198	15440.48
797.53	15477.77
797.862	15425.57
798.193	15403.2
798.525	15333.82
798.856	15367.27
799.188	15176.76
799.519	15098.57
799.85	15008.18
800.182	15096.76
800.513	15127.05
800.844	14906.49
801.175	15056.54
801.506	14925.7
801.837	14823.32
802.168	14766.38
802.499	14760.73
802.83	14635.08
803.161	14606.83
803.491	14539.04
803.822	14595.99
804.153	14529.77
804.483	14482.09
804.814	14349.89
805.145	14348.31
805.475	14371.36
805.805	14283.23
806.136	14341.3
806.466	14287.07
806.796	14219.05
807.126	14072.16
807.457	14062.44
807.787	14087.3
808.117	14010.92
808.447	13967.98
808.777	14012.95
809.107	13936.34
809.436	13843.69
809.766	13907.87
810.096	13763.01
810.426	13699.06
810.755	13732.28
811.085	13824.93
811.414	13669
811.744	13563.02
812.073	13674.88
812.403	13621.1
812.732	13542.23
813.061	13428.11
813.39	13412.74
813.719	13316.47
814.049	13452.74
814.378	13351.27
814.707	13274.21
815.036	13328.22
815.365	13224.27
815.693	13091.17
816.022	13124.39
816.351	13065.86
816.68	12927.56
817.008	13018.63
817.337	12895.24
817.665	12909.48
817.994	12939.08
818.322	12895.92
818.651	12804.39
818.979	12805.3
819.307	12895.92
819.636	12744.06
819.964	12719.2
820.292	12737.28
820.62	12791.06
820.948	12714
821.276	12715.36
821.604	12697.05
821.932	12636.72
822.259	12693.66
822.587	12650.05
822.915	12671.29
823.243	12769.37
823.57	12654.34
823.898	12675.81
824.225	12653.66
824.553	12627.68
824.88	12671.29
825.207	12607.11
825.535	12602.82
825.862	12650.73
826.189	12566.89
826.516	12645.53
826.843	12713.1
827.17	12612.31
827.497	12713.78
827.824	12654.12
828.151	12666.09
828.478	12626.32
828.805	12675.81
829.131	12518.53
829.458	12647.34
829.785	12523.95
830.111	12578.41
830.438	12630.39
830.764	12593.78
831.09	12574.57
831.417	12517.17
831.743	12582.71
832.069	12573.21
832.395	12500
832.722	12576.38
833.048	12516.04
833.374	12442.6
833.7	12501.13
834.026	12475.14
834.351	12532.31
834.677	12400.56
835.003	12452.31
835.329	12387.46
835.654	12474.01
835.98	12305.65
836.306	12455.48
836.631	12347.46
836.956	12373.9
837.282	12399.43
837.607	12349.72
837.932	12210.06
838.258	12277.86
838.583	12304.07
838.908	12142.72
839.233	12278.99
839.558	12181.81
839.883	12166.45
840.208	12150.4
840.533	12098.65
840.858	12060.46
841.182	12144.98
841.507	12066.79
841.832	11933.91
842.156	11974.59
842.481	11949.73
842.805	11978.2
843.13	11896.85
843.454	11934.81
843.778	11860.92
844.103	11791.31
844.427	11792.67
844.751	11786.79
845.075	11703.86
845.399	11691.88
845.723	11604.65
846.047	11696.85
846.371	11671.77
846.695	11602.17
847.019	11467.93
847.343	11451.66
847.666	11390.42
847.99	11360.37
848.313	11360.59
848.637	11203.99
848.96	11184.78
849.284	11178.45
849.607	11122.86
849.931	11084.89
850.254	10992.69
850.577	10987.27
850.9	10957.66
851.223	10870.43
851.546	10799.48
851.869	10745.92
852.192	10814.39
852.515	10713.83
852.838	10701.63
853.161	10730.78
853.483	10656.2
853.806	10583.44
854.129	10507.51
854.451	10488.75
854.774	10431.12
855.096	10397
855.419	10347.06
855.741	10348.87
856.063	10256.21
856.385	10316.1
856.708	10250.79
857.03	10256.89
857.352	10243.33
857.674	10134.86
857.996	10236.78
858.318	10088.08
858.64	10115.2
858.961	10143.22
859.283	10092.38
859.605	9980.51
859.926	10018.25
860.248	9947.29
860.57	9917.24
860.891	9925.83
861.212	9895.32
861.534	9900.06
861.855	9861.87
862.176	9821.42
862.498	9844.02
862.819	9848.31
863.14	9720.63
863.461	9765.83
863.782	9658.94
864.103	9697.13
864.424	9637.25
864.745	9682.67
865.065	9633.86
865.386	9621.65
865.707	9616.68
866.027	9605.61
866.348	9619.85
866.668	9555.44
866.989	9569.23
867.309	9479.96
867.63	9487.19
867.95	9559.28
868.27	9493.52
868.59	9449.68
868.91	9442.22
869.23	9418.72
869.55	9373.75
869.87	9464.14
870.19	9386.41
870.51	9354.77
870.83	9369.68
871.15	9311.38
871.469	9351.38
871.789	9322.9
872.109	9295.11
872.428	9289.01
872.748	9259.86
873.067	9204.49
873.386	9194.77
873.706	9245.62
874.025	9199.52
874.344	9167.88
874.663	9140.99
874.982	9131.95
875.301	9129.69
875.62	9135.11
875.939	9093.08
876.258	9096.02
876.577	9002.69
876.896	9088.79
877.214	8997.04
877.533	9037.94
877.852	9046.98
878.17	9051.05
878.489	9020.99
878.807	8995.68
879.125	8931.28
879.444	8972.86
879.762	8956.81
880.08	8911.62
880.398	8864.16
880.716	8842.92
881.034	8869.81
881.352	8840.21
881.67	8861
881.988	8821.67
882.306	8781.45
882.624	8737.38
882.941	8778.51
883.259	8726.76
883.577	8694.9
883.894	8645.86
884.212	8676.82
884.529	8640.66
884.846	8635.92
885.164	8555.47
885.481	8606.99
885.798	8642.24
886.115	8522.25
886.432	8580.78
886.75	8552.53
887.067	8512.08
887.383	8491.29
887.7	8519.54
888.017	8405.41
888.334	8432.76
888.651	8429.59
888.967	8359.77
889.284	8361.35
889.6	8385.08
889.917	8311.86
890.233	8284.06
890.55	8226.66
890.866	8261.24
891.182	8183.95
891.498	8126.33
891.815	8179.21
892.131	8074.58
892.447	8118.42
892.763	8054.46
893.079	8108.02
893.395	8101.47
893.71	8039.77
894.026	7991.41
894.342	7997.97
894.657	7909.38
894.973	7887.69
895.289	7874.81
895.604	7872.32
895.92	7866.9
896.235	7782.83
896.55	7739.67
896.865	7776.05
897.181	7706.9
897.496	7720.69
897.811	7663.97
898.126	7651.99
898.441	7606.11
898.756	7575.15
899.071	7536.51
899.386	7615.38
899.7	7492.22
900.015	7420.81
900.33	7435.95
900.644	7365.44
900.959	7459.22
901.273	7391.88
901.588	7346.46
901.902	7292.22
902.216	7285.44
902.531	7318.21
902.845	7249.96
903.159	7203.64
903.473	7185.56
903.787	7143.75
904.101	7133.36
904.415	7108.95
904.729	7123.41
905.042	7063.53
905.356	7059.46
905.67	6957.32
905.984	7026.92
906.297	6958.22
906.611	6881.84
906.924	6882.06
907.237	6897.88
907.551	6847.94
907.864	6840.03
908.177	6818.11
908.491	6781.28
908.804	6746.25
909.117	6746.7
909.43	6673.03
909.743	6693.82
910.056	6673.71
910.368	6662.64
910.681	6628.51
910.994	6537.89
911.307	6519.81
911.619	6498.35
911.932	6517.55
912.244	6464.67
912.557	6420.83
912.869	6414.28
913.181	6424.22
913.494	6389.87
913.806	6331.34
914.118	6362.53
914.43	6323.44
914.742	6256.09
915.054	6291.57
915.366	6224.23
915.678	6208.86
915.99	6222.2
916.302	6105.81
916.613	6077.11
916.925	6151.46
917.236	6097.9
917.548	6059.71
917.859	6026.27
918.171	6014.29
918.482	5941.07
918.794	5918.93
919.105	5981.75
919.416	5850.91
919.727	5912.82
920.038	5874.41
920.349	5805.71
920.66	5800.74
920.971	5850.91
921.282	5756.67
921.593	5757.35
921.903	5653.17
922.214	5699.5
922.525	5612.72
922.835	5625.83
923.146	5607.52
923.456	5582.44
923.767	5605.49
924.077	5544.02
924.387	5506.06
924.697	5504.93
925.008	5475.1
925.318	5475.32
925.628	5435.55
925.938	5415.44
926.248	5360.07
926.558	5339.73
926.867	5323.01
927.177	5317.81
927.487	5283.91
927.796	5240.07
928.106	5240.3
928.416	5224.26
928.725	5183.35
929.034	5171.15
929.344	5123.02
929.653	5153.52
929.962	5146.74
930.271	5095.45
930.581	5075.11
930.89	5065.84
931.199	5018.16
931.508	5000.76
931.817	5037.82
932.125	4992.85
932.434	4965.51
932.743	4935.45
933.051	4876.69
933.36	4916.47
933.669	4845.73
933.977	4825.4
934.286	4796.92
934.594	4802.8
934.902	4748.56
935.21	4768.22
935.519	4735.45
935.827	4707.21
936.135	4681.9
936.443	4638.51
936.751	4647.1
937.059	4639.41
937.367	4636.02
937.674	4634.44
937.982	4600.54
938.29	4565.97
938.597	4528.68
938.905	4490.26
939.213	4491.62
939.52	4440.77
939.827	4493.43
940.135	4439.42
940.442	4456.14
940.749	4432.64
941.056	4375.69
941.363	4351.51
941.67	4365.97
941.977	4316.03
942.284	4282.81
942.591	4283.04
942.898	4298.63
943.205	4268.12
943.511	4277.39
943.818	4217.28
944.125	4212.08
944.431	4191.06
944.738	4174.34
945.044	4173.44
945.35	4121.46
945.657	4105.19
945.963	4104.06
946.269	4101.35
946.575	4107.9
946.881	4009.6
947.187	4067.22
947.493	4029.48
947.799	3975.02
948.105	3976.6
948.41	3961.69
948.716	3996.72
949.022	3909.94
949.327	3927.79
949.633	3861.81
949.938	3822.03
950.244	3867.23
950.549	3870.62
950.854	3852.99
951.16	3815.93
951.465	3775.25
951.77	3776.38
952.075	3811.86
952.38	3745.42
952.685	3708.59
952.99	3691.87
953.294	3683.96
953.599	3697.52
953.904	3710.85
954.209	3660.68
954.513	3649.38
954.818	3627.69
955.122	3608.48
955.426	3594.92
955.731	3578.42
956.035	3564.19
956.339	3552.66
956.643	3554.47
956.948	3538.42
957.252	3477.63
957.556	3490.29
957.86	3475.37
958.163	3478.31
958.467	3469.5
958.771	3437.18
959.075	3444.87
959.378	3434.47
959.682	3368.26
959.985	3367.13
960.289	3382.72
960.592	3337.75
960.896	3335.72
961.199	3315.38
961.502	3307.02
961.805	3324.42
962.108	3236.28
962.411	3290.75
962.714	3239.22
963.017	3224.08
963.32	3253.23
963.623	3205.78
963.926	3181.82
964.228	3146.12
964.531	3210.97
964.833	3144.08
965.136	3127.59
965.438	3103.86
965.741	3103.18
966.043	3072.67
966.345	3066.35
966.648	3088.72
966.95	3041.49
967.252	3034.71
967.554	3060.02
967.856	3023.64
968.158	2988.38
968.46	3005.1
968.761	3001.94
969.063	2963.52
969.365	2923.52
969.666	2939.12
969.968	2924.2
970.269	2916.07
970.571	2892.79
970.872	2907.03
971.174	2883.75
971.475	2851.66
971.776	2850.08
972.077	2825.22
972.378	2785.22
972.679	2836.75
972.98	2809.4
973.281	2780.03
973.582	2792.68
973.883	2781.83
974.183	2756.3
974.484	2757.2
974.785	2709.75
975.085	2699.35
975.386	2738.44
975.686	2735.28
975.986	2707.03
976.287	2686.92
976.587	2676.98
976.887	2627.04
977.187	2637.43
977.487	2632.69
977.787	2631.1
978.087	2633.14
978.387	2588.84
978.687	2629.75
978.987	2565.79
979.286	2562.4
979.586	2538.22
979.885	2525.8
980.185	2546.59
980.484	2486.25
980.784	2534.83
981.083	2471.56
981.382	2480.15
981.682	2469.53
981.981	2466.14
982.28	2456.64
982.579	2439.24
982.878	2437.44
983.177	2427.49
983.475	2383.2
983.774	2377.1
984.073	2368.74
984.372	2352.92
984.67	2350.43
984.969	2368.29
985.267	2366.48
985.566	2332.13
985.864	2338.68
986.162	2333.26
986.461	2342.3
986.759	2317.67
987.057	2310.43
987.355	2259.36
987.653	2285.12
987.951	2294.39
988.249	2235.63
988.547	2253.49
988.844	2251.23
989.142	2230.44
989.44	2199.48
989.737	2169.19
990.035	2206.03
990.332	2181.85
990.63	2178.91
990.927	2184.34
991.224	2158.57
991.521	2150.44
991.819	2132.36
992.116	2113.6
992.413	2067.05
992.71	2085.58
993.006	2110.44
993.303	2100.5
993.6	2058.01
993.897	2085.58
994.193	2071.8
994.49	2050.33
994.787	2057.56
995.083	2040.61
995.379	2015.53
995.676	2034.06
995.972	2008.75
996.268	1988.86
996.565	1968.75
996.861	1985.92
997.157	1970.33
997.453	1942.53
997.749	1918.35
998.044	1944.79
998.34	1919.94
998.636	1920.16
998.932	1907.51
999.227	1875.87
999.523	1896.43
999.818	1873.38
1000.114	1857.56
1000.409	1839.49
1000.704	1843.33
1001	1819.15
1001.295	1856.66
1001.59	1834.06
1001.885	1823.21
1002.18	1788.87
1002.475	1785.93
1002.77	1770.33
1003.065	1746.15
1003.359	1769.66
1003.654	1764.46
1003.949	1761.75
1004.243	1746.61
1004.538	1717.23
1004.832	1716.55
1005.127	1695.76
1005.421	1691.01
1005.715	1686.04
1006.009	1719.94
1006.304	1672.94
1006.598	1675.2
1006.892	1665.03
1007.186	1639.94
1007.48	1612.15
1007.773	1618.02
1008.067	1632.71
1008.361	1613.05
1008.655	1610.34
1008.948	1601.07
1009.242	1580.06
1009.535	1605.14
1009.829	1597.68
1010.122	1584.13
1010.415	1573.05
1010.708	1544.35
1011.001	1538.7
1011.295	1510.45
1011.588	1531.02
1011.881	1524.47
1012.173	1492.15
1012.466	1510.68
1012.759	1482.43
1013.052	1508.19
1013.344	1472.26
1013.637	1476.56
1013.93	1465.48
1014.222	1461.64
1014.514	1420.97
1014.807	1429.1
1015.099	1407.41
1015.391	1406.5
1015.683	1408.76
1015.976	1385.03
1016.268	1402.66
1016.56	1375.77
1016.851	1352.72
1017.143	1372.61
1017.435	1355.66
1017.727	1358.82
1018.018	1342.55
1018.31	1325.83
1018.602	1324.47
1018.893	1321.99
1019.185	1308.43
1019.476	1301.87
1019.767	1282.21
1020.058	1284.47
1020.35	1271.14
1020.641	1258.48
1020.932	1237.92
1021.223	1239.5
1021.514	1228.88
1021.804	1230.24
1022.095	1199.05
1022.386	1215.1
1022.677	1181.65
1022.967	1220.74
1023.258	1186.17
1023.548	1153.63
1023.839	1192.5
1024.129	1191.14
1024.419	1154.08
1024.709	1142.1
1025	1166.96
1025.29	1151.37
1025.58	1155.89
1025.87	1100.52
1026.16	1113.18
1026.449	1115.89
1026.739	1115.44
1027.029	1124.25
1027.319	1108.66
1027.608	1106.4
1027.898	1098.04
1028.187	1087.41
1028.477	1073.18
1028.766	1041.09
1029.055	1036.57
1029.344	1054.87
1029.634	1049.9
1029.923	1038.6
1030.212	1021.65
1030.501	1031.37
1030.79	990.24
1031.078	1016.23
1031.367	999.96
1031.656	1004.71
1031.945	993.63
1032.233	1002.9
1032.522	983.24
1032.81	989.56
1033.099	955.44
1033.387	967.42
1033.675	933.29
1033.963	969.45
1034.251	962.22
1034.54	924.71
1034.828	938.49
1035.116	920.64
1035.403	929
1035.691	920.87
1035.979	926.29
1036.267	882
1036.554	893.75
1036.842	885.84
1037.129	898.95
1037.417	895.33
1037.704	880.64
1037.992	861.88
1038.279	901.21
1038.566	853.52
1038.853	853.52
1039.14	853.52
