Data from hue_60_FLMS001491_20.txt Node
Date: Mon Feb 06 15:12:01 GMT 2017
User: dcchb
Spectrometer: FLMS00149
Trigger mode: 0
Integration Time (sec): 2.000000E-2
Scans to average: 10
Electric dark correction enabled: true
Nonlinearity correction enabled: false
Boxcar width: 0
XAxis mode: Wavelengths
Number of Pixels in Spectrum: 2048
>>>>>Begin Spectral Data<<<<<
341.393	-22.73
341.776	-22.73
342.16	-22.73
342.543	-81.93
342.927	-78.77
343.31	-71.76
343.693	-58.88
344.077	-71.99
344.46	-58.43
344.843	-74.02
345.226	-33.57
345.61	-29.05
345.993	-42.39
346.376	-17.08
346.759	37.84
347.142	19.31
347.525	41.91
347.908	82.13
348.291	73.32
348.674	94.11
349.057	108.57
349.44	121.23
349.823	151.96
350.206	152.86
350.588	183.37
350.971	193.31
351.354	211.62
351.737	248.68
352.119	240.32
352.502	282.35
352.884	293.88
353.267	301.56
353.65	292.75
354.032	305.4
354.414	310.37
354.797	313.76
355.179	324.38
355.562	311.96
355.944	338.17
356.326	341.11
356.709	342.69
357.091	335.91
357.473	340.88
357.855	354.67
358.238	342.46
358.62	368.68
359.002	339.98
359.384	341.33
359.766	326.64
360.148	356.25
360.53	342.46
360.912	353.08
361.294	343.82
361.676	354.44
362.057	337.04
362.439	319.64
362.821	348.56
363.203	309.24
363.584	333.42
363.966	328.23
364.348	329.36
364.729	307.66
365.111	314.89
365.493	336.14
365.874	316.02
366.256	329.13
366.637	299.75
367.019	332.75
367.4	308.79
367.781	315.57
368.163	313.99
368.544	315.8
368.925	317.83
369.306	320.54
369.688	314.21
370.069	317.83
370.45	321.45
370.831	312.86
371.212	325.29
371.593	307.44
371.974	332.75
372.355	334.33
372.736	320.09
373.117	317.6
373.498	325.97
373.879	309.92
374.26	309.24
374.641	335.91
375.021	318.28
375.402	313.54
375.783	304.05
376.163	325.29
376.544	318.73
376.925	340.43
377.305	343.37
377.686	351.73
378.066	327.32
378.447	332.07
378.827	312.18
379.208	346.53
379.588	360.77
379.968	334.33
380.349	356.93
380.729	345.63
381.109	329.36
381.489	319.64
381.87	330.94
382.25	342.69
382.63	341.78
383.01	330.26
383.39	338.62
383.77	343.59
384.15	326.87
384.53	317.83
384.91	337.72
385.29	331.39
385.67	342.46
386.049	344.27
386.429	352.86
386.809	351.05
387.189	350.82
387.568	359.86
387.948	370.26
388.328	351.95
388.707	362.35
389.087	355.8
389.466	363.71
389.846	374.78
390.225	358.51
390.605	380.65
390.984	360.54
391.363	361.22
391.743	373.2
392.122	363.25
392.501	352.63
392.881	365.06
393.26	366.42
393.639	381.78
394.018	359.86
394.397	379.3
394.776	362.12
395.155	377.72
395.534	373.42
395.913	382.01
396.292	390.6
396.671	377.49
397.05	388.79
397.429	357.38
397.808	377.72
398.186	394.21
398.565	407.09
398.944	389.69
399.323	366.19
399.701	398.05
400.08	370.71
400.458	405.29
400.837	408
401.215	391.73
401.594	420.2
401.972	402.35
402.351	393.31
402.729	401.9
403.107	388.34
403.486	405.96
403.864	405.29
404.242	398.05
404.62	406.87
404.999	413.42
405.377	416.13
405.755	429.92
406.133	413.65
406.511	412.52
406.889	430.6
407.267	417.26
407.645	412.52
408.023	421.1
408.401	415.68
408.779	432.18
409.156	416.13
409.534	443.48
409.912	436.92
410.29	415
410.667	423.59
411.045	443.48
411.422	445.06
411.8	438.28
412.178	446.64
412.555	446.64
412.933	458.17
413.31	446.87
413.687	449.13
414.065	450.48
414.442	463.36
414.819	494.32
415.197	462.01
415.574	477.6
415.951	473.98
416.328	477.6
416.705	491.39
417.082	477.83
417.46	480.31
417.837	481.44
418.214	486.87
418.591	495.91
418.967	505.62
419.344	494.55
419.721	478.73
420.098	510.82
420.475	498.39
420.852	484.61
421.228	525.06
421.605	518.5
421.982	512.63
422.358	515.57
422.735	497.71
423.111	506.98
423.488	524.83
423.864	519.86
424.241	540.88
424.617	540.2
424.994	533.42
425.37	525.28
425.746	529.58
426.123	555.34
426.499	553.08
426.875	551.95
427.251	570.03
427.627	573.87
428.003	570.71
428.379	565.96
428.756	562.8
429.132	594.21
429.507	596.69
429.883	584.49
430.259	583.81
430.635	610.48
431.011	601.44
431.387	587.65
431.763	597.6
432.138	600.99
432.514	595.56
432.89	613.19
433.265	628.56
433.641	632.4
434.016	622
434.392	644.15
434.767	652.74
435.143	629.69
435.518	643.25
435.894	650.7
436.269	666.75
436.644	662.91
437.02	659.97
437.395	668.78
437.77	657.93
438.145	671.49
438.52	672.85
438.895	698.84
439.271	696.58
439.646	712.4
440.021	729.12
440.395	704.49
440.77	689.35
441.145	689.35
441.52	728.89
441.895	736.35
442.27	723.24
442.645	741.32
443.019	738.84
443.394	727.09
443.769	757.37
444.143	749.91
444.518	753.75
444.892	728.22
445.267	744.49
445.641	754.43
446.016	757.82
446.39	760.3
446.764	772.73
447.139	765.73
447.513	767.54
447.887	782.9
448.262	786.29
448.636	774.32
449.01	777.71
449.384	804.37
449.758	796.24
450.132	813.41
450.506	814.31
450.88	817.25
451.254	827.65
451.628	825.39
452.002	824.03
452.376	845.73
452.75	850.92
453.123	854.77
453.497	864.48
453.871	862.9
454.244	876.01
454.618	865.84
454.992	896.8
455.365	877.36
455.739	897.48
456.112	930.24
456.486	926.63
456.859	960.3
457.232	970.47
457.606	970.69
457.979	977.25
458.352	957.14
458.725	988.32
459.099	976.8
459.472	986.74
459.845	1015.21
460.218	1017.25
460.591	1053.4
460.964	1044.14
461.337	1072.39
461.71	1060.86
462.083	1083.01
462.456	1094.99
462.829	1114.42
463.201	1106.74
463.574	1106.74
463.947	1142.44
464.32	1175.44
464.692	1196.68
465.065	1183.12
465.438	1212.04
465.81	1229.45
466.183	1240.74
466.555	1245.26
466.928	1250.01
467.3	1296.56
467.672	1289.1
468.045	1325.71
468.417	1342.44
468.789	1400.29
469.161	1373.4
469.534	1394.64
469.906	1447.29
470.278	1450.23
470.65	1484.13
471.022	1522.77
471.394	1526.39
471.766	1559.15
472.138	1588.98
472.51	1620.62
472.882	1634.63
473.253	1677.57
473.625	1720.51
473.997	1779.04
474.369	1773.16
474.74	1848.19
475.112	1876.21
475.484	1918.69
475.855	1942.87
476.227	2011.8
476.598	2070.55
476.97	2124.56
477.341	2165.47
477.713	2249.98
478.084	2268.74
478.455	2340.15
478.827	2391.67
479.198	2473.48
479.569	2535.17
479.94	2645.23
480.311	2688.39
480.682	2802.74
481.053	2870.31
481.424	2925.9
481.795	2994.6
482.166	3140.36
482.537	3193.69
482.908	3246.12
483.279	3340.35
483.65	3481.36
484.021	3612.66
484.391	3657.63
484.762	3798.19
485.133	3884.52
485.503	3987.11
485.874	4112.76
486.244	4210.84
486.615	4371.51
486.985	4455.12
487.356	4623.03
487.726	4752.06
488.097	4860.76
488.467	4965.84
488.837	5153.18
489.207	5253.07
489.578	5407.41
489.948	5561.53
490.318	5708.42
490.688	5753.62
491.058	5940.28
491.428	6080.84
491.798	6301.85
492.168	6479.25
492.538	6555.18
492.908	6761.73
493.278	6880.37
493.648	6968.28
494.017	7195.62
494.387	7315.84
494.757	7479.22
495.126	7686.68
495.496	7726.22
495.866	7841.02
496.235	8038.31
496.605	8240.33
496.974	8398.52
497.344	8551.96
497.713	8690.27
498.082	8803.48
498.452	8950.37
498.821	9113.31
499.19	9243.47
499.559	9410.7
499.928	9566.18
500.298	9678.49
500.667	9868.31
501.036	9952.38
501.405	10115.54
501.774	10213.39
502.143	10360.73
502.512	10525.92
502.88	10692.25
503.249	10826.03
503.618	10883.2
503.987	11124.78
504.356	11198.22
504.724	11339.46
505.093	11420.36
505.462	11638.66
505.83	11777.87
506.199	11889.73
506.567	12153.9
506.936	12162.72
507.304	12399.77
507.672	12440
508.041	12603.84
508.409	12698.52
508.777	12976.03
509.145	13072.75
509.514	13137.15
509.882	13305.51
510.25	13449.24
510.618	13551.15
510.986	13644.03
511.354	13817.14
511.722	13963.57
512.09	14169.9
512.458	14146.17
512.826	14425.48
513.193	14487.63
513.561	14514.52
513.929	14768.75
514.297	14887.84
514.664	14974.85
515.032	15107.5
515.4	15251.22
515.767	15462.07
516.135	15543.87
516.502	15540.71
516.869	15814.15
517.237	15868.16
517.604	15946.8
517.972	16158.54
518.339	16300.01
518.706	16397.18
519.073	16457.29
519.44	16703.16
519.808	16815.48
520.175	16850.28
520.542	17038.07
520.909	17290.72
521.276	17352.64
521.643	17449.81
522.009	17690.48
522.376	17690.48
522.743	17910.14
523.11	18098.15
523.477	18219.05
523.843	18389.45
524.21	18692.94
524.577	18649.1
524.943	18826.95
525.31	18975.87
525.676	19140.84
526.043	19212.48
526.409	19340.61
526.776	19623.99
527.142	19691.56
527.508	19754.38
527.874	20002.28
528.241	20060.14
528.607	20157.08
528.973	20273.92
529.339	20295.61
529.705	20515.49
530.071	20782.38
530.437	20818.99
530.803	20964.97
531.169	21213.78
531.535	21091.97
531.901	21138.98
532.267	21276.6
532.632	21475.69
532.998	21522.02
533.364	21672.52
533.73	21813.99
534.095	21929.69
534.461	21922.46
534.826	22093.76
535.192	22209.91
535.557	22377.36
535.923	22327.42
536.288	22507.98
536.653	22563.35
537.019	22555.66
537.384	22719.73
537.749	22836.79
538.114	22916.33
538.479	22904.13
538.845	23056.67
539.21	23062.54
539.575	23138.25
539.94	23264.35
540.305	23333.04
540.67	23309.54
541.034	23489.2
541.399	23569.42
541.764	23620.72
542.129	23681.96
542.494	23827.04
542.858	23937.32
543.223	23985.68
543.587	24135.51
543.952	24076.98
544.316	24282.4
544.681	24180.25
545.045	24339.57
545.41	24428.38
545.774	24414.15
546.138	24563.29
546.503	24661.82
546.867	24692.78
547.231	24910.18
547.595	24936.62
547.959	24982.49
548.324	24982.04
548.688	25045.54
549.052	25141.58
549.416	25282.82
549.779	25302.48
550.143	25349.49
550.507	25629.03
550.871	25599.88
551.235	25655.24
551.599	25824.05
551.962	25880.77
552.326	25890.04
552.689	26182.24
553.053	25910.6
553.417	26121.67
553.78	26411.61
554.143	26477.37
554.507	26534.09
554.87	26600.08
555.234	26832.39
555.597	26672.17
555.96	26821.77
556.323	27031.93
556.686	26969.11
557.05	27227.18
557.413	27293.39
557.776	27479.15
558.139	27610.45
558.502	27570.22
558.865	27719.82
559.228	27927.05
559.59	27899.48
559.953	27939.25
560.316	28271.9
560.679	28349.18
561.041	28395.96
561.404	28574.71
561.767	28884.76
562.129	28732.22
562.492	28977.87
562.854	28980.35
563.217	29047.47
563.579	29168.6
563.941	29325.43
564.304	29611.98
564.666	29634.35
565.028	29776.72
565.39	29801.35
565.753	30027.33
566.115	30243.15
566.477	30337.38
566.839	30358.17
567.201	30593.64
567.563	30554.78
567.925	30670.03
568.287	30792.74
568.648	30891.26
569.01	31116.57
569.372	31154.31
569.734	31104.14
570.095	31349.56
570.457	31549.78
570.819	31521.98
571.18	31589.78
571.542	31713.39
571.903	31780.96
572.265	31942.08
572.626	32037.22
572.987	32107.73
573.349	32237.22
573.71	32402.41
574.071	32352.47
574.432	32452.35
574.794	32821.61
575.155	32688.5
575.516	32653.03
575.877	32809.86
576.238	32881.95
576.599	32974.6
576.96	32984.77
577.32	32902.06
577.681	33255.5
578.042	33275.61
578.403	33341.82
578.763	33328.49
579.124	33394.02
579.485	33599.44
579.845	33589.05
580.206	33503.85
580.566	33551.76
580.927	33507.69
581.287	33677.18
581.648	33544.75
582.008	33868.13
582.368	33708.82
582.728	33845.08
583.089	33789.04
583.449	33794.24
583.809	33951.52
584.169	33910.39
584.529	33936.83
584.889	34168.92
585.249	33893.9
585.609	33940.9
585.969	34116.72
586.329	33934.35
586.688	34141.12
587.048	34027.45
587.408	33883.73
587.768	34037.17
588.127	34076.72
588.487	33970.73
588.846	34384.96
589.206	34024.97
589.565	34085.08
589.925	34329.14
590.284	34215.02
590.643	34192.65
591.003	34360.55
591.362	34329.37
591.721	34285.75
592.08	34323.26
592.44	34297.5
592.799	34430.61
593.158	34399.19
593.517	34351.51
593.876	34506.31
594.235	34447.55
594.593	34417.95
594.952	34483.26
595.311	34394.9
595.67	34567.1
596.029	34764.61
596.387	34840.76
596.746	34846.19
597.104	34747.21
597.463	34622.24
597.822	34862.91
598.18	34776.59
598.538	34779.52
598.897	35002.57
599.255	34710.37
599.613	35127.08
599.972	34950.59
600.33	35103.36
600.688	34948.33
601.046	35134.77
601.404	35278.27
601.762	35033.3
602.12	35385.61
602.478	35387.42
602.836	35308.32
603.194	35146.75
603.552	35274.88
603.91	35394.87
604.268	35384.48
604.625	35309.9
604.983	35553.51
605.341	35422.9
605.698	35602.55
606.056	35609.78
606.413	35668.09
606.771	35841.64
607.128	35827.86
607.485	35687.97
607.843	35717.8
608.2	35948.53
608.557	36089.09
608.914	35893.39
609.272	36126.38
609.629	36187.4
609.986	36373.61
610.343	36271.24
610.7	36563.21
611.057	36461.06
611.414	36528.18
611.771	36514.84
612.127	36746.48
612.484	36693.37
612.841	36779.47
613.198	36703.09
613.554	36717.78
613.911	36922.97
614.267	36953.25
614.624	36904.21
614.98	37068.05
615.337	37107.6
615.693	37176.3
616.05	37179.01
616.406	37340.59
616.762	37293.58
617.118	37175.62
617.475	37384.43
617.831	37451.77
618.187	37482.05
618.543	37535.84
618.899	37816.05
619.255	37624.87
619.611	37636.85
619.967	37786.22
620.323	37907.35
620.678	37793.91
621.034	37682.95
621.39	37864.19
621.746	37863.96
622.101	38193.44
622.457	37782.16
622.812	37988.48
623.168	38164.97
623.523	38071.64
623.879	38117.51
624.234	37843.17
624.589	38185.31
624.945	38228.7
625.3	38167
625.655	38241.58
626.01	38177.85
626.365	38272.76
626.72	38369.94
627.075	38286.78
627.43	38373.78
627.785	38221.69
628.14	38395.7
628.495	38270.28
628.85	38300.11
629.205	38194.35
629.559	38479.77
629.914	38222.82
630.269	38328.58
630.623	38216.95
630.978	38184.63
631.332	38332.65
631.687	38377.39
632.041	38155.25
632.396	38290.17
632.75	38056.73
633.104	38468.69
633.459	38021.25
633.813	38128.36
634.167	38143.05
634.521	38155.25
634.875	38131.75
635.229	38111.19
635.583	37894.92
635.937	37989.83
636.291	37952.77
636.645	38059.66
636.999	37857.63
637.352	38074.13
637.706	37779.22
638.06	37818.09
638.413	37881.14
638.767	37767.24
639.121	37888.14
639.474	37728.6
639.828	37639.56
640.181	37920.23
640.534	37772.67
640.888	37811.53
641.241	37579
641.594	37664.65
641.947	37791.2
642.301	37609.51
642.654	37715.72
643.007	37577.87
643.36	37512.56
643.713	37432.56
644.066	37659.67
644.419	37402.96
644.771	37174.26
645.124	36826.7
645.477	36773.37
645.83	36567.27
646.182	36358.24
646.535	36300.61
646.888	36403.89
647.24	36246.83
647.593	36413.6
647.945	36299.94
648.298	36214.74
648.65	36065.14
649.002	35961.41
649.355	36240.28
649.707	36149.88
650.059	36273.5
650.411	36701.28
650.763	36705.35
651.115	37157.99
651.467	37008.84
651.819	36962.06
652.171	36861.05
652.523	36826.25
652.875	36933.59
653.227	36671
653.578	36827.38
653.93	36856.98
654.282	36607.27
654.633	36547.39
654.985	36612.47
655.337	36643.43
655.688	36572.02
656.039	36774.05
656.391	36481.63
656.742	36499.25
657.094	36581.28
657.445	36673.03
657.796	36577.22
658.147	36464
658.498	36559.82
658.849	36441.4
659.2	36469.2
659.551	36311.69
659.902	36563.88
660.253	36387.16
660.604	36523.21
660.955	36308.3
661.306	36525.24
661.656	36278.47
662.007	36520.95
662.358	36456.09
662.708	36464.9
663.059	36358.24
663.409	36090.9
663.76	36382.42
664.11	36272.37
664.461	36393.04
664.811	36361.18
665.161	36437.11
665.511	36248.19
665.862	36286.6
666.212	36288.41
666.562	36317.34
666.912	36276.66
667.262	36331.12
667.612	36296.32
667.962	36309.2
668.312	36184.23
668.662	36337.22
669.011	36289.31
669.361	36165.02
669.711	36120.73
670.06	36279.6
670.41	36090.9
670.76	36099.71
671.109	36252.93
671.459	36140.17
671.808	36067.63
672.157	36148.75
672.507	35896.78
672.856	36063.33
673.205	36034.86
673.554	36100.62
673.904	35993.05
674.253	36098.81
674.602	36081.64
674.951	35486.17
675.3	35312.16
675.649	35985.82
675.998	35887.74
676.346	35866.73
676.695	35985.37
677.044	35721.19
677.393	35694.3
677.741	35853.17
678.09	35714.19
678.438	35622.21
678.787	35713.74
679.135	35725.49
679.484	35561.88
679.832	35555.32
680.181	35443.23
680.529	35395.78
680.877	35350.36
681.225	35414.99
681.573	35558.94
681.922	35180.19
682.27	35103.13
682.618	35177.93
682.966	35185.16
683.314	35283.46
683.661	35080.76
684.009	34912.85
684.357	34879.86
684.705	34803.25
685.053	34946.98
685.4	34782.46
685.748	34673.99
686.095	34730.49
686.443	34518.97
686.79	34403.94
687.138	34544.28
687.485	34492.3
687.832	34425.41
688.18	34378.86
688.527	34293.43
688.874	34247.79
689.221	34170.27
689.568	34151.52
689.915	33947.45
690.262	34067.68
690.609	33835.37
690.956	33788.36
691.303	33809.15
691.65	33598.76
691.997	33575.94
692.344	33447.58
692.69	33386.79
693.037	33551.31
693.383	33078.33
693.73	33331.43
694.077	33039.46
694.423	33045.11
694.769	32949.51
695.116	32894.83
695.462	32798.33
695.808	32700.48
696.155	32880.36
696.501	32600.15
696.847	32532.12
697.193	32466.36
697.539	32530.32
697.885	32157.22
698.231	32128.97
698.577	32166.26
698.923	32131.91
699.269	31853.27
699.614	31810.11
699.96	31754.52
700.306	31806.49
700.651	31615.99
700.997	31612.6
701.342	31459.61
701.688	31505.71
702.033	31479.05
702.379	31328.31
702.724	31201.76
703.069	31256.9
703.415	30883.13
703.76	31065.72
704.105	30971.94
704.45	30784.37
704.795	30702.79
705.14	30689.91
705.485	30591.84
705.83	30459.86
706.175	30539.86
706.52	30373.31
706.865	30351.17
707.209	30294.22
707.554	30178.97
707.899	30157.5
708.243	30113.66
708.588	30091.29
708.932	29832.99
709.277	29753.67
709.621	29921.57
709.966	29579.43
710.31	29639.09
710.654	29440.68
710.998	29499.66
711.342	29378.54
711.687	29372.43
712.031	29243.17
712.375	29151.65
712.719	29215.38
713.063	29189.16
713.407	29252.21
713.75	28990.3
714.094	29038.88
714.438	28916.4
714.782	28897.42
715.125	28798.66
715.469	28853.58
715.812	28684.99
716.156	28617.43
716.499	28606.13
716.843	28664.2
717.186	28440.03
717.53	28660.81
717.873	28676.41
718.216	28541.95
718.559	28368.62
718.902	28239.36
719.246	28295.17
719.589	28058.12
719.932	27988.74
720.275	27922.08
720.617	27985.8
720.96	27854.28
721.303	27930.89
721.646	28008.4
721.989	27621.75
722.331	27871
722.674	27694.29
723.016	27805.7
723.359	27711.23
723.701	27658.81
724.044	27441.19
724.386	27317.12
724.729	27496.78
725.071	27442.77
725.413	27442.32
725.755	27469.21
726.097	27127.07
726.439	27123.23
726.782	27100.63
727.124	27287.74
727.465	27129.78
727.807	26967.07
728.149	26939.73
728.491	26909.22
728.833	27006.85
729.175	26887.75
729.516	26664.26
729.858	26709.91
730.199	26834.42
730.541	26755.33
730.882	26567.08
731.224	26736.57
731.565	26617.7
731.906	26609.79
732.248	26515.11
732.589	26530.02
732.93	26380.2
733.271	26333.64
733.612	26416.13
733.953	26363.02
734.294	26163.93
734.635	26253.87
734.976	26291.84
735.317	26200.54
735.658	26099.98
735.999	26240.99
736.339	26107.66
736.68	26186.75
737.021	26077.83
737.361	25878.06
737.702	26160.09
738.042	25925.74
738.383	25874.45
738.723	25866.09
739.063	25773.43
739.404	25812.75
739.744	25760.55
740.084	25474.91
740.424	25566.66
740.764	25616.6
741.104	25661.12
741.444	25556.26
741.784	25512.2
742.124	25459.99
742.464	25316.95
742.804	25375.93
743.143	25437.17
743.483	25299.77
743.823	25221.13
744.162	25187.01
744.502	25267.91
744.841	25137.74
745.181	25092.09
745.52	25062.94
745.86	25078.99
746.199	24968.03
746.538	25144.07
746.877	25003.28
747.216	24950.4
747.556	25036.28
747.895	24876.73
748.234	24742.5
748.573	24718.32
748.911	24763.52
749.25	24738.66
749.589	24659.11
749.928	24701.37
750.267	24624.99
750.605	24680.58
750.944	24479.23
751.283	24425.67
751.621	24429.29
751.96	24309.52
752.298	24173.02
752.636	24277.65
752.975	24186.13
753.313	24072.01
753.651	24164.89
753.989	24018
754.327	23985.91
754.666	23880.37
755.004	23855.74
755.342	23846.48
755.679	23783.65
756.017	23676.76
756.355	23773.94
756.693	23551.57
757.031	23675.18
757.368	23492.81
757.706	23434.96
758.044	23366.26
758.381	23448.52
758.719	23285.59
759.056	23325.36
759.394	23252.37
759.731	23086.72
760.068	23002.88
760.405	22858.03
760.743	22917.46
761.08	22938.25
761.417	22814.19
761.754	22769.22
762.091	22705.49
762.428	22667.75
762.765	22483.12
763.102	22566.51
763.438	22444.48
763.775	22287.87
764.112	22243.13
764.449	22282.45
764.785	22272.73
765.122	22030.93
765.458	21948.45
765.795	21951.84
766.131	21952.52
766.467	21803.82
766.804	21755.23
767.14	21587.55
767.476	21539.42
767.812	21572.86
768.148	21557.95
768.485	21320.44
768.821	21306.43
769.157	21250.39
769.492	21122.48
769.828	21226.43
770.164	20945.31
770.5	20952.77
770.836	20969.27
771.171	20771.3
771.507	20774.69
771.842	20670.74
772.178	20606.56
772.513	20463.29
772.849	20522.27
773.184	20420.13
773.519	20372.44
773.855	20247.93
774.19	20203.18
774.525	20191.21
774.86	20109.63
775.195	20040.25
775.53	19981.49
775.865	19824.66
776.2	19732.91
776.535	19593.71
776.87	19602.07
777.205	19505.8
777.539	19394.17
777.874	19466.25
778.209	19335.41
778.543	19278.46
778.878	19209.76
779.212	19191.01
779.547	18975.42
779.881	19089.09
780.215	18910.34
780.55	18907.17
780.884	18784.92
781.218	18812.49
781.552	18616.78
781.886	18640.74
782.22	18602.32
782.554	18457.01
782.888	18314.42
783.222	18269.45
783.556	18205.04
783.889	18144.93
784.223	18051.6
784.557	17994.65
784.89	18020.42
785.224	17896.58
785.557	17850.7
785.891	17785.17
786.224	17709.92
786.558	17795.79
786.891	17622.23
787.224	17432.63
787.557	17453.43
787.891	17459.3
788.224	17341.79
788.557	17361
788.89	17245.3
789.223	17227.44
789.556	17071.06
789.888	17064.51
790.221	16998.3
790.554	16895.02
790.887	16934.34
791.219	16726.21
791.552	16838.3
791.884	16704.74
792.217	16683.05
792.549	16690.06
792.882	16463.85
793.214	16418.2
793.546	16457.75
793.879	16373
794.211	16302.95
794.543	16229.28
794.875	16156.51
795.207	16201.25
795.539	16169.39
795.871	16125.32
796.203	15942.28
796.535	15862.96
796.867	15934.14
797.198	15816.41
797.53	15775.73
797.862	15661.61
798.193	15719.23
798.525	15605.34
798.856	15679.23
799.188	15521.27
799.519	15517.43
799.85	15356.76
800.182	15439.92
800.513	15316.08
800.844	15222.98
801.175	15285.35
801.506	15232.01
801.837	15131
802.168	15077.89
802.499	15117.22
802.83	15099.81
803.161	14931.46
803.491	14978.01
803.822	14987.5
804.153	14847.84
804.483	14717.45
804.814	14804.46
805.145	14745.25
805.475	14671.58
805.805	14568.98
806.136	14651.24
806.466	14638.58
806.796	14554.74
807.126	14380.74
807.457	14415.77
807.787	14352.72
808.117	14290.57
808.447	14255.77
808.777	14298.25
809.107	14130.8
809.436	14187.07
809.766	14128.31
810.096	14011.71
810.426	14012.61
810.755	14017.58
811.085	13981.2
811.414	13923.12
811.744	13867.3
812.073	13809.23
812.403	13855.78
812.732	13740.3
813.061	13759.96
813.39	13650.14
813.719	13627.54
814.049	13780.53
814.378	13659.85
814.707	13641.1
815.036	13576.47
815.365	13540.99
815.693	13431.38
816.022	13406.75
816.351	13339.86
816.68	13282.24
817.008	13349.58
817.337	13175.8
817.665	13121.79
817.994	13183.71
818.322	13124.73
818.651	13153.43
818.979	13093.54
819.307	13228.23
819.636	13072.98
819.964	13009.7
820.292	12979.87
820.62	13000.21
820.948	12985.52
821.276	12960.66
821.604	12938.06
821.932	13028.68
822.259	12934.9
822.587	12911.62
822.915	12899.42
823.243	12975.58
823.57	12903.04
823.898	12862.36
824.225	12851.29
824.553	12801.8
824.88	12903.94
825.207	13000.21
825.535	12861
825.862	12917.5
826.189	12906.43
826.516	12908.91
826.843	12936.03
827.17	12933.54
827.497	12905.52
827.824	12920.21
828.151	12930.38
828.478	12964.73
828.805	12915.01
829.131	12872.08
829.458	12867.78
829.785	12722.48
830.111	12813.55
830.438	12912.53
830.764	12868.69
831.09	12899.42
831.417	12831.63
831.743	12843.83
832.069	12891.74
832.395	12818.74
832.722	12789.59
833.048	12731.74
833.374	12715.7
833.7	12747.56
834.026	12705.53
834.351	12796.37
834.677	12712.08
835.003	12730.39
835.329	12608.35
835.654	12624.17
835.98	12671.86
836.306	12616.94
836.631	12510.5
836.956	12498.98
837.282	12574.23
837.607	12552.31
837.932	12524.06
838.258	12558.19
838.583	12514.35
838.908	12535.59
839.233	12481.35
839.558	12449.94
839.883	12421.69
840.208	12327.23
840.533	12335.82
840.858	12363.84
841.182	12354.8
841.507	12287.23
841.832	12222.15
842.156	12195.71
842.481	12209.27
842.805	12233
843.13	12154.36
843.454	12133.79
843.778	11998.43
844.103	12054.47
844.427	11993
844.751	11979.44
845.075	11966.79
845.399	11921.14
845.723	11866.68
846.047	11866.45
846.371	11769.51
846.695	11824.87
847.019	11693.12
847.343	11655.61
847.666	11567.7
847.99	11565.22
848.313	11586.91
848.637	11489.51
848.96	11522.06
849.284	11383.08
849.607	11329.52
849.931	11278.22
850.254	11256.3
850.577	11158.45
850.9	11115.51
851.223	11107.38
851.546	11083.65
851.869	11038.23
852.192	11061.73
852.515	10904.44
852.838	10849.98
853.161	10895.86
853.483	10815.63
853.806	10816.54
854.129	10783.09
854.451	10738.12
854.774	10669.87
855.096	10610.67
855.419	10599.37
855.741	10592.59
856.063	10499.71
856.385	10543.78
856.708	10495.87
857.03	10304.91
857.352	10449.09
857.674	10373.61
857.996	10328.19
858.318	10322.09
858.64	10269.21
858.961	10250
859.283	10160.51
859.605	10169.32
859.926	10109.66
860.248	10148.76
860.57	10125.93
860.891	10068.76
861.212	10031.47
861.534	10021.08
861.855	10073.96
862.176	10040.06
862.498	10055.65
862.819	9952.61
863.14	9934.75
863.461	9895.66
863.782	9946.73
864.103	9897.01
864.424	9868.31
864.745	9912.15
865.065	9785.6
865.386	9776.79
865.707	9775.44
866.027	9853.63
866.348	9827.64
866.668	9768.2
866.989	9671.71
867.309	9595.55
867.63	9688.21
867.95	9654.08
868.27	9635.55
868.59	9656.57
868.91	9587.19
869.23	9552.16
869.55	9556.01
869.87	9603.01
870.19	9534.09
870.51	9562.11
870.83	9565.27
871.15	9516.68
871.469	9545.61
871.789	9499.96
872.109	9565.5
872.428	9416.8
872.748	9443.47
873.067	9436.23
873.386	9417.25
873.706	9385.39
874.025	9370.7
874.344	9341.77
874.663	9346.52
874.982	9267.43
875.301	9366.18
875.62	9294.09
875.939	9217.26
876.258	9235.11
876.577	9231.49
876.896	9236.24
877.214	9194.21
877.533	9192.63
877.852	9184.94
878.17	9202.12
878.489	9189.01
878.807	9122.12
879.125	9184.26
879.444	9135.9
879.762	9102.91
880.08	9063.59
880.398	9053.19
880.716	9055.23
881.034	9041.44
881.352	9057.71
881.67	9033.76
881.988	8988.34
882.306	8915.34
882.624	8905.85
882.941	8846.19
883.259	8846.19
883.577	8853.2
883.894	8857.95
884.212	8775.46
884.529	8770.26
884.846	8771.39
885.164	8808
885.481	8730.94
885.798	8785.63
886.115	8667.44
886.432	8657.95
886.75	8701.79
887.067	8600.32
887.383	8611.62
887.7	8607.78
888.017	8584.05
888.334	8567.78
888.651	8558.07
888.967	8520.1
889.284	8428.13
889.6	8437.62
889.917	8380.44
890.233	8427.22
890.55	8367.79
890.866	8375.25
891.182	8304.97
891.498	8309.94
891.815	8256.6
892.131	8248.7
892.447	8268.58
892.763	8199.21
893.079	8223.39
893.395	8208.7
893.71	8167.12
894.026	8111.98
894.342	8092.09
894.657	8043.96
894.973	8088.25
895.289	8077.85
895.604	7969.83
895.92	7997.63
896.235	7935.48
896.55	7930.29
896.865	7919.66
897.181	7886.67
897.496	7855.26
897.811	7833.11
898.126	7801.02
898.441	7772.32
898.756	7746.79
899.071	7707.01
899.386	7758.99
899.7	7647.58
900.015	7621.37
900.33	7533.91
900.644	7554.48
900.959	7581.37
901.273	7539.56
901.588	7506.34
901.902	7448.94
902.216	7424.54
902.531	7416.63
902.845	7362.62
903.159	7337.08
903.473	7297.53
903.787	7348.61
904.101	7231.32
904.415	7248.5
904.729	7262.73
905.042	7198.1
905.356	7164.2
905.67	7185.22
905.984	7153.13
906.297	7151.1
906.611	7083.3
906.924	7043.98
907.237	6982.74
907.551	6971.89
907.864	6897.09
908.177	6941.39
908.491	6941.84
908.804	6892.35
909.117	6868.17
909.43	6820.71
909.743	6807.83
910.056	6800.82
910.368	6747.04
910.681	6685.35
910.994	6660.04
911.307	6672.01
911.619	6625.69
911.932	6636.31
912.244	6551.79
912.557	6592.47
912.869	6540.04
913.181	6497.78
913.494	6489.42
913.806	6481.28
914.118	6379.59
914.43	6408.97
914.742	6340.95
915.054	6351.12
915.366	6361.51
915.678	6273.83
915.99	6261.4
916.302	6236.09
916.613	6208.52
916.925	6175.98
917.236	6195.87
917.548	6143.89
917.859	6116.1
918.171	6101.41
918.482	6012.37
918.794	6057.79
919.105	6042.2
919.416	5929.43
919.727	5928.3
920.038	5991.35
920.349	5872.71
920.66	5879.94
920.971	5871.13
921.282	5898.47
921.593	5800.17
921.903	5785.48
922.214	5752.94
922.525	5715.65
922.835	5721.98
923.146	5662.77
923.456	5729.21
923.767	5681.98
924.077	5630.01
924.387	5596.11
924.697	5591.36
925.008	5531.93
925.318	5485.83
925.628	5484.93
925.938	5489.9
926.248	5437.24
926.558	5436.34
926.867	5379.84
927.177	5390.69
927.487	5365.16
927.796	5328.55
928.106	5324.48
928.416	5318.83
928.725	5269.11
929.034	5276.57
929.344	5296.46
929.653	5178.72
929.962	5148.44
930.271	5171.26
930.581	5131.72
930.89	5105.95
931.199	5082.9
931.508	5102.34
931.817	5099.4
932.125	5049.68
932.434	5046.75
932.743	4992.28
933.051	4968.1
933.36	4952.74
933.669	4939.63
933.977	4921.33
934.286	4908.9
934.594	4853.76
934.902	4853.76
935.21	4854.21
935.519	4849.24
935.827	4795.68
936.135	4763.82
936.443	4710.26
936.751	4693.76
937.059	4738.73
937.367	4742.35
937.674	4684.95
937.982	4656.7
938.29	4630.26
938.597	4613.31
938.905	4575.35
939.213	4570.6
939.52	4569.7
939.827	4557.27
940.135	4510.49
940.442	4486.31
940.749	4475.01
941.056	4490.6
941.363	4430.04
941.67	4392.3
941.977	4415.12
942.284	4382.13
942.591	4354.79
942.898	4326.99
943.205	4328.12
943.511	4282.47
943.818	4297.84
944.125	4250.16
944.431	4244.51
944.738	4220.1
945.044	4185.53
945.35	4214.23
945.657	4168.35
945.963	4170.16
946.269	4130.16
946.575	4101.91
946.881	4131.29
947.187	4069.6
947.493	4090.61
947.799	4068.47
948.105	4045.19
948.41	4005.19
948.716	4045.42
949.022	3977.62
949.327	3986.21
949.633	3894.46
949.938	3929.94
950.244	3949.6
950.549	3868.47
950.854	3922.71
951.16	3865.99
951.465	3821.69
951.77	3826.66
952.075	3834.8
952.38	3837.29
952.685	3779.66
952.99	3765.2
953.294	3782.82
953.599	3782.82
953.904	3718.65
954.209	3693.34
954.513	3711.87
954.818	3677.97
955.122	3658.08
955.426	3668.48
955.731	3662.38
956.035	3640.91
956.339	3593.9
956.643	3625.31
956.948	3575.82
957.252	3576.5
957.556	3537.41
957.86	3517.97
958.163	3489.72
958.467	3500.57
958.771	3503.51
959.075	3470.74
959.378	3437.52
959.682	3447.92
959.985	3406.11
960.289	3425.77
960.592	3376.06
960.896	3355.26
961.199	3359.33
961.502	3330.41
961.805	3344.87
962.108	3319.11
962.411	3318.43
962.714	3282.95
963.017	3264.42
963.32	3259
963.623	3269.84
963.926	3215.38
964.228	3227.13
964.531	3174.48
964.833	3206.12
965.136	3166.12
965.438	3157.3
965.741	3116.18
966.043	3165.21
966.345	3119.34
966.648	3112.56
966.95	3063.75
967.252	3061.04
967.554	3073.46
967.856	3041.6
968.158	3020.81
968.46	3033.92
968.761	3016.74
969.063	3006.12
969.365	3021.26
969.666	2980.59
969.968	2949.63
970.269	2942.62
970.571	2917.08
970.872	2896.29
971.174	2907.82
971.475	2896.29
971.776	2889.29
972.077	2850.42
972.378	2895.62
972.679	2853.13
972.98	2835.05
973.281	2834.15
973.582	2832.11
973.883	2822.85
974.183	2809.06
974.484	2795.28
974.785	2769.07
975.085	2731.33
975.386	2719.8
975.686	2721.38
975.986	2719.35
976.287	2689.07
976.587	2709.41
976.887	2653.36
977.187	2694.72
977.487	2635.74
977.787	2619.01
978.087	2618.11
978.387	2601.61
978.687	2590.99
978.987	2590.77
979.286	2579.69
979.586	2552.12
979.885	2547.6
980.185	2570.43
980.484	2534.95
980.784	2526.59
981.083	2509.86
981.382	2482.07
981.682	2498.79
981.981	2491.11
982.28	2464.67
982.579	2491.33
982.878	2500.6
983.177	2462.86
983.475	2441.39
983.774	2407.72
984.073	2436.42
984.372	2381.28
984.67	2369.75
984.969	2416.76
985.267	2375.86
985.566	2385.57
985.864	2384.67
986.162	2336.99
986.461	2334.95
986.759	2315.97
987.057	2308.06
987.355	2301.06
987.653	2303.99
987.951	2293.6
988.249	2270.77
988.547	2283.43
988.844	2269.42
989.142	2216.09
989.44	2221.28
989.737	2218.57
990.035	2238.23
990.332	2225.13
990.63	2208.4
990.927	2196.88
991.224	2201.85
991.521	2173.6
991.819	2165.69
992.116	2141.29
992.413	2155.3
992.71	2126.82
993.006	2126.37
993.303	2121.4
993.6	2129.08
993.897	2100.61
994.193	2073.72
994.49	2077.56
994.787	2071.68
995.083	2038.46
995.379	2031.68
995.676	2039.59
995.972	2037.56
996.268	2009.99
996.565	1961.86
996.861	1977.45
997.157	1998.24
997.453	1993.27
997.749	1995.53
998.044	1969.09
998.34	1946.49
998.636	1919.37
998.932	1929.09
999.227	1893.16
999.523	1910.78
999.818	1911.69
1000.114	1875.08
1000.409	1866.49
1000.704	1870.78
1001	1849.77
1001.295	1834.85
1001.59	1835.76
1001.885	1808.86
1002.18	1821.29
1002.475	1798.24
1002.77	1818.58
1003.065	1809.99
1003.359	1792.37
1003.654	1764.35
1003.949	1745.14
1004.243	1740.39
1004.538	1749.66
1004.832	1743.33
1005.127	1730.67
1005.421	1737.45
1005.715	1702.88
1006.009	1719.15
1006.304	1688.64
1006.598	1682.54
1006.892	1681.64
1007.186	1656.1
1007.48	1643.67
1007.773	1642.77
1008.067	1604.58
1008.361	1614.97
1008.655	1639.6
1008.948	1602.09
1009.242	1587.85
1009.535	1639.6
1009.829	1583.56
1010.122	1581.75
1010.415	1565.71
1010.708	1540.62
1011.001	1557.12
1011.295	1546.05
1011.588	1513.28
1011.881	1530.68
1012.173	1499.72
1012.466	1540.85
1012.759	1504.47
1013.052	1507.18
1013.344	1468.76
1013.637	1469.21
1013.93	1452.94
1014.222	1439.38
1014.514	1457.91
1014.807	1458.14
1015.099	1433.51
1015.391	1430.12
1015.683	1420.85
1015.976	1415.88
1016.268	1418.59
1016.56	1382.66
1016.851	1403
1017.143	1400.51
1017.435	1369.1
1017.727	1356
1018.018	1354.64
1018.31	1339.27
1018.602	1344.24
1018.893	1325.04
1019.185	1310.12
1019.476	1308.54
1019.767	1280.52
1020.058	1295.21
1020.35	1289.78
1020.641	1270.8
1020.932	1275.32
1021.223	1250.69
1021.514	1232.38
1021.804	1243
1022.095	1254.76
1022.386	1226.51
1022.677	1200.97
1022.967	1220.86
1023.258	1202.33
1023.548	1222.44
1023.839	1226.51
1024.129	1183.12
1024.419	1187.86
1024.709	1160.97
1025	1163.23
1025.29	1163.91
1025.58	1145.83
1025.87	1129.33
1026.16	1126.4
1026.449	1124.82
1026.739	1144.02
1027.029	1101.54
1027.319	1093.63
1027.608	1135.89
1027.898	1090.92
1028.187	1095.21
1028.477	1094.08
1028.766	1066.06
1029.055	1067.87
1029.344	1058.83
1029.634	1083.01
1029.923	1062.67
1030.212	1057.25
1030.501	1025.16
1030.79	1029.22
1031.078	1005.04
1031.367	997.81
1031.656	1027.64
1031.945	986.74
1032.233	994.65
1032.522	985.61
1032.81	992.62
1033.099	970.47
1033.387	958.94
1033.675	956.23
1033.963	967.98
1034.251	948.77
1034.54	918.94
1034.828	926.18
1035.116	958.49
1035.403	928.44
1035.691	924.14
1035.979	922.56
1036.267	921.66
1036.554	920.3
1036.842	918.72
1037.129	915.1
1037.417	873.75
1037.704	876.91
1037.992	880.08
1038.279	908.55
1038.566	873.52
1038.853	873.52
1039.14	873.52
