Data from hue_170_FLMS001491_00064.txt Node
Date: Tue Feb 07 16:49:01 GMT 2017
User: dcchb
Spectrometer: FLMS00149
Trigger mode: 0
Integration Time (sec): 2.000000E-2
Scans to average: 10
Electric dark correction enabled: true
Nonlinearity correction enabled: false
Boxcar width: 0
XAxis mode: Wavelengths
Number of Pixels in Spectrum: 2048
>>>>>Begin Spectral Data<<<<<
341.393	-26.28
341.776	-26.28
342.16	-26.28
342.543	-47.98
342.927	-52.95
343.31	-65.15
343.693	-70.35
344.077	-71.93
344.46	-61.09
344.843	-57.7
345.226	-46.85
345.61	-34.87
345.993	-16.57
346.376	30.21
346.759	11
347.142	23.88
347.525	56.88
347.908	56.88
348.291	58.68
348.674	86.03
349.057	100.94
349.44	130.77
349.823	143.2
350.206	161.06
350.588	196.08
350.971	211.9
351.354	222.75
351.737	241.73
352.119	257.32
352.502	265.69
352.884	282.41
353.267	280.6
353.65	289.41
354.032	300.03
354.414	323.99
354.797	326.93
355.179	345.46
355.562	328.28
355.944	332.58
356.326	321.5
356.709	357.43
357.091	345.46
357.473	337.77
357.855	338.68
358.238	352.24
358.62	352.01
359.002	366.7
359.384	347.04
359.766	363.08
360.148	354.72
360.53	339.58
360.912	344.33
361.294	332.58
361.676	320.15
362.057	311.11
362.439	333.93
362.821	340.26
363.203	331.22
363.584	332.35
363.966	325.12
364.348	321.95
364.729	316.76
365.111	303.88
365.493	316.98
365.874	316.31
366.256	294.84
366.637	301.84
367.019	310.66
367.4	309.53
367.781	312.46
368.163	337.32
368.544	298.45
368.925	290.77
369.306	319.24
369.688	315.85
370.069	314.05
370.45	303.88
370.831	314.95
371.212	330.99
371.593	309.75
371.974	330.99
372.355	318.79
372.736	319.69
373.117	307.49
373.498	311.33
373.879	307.27
374.26	301.84
374.641	319.47
375.021	327.38
375.402	314.72
375.783	312.92
376.163	326.47
376.544	323.08
376.925	338.23
377.305	344.78
377.686	339.36
378.066	319.24
378.447	322.86
378.827	342.97
379.208	330.77
379.588	328.28
379.968	332.12
380.349	332.8
380.729	338
381.109	335.74
381.489	354.27
381.87	339.13
382.25	351.78
382.63	336.87
383.01	328.06
383.39	359.92
383.77	353.14
384.15	349.07
384.53	356.08
384.91	348.62
385.29	347.04
385.67	347.72
386.049	356.98
386.429	354.27
386.809	364.44
387.189	354.27
387.568	342.75
387.948	354.27
388.328	372.35
388.707	364.89
389.087	343.2
389.466	384.1
389.846	370.32
390.225	365.8
390.605	363.99
390.984	384.78
391.363	387.49
391.743	384.1
392.122	383.2
392.501	366.7
392.881	393.37
393.26	413.93
393.639	383.42
394.018	374.83
394.397	374.38
394.776	392.69
395.155	387.26
395.534	383.2
395.913	394.27
396.292	397.89
396.671	391.33
397.05	401.73
397.429	405.12
397.808	412.57
398.186	383.65
398.565	394.95
398.944	394.72
399.323	402.18
399.701	404.44
400.08	416.42
400.458	401.05
400.837	416.19
401.215	401.05
401.594	415.74
401.972	431.56
402.351	422.52
402.729	388.85
403.107	415.51
403.486	429.52
403.864	458.45
404.242	435.85
404.62	443.53
404.999	425.23
405.377	441.73
405.755	461.84
406.133	456.41
406.511	468.62
406.889	439.47
407.267	452.57
407.645	482.18
408.023	465
408.401	465.45
408.779	449.41
409.156	475.85
409.534	475.4
409.912	467.94
410.29	492.57
410.667	503.64
411.045	514.04
411.422	518.56
411.8	527.15
412.178	526.02
412.555	519.69
412.933	545.45
413.31	531.21
413.687	553.59
414.065	549.29
414.442	568.5
414.819	556.52
415.197	556.98
415.574	579.58
415.951	573.47
416.328	568.73
416.705	575.06
417.082	605.79
417.46	597.88
417.837	612.79
418.214	609.63
418.591	614.15
418.967	600.37
419.344	613.7
419.721	646.01
420.098	645.34
420.475	627.03
420.852	647.82
421.228	657.31
421.605	665.45
421.982	643.08
422.358	672.68
422.735	711.55
423.111	677.2
423.488	671.1
423.864	701.15
424.241	710.65
424.617	709.52
424.994	733.47
425.37	727.82
425.746	722.85
426.123	723.3
426.499	749.51
426.875	764.66
427.251	761.72
427.627	761.94
428.003	775.28
428.379	773.47
428.756	806.46
429.132	790.42
429.507	800.13
429.883	806.69
430.259	803.3
430.635	843.75
431.011	837.87
431.387	857.53
431.763	867.03
432.138	879.45
432.514	883.97
432.89	876.29
433.265	909.06
433.641	920.13
434.016	924.88
434.392	946.12
434.767	957.19
435.143	956.97
435.518	955.38
435.894	1007.59
436.269	995.84
436.644	1016.4
437.02	1017.08
437.395	1026.57
437.77	1033.57
438.145	1043.74
438.52	1061.82
438.895	1089.39
439.271	1100.01
439.646	1095.04
440.021	1130.52
440.395	1117.19
440.77	1133.23
441.145	1125.55
441.52	1150.41
441.895	1170.97
442.27	1175.72
442.645	1181.37
443.019	1197.19
443.394	1199.9
443.769	1218.65
444.143	1233.57
444.518	1266.79
444.892	1232.44
445.267	1248.71
445.641	1236.06
446.016	1276.28
446.39	1293.45
446.764	1274.47
447.139	1285.09
447.513	1290.52
447.887	1311.76
448.262	1313.79
448.636	1302.04
449.01	1323.51
449.384	1382.49
449.758	1339.33
450.132	1388.14
450.506	1392.89
450.88	1376.39
451.254	1372.1
451.628	1434.24
452.002	1445.99
452.376	1433.34
452.75	1464.3
453.123	1488.48
453.497	1501.58
453.871	1512.21
454.244	1533.9
454.618	1559.21
454.992	1574.58
455.365	1597.85
455.739	1621.36
456.112	1605.08
456.486	1673.78
456.859	1692.31
457.232	1708.81
457.606	1684.86
457.979	1712.2
458.352	1721.47
458.725	1787.9
459.099	1796.04
459.472	1812.99
459.845	1839.66
460.218	1844.4
460.591	1902.03
460.964	1882.14
461.337	1976.37
461.71	1966.43
462.083	2002.59
462.456	2003.27
462.829	2024.06
463.201	2065.41
463.574	2066.54
463.947	2127.56
464.32	2170.95
464.692	2180.21
465.065	2168.01
465.438	2261.34
465.81	2259.08
466.183	2297.72
466.555	2329.36
466.928	2362.81
467.3	2382.92
467.672	2436.7
468.045	2481.45
468.417	2539.07
468.789	2523.25
469.161	2556.7
469.534	2624.04
469.906	2692.97
470.278	2719.63
470.65	2768.44
471.022	2797.82
471.394	2905.62
471.766	2918.72
472.138	3007.31
472.51	3041.43
472.882	3091.15
473.253	3108.77
473.625	3227.42
473.997	3260.18
474.369	3286.17
474.74	3361.42
475.112	3459.05
475.484	3548.08
475.855	3612.72
476.227	3677.8
476.598	3770
476.97	3849.55
477.341	3961.18
477.713	3997.56
478.084	4045.25
478.455	4173.6
478.827	4277.56
479.198	4403.43
479.569	4468.29
479.94	4574.05
480.311	4642.75
480.682	4782.4
481.053	4937.43
481.424	5018.78
481.795	5070.3
482.166	5203.86
482.537	5282.28
482.908	5478.88
483.279	5543.29
483.65	5696.73
484.021	5806.33
484.391	5946.44
484.762	6064.85
485.133	6143.04
485.503	6292.65
485.874	6454.67
486.244	6506.42
486.615	6708.45
486.985	6802.69
487.356	6947.77
487.726	7016.24
488.097	7240.87
488.467	7307.99
488.837	7453.74
489.207	7623.23
489.578	7782.78
489.948	7827.97
490.318	8046.5
490.688	8183.67
491.058	8272.71
491.428	8463.89
491.798	8573.26
492.168	8758.8
492.538	8761.73
492.908	8909.75
493.278	9089.41
493.648	9185.68
494.017	9270.87
494.387	9435.16
494.757	9547.7
495.126	9658.43
495.496	9707.02
495.866	9806.68
496.235	9985.43
496.605	10035.37
496.974	10170.96
497.344	10282.14
497.713	10337.06
498.082	10485.53
498.452	10588.35
498.821	10581.35
499.19	10708.8
499.559	10817.05
499.928	10964.61
500.298	10940.43
500.667	11102.46
501.036	11024.95
501.405	11250.48
501.774	11296.36
502.143	11356.47
502.512	11425.17
502.88	11498.84
503.249	11518.5
503.618	11582.22
503.987	11657.02
504.356	11741.77
504.724	11772.95
505.093	11856.34
505.462	11873.29
505.83	12011.59
506.199	12025.38
506.567	12257.91
506.936	12210
507.304	12276.67
507.672	12306.95
508.041	12426.72
508.409	12512.37
508.777	12542.2
509.145	12599.15
509.514	12569.54
509.882	12677.11
510.25	12684.57
510.618	12824.22
510.986	12826.26
511.354	12966.14
511.722	12967.5
512.09	13039.13
512.458	13040.04
512.826	13158
513.193	13149.87
513.561	13192.35
513.929	13234.84
514.297	13287.72
514.664	13325.23
515.032	13365.45
515.4	13443.19
515.767	13478.67
516.135	13537.43
516.502	13473.25
516.869	13573.58
517.237	13655.39
517.604	13597.54
517.972	13620.59
518.339	13765.9
518.706	13674.82
519.073	13694.03
519.44	13733.81
519.808	13823.75
520.175	13830.07
520.542	13938.32
520.909	13922.05
521.276	13932.67
521.643	13992.33
522.009	14035.72
522.376	14026.68
522.743	14054.7
523.11	14199.33
523.477	14230.52
523.843	14179.22
524.21	14407.46
524.577	14339.21
524.943	14334.47
525.31	14451.98
525.676	14514.8
526.043	14397.74
526.409	14547.57
526.776	14483.16
527.142	14533.11
527.508	14575.37
527.874	14580.11
528.241	14615.59
528.607	14588.7
528.973	14675.48
529.339	14587.57
529.705	14634.35
530.071	14684.97
530.437	14621.92
530.803	14717.73
531.169	14766.55
531.535	14598.87
531.901	14580.56
532.267	14709.37
532.632	14646.55
532.998	14693.55
533.364	14635.25
533.73	14684.52
534.095	14710.96
534.461	14559.32
534.826	14625.99
535.192	14629.83
535.557	14582.37
535.923	14555.25
536.288	14662.37
536.653	14549.83
537.019	14462.37
537.384	14466.44
537.749	14494.46
538.114	14489.94
538.479	14448.36
538.845	14380.79
539.21	14315.26
539.575	14311.87
539.94	14294.47
540.305	14343.28
540.67	14262.38
541.034	14298.76
541.399	14193
541.764	14157.3
542.129	14096.51
542.494	14037.98
542.858	14103.74
543.223	14051.31
543.587	14062.38
543.952	13940.58
544.316	13848.6
544.681	13871.2
545.045	13837.53
545.41	13823.07
545.774	13826.68
546.138	13703.07
546.503	13712.11
546.867	13584.43
547.231	13673.02
547.595	13714.37
547.959	13633.47
548.324	13657.88
548.688	13474.6
549.052	13557.31
549.416	13526.13
549.779	13441.16
550.143	13330.43
550.507	13432.34
550.871	13409.97
551.235	13271.9
551.599	13425.11
551.962	13294.04
552.326	13226.47
552.689	13245.68
553.053	13195.97
553.417	13146.02
553.78	13216.08
554.143	13119.81
554.507	13146.48
554.87	13144.44
555.234	13159.13
555.597	13069.87
555.96	13037.55
556.323	13085.01
556.686	13110.77
557.05	13059.25
557.413	12961.62
557.776	12976.76
558.139	13039.13
558.502	12974.28
558.865	12954.17
559.228	12994.62
559.59	12962.3
559.953	12883.43
560.316	13014.95
560.679	13014.28
561.041	13038.68
561.404	12999.81
561.767	13099.47
562.129	12967.05
562.492	13071.68
562.854	12959.36
563.217	12946.93
563.579	12988.29
563.941	13040.26
564.304	13003.88
564.666	13063.77
565.028	13096.53
565.39	13049.53
565.753	13087.72
566.115	13066.03
566.477	13194.16
566.839	13093.82
567.201	13154.16
567.563	13084.11
567.925	13156.42
568.287	13026.03
568.648	13066.25
569.01	13165.46
569.372	13161.39
569.734	13138.34
570.095	13144.67
570.457	13207.72
570.819	13236.19
571.18	13185.35
571.542	13207.94
571.903	13228.51
572.265	13293.59
572.626	13223.08
572.987	13260.37
573.349	13269.64
573.71	13303.53
574.071	13311.9
574.432	13344.66
574.794	13349.86
575.155	13292.69
575.516	13287.94
575.877	13311.9
576.238	13284.33
576.599	13351.67
576.96	13345.12
577.32	13269.41
577.681	13304.21
578.042	13407.94
578.403	13376.53
578.763	13381.95
579.124	13327.49
579.485	13323.19
579.845	13411.55
580.206	13390.99
580.566	13398.22
580.927	13410.88
581.287	13436.41
581.648	13260.6
582.008	13434.6
582.368	13347.38
582.728	13429.86
583.089	13321.84
583.449	13333.14
583.809	13323.87
584.169	13328.62
584.529	13267.38
584.889	13322.29
585.249	13241.62
585.609	13239.81
585.969	13290.43
586.329	13264.21
586.688	13309.41
587.048	13239.36
587.408	13191.9
587.768	13160.04
588.127	13151
588.487	13218.56
588.846	13257.21
589.206	13111.22
589.565	13168.17
589.925	13213.37
590.284	13103.77
590.643	13154.61
591.003	13122.07
591.362	13107.61
591.721	13116.19
592.08	13105.57
592.44	13152.35
592.799	13037.55
593.158	13079.13
593.517	13101.96
593.876	13054.73
594.235	12979.48
594.593	13008.85
594.952	13080.72
595.311	12972.7
595.67	12949.42
596.029	13102.18
596.387	13105.57
596.746	13077.1
597.104	13031.45
597.463	12911
597.822	13014.73
598.18	13033.94
598.538	12898.57
598.897	13032.36
599.255	12978.35
599.613	13010.66
599.972	13008.17
600.33	13015.63
600.688	12959.14
601.046	12945.35
601.404	13025.35
601.762	12976.76
602.12	12984.67
602.478	12993.94
602.836	13038
603.194	12942.41
603.552	12968.4
603.91	12886.14
604.268	12992.58
604.625	12882.53
604.983	12954.84
605.341	12873.04
605.698	12962.3
606.056	12994.16
606.413	12889.76
606.771	13018.8
607.128	13055.86
607.485	12979.93
607.843	12998.23
608.2	13036.65
608.557	13067.16
608.914	12983.09
609.272	13034.39
609.629	13000.72
609.986	13093.82
610.343	13056.54
610.7	13082.3
611.057	13094.95
611.414	13078.68
611.771	13090.66
612.127	13132.24
612.484	13099.25
612.841	13092.01
613.198	13127.95
613.554	13114.39
613.911	13220.82
614.267	13167.49
614.624	13108.29
614.98	13168.62
615.337	13315.96
615.693	13237.32
616.05	13234.16
616.406	13309.41
616.762	13198.45
617.118	13176.53
617.475	13162.52
617.831	13297.21
618.187	13289.07
618.543	13306.92
618.899	13336.75
619.255	13335.62
619.611	13291.11
619.967	13382.85
620.323	13378.79
620.678	13340.14
621.034	13279.35
621.39	13235.06
621.746	13273.7
622.101	13433.47
622.457	13276.64
622.812	13279.81
623.168	13307.83
623.523	13308.73
623.879	13398
624.234	13207.94
624.589	13338.79
624.945	13372.91
625.3	13266.02
625.655	13315.06
626.01	13269.19
626.365	13301.05
626.72	13249.52
627.075	13300.37
627.43	13350.54
627.785	13228.51
628.14	13263.08
628.495	13236.42
628.85	13238
629.205	13223.99
629.559	13329.3
629.914	13224.89
630.269	13235.29
630.623	13197.1
630.978	13106.48
631.332	13157.55
631.687	13223.31
632.041	13102.86
632.396	13230.99
632.75	13131.56
633.104	13124.78
633.459	13064.67
633.813	13061.51
634.167	13067.83
634.521	13076.65
634.875	13120.04
635.229	13027.16
635.583	12987.84
635.937	13016.76
636.291	12947.16
636.645	12985.35
636.999	12873.94
637.352	12994.62
637.706	12879.59
638.06	13010.66
638.413	12944.9
638.767	12819.93
639.121	12886.37
639.474	12763.89
639.828	12768.41
640.181	12805.69
640.534	12843.89
640.888	12760.5
641.241	12708.75
641.594	12729.54
641.947	12814.06
642.301	12788.97
642.654	12695.41
643.007	12718.24
643.36	12777.22
643.713	12709.88
644.066	12733.15
644.419	12693.15
644.771	12532.03
645.124	12433.05
645.477	12375.2
645.83	12389.89
646.182	12250
646.535	12271.25
646.888	12348.98
647.24	12122.77
647.593	12237.35
647.945	12266.5
648.298	12245.48
648.65	12181.53
649.002	12200.06
649.355	12228.31
649.707	12270.57
650.059	12347.85
650.411	12428.76
650.763	12526.15
651.115	12590.78
651.467	12590.78
651.819	12549.66
652.171	12575.87
652.523	12484.35
652.875	12501.75
653.227	12411.58
653.578	12623.55
653.93	12565.02
654.282	12472.82
654.633	12489.32
654.985	12512.37
655.337	12555.98
655.688	12484.8
656.039	12594.17
656.391	12536.77
656.742	12554.18
657.094	12464.69
657.445	12491.35
657.796	12463.33
658.147	12514.18
658.498	12459.94
658.849	12553.95
659.2	12540.39
659.551	12512.14
659.902	12564.12
660.253	12525.93
660.604	12517.57
660.955	12531.8
661.306	12535.19
661.656	12588.52
662.007	12556.66
662.358	12595.76
662.708	12548.53
663.059	12570.45
663.409	12424.01
663.76	12612.48
664.11	12566.6
664.461	12561.18
664.811	12558.02
665.161	12536.32
665.511	12470.56
665.862	12594.17
666.212	12523.22
666.562	12577.45
666.912	12604.8
667.262	12604.12
667.612	12562.08
667.962	12543.78
668.312	12593.04
668.662	12673.27
669.011	12606.83
669.361	12529.32
669.711	12551.92
670.06	12592.14
670.41	12542.2
670.76	12563.89
671.109	12493.61
671.459	12470.34
671.808	12451.81
672.157	12479.38
672.507	12484.35
672.856	12440.28
673.205	12488.41
673.554	12488.19
673.904	12384.24
674.253	12514.63
674.602	12520.96
674.951	12290.68
675.3	12141.53
675.649	12321.87
675.998	12392.15
676.346	12358.47
676.695	12361.86
677.044	12329.1
677.393	12464.01
677.741	12417
678.09	12324.8
678.438	12296.78
678.787	12348.98
679.135	12284.8
679.484	12240.96
679.832	12337.46
680.181	12163.23
680.529	12250.23
680.877	12242.32
681.225	12168.42
681.573	12289.78
681.922	12165.49
682.27	12193.73
682.618	12147.86
682.966	12072.61
683.314	12046.39
683.661	12056.34
684.009	11941.76
684.357	12028.31
684.705	12023.79
685.053	11911.25
685.4	11958.49
685.748	11867.87
686.095	11783.12
686.443	11799.62
686.79	11812.27
687.138	11769.79
687.485	11806.85
687.832	11802.56
688.18	11778.83
688.527	11622.45
688.874	11634.65
689.221	11602.11
689.568	11558.04
689.915	11498.38
690.262	11531.38
690.609	11486.41
690.956	11494.77
691.303	11426.3
691.65	11349.01
691.997	11323.47
692.344	11168.9
692.69	11317.82
693.037	11198.96
693.383	11147.21
693.73	11152.86
694.077	11104.95
694.423	11056.81
694.769	11053.88
695.116	10965.97
695.462	10924.61
695.808	10925.29
696.155	10895.46
696.501	10803.94
696.847	10816.37
697.193	10753.32
697.539	10789.02
697.885	10672.42
698.231	10610.5
698.577	10599.42
698.923	10610.05
699.269	10601.68
699.614	10500.44
699.96	10519.65
700.306	10424.51
700.651	10423.84
700.997	10336.83
701.342	10355.36
701.688	10271.3
702.033	10243.73
702.379	10230.17
702.724	10196.05
703.069	10191.98
703.415	10052.32
703.76	10060.68
704.105	10059.33
704.45	10014.58
704.795	10031.53
705.14	10022.72
705.485	9951.53
705.83	9911.08
706.175	9896.84
706.52	9886.22
706.865	9761.71
707.209	9810.74
707.554	9766.45
707.899	9793.12
708.243	9702.95
708.588	9644.2
708.932	9599.68
709.277	9543.41
709.621	9531.88
709.966	9515.16
710.31	9551.54
710.654	9430.42
710.998	9466.57
711.342	9467.03
711.687	9443.97
712.031	9367.59
712.375	9338.21
712.719	9378.21
713.063	9315.16
713.407	9282.17
713.75	9277.2
714.094	9287.59
714.438	9207.6
714.782	9248.73
715.125	9225
715.469	9256.41
715.812	9179.58
716.156	9154.72
716.499	9183.87
716.843	9065.45
717.186	9061.16
717.53	9145.9
717.873	9111.55
718.216	9078.79
718.559	9047.15
718.902	9002.63
719.246	9047.83
719.589	8991.33
719.932	8947.49
720.275	9059.8
720.617	8985
720.96	8970.54
721.303	8926.02
721.646	8943.88
721.989	8872.46
722.331	8940.71
722.674	8968.51
723.016	8925.8
723.359	8845.35
723.701	8891.67
724.044	8905.68
724.386	8803.54
724.729	8803.77
725.071	8795.18
725.413	8795.18
725.755	8829.08
726.097	8801.73
726.439	8770.32
726.782	8783.65
727.124	8779.59
727.465	8817.32
727.807	8746.59
728.149	8754.5
728.491	8635.18
728.833	8730.55
729.175	8698.01
729.516	8733.71
729.858	8776.42
730.199	8796.31
730.541	8717.44
730.882	8723.32
731.224	8748.17
731.565	8662.53
731.906	8728.97
732.248	8693.26
732.589	8667.05
732.93	8693.71
733.271	8706.59
733.612	8721.28
733.953	8764.44
734.294	8719.93
734.635	8715.63
734.976	8670.44
735.317	8720.15
735.658	8700.49
735.999	8785.69
736.339	8699.59
736.68	8749.08
737.021	8685.8
737.361	8717.21
737.702	8772.35
738.042	8781.62
738.383	8710.89
738.723	8719.47
739.063	8726.71
739.404	8789.98
739.744	8752.47
740.084	8790.66
740.424	8802.86
740.764	8829.3
741.104	8881.5
741.444	8832.47
741.784	8746.14
742.124	8867.27
742.464	8884.67
742.804	8880.83
743.143	8912.01
743.483	8939.81
743.823	8888.06
744.162	9039.92
744.502	9014.83
744.841	9060.93
745.181	9053.02
745.52	9087.6
745.86	9124.66
746.199	9123.76
746.538	9199.46
746.877	9286.92
747.216	9257.54
747.556	9338.67
747.895	9384.32
748.234	9392.22
748.573	9497.53
748.911	9517.19
749.25	9540.92
749.589	9654.59
749.928	9753.12
750.267	9843.74
750.605	9851.87
750.944	9880.8
751.283	10045.31
751.621	10081.02
751.96	10197.18
752.298	10170.28
752.636	10395.14
752.975	10313.78
753.313	10475.59
753.651	10665.19
753.989	10734.34
754.327	10855.24
754.666	10947.44
755.004	11084.38
755.342	11211.16
755.679	11319.86
756.017	11369.8
756.355	11634.88
756.693	11711.71
757.031	11845.72
757.368	12041.65
757.706	12170.46
758.044	12216.33
758.381	12482.99
758.719	12589.88
759.056	12825.81
759.394	12864.22
759.731	12956.65
760.068	13072.58
760.405	13292.24
760.743	13434.83
761.08	13598.89
761.417	13710.08
761.754	13936.74
762.091	14011.99
762.428	14195.49
762.765	14369.5
763.102	14613.78
763.438	14711.18
763.775	14903.72
764.112	15051.74
764.449	15346.42
764.785	15439.52
765.122	15438.17
765.458	15672.74
765.795	15831.6
766.131	15976.46
766.467	16046.29
766.804	16222.55
767.14	16280.41
767.476	16465.49
767.812	16558.59
768.148	16697.34
768.485	16769.43
768.821	16946.6
769.157	17031.57
769.492	17199.03
769.828	17314.73
770.164	17306.37
770.5	17468.62
770.836	17613.93
771.171	17642.86
771.507	17736.41
771.842	17798.56
772.178	17964.43
772.513	18033.35
772.849	18091.21
773.184	18149.28
773.519	18229.51
773.855	18335.04
774.19	18286.45
774.525	18351.76
774.86	18547.92
775.195	18653.68
775.53	18593.11
775.865	18594.92
776.2	18620.23
776.535	18519.44
776.87	18669.49
777.205	18664.07
777.539	18773.67
777.874	18853.44
778.209	18808.02
778.543	18804.63
778.878	18772.54
779.212	18861.58
779.547	18857.51
779.881	19096.83
780.215	18911.3
780.55	18968.47
780.884	18840.11
781.218	18878.3
781.552	18974.57
781.886	18993.1
782.22	18930.51
782.554	18920.79
782.888	18836.5
783.222	18788.14
783.556	18770.06
783.889	18807.12
784.223	18665.65
784.557	18728.93
784.89	18821.81
785.224	18886.66
785.557	18764.86
785.891	18708.82
786.224	18717.63
786.558	18814.58
786.891	18625.43
787.224	18659.55
787.557	18643.51
787.891	18689.38
788.224	18602.38
788.557	18708.59
788.89	18539.78
789.223	18646.44
789.556	18520.8
789.888	18475.38
790.221	18458.43
790.554	18364.64
790.887	18401.03
791.219	18267.02
791.552	18199.22
791.884	18299.11
792.217	18229.73
792.549	18187.02
792.882	18142.5
793.214	18114.71
793.546	18134.59
793.879	18047.82
794.211	17943.64
794.543	17976.18
794.875	18039.91
795.207	17975.73
795.539	17877.2
795.871	17916.29
796.203	17749.07
796.535	17689.18
796.867	17661.61
797.198	17624.1
797.53	17703.87
797.862	17529.19
798.193	17549.52
798.525	17478.11
798.856	17557.43
799.188	17328.97
799.519	17288.74
799.85	17200.38
800.182	17180.72
800.513	17209.65
800.844	17153.38
801.175	17179.36
801.506	17232.24
801.837	17079.03
802.168	17160.83
802.499	17042.19
802.83	16958.58
803.161	16851.24
803.491	17014.4
803.822	16907.06
804.153	16900.05
804.483	16769.88
804.814	16777.57
805.145	16706.83
805.475	16718.13
805.805	16578.25
806.136	16624.35
806.466	16698.25
806.796	16577.12
807.126	16520.62
807.457	16422.55
807.787	16363.34
808.117	16402.66
808.447	16232.27
808.777	16280.18
809.107	16272.27
809.436	16236.79
809.766	16226.17
810.096	16105.95
810.426	16098.94
810.755	16204.02
811.085	16100.75
811.414	16143.69
811.744	15904.6
812.073	15934.2
812.403	15992.5
812.732	15879.51
813.061	15830.02
813.39	15794.54
813.719	15753.19
814.049	15832.96
814.378	15769.23
814.707	15698.5
815.036	15757.71
815.365	15588.22
815.693	15502.8
816.022	15557.49
816.351	15388.68
816.68	15315.23
817.008	15489.01
817.337	15305.29
817.665	15257.38
817.994	15276.82
818.322	15274.78
818.651	15246.99
818.979	15141.45
819.307	15167.21
819.636	15192.52
819.964	15168.57
820.292	15245.4
820.62	15301.22
820.948	15154.11
821.276	15201.11
821.604	15075.69
821.932	15235.69
822.259	15139.19
822.587	15039.31
822.915	15087.44
823.243	15236.14
823.57	15061.91
823.898	15163.82
824.225	15099.87
824.553	15089.93
824.88	15122.24
825.207	15148.68
825.535	15073.66
825.862	15137.16
826.189	15119.76
826.516	15226.2
826.843	15265.74
827.17	15228.46
827.497	15190.04
827.824	15216.48
828.151	15218.06
828.478	15131.28
828.805	15201.79
829.131	15194.78
829.458	15150.72
829.785	15133.32
830.111	15168.8
830.438	15190.26
830.764	15184.16
831.09	15205.41
831.417	15042.47
831.743	15185.52
832.069	15185.97
832.395	15069.36
832.722	15143.49
833.048	15064.84
833.374	15074.79
833.7	15013.09
834.026	14974.22
834.351	15019.87
834.677	15047.67
835.003	15054.45
835.329	15016.48
835.654	15000.21
835.98	14887.9
836.306	14885.19
836.631	14916.6
836.956	14938.97
837.282	14922.7
837.607	14873.89
837.932	14877.5
838.258	14808.13
838.583	14807.22
838.908	14720.45
839.233	14782.37
839.558	14735.14
839.883	14670.73
840.208	14709.6
840.533	14598.87
840.858	14614.46
841.182	14673.22
841.507	14600.45
841.832	14485.65
842.156	14513.22
842.481	14386.22
842.805	14508.02
843.13	14455.37
843.454	14361.36
843.778	14362.94
844.103	14292.89
844.427	14226.45
844.751	14242.49
845.075	14198.43
845.399	14217.18
845.723	14107.36
846.047	14079.79
846.371	14000.47
846.695	13952.78
847.019	13889.28
847.343	13822.39
847.666	13743.52
847.99	13641.38
848.313	13656.29
848.637	13603.41
848.96	13594.6
849.284	13553.47
849.607	13501.04
849.931	13454.26
850.254	13344.21
850.577	13245.23
850.9	13270.54
851.223	13147.83
851.546	13061.51
851.869	12977.89
852.192	13065.8
852.515	12971.11
852.838	12894.51
853.161	12910.1
853.483	12868.07
853.806	12776.99
854.129	12793.94
854.451	12790.1
854.774	12686.6
855.096	12630.33
855.419	12609.09
855.741	12607.06
856.063	12518.24
856.385	12520.05
856.708	12422.43
857.03	12329.77
857.352	12359.83
857.674	12303.79
857.996	12321.64
858.318	12189.21
858.64	12302.2
858.961	12139.5
859.283	12163
859.605	12135.66
859.926	12167.07
860.248	12102.44
860.57	12041.19
860.891	12110.35
861.212	11976.56
861.534	12003.91
861.855	11903.35
862.176	11920.52
862.498	11960.52
862.819	11853.18
863.14	11817.92
863.461	11821.09
863.782	11802.78
864.103	11840.97
864.424	11732.73
864.745	11823.12
865.065	11715.33
865.386	11640.53
865.707	11592.17
866.027	11686.4
866.348	11594.2
866.668	11618.38
866.989	11609.57
867.309	11519.63
867.63	11502.45
867.95	11485.5
868.27	11433.53
868.59	11456.58
868.91	11452.28
869.23	11420.65
869.55	11460.42
869.87	11456.8
870.19	11380.42
870.51	11424.04
870.83	11443.92
871.15	11316.24
871.469	11314.66
871.789	11347.88
872.109	11285.96
872.428	11245.74
872.748	11280.54
873.067	11155.34
873.386	11156.47
873.706	11210.48
874.025	11204.61
874.344	11117.38
874.663	11100.88
874.982	11146.08
875.301	11125.74
875.62	11033.54
875.939	11024.05
876.258	10987.44
876.577	10987.89
876.896	11036.93
877.214	11006.19
877.533	10991.96
877.852	10982.47
878.17	10869.25
878.489	10927.55
878.807	10872.19
879.125	10873.77
879.444	10862.24
879.762	10750.83
880.08	10797.84
880.398	10811.17
880.716	10798.74
881.034	10673.55
881.352	10689.14
881.67	10671.51
881.988	10630.38
882.306	10581.12
882.624	10644.62
882.941	10576.83
883.259	10529.37
883.577	10580.89
883.894	10522.36
884.212	10545.41
884.529	10518.52
884.846	10461.35
885.164	10490.05
885.481	10339.77
885.798	10437.62
886.115	10315.14
886.432	10395.81
886.75	10323.5
887.067	10397.4
887.383	10295.25
887.7	10264.97
888.017	10234.69
888.334	10222.49
888.651	10193.79
888.967	10135.93
889.284	10066.56
889.6	10075.82
889.917	10087.57
890.233	10016.16
890.55	9928.26
890.866	10018.42
891.182	10003.06
891.498	9916.5
891.815	9864.98
892.131	9846.22
892.447	9798.77
892.763	9797.86
893.079	9843.29
893.395	9737.07
893.71	9718.32
894.026	9700.47
894.342	9650.52
894.657	9591.77
894.973	9649.85
895.289	9584.76
895.604	9579.56
895.92	9425.9
896.235	9426.57
896.55	9466.8
896.865	9460.02
897.181	9394.26
897.496	9403.75
897.811	9327.14
898.126	9291.44
898.441	9224.09
898.756	9253.25
899.071	9169.41
899.386	9185.9
899.7	9114.94
900.015	9120.37
900.33	9008.28
900.644	8972.8
900.959	9041.95
901.273	8951.78
901.588	8900.49
901.902	8896.42
902.216	8890.32
902.531	8856.19
902.845	8768.29
903.159	8777.1
903.473	8737.55
903.787	8705.46
904.101	8656.65
904.415	8620.04
904.729	8580.04
905.042	8543.66
905.356	8525.13
905.67	8465.92
905.984	8439.93
906.297	8462.31
906.611	8421.85
906.924	8321.74
907.237	8324.68
907.551	8324.91
907.864	8296.89
908.177	8207.62
908.491	8218.47
908.804	8167.85
909.117	8105.93
909.43	8071.13
909.743	8053.28
910.056	8049.66
910.368	7901.42
910.681	7997.91
910.994	7944.35
911.307	7945.94
911.619	7872.04
911.932	7878.14
912.244	7808.54
912.557	7775.32
912.869	7715.66
913.181	7693.74
913.494	7679.5
913.806	7578.71
914.118	7615.77
914.43	7606.28
914.742	7553.63
915.054	7498.94
915.366	7493.74
915.678	7459.85
915.99	7455.55
916.302	7362
916.613	7346.85
916.925	7334.65
917.236	7317.03
917.548	7216.24
917.859	7276.12
918.171	7214.43
918.482	7185.05
918.794	7137.14
919.105	7153.19
919.416	7026.19
919.727	7073.42
920.038	7045.17
920.349	7018.05
920.66	6916.36
920.971	6953.19
921.282	6925.4
921.593	6890.37
921.903	6864.61
922.214	6846.3
922.525	6759.75
922.835	6803.82
923.146	6736.7
923.456	6701.22
923.767	6654.9
924.077	6665.29
924.387	6630.26
924.697	6587.55
925.008	6576.48
925.318	6560.66
925.628	6570.83
925.938	6521.11
926.248	6475.01
926.558	6502.81
926.867	6417.39
927.177	6388.01
927.487	6435.24
927.796	6346.2
928.106	6335.58
928.416	6289.71
928.725	6252.87
929.034	6240.67
929.344	6208.13
929.653	6185.76
929.962	6169.94
930.271	6149.6
930.581	6153.21
930.89	6075.7
931.199	6048.58
931.508	6028.25
931.817	6054.23
932.125	5952.77
932.434	6026.44
932.743	5913.22
933.051	5881.13
933.36	5906.89
933.669	5841.36
933.977	5846.78
934.286	5831.41
934.594	5789.83
934.902	5796.84
935.21	5725.43
935.519	5746.44
935.827	5682.94
936.135	5626.22
936.443	5664.19
936.751	5617.18
937.059	5654.7
937.367	5627.8
937.674	5561.59
937.982	5487.47
938.29	5459.9
938.597	5528.6
938.905	5445.21
939.213	5400.47
939.52	5394.59
939.827	5402.05
940.135	5352.78
940.442	5321.37
940.749	5299.68
941.056	5327.25
941.363	5325.89
941.67	5256.06
941.977	5229.4
942.284	5137.42
942.591	5197.53
942.898	5179.23
943.205	5142.39
943.511	5139.91
943.818	5084.09
944.125	5099.23
944.431	5081.83
944.738	5061.49
945.044	5033.24
945.35	4991.89
945.657	4977.65
945.963	4897.65
946.269	4917.54
946.575	4914.38
946.881	4893.13
947.187	4851.33
947.493	4889.07
947.799	4843.87
948.105	4779.46
948.41	4795.51
948.716	4756.64
949.022	4741.5
949.327	4725
949.633	4710.31
949.938	4680.94
950.244	4706.47
950.549	4596.19
950.854	4623.76
951.16	4563.65
951.465	4561.17
951.77	4555.29
952.075	4489.75
952.38	4539.7
952.685	4535.86
952.99	4449.76
953.294	4449.98
953.599	4405.24
953.904	4435.29
954.209	4448.63
954.513	4412.02
954.818	4345.13
955.122	4352.36
955.426	4311.68
955.731	4361.4
956.035	4272.81
956.339	4266.26
956.643	4237.11
956.948	4219.03
957.252	4217.9
957.556	4186.71
957.86	4174.28
958.163	4174.51
958.467	4129.76
958.771	4149.2
959.075	4142.42
959.378	4037.79
959.682	4058.81
959.985	4048.41
960.289	4049.54
960.592	4070.78
960.896	4000.73
961.199	4030.56
961.502	4020.39
961.805	3959.15
962.108	3924.35
962.411	3928.87
962.714	3904.01
963.017	3856.33
963.32	3894.06
963.623	3869.21
963.926	3798.7
964.228	3854.52
964.531	3846.61
964.833	3800.96
965.136	3746.72
965.438	3730.23
965.741	3737.23
966.043	3682.32
966.345	3702.43
966.648	3700.62
966.95	3701.98
967.252	3679.15
967.554	3626.27
967.856	3626.05
968.158	3607.74
968.46	3572.26
968.761	3537.92
969.063	3548.99
969.365	3565.03
969.666	3525.49
969.968	3528.42
970.269	3546.95
970.571	3516
970.872	3520.97
971.174	3444.36
971.475	3449.33
971.776	3394.42
972.077	3407.07
972.378	3370.24
972.679	3368.65
972.98	3350.58
973.281	3367.98
973.582	3324.36
973.883	3328.43
974.183	3348.32
974.484	3301.09
974.785	3297.92
975.085	3285.04
975.386	3270.8
975.686	3210.69
975.986	3198.94
976.287	3242.1
976.587	3205.95
976.887	3221.09
977.187	3129.34
977.487	3168.43
977.787	3108.1
978.087	3128.66
978.387	3115.33
978.687	3100.64
978.987	3075.55
979.286	3091.83
979.586	3071.04
979.885	3050.7
980.185	3051.6
980.484	2986.97
980.784	2998.04
981.083	3050.02
981.382	2966.41
981.682	2950.36
981.981	2959.4
982.28	2946.29
982.579	2931.15
982.878	2914.88
983.177	2885.5
983.475	2873.98
983.774	2874.66
984.073	2865.84
984.372	2816.58
984.67	2824.04
984.969	2806.41
985.267	2799.18
985.566	2782.91
985.864	2819.29
986.162	2776.58
986.461	2746.52
986.759	2762.34
987.057	2706.3
987.355	2692.06
987.653	2748.56
987.951	2701.1
988.249	2665.85
988.547	2653.19
988.844	2675.79
989.142	2681.21
989.44	2599.86
989.737	2588.11
990.035	2625.17
990.332	2619.52
990.63	2581.78
990.927	2556.25
991.224	2580.65
991.521	2571.39
991.819	2518.96
992.116	2512.41
992.413	2516.7
992.71	2518.73
993.006	2466.08
993.303	2488.9
993.6	2482.35
993.897	2450.71
994.193	2413.65
994.49	2437.15
994.787	2378.62
995.083	2405.29
995.379	2417.04
995.676	2373.65
995.972	2366.87
996.268	2363.71
996.565	2350.6
996.861	2331.39
997.157	2315.35
997.453	2333.2
997.749	2294.56
998.044	2267.44
998.34	2304.73
998.636	2260.21
998.932	2295.01
999.227	2251.4
999.523	2224.28
999.818	2213.43
1000.114	2206.2
1000.409	2215.46
1000.704	2192.64
1001	2150.83
1001.295	2148.35
1001.59	2134.34
1001.885	2154.22
1002.18	2116.48
1002.475	2123.26
1002.77	2102.47
1003.065	2048.24
1003.359	2094.11
1003.654	2056.82
1003.949	2042.14
1004.243	2051.17
1004.538	2037.84
1004.832	2017.05
1005.127	2025.64
1005.421	1998.07
1005.715	1992.65
1006.009	2010.95
1006.304	1963.49
1006.598	1965.53
1006.892	1934.57
1007.186	1931.18
1007.48	1929.14
1007.773	1922.36
1008.067	1907.68
1008.361	1913.78
1008.655	1883.04
1008.948	1864.06
1009.242	1836.49
1009.535	1867.9
1009.829	1826.1
1010.122	1849.82
1010.415	1819.32
1010.708	1786.1
1011.001	1790.62
1011.295	1775.02
1011.588	1759.21
1011.881	1766.66
1012.173	1740.9
1012.466	1731.64
1012.759	1736.61
1013.052	1742.26
1013.344	1730.51
1013.637	1713.1
1013.93	1674.24
1014.222	1674.91
1014.514	1677.63
1014.807	1641.47
1015.099	1657.74
1015.391	1627.23
1015.683	1669.04
1015.976	1614.12
1016.268	1600.79
1016.56	1613.67
1016.851	1612.32
1017.143	1582.49
1017.435	1570.96
1017.727	1589.94
1018.018	1537.29
1018.31	1540.23
1018.602	1531.87
1018.893	1541.58
1019.185	1525.54
1019.476	1543.84
1019.767	1505.65
1020.058	1501.36
1020.35	1485.77
1020.641	1456.61
1020.932	1448.7
1021.223	1442.83
1021.514	1447.57
1021.804	1396.73
1022.095	1410.97
1022.386	1409.38
1022.677	1392.21
1022.967	1419.78
1023.258	1363.06
1023.548	1372.32
1023.839	1361.93
1024.129	1349.72
1024.419	1370.74
1024.709	1347.69
1025	1322.61
1025.29	1314.92
1025.58	1327.13
1025.87	1304.98
1026.16	1288.26
1026.449	1295.04
1026.739	1266.56
1027.029	1308.14
1027.319	1257.98
1027.608	1274.47
1027.898	1262.27
1028.187	1256.39
1028.477	1201.48
1028.766	1248.94
1029.055	1196.73
1029.344	1201.03
1029.634	1210.97
1029.923	1187.24
1030.212	1200.8
1030.501	1207.36
1030.79	1187.02
1031.078	1172.55
1031.367	1144.31
1031.656	1139.11
1031.945	1127.36
1032.233	1137.53
1032.522	1137.53
1032.81	1098.21
1033.099	1117.19
1033.387	1099.11
1033.675	1099.11
1033.963	1099.79
1034.251	1085.32
1034.54	1079
1034.828	1088.04
1035.116	1039.68
1035.403	1058.88
1035.691	1047.59
1035.979	1043.07
1036.267	1044.42
1036.554	1017.08
1036.842	1049.85
1037.129	1031.54
1037.417	980.47
1037.704	1009.85
1037.992	985.67
1038.279	996.51
1038.566	991.54
1038.853	991.54
1039.14	991.54
