Data from hue_310_FLMS001491_75.txt Node
Date: Mon Feb 06 15:50:09 GMT 2017
User: dcchb
Spectrometer: FLMS00149
Trigger mode: 0
Integration Time (sec): 2.000000E-2
Scans to average: 10
Electric dark correction enabled: true
Nonlinearity correction enabled: false
Boxcar width: 0
XAxis mode: Wavelengths
Number of Pixels in Spectrum: 2048
>>>>>Begin Spectral Data<<<<<
341.393	-3.53
341.776	-3.53
342.16	-3.53
342.543	-60.93
342.927	-67.48
343.31	-76.98
343.693	-59.57
344.077	-68.84
344.46	-73.81
344.843	-56.86
345.226	-27.71
345.61	-31.1
345.993	-14.15
346.376	-1.27
346.759	-1.27
347.142	26.98
347.525	35.79
347.908	52.96
348.291	76.69
348.674	105.84
349.057	113.3
349.44	137.26
349.823	146.3
350.206	149.01
350.588	193.3
350.971	231.72
351.354	195.79
351.737	228.55
352.119	266.07
352.502	274.2
352.884	292.73
353.267	273.75
353.65	309
354.032	284.82
354.414	287.99
354.797	300.64
355.179	324.82
355.562	318.04
355.944	312.17
356.326	314.88
356.709	332.96
357.091	323.47
357.473	336.8
357.855	351.94
358.238	349
358.62	332.96
359.002	355.56
359.384	326.63
359.766	354.43
360.148	355.1
360.53	342.45
360.912	343.13
361.294	332.05
361.676	312.62
362.057	341.09
362.439	309.68
362.821	327.31
363.203	326.86
363.584	321.43
363.966	342.22
364.348	306.07
364.729	297.7
365.111	293.18
365.493	304.94
365.874	313.75
366.256	320.3
366.637	302
367.019	309.23
367.4	321.66
367.781	304.71
368.163	308.78
368.544	300.42
368.925	301.77
369.306	341.54
369.688	313.97
370.069	318.49
370.45	297.48
370.831	310.59
371.212	306.97
371.593	334.54
371.974	305.39
372.355	326.18
372.736	318.49
373.117	330.02
373.498	316.91
373.879	306.97
374.26	302.45
374.641	313.97
375.021	319.62
375.402	304.48
375.783	343.35
376.163	339.28
376.544	330.7
376.925	316.69
377.305	325.05
377.686	331.38
378.066	336.12
378.447	323.47
378.827	337.25
379.208	320.08
379.588	311.49
379.968	312.17
380.349	334.99
380.729	331.38
381.109	349.45
381.489	341.77
381.87	323.69
382.25	336.8
382.63	320.3
383.01	367.53
383.39	344.26
383.77	333.18
384.15	353.3
384.53	347.19
384.91	343.35
385.29	345.61
385.67	337.25
386.049	339.06
386.429	358.27
386.809	340.41
387.189	357.82
387.568	358.49
387.948	358.04
388.328	371.15
388.707	353.75
389.087	345.61
389.466	373.41
389.846	342.45
390.225	369.57
390.605	365.95
390.984	354.43
391.363	360.98
391.743	399.17
392.122	366.18
392.501	372.05
392.881	394.2
393.26	358.95
393.639	384.48
394.018	377.25
394.397	385.16
394.776	385.84
395.155	384.93
395.534	380.64
395.913	382.45
396.292	387.65
396.671	398.72
397.05	417.25
397.429	392.84
397.808	397.59
398.186	395.33
398.565	413.41
398.944	400.53
399.323	397.81
399.701	415.22
400.08	416.8
400.458	400.3
400.837	433.52
401.215	417.02
401.594	445.5
401.972	429.9
402.351	414.09
402.729	438.72
403.107	435.55
403.486	437.81
403.864	424.25
404.242	456.57
404.62	423.35
404.999	451.37
405.377	449.56
405.755	434.88
406.133	446.63
406.511	453.41
406.889	474.65
407.267	499.05
407.645	462.45
408.023	467.19
408.401	509.68
408.779	492.28
409.156	482.78
409.534	479.62
409.912	503.8
410.29	489.34
410.667	517.59
411.045	512.39
411.422	513.07
411.8	536.12
412.178	530.01
412.555	521.2
412.933	562.56
413.31	560.3
413.687	542.9
414.065	578.15
414.442	572.73
414.819	595.32
415.197	596
415.574	604.14
415.951	610.46
416.328	607.53
416.705	632.84
417.082	632.16
417.46	636
417.837	636.45
418.214	653.17
418.591	644.14
418.967	671.03
419.344	676.9
419.721	665.83
420.098	685.94
420.475	708.54
420.852	695.43
421.228	711.48
421.605	731.59
421.982	737.01
422.358	712.38
422.735	765.26
423.111	743.79
423.488	753.96
423.864	756.22
424.241	799.16
424.617	801.42
424.994	783.79
425.37	784.92
425.746	823.34
426.123	815.66
426.499	832.15
426.875	831.48
427.251	824.02
427.627	847.07
428.003	858.59
428.379	878.03
428.756	877.58
429.132	894.98
429.507	908.99
429.883	940.4
430.259	934.52
430.635	934.52
431.011	951.47
431.387	990.12
431.763	963
432.138	1003.22
432.514	991.7
432.89	999.61
433.265	1028.08
433.641	1044.58
434.016	1021.07
434.392	1035.09
434.767	1037.8
435.143	1091.36
435.518	1068.98
435.894	1081.86
436.269	1108.53
436.644	1106.04
437.02	1133.61
437.395	1122.77
437.77	1122.77
438.145	1142.43
438.52	1167.06
438.895	1167.06
439.271	1146.72
439.646	1203.44
440.021	1203.44
440.395	1212.71
440.77	1219.49
441.145	1212.03
441.52	1241.86
441.895	1235.53
442.27	1257.45
442.645	1245.25
443.019	1260.39
443.394	1253.84
443.769	1256.77
444.143	1261.52
444.518	1292.03
444.892	1297.9
445.267	1273.27
445.641	1309.43
446.016	1299.71
446.39	1313.5
446.764	1325.02
447.139	1310.11
447.513	1337
447.887	1298.58
448.262	1306.27
448.636	1342.65
449.01	1354.17
449.384	1332.71
449.758	1345.13
450.132	1369.54
450.506	1365.02
450.88	1373.16
451.254	1383.78
451.628	1383.78
452.002	1412.93
452.376	1393.04
452.75	1423.32
453.123	1397.34
453.497	1415.87
453.871	1447.28
454.244	1460.16
454.618	1467.39
454.992	1499.71
455.365	1442.08
455.739	1544.68
456.112	1518.69
456.486	1523.21
456.859	1540.84
457.232	1542.42
457.606	1534.51
457.979	1542.19
458.352	1588.07
458.725	1577.44
459.099	1602.98
459.472	1636.65
459.845	1628.06
460.218	1626.93
460.591	1644.34
460.964	1635.75
461.337	1692.24
461.71	1714.39
462.083	1708.74
462.456	1695.18
462.829	1725.92
463.201	1736.31
463.574	1760.26
463.947	1743.54
464.32	1767.5
464.692	1797.55
465.065	1791.68
465.438	1825.12
465.81	1844.78
466.183	1867.83
466.555	1893.59
466.928	1913.93
467.3	1896.08
467.672	1923.65
468.045	1937.43
468.417	1948.28
468.789	1981.28
469.161	1973.14
469.534	1960.26
469.906	2048.62
470.278	2039.35
470.65	2053.82
471.022	2087.26
471.394	2102.4
471.766	2133.59
472.138	2128.62
472.51	2169.75
472.882	2193.47
473.253	2203.42
473.625	2233.7
473.997	2279.8
474.369	2240.48
474.74	2273.02
475.112	2289.97
475.484	2357.54
475.855	2395.5
476.227	2373.13
476.598	2433.02
476.97	2423.07
477.341	2483.86
477.713	2484.09
478.084	2510.08
478.455	2562.73
478.827	2563.86
479.198	2601.15
479.569	2629.62
479.94	2660.81
480.311	2691.99
480.682	2759.11
481.053	2805.43
481.424	2813.57
481.795	2834.36
482.166	2849.95
482.537	2865.32
482.908	2944.41
483.279	2890.4
483.65	3004.53
484.021	3030.29
484.391	3066.44
484.762	3034.36
485.133	3082.72
485.503	3094.92
485.874	3158.19
486.244	3156.16
486.615	3228.93
486.985	3235.25
487.356	3308.92
487.726	3281.13
488.097	3347.79
488.467	3380.11
488.837	3417.4
489.207	3470.05
489.578	3501.24
489.948	3524.96
490.318	3552.53
490.688	3531.74
491.058	3572.42
491.428	3648.35
491.798	3668.01
492.168	3699.2
492.538	3716.15
492.908	3747.56
493.278	3816.26
493.648	3777.39
494.017	3851.06
494.387	3877.04
494.757	3847.67
495.126	3938.96
495.496	3923.82
495.866	3925.86
496.235	3956.82
496.605	4012.18
496.974	4021.22
497.344	4037.04
497.713	4072.52
498.082	4095.57
498.452	4090.82
498.821	4130.15
499.19	4110.49
499.559	4169.24
499.928	4146.87
500.298	4215.57
500.667	4226.19
501.036	4217.15
501.405	4247.43
501.774	4284.72
502.143	4315.23
502.512	4314.55
502.88	4324.49
503.249	4349.35
503.618	4357.03
503.987	4400.65
504.356	4396.35
504.724	4414.43
505.093	4386.18
505.462	4429.8
505.83	4438.84
506.199	4449.69
506.567	4506.86
506.936	4490.36
507.304	4555.22
507.672	4475.9
508.041	4578.27
508.409	4590.25
508.777	4590.02
509.145	4618.27
509.514	4626.4
509.882	4648.1
510.25	4651.94
510.618	4691.94
510.986	4671.37
511.354	4748.43
511.722	4738.27
512.09	4813.52
512.458	4767.19
512.826	4809.22
513.193	4797.92
513.561	4802.9
513.929	4827.75
514.297	4802.67
514.664	4871.37
515.032	4893.74
515.4	4932.84
515.767	4936.45
516.135	4963.12
516.502	4942.33
516.869	4994.3
517.237	4997.92
517.604	4937.13
517.972	4995.66
518.339	4995.21
518.706	4958.37
519.073	5045.83
519.44	5020.52
519.808	5155.66
520.175	5051.25
520.542	5147.07
520.909	5135.54
521.276	5160.18
521.643	5200.63
522.009	5196.11
522.376	5225.26
522.743	5284.01
523.11	5266.16
523.477	5312.26
523.843	5300.51
524.21	5383.9
524.577	5350.68
524.943	5422.54
525.31	5441.52
525.676	5492.82
526.043	5475.42
526.409	5504.35
526.776	5538.7
527.142	5523.78
527.508	5610.11
527.874	5604.46
528.241	5667.05
528.607	5639.94
528.973	5731.91
529.339	5696.43
529.705	5771.68
530.071	5794.51
530.437	5862.3
530.803	5894.62
531.169	5888.52
531.535	5857.11
531.901	5920.38
532.267	5887.39
532.632	5960.38
532.998	5989.31
533.364	6003.09
533.73	5998.12
534.095	6058.46
534.461	6104.11
534.826	6121.51
535.192	6091
535.557	6178.68
535.923	6191.56
536.288	6215.29
536.653	6218.9
537.019	6240.6
537.384	6281.28
537.749	6320.82
538.114	6374.61
538.479	6319.69
538.845	6313.37
539.21	6395.62
539.575	6359.24
539.94	6386.13
540.305	6457.77
540.67	6497.99
541.034	6531.44
541.399	6533.47
541.764	6594.26
542.129	6550.2
542.494	6610.53
542.858	6661.83
543.223	6680.36
543.587	6725.56
543.952	6716.07
544.316	6755.84
544.681	6774.82
545.045	6737.08
545.41	6832.22
545.774	6851.43
546.138	6844.65
546.503	6840.81
546.867	6905.21
547.231	7018.21
547.595	6975.72
547.959	6981.37
548.324	7010.52
548.688	7018.43
549.052	7029.05
549.416	7055.72
549.779	7103.4
550.143	7120.35
550.507	7244.19
550.871	7138.88
551.235	7202.83
551.599	7271.76
551.962	7255.26
552.326	7261.14
552.689	7333.45
553.053	7294.36
553.417	7343.85
553.78	7418.19
554.143	7352.43
554.507	7373.22
554.87	7376.84
555.234	7521.47
555.597	7480.57
555.96	7453.45
556.323	7554.46
556.686	7556.95
557.05	7556.5
557.413	7570.73
557.776	7580.22
558.139	7640.79
558.502	7666.55
558.865	7656.83
559.228	7718.3
559.59	7808.02
559.953	7775.7
560.316	7846.88
560.679	7840.33
561.041	7854.79
561.404	7902.02
561.767	8013.43
562.129	7941.12
562.492	8008.69
562.854	7976.37
563.217	8005.52
563.579	8010.72
563.941	8069.03
564.304	8060.21
564.666	8163.26
565.028	8192.19
565.39	8164.62
565.753	8231.73
566.115	8228.57
566.477	8330.94
566.839	8334.33
567.201	8353.31
567.563	8333.2
567.925	8378.4
568.287	8394.89
568.648	8458.17
569.01	8471.95
569.372	8538.84
569.734	8502.23
570.095	8592.63
570.457	8598.5
570.819	8665.39
571.18	8654.32
571.542	8690.93
571.903	8767.99
572.265	8828.1
572.626	8825.16
572.987	8892.05
573.349	8940.64
573.71	8970.24
574.071	9104.48
574.432	9101.54
574.794	9157.58
575.155	9171.14
575.516	9207.3
575.877	9265.38
576.238	9369.56
576.599	9443.45
576.96	9565.26
577.32	9584.01
577.681	9668.53
578.042	9784.91
578.403	9893.84
578.763	9948.98
579.124	10086.15
579.485	10136.32
579.845	10213.83
580.206	10299.47
580.566	10453.37
580.927	10631.67
581.287	10699.69
581.648	10779.24
582.008	10985.78
582.368	11149.4
582.728	11265.78
583.089	11395.49
583.449	11516.39
583.809	11726.78
584.169	11909.15
584.529	12016.94
584.889	12292.19
585.249	12501.45
585.609	12669.81
585.969	12842.01
586.329	13049.69
586.688	13227.76
587.048	13461.43
587.408	13675.21
587.768	13932.6
588.127	14147.28
588.487	14410.1
588.846	14714.27
589.206	14891.9
589.565	15153.81
589.925	15405.78
590.284	15810.97
590.643	15985.2
591.003	16302.48
591.362	16671.96
591.721	16889.81
592.08	17147.2
592.44	17513.3
592.799	17733.18
593.158	18055.66
593.517	18323.22
593.876	18597.11
594.235	18880.72
594.593	19212.69
594.952	19595.05
595.311	19708.27
595.67	20103.51
596.029	20560.45
596.387	20733.32
596.746	21100.09
597.104	21331.5
597.463	21675
597.822	22040.41
598.18	22269.78
598.538	22531.02
598.897	22920.84
599.255	23091.68
599.613	23660.48
599.972	23733.02
600.33	24155.38
600.688	24398.77
601.046	24772.54
601.404	25031.07
601.762	25259.53
602.12	25677.6
602.478	25934.54
602.836	26175.44
603.194	26373.85
603.552	26727.29
603.91	26830.34
604.268	27288.18
604.625	27368.18
604.983	27714.38
605.341	27879.58
605.698	28317.08
606.056	28561.37
606.413	28715.94
606.771	29111.86
607.128	29346.21
607.485	29419.2
607.843	29745.07
608.2	29944.16
608.557	30372.62
608.914	30428.44
609.272	30849.44
609.629	30970.57
609.986	31279.71
610.343	31334.18
610.7	31754.28
611.057	31968.51
611.414	32026.14
611.771	32205.11
612.127	32673.35
612.484	32708.15
612.841	33002.83
613.198	32934.36
613.554	33210.96
613.911	33614.79
614.267	33621.8
614.624	33801.23
614.98	33997.38
615.337	34309.92
615.693	34370.48
616.05	34499.74
616.406	34871.94
616.762	34829.68
617.118	34849.56
617.475	35133.4
617.831	35322.55
618.187	35520.51
618.543	35726.83
618.899	35834.85
619.255	36033.71
619.611	36007.27
619.967	36328.62
620.323	36479.35
620.678	36463.53
621.034	36511.67
621.39	36575.39
621.746	36721.61
622.101	37152.78
622.457	36981.03
622.812	37223.96
623.168	37265.55
623.523	37371.31
623.879	37509.61
624.234	37460.79
624.589	37750.73
624.945	37625.99
625.3	37840.9
625.655	37952.08
626.01	37965.64
626.365	38029.59
626.72	38051.51
627.075	38295.57
627.43	38197.05
627.785	38122.47
628.14	38367.21
628.495	38501.22
628.85	38417.83
629.205	38396.82
629.559	38585.06
629.914	38583.93
630.269	38615.57
630.623	38547.32
630.978	38526.98
631.332	38694.66
631.687	38765.85
632.041	38771.27
632.396	38907.08
632.75	38824.37
633.104	38811.49
633.459	38797.26
633.813	38756.58
634.167	38887.65
634.521	38946.63
634.875	38930.81
635.229	38900.3
635.583	38804.26
635.937	38786.86
636.291	38778.5
636.645	38754.77
636.999	38813.53
637.352	38997.48
637.706	38777.82
638.06	39110.69
638.413	38823.02
638.767	38811.49
639.121	38958.83
639.474	38707.77
639.828	38703.25
640.181	38832.74
640.534	38914.77
640.888	38778.95
641.241	38665.96
641.594	38751.38
641.947	38885.84
642.301	38702.8
642.654	38734.43
643.007	38779.4
643.36	38779.86
643.713	38708.22
644.066	38957.7
644.419	38812.17
644.771	38509.13
645.124	38123.38
645.477	38094.68
645.83	37830.95
646.182	37774.23
646.535	37652.43
646.888	37696.04
647.24	37398.65
647.593	37627.12
647.945	37592.99
648.298	37391.87
648.65	37363.62
649.002	37282.04
649.355	37562.94
649.707	37408.37
650.059	37568.81
650.411	38000.44
650.763	38159.08
651.115	38414.89
651.467	38394.78
651.819	38269.81
652.171	38258.97
652.523	38302.81
652.875	38279.08
653.227	38137.84
653.578	38525.17
653.93	38258.97
654.282	38193.88
654.633	37996.37
654.985	38181.91
655.337	38163.83
655.688	38182.36
656.039	38226.65
656.391	37962.25
656.742	37951.4
657.094	38015.36
657.445	38053.55
657.796	38111.63
658.147	37912.99
658.498	38089.25
658.849	38154.79
659.2	37985.07
659.551	37866.89
659.902	38019.65
660.253	38025.3
660.604	37973.78
660.955	37877.28
661.306	37941.01
661.656	37919.54
662.007	37839.77
662.358	37957.28
662.708	37929.93
663.059	37939.43
663.409	37683.16
663.76	37895.81
664.11	37919.31
664.461	38064.39
664.811	37848.58
665.161	37825.3
665.511	37843.16
665.862	37817.85
666.212	37944.17
666.562	37893.33
666.912	37785.76
667.262	37756.15
667.612	37815.81
667.962	37917.96
668.312	37676.83
668.662	37994.79
669.011	37746.89
669.361	37751.18
669.711	37711.86
670.06	37790.96
670.41	37704.18
670.76	37609.94
671.109	37751.41
671.459	37593.22
671.808	37549.83
672.157	37635.71
672.507	37398.88
672.856	37487.23
673.205	37699.43
673.554	37648.13
673.904	37554.13
674.253	37765.19
674.602	37500.79
674.951	37093.57
675.3	36896.29
675.649	37560.68
675.998	37411.08
676.346	37488.14
676.695	37498.76
677.044	37358.65
677.393	37376.96
677.741	37463.96
678.09	37310.06
678.438	37316.17
678.787	37316.17
679.135	37363.62
679.484	37019.45
679.832	37211.54
680.181	36949.4
680.529	37111.88
680.877	36989.17
681.225	37027.36
681.573	37241.82
681.922	36946.01
682.27	36732
682.618	36853.58
682.966	36645
683.314	36781.49
683.661	36747.59
684.009	36437.54
684.357	36534.04
684.705	36406.59
685.053	36503.76
685.4	36383.53
685.748	36175.86
686.095	36164.56
686.443	36120.94
686.79	36096.76
687.138	36162.75
687.485	36254.95
687.832	36076.42
688.18	35958.91
688.527	35843.44
688.874	35812.02
689.221	35753.27
689.568	35596.89
689.915	35597.79
690.262	35627.4
690.609	35565.48
690.956	35399.83
691.303	35325.71
691.65	35034.87
691.997	35272.83
692.344	34902.22
692.69	34959.62
693.037	35043.91
693.383	34681.21
693.73	34997.58
694.077	34574.32
694.423	34692.73
694.769	34651.15
695.116	34401.44
695.462	34460.42
695.808	34266.98
696.155	34389.24
696.501	34090.26
696.847	34196.02
697.193	33794.45
697.539	34017.5
697.885	33925.07
698.231	33739.76
698.577	33666.32
698.923	33531.86
699.269	33305.65
699.614	33292.09
699.96	33282.15
700.306	33178.87
700.651	33041.48
700.997	33057.97
701.342	32989.73
701.688	32921.03
702.033	32798.77
702.379	32950.18
702.724	32646.46
703.069	32819.33
703.415	32448.27
703.76	32473.58
704.105	32170.31
704.45	32224.1
704.795	32195.17
705.14	32099.81
705.485	32115.85
705.83	32000.83
706.175	32025.23
706.52	31782.53
706.865	31785.01
707.209	31629.76
707.554	31544.57
707.899	31769.64
708.243	31512.93
708.588	31493.27
708.932	31285.14
709.277	31344.35
709.621	31244.46
709.966	31091.7
710.31	31342.54
710.654	30880.18
710.998	31059.61
711.342	31004.92
711.687	30904.81
712.031	30688.32
712.375	30747.98
712.719	30705.04
713.063	30644.7
713.407	30668.43
713.75	30548.21
714.094	30452.62
714.438	30323.36
714.782	30454.2
715.125	30211.72
715.469	30310.02
715.812	30053.98
716.156	30003.36
716.499	29829.58
716.843	30036.58
717.186	29738.96
717.53	29982.8
717.873	29899.19
718.216	29831.39
718.559	29670.94
718.902	29577.84
719.246	29495.35
719.589	29572.64
719.932	29353.44
720.275	29430.5
720.617	29408.13
720.96	29388.92
721.303	29322.93
721.646	29280.9
721.989	29141.92
722.331	29283.61
722.674	29107.79
723.016	29078.64
723.359	28950.28
723.701	29002.03
724.044	28924.3
724.386	28634.81
724.729	28729.95
725.071	28840.68
725.413	28767.92
725.755	28745.09
726.097	28614.7
726.439	28513.91
726.782	28468.94
727.124	28597.75
727.465	28439.56
727.807	28508.71
728.149	28365.21
728.491	28339.68
728.833	28297.87
729.175	28262.39
729.516	28330.64
729.858	28141.94
730.199	28048.84
730.541	28082.28
730.882	28095.17
731.224	28144.2
731.565	27995.73
731.906	27910.09
732.248	27906.92
732.589	27796.64
732.93	27689.75
733.271	27714.61
733.612	27834.16
733.953	27752.8
734.294	27526.37
734.635	27572.69
734.976	27698.79
735.317	27477.1
735.658	27452.47
735.999	27404.79
736.339	27304.23
736.68	27543.77
737.021	27376.77
737.361	27166.6
737.702	27298.35
738.042	27156.88
738.383	27193.49
738.723	27344.22
739.063	27112.14
739.404	27103.55
739.744	27061.29
740.084	26884.35
740.424	26920.05
740.764	26853.16
741.104	26966.83
741.444	26808.42
741.784	26605.49
742.124	26769.1
742.464	26680.06
742.804	26519.84
743.143	26618.37
743.483	26746.95
743.823	26539.5
744.162	26564.13
744.502	26560.97
744.841	26424.7
745.181	26440.75
745.52	26349.67
745.86	26360.97
746.199	26291.82
746.538	26206.63
746.877	26301.99
747.216	26261.77
747.556	26057.03
747.895	26118.49
748.234	25971.83
748.573	26080.75
748.911	26008.67
749.25	25916.92
749.589	25782.01
749.928	25989.23
750.267	25848.9
750.605	25937.93
750.944	25724.83
751.283	25622.01
751.621	25678.28
751.96	25564.16
752.298	25436.03
752.636	25483.93
752.975	25347.21
753.313	25170.72
753.651	25306.99
753.989	25109.48
754.327	25133.89
754.666	24997.39
755.004	25070.39
755.342	25132.76
755.679	24971.63
756.017	24810.73
756.355	25050.05
756.693	24880.79
757.031	24883.27
757.368	24751.75
757.706	24689.61
758.044	24494.58
758.381	24750.85
758.719	24480.57
759.056	24363.29
759.394	24304.08
759.731	24199.67
760.068	24309.28
760.405	24164.65
760.743	24071.54
761.08	24263.85
761.417	23928.27
761.754	23839.46
762.091	23705.45
762.428	23778.89
762.765	23593.59
763.102	23659.8
763.438	23580.48
763.775	23479.02
764.112	23502.52
764.449	23453.03
764.785	23208.74
765.122	23243.09
765.458	23132.81
765.795	23164
766.131	23112.7
766.467	22955.87
766.804	22854.17
767.14	22788.19
767.476	22792.25
767.812	22603.78
768.148	22667.96
768.485	22494.86
768.821	22468.42
769.157	22359.72
769.492	22323.57
769.828	22335.32
770.164	22147.07
770.5	22102.33
770.836	22069.79
771.171	21910.02
771.507	21826.18
771.842	21677.03
772.178	21730.81
772.513	21674.77
772.849	21578.73
773.184	21533.76
773.519	21464.38
773.855	21307.1
774.19	21222.58
774.525	21185.74
774.86	21141.45
775.195	21057.84
775.53	21025.29
775.865	20883.83
776.2	20793.21
776.535	20611.75
776.87	20651.07
777.205	20610.62
777.539	20530.62
777.874	20496.27
778.209	20303.73
778.543	20171.76
778.878	20111.42
779.212	20221.7
779.547	19990.07
779.881	20074.81
780.215	19908.26
780.55	19890.86
780.884	19808.38
781.218	19704.2
781.552	19738.77
781.886	19635.27
782.22	19512.34
782.554	19422.85
782.888	19292.46
783.222	19280.26
783.556	19137.21
783.889	19113.93
784.223	18958
784.557	18979.25
784.89	19009.3
785.224	18838.46
785.557	18799.82
785.891	18690.89
786.224	18646.83
786.558	18670.78
786.891	18505.13
787.224	18436.44
787.557	18390.11
787.891	18315.99
788.224	18306.95
788.557	18185.37
788.89	18272.6
789.223	18179.27
789.556	18010.01
789.888	18000.74
790.221	17899.28
790.554	17793.06
790.887	17782.44
791.219	17708.32
791.552	17724.14
791.884	17552.62
792.217	17593.75
792.549	17543.13
792.882	17351.72
793.214	17389.46
793.546	17304.71
793.879	17216.36
794.211	17122.12
794.543	17247.09
794.875	17018.17
795.207	17066.3
795.539	17013.42
795.871	16980.2
796.203	16891.17
796.535	16742.7
796.867	16734.79
797.198	16708.8
797.53	16568.24
797.862	16593.32
798.193	16579.76
798.525	16460.67
798.856	16495.02
799.188	16316.49
799.519	16140.68
799.85	16130.73
800.182	16218.87
800.513	16075.82
800.844	16008.25
801.175	16114.46
801.506	15978.42
801.837	15956.28
802.168	15856.84
802.499	15912.89
802.83	15753.57
803.161	15722.38
803.491	15704.98
803.822	15739.56
804.153	15670.86
804.483	15476.29
804.814	15521.71
805.145	15356.74
805.475	15447.36
805.805	15398.78
806.136	15290.53
806.466	15407.59
806.796	15255.95
807.126	15152.91
807.457	15122.17
807.787	15149.52
808.117	15099.12
808.447	14994.72
808.777	15027.94
809.107	14887.15
809.436	14867.72
809.766	14929.18
810.096	14839.02
810.426	14821.39
810.755	14804.44
811.085	14683.77
811.414	14810.32
811.744	14639.47
812.073	14633.15
812.403	14571.68
812.732	14516.54
813.061	14370.1
813.39	14349.54
813.719	14284.68
814.049	14413.94
814.378	14360.39
814.707	14320.16
815.036	14236.09
815.365	14189.77
815.693	14107.51
816.022	14098.47
816.351	14123.33
816.68	14052.37
817.008	14059.83
817.337	13856.9
817.665	13858.7
817.994	13913.62
818.322	13894.41
818.651	13848.31
818.979	13788.42
819.307	13804.69
819.636	13737.35
819.964	13682.66
820.292	13743.23
820.62	13732.15
820.948	13613.06
821.276	13662.32
821.604	13570.58
821.932	13655.32
822.259	13623.23
822.587	13584.36
822.915	13623.23
823.243	13672.95
823.57	13482.89
823.898	13591.82
824.225	13489.9
824.553	13599.73
824.88	13639.5
825.207	13521.54
825.535	13505.49
825.862	13568.32
826.189	13510.92
826.516	13587.98
826.843	13575.77
827.17	13571.93
827.497	13519.05
827.824	13626.85
828.151	13590.01
828.478	13556.11
828.805	13630.91
829.131	13444.25
829.458	13541.42
829.785	13413.97
830.111	13483.8
830.438	13601.76
830.764	13543.23
831.09	13539.62
831.417	13513.63
831.743	13551.82
832.069	13497.58
832.395	13432.27
832.722	13529.22
833.048	13410.81
833.374	13493.06
833.7	13385.04
834.026	13322.67
834.351	13403.8
834.677	13433.4
835.003	13387.53
835.329	13335.55
835.654	13277.25
835.98	13242.45
836.306	13324.48
836.631	13290.58
836.956	13267.76
837.282	13268.44
837.607	13177.14
837.932	13173.3
838.258	13144.6
838.583	13104.15
838.908	13074.77
839.233	13039.06
839.558	13065.28
839.883	12963.13
840.208	12968.11
840.533	12988.67
840.858	13021.44
841.182	12929.24
841.507	12949.8
841.832	12814.44
842.156	12807.88
842.481	12840.2
842.805	12803.82
843.13	12849.24
843.454	12772.63
843.778	12699.86
844.103	12658.96
844.427	12602.47
844.751	12661.67
845.075	12567.21
845.399	12617.83
845.723	12582.35
846.047	12545.07
846.371	12482.92
846.695	12423.94
847.019	12328.12
847.343	12322.25
847.666	12195.47
847.99	12101.69
848.313	12156.83
848.637	12021.69
848.96	12049.26
849.284	12045.87
849.607	11954.12
849.931	11872.77
850.254	11884.97
850.577	11748.93
850.9	11712.09
851.223	11647.01
851.546	11653.56
851.869	11545.09
852.192	11642.04
852.515	11541.7
852.838	11443.85
853.161	11487.01
853.483	11369.73
853.806	11303.74
854.129	11343.74
854.451	11280.24
854.774	11193.91
855.096	11220.35
855.419	11179.23
855.741	11169.06
856.063	11049.06
856.385	11049.29
856.708	11079.57
857.03	11012.68
857.352	10989.4
857.674	10983.98
857.996	10928.16
858.318	10790.31
858.64	10933.81
858.961	10836.41
859.283	10747.15
859.605	10721.16
859.926	10751.21
860.248	10659.47
860.57	10621.27
860.891	10691.56
861.212	10577.66
861.534	10542.86
861.855	10524.78
862.176	10584.89
862.498	10579.69
862.819	10537.89
863.14	10501.28
863.461	10466.25
863.782	10341.73
864.103	10421.05
864.424	10390.77
864.745	10377.66
865.065	10351.23
865.386	10308.51
865.707	10218.35
866.027	10284.79
866.348	10299.47
866.668	10284.56
866.989	10256.99
867.309	10164.56
867.63	10141.96
867.95	10176.31
868.27	10162.3
868.59	10108.75
868.91	10084.11
869.23	10117.11
869.55	10069.42
869.87	10155.52
870.19	10106.71
870.51	10105.36
870.83	10088.18
871.15	9923.89
871.469	10041.18
871.789	10038.69
872.109	10025.58
872.428	9922.31
872.748	9906.26
873.067	9899.26
873.386	9932.7
873.706	9886.38
874.025	9860.16
874.344	9862.42
874.663	9862.88
874.982	9811.35
875.301	9754.63
875.62	9764.35
875.939	9767.74
876.258	9755.99
876.577	9741.07
876.896	9790.79
877.214	9718.47
877.533	9722.31
877.852	9688.64
878.17	9628.31
878.489	9632.15
878.807	9661.75
879.125	9655.2
879.444	9595.54
879.762	9619.49
880.08	9516.67
880.398	9469.89
880.716	9515.09
881.034	9495.43
881.352	9456.11
881.67	9449.1
881.988	9499.27
882.306	9481.42
882.624	9364.58
882.941	9420.85
883.259	9382.66
883.577	9281.65
883.894	9308.54
884.212	9355.09
884.529	9215.66
884.846	9221.76
885.164	9257.69
885.481	9251.82
885.798	9252.27
886.115	9115.78
886.432	9163.46
886.75	9152.84
887.067	9116.68
887.383	9046.85
887.7	9114.2
888.017	9051.37
888.334	9030.36
888.651	8970.02
888.967	8974.76
889.284	8973.18
889.6	8907.65
889.917	8749.69
890.233	8860.87
890.55	8796.69
890.866	8796.69
891.182	8777.03
891.498	8788.78
891.815	8740.42
892.131	8671.5
892.447	8659.97
892.763	8629.91
893.079	8636.92
893.395	8663.81
893.71	8604.38
894.026	8569.12
894.342	8542.01
894.657	8516.02
894.973	8481.67
895.289	8513.31
895.604	8431.28
895.92	8413.42
896.235	8376.36
896.55	8354.44
896.865	8305.18
897.181	8284.61
897.496	8310.37
897.811	8210.26
898.126	8231.28
898.441	8177.5
898.756	8174.79
899.071	8093.43
899.386	8123.94
899.7	7984.06
900.015	8000.33
900.33	7936.6
900.644	7977.28
900.959	7945.86
901.273	7953.77
901.588	7917.16
901.902	7818.18
902.216	7766.66
902.531	7811.86
902.845	7737.06
903.159	7759.65
903.473	7629.49
903.787	7688.02
904.101	7667
904.415	7664.06
904.729	7585.65
905.042	7521.02
905.356	7497.06
905.67	7485.99
905.984	7467.69
906.297	7441.25
906.611	7409.38
906.924	7425.2
907.237	7427.23
907.551	7409.38
907.864	7318.31
908.177	7371.42
908.491	7348.37
908.804	7231.53
909.117	7259.33
909.43	7168.48
909.743	7112.21
910.056	7114.47
910.368	7121.71
910.681	7052.1
910.994	7027.02
911.307	7002.39
911.619	6960.81
911.932	6970.07
912.244	6917.42
912.557	6897.98
912.869	6889.17
913.181	6847.81
913.494	6808.95
913.806	6783.86
914.118	6781.15
914.43	6754.03
914.742	6689.17
915.054	6649.85
915.366	6668.16
915.678	6619.8
915.99	6608.5
916.302	6537.99
916.613	6562.4
916.925	6499.8
917.236	6483.53
917.548	6470.2
917.859	6480.82
918.171	6360.37
918.482	6405.11
918.794	6373.93
919.105	6373.93
919.416	6246.93
919.727	6241.05
920.038	6293.93
920.349	6245.57
920.66	6188.17
920.971	6258
921.282	6188.85
921.593	6124.22
921.903	6062.75
922.214	6065.69
922.525	6077.21
922.835	6051.9
923.146	5965.35
923.456	6011
923.767	5908.63
924.077	5961.06
924.387	5924.67
924.697	5919.25
925.008	5876.54
925.318	5839.71
925.628	5791.57
925.938	5743.89
926.248	5772.36
926.558	5686.04
926.867	5724.91
927.177	5681.97
927.487	5658.92
927.796	5581.41
928.106	5599.03
928.416	5569.2
928.725	5581.18
929.034	5542.09
929.344	5524.23
929.653	5510.67
929.962	5485.36
930.271	5495.99
930.581	5410.34
930.89	5394.75
931.199	5353.84
931.508	5346.38
931.817	5367.85
932.125	5255.77
932.434	5284.01
932.743	5249.21
933.051	5258.48
933.36	5218.48
933.669	5180.29
933.977	5164.92
934.286	5201.53
934.594	5154.75
934.902	5095.09
935.21	5083.79
935.519	5061.65
935.827	5027.98
936.135	4999.28
936.443	5003.57
936.751	4987.52
937.059	4948.2
937.367	4944.36
937.674	4937.36
937.982	4902.55
938.29	4916.11
938.597	4906.17
938.905	4797.47
939.213	4806.51
939.52	4783.24
939.827	4779.85
940.135	4788.89
940.442	4756.57
940.749	4696.68
941.056	4745.72
941.363	4681.09
941.67	4647.19
941.977	4648.1
942.284	4592.73
942.591	4606.97
942.898	4586.86
943.205	4548.67
943.511	4521.1
943.818	4529.01
944.125	4492.4
944.431	4474.32
944.738	4445.39
945.044	4409.01
945.35	4404.71
945.657	4349.35
945.963	4366.52
946.269	4358.16
946.575	4360.42
946.881	4324.72
947.187	4331.95
947.493	4310.25
947.799	4277.49
948.105	4258.28
948.41	4251.72
948.716	4190.94
949.022	4182.12
949.327	4233.42
949.633	4121.56
949.938	4159.52
950.244	4120.88
950.549	4091.95
950.854	4083.59
951.16	4110.71
951.465	4015.57
951.77	4011.28
952.075	3975.35
952.38	4015.8
952.685	3999.75
952.99	3970.38
953.294	3953.43
953.599	3910.94
953.904	3935.57
954.209	3869.14
954.513	3888.34
954.818	3845.63
955.122	3882.92
955.426	3792.53
955.731	3802.92
956.035	3817.84
956.339	3812.87
956.643	3797.27
956.948	3715.02
957.252	3727.44
957.556	3715.47
957.86	3658.29
958.163	3676.15
958.467	3667.11
958.771	3697.61
959.075	3661.91
959.378	3607.67
959.682	3597.05
959.985	3605.64
960.289	3614.45
960.592	3544.17
960.896	3524.96
961.199	3508.47
961.502	3534.68
961.805	3491.52
962.108	3458.3
962.411	3517.73
962.714	3448.36
963.017	3414.91
963.32	3469.37
963.623	3353.22
963.926	3421.69
964.228	3376.04
964.531	3378.98
964.833	3374.91
965.136	3358.41
965.438	3349.83
965.741	3294.46
966.043	3299.88
966.345	3283.61
966.648	3235.71
966.95	3273.9
967.252	3225.54
967.554	3192.32
967.856	3214.01
968.158	3186.22
968.46	3168.59
968.761	3147.8
969.063	3136.73
969.365	3124.07
969.666	3127.01
969.968	3097.18
970.269	3099.66
970.571	3057.86
970.872	3062.6
971.174	3047.46
971.475	3066.67
971.776	3024.86
972.077	3044.07
972.378	3029.38
972.679	2993.9
972.98	2951.42
973.281	2973.34
973.582	2972.21
973.883	2964.98
974.183	2910.97
974.484	2928.82
974.785	2919.56
975.085	2923.4
975.386	2894.47
975.686	2873.23
975.986	2866.45
976.287	2861.25
976.587	2840.69
976.887	2842.72
977.187	2826
977.487	2804.98
977.787	2761.14
978.087	2803.63
978.387	2739.45
978.687	2724.53
978.987	2721.37
979.286	2701.48
979.586	2748.26
979.885	2705.78
980.185	2677.3
980.484	2654.7
980.784	2666.46
981.083	2640.69
981.382	2644.08
981.682	2643.18
981.981	2603.63
982.28	2614.25
982.579	2587.36
982.878	2580.81
983.177	2598.66
983.475	2585.33
983.774	2552.11
984.073	2568.38
984.372	2525.67
984.67	2527.93
984.969	2513.69
985.267	2507.36
985.566	2502.39
985.864	2486.57
986.162	2489.06
986.461	2453.35
986.759	2443.41
987.057	2445.44
987.355	2405.22
987.653	2390.3
987.951	2363.41
988.249	2357.54
988.547	2358.21
988.844	2360.02
989.142	2371.55
989.44	2331.32
989.737	2349.85
990.035	2331.77
990.332	2298.78
990.63	2293.13
990.927	2294.04
991.224	2304.2
991.521	2282.28
991.819	2232.34
992.116	2278.89
992.413	2219.01
992.71	2201.61
993.006	2226.47
993.303	2226.47
993.6	2202.96
993.897	2224.66
994.193	2192.57
994.49	2174.94
994.787	2148.73
995.083	2167.03
995.379	2112.57
995.676	2162.06
995.972	2146.02
996.268	2097.2
996.565	2093.82
996.861	2096.53
997.157	2079.58
997.453	2098.56
997.749	2061.27
998.044	2017.88
998.34	2047.49
998.636	2058.11
998.932	2016.53
999.227	2001.61
999.523	1983.99
999.818	1986.93
1000.114	1980.82
1000.409	1972.69
1000.704	1951.45
1001	1964.55
1001.295	1947.38
1001.59	1909.19
1001.885	1894.95
1002.18	1894.72
1002.475	1879.36
1002.77	1871.9
1003.065	1881.84
1003.359	1918.23
1003.654	1823.09
1003.949	1883.43
1004.243	1834.39
1004.538	1853.6
1004.832	1804.11
1005.127	1817.21
1005.421	1777.44
1005.715	1779.92
1006.009	1770.21
1006.304	1744.67
1006.598	1751.23
1006.892	1743.99
1007.186	1740.15
1007.48	1737.21
1007.773	1758
1008.067	1713.49
1008.361	1699.25
1008.655	1650.66
1008.948	1666.26
1009.242	1682.98
1009.535	1665.13
1009.829	1674.39
1010.122	1631.45
1010.415	1640.27
1010.708	1643.88
1011.001	1596.43
1011.295	1603.21
1011.588	1609.31
1011.881	1572.47
1012.173	1584.22
1012.466	1567.73
1012.759	1546.71
1013.052	1550.33
1013.344	1549.2
1013.637	1560.5
1013.93	1541.51
1014.222	1511.23
1014.514	1534.28
1014.807	1486.37
1015.099	1493.83
1015.391	1487.5
1015.683	1466.03
1015.976	1447.05
1016.268	1438.01
1016.56	1465.13
1016.851	1444.34
1017.143	1454.51
1017.435	1423.78
1017.727	1447.96
1018.018	1423.32
1018.31	1394.62
1018.602	1394.17
1018.893	1363.44
1019.185	1396.43
1019.476	1366.6
1019.767	1355.76
1020.058	1360.95
1020.35	1347.39
1020.641	1324.57
1020.932	1311.01
1021.223	1348.52
1021.514	1292.71
1021.804	1292.25
1022.095	1282.99
1022.386	1268.3
1022.677	1287.73
1022.967	1260.84
1023.258	1284.8
1023.548	1242.54
1023.839	1219.49
1024.129	1243.67
1024.419	1217
1024.709	1225.82
1025	1202.09
1025.29	1181.07
1025.58	1199.38
1025.87	1192.14
1026.16	1176.33
1026.449	1181.97
1026.739	1146.72
1027.029	1161.86
1027.319	1140.85
1027.608	1147.63
1027.898	1131.81
1028.187	1103.33
1028.477	1101.75
1028.766	1140.17
1029.055	1119.83
1029.344	1113.5
1029.634	1091.58
1029.923	1066.5
1030.212	1089.77
1030.501	1078.7
1030.79	1068.98
1031.078	1062.43
1031.367	1064.24
1031.656	1073.95
1031.945	1040.51
1032.233	1057.91
1032.522	1015.65
1032.81	1029.21
1033.099	1025.14
1033.387	1014.52
1033.675	995.09
1033.963	1004.58
1034.251	993.05
1034.54	995.99
1034.828	974.97
1035.116	951.92
1035.403	959.16
1035.691	946.73
1035.979	975.43
1036.267	952.15
1036.554	932.49
1036.842	940.62
1037.129	914.86
1037.417	911.7
1037.704	929.55
1037.992	911.93
1038.279	937.91
1038.566	888.87
1038.853	888.87
1039.14	888.87
