Data from hue_130_FLMS001491_00096.txt Node
Date: Tue Feb 07 16:58:21 GMT 2017
User: dcchb
Spectrometer: FLMS00149
Trigger mode: 0
Integration Time (sec): 2.000000E-2
Scans to average: 10
Electric dark correction enabled: true
Nonlinearity correction enabled: false
Boxcar width: 0
XAxis mode: Wavelengths
Number of Pixels in Spectrum: 2048
>>>>>Begin Spectral Data<<<<<
341.393	-21.55
341.776	-21.55
342.16	-21.55
342.543	-59.74
342.927	-82.79
343.31	-70.14
343.693	-70.59
344.077	-60.2
344.46	-59.07
344.843	-54.77
345.226	-41.21
345.61	-24.26
345.993	-25.62
346.376	-31.04
346.759	-15
347.142	23.64
347.525	67.26
347.908	66.13
348.291	73.13
348.674	105.9
349.057	115.84
349.44	120.36
349.823	138.44
350.206	163.98
350.588	180.48
350.971	198.55
351.354	227.71
351.737	225.9
352.119	238.1
352.502	252.11
352.884	274.03
353.267	303.18
353.65	295.95
354.032	280.59
354.414	292.11
354.797	313.35
355.179	340.02
355.562	310.42
355.944	335.05
356.326	325.56
356.709	316.52
357.091	345.89
357.473	354.71
357.855	346.8
358.238	342.05
358.62	336.86
359.002	331.21
359.384	339.79
359.766	338.44
360.148	325.56
360.53	332.34
360.912	341.15
361.294	316.07
361.676	329.85
362.057	319.45
362.439	334.6
362.821	303.41
363.203	316.97
363.584	354.48
363.966	335.05
364.348	314.94
364.729	324.88
365.111	304.77
365.493	308.61
365.874	333.69
366.256	306.35
366.637	321.04
367.019	317.42
367.4	313.35
367.781	305.9
368.163	289.85
368.544	304.31
368.925	306.57
369.306	333.01
369.688	334.37
370.069	330.08
370.45	309.51
370.831	300.02
371.212	293.01
371.593	302.05
371.974	309.96
372.355	287.82
372.736	327.82
373.117	297.99
373.498	309.51
373.879	289.17
374.26	332.79
374.641	307.48
375.021	315.16
375.402	319.45
375.783	321.94
376.163	322.84
376.544	322.62
376.925	316.74
377.305	317.87
377.686	331.43
378.066	324.2
378.447	326.69
378.827	323.97
379.208	294.6
379.588	320.36
379.968	323.75
380.349	313.13
380.729	346.8
381.109	315.84
381.489	340.47
381.87	340.7
382.25	335.05
382.63	333.01
383.01	319.68
383.39	332.79
383.77	342.73
384.15	326.69
384.53	331.66
384.91	347.48
385.29	353.13
385.67	333.01
386.049	319.68
386.429	370.3
386.809	330.53
387.189	353.58
387.568	335.05
387.948	352.45
388.328	346.8
388.707	331.66
389.087	356.29
389.466	345.89
389.846	366.23
390.225	348.61
390.605	343.64
390.984	372.56
391.363	374.82
391.743	357.42
392.122	375.27
392.501	372.11
392.881	382.5
393.26	379.34
393.639	373.01
394.018	353.35
394.397	368.95
394.776	375.95
395.155	372.11
395.534	362.84
395.913	359.23
396.292	392.45
396.671	388.61
397.05	382.05
397.429	375.27
397.808	379.11
398.186	387.02
398.565	373.24
398.944	365.1
399.323	390.41
399.701	393.13
400.08	373.92
400.458	385.44
400.837	398.1
401.215	381.6
401.594	368.27
401.972	397.19
402.351	403.29
402.729	409.85
403.107	400.13
403.486	405.55
403.864	387.48
404.242	410.75
404.62	401.26
404.999	402.16
405.377	390.64
405.755	411.66
406.133	407.14
406.511	422.5
406.889	424.08
407.267	413.01
407.645	423.63
408.023	436.51
408.401	429.51
408.779	431.99
409.156	434.25
409.534	452.78
409.912	425.21
410.29	451.88
410.667	441.03
411.045	437.42
411.422	434.93
411.8	457.76
412.178	429.51
412.555	453.01
412.933	467.47
413.31	468.83
413.687	452.11
414.065	487.59
414.442	462.73
414.819	458.43
415.197	479.22
415.574	478.09
415.951	487.36
416.328	471.54
416.705	487.36
417.082	458.89
417.46	481.71
417.837	493.69
418.214	523.29
418.591	477.19
418.967	477.64
419.344	497.08
419.721	509.05
420.098	503.86
420.475	511.31
420.852	499.34
421.228	500.02
421.605	515.16
421.982	535.95
422.358	492.33
422.735	530.3
423.111	533.69
423.488	519
423.864	545.89
424.241	535.95
424.617	540.92
424.994	546.57
425.37	532.33
425.746	545.21
426.123	540.01
426.499	569.62
426.875	540.92
427.251	591.76
427.627	563.52
428.003	562.84
428.379	574.82
428.756	576.85
429.132	574.14
429.507	606.68
429.883	598.09
430.259	606.9
430.635	611.88
431.011	593.12
431.387	581.59
431.763	624.08
432.138	641.93
432.514	629.96
432.89	625.21
433.265	633.8
433.641	648.94
434.016	641.48
434.392	669.05
434.767	649.16
435.143	649.16
435.518	651.42
435.894	664.53
436.269	671.31
436.644	659.56
437.02	693
437.395	705.89
437.77	701.14
438.145	700.91
438.52	697.52
438.895	709.28
439.271	686
439.646	698.65
440.021	733.91
440.395	693.23
440.77	738.88
441.145	744.53
441.52	760.12
441.895	752.89
442.27	753.34
442.645	748.37
443.019	763.96
443.394	771.87
443.769	764.19
444.143	751.53
444.518	777.75
444.892	770.06
445.267	746.56
445.641	785.21
446.016	805.77
446.39	786.11
446.764	794.24
447.139	798.09
447.513	811.65
447.887	801.02
448.262	796.5
448.636	806.67
449.01	845.54
449.384	832.66
449.758	846.9
450.132	873.11
450.506	852.55
450.88	844.64
451.254	841.25
451.628	859.55
452.002	892.1
452.376	904.07
452.75	902.49
453.123	887.12
453.497	909.27
453.871	892.32
454.244	947.69
454.618	926.22
454.992	939.55
455.365	939.1
455.739	956.5
456.112	982.04
456.486	969.16
456.859	989.72
457.232	992.21
457.606	1009.61
457.979	1029.49
458.352	1051.64
458.725	1036.72
459.099	1040.79
459.472	1062.26
459.845	1078.53
460.218	1080.56
460.591	1093.22
460.964	1089.15
461.337	1119.89
461.71	1146.33
462.083	1190.17
462.456	1169.6
462.829	1154.91
463.201	1188.36
463.574	1181.35
463.947	1212.09
464.32	1233.33
464.692	1270.16
465.065	1287.34
465.438	1290.5
465.81	1279.66
466.183	1296.6
466.555	1376.83
466.928	1348.13
467.3	1352.65
467.672	1383.61
468.045	1437.39
468.417	1464.28
468.789	1441.91
469.161	1453.66
469.534	1493.66
469.906	1527.33
470.278	1555.81
470.65	1576.82
471.022	1615.24
471.394	1648.23
471.766	1695.69
472.138	1704.05
472.51	1729.36
472.882	1782.69
473.253	1830.15
473.625	1824.73
473.997	1930.26
474.369	1909.7
474.74	1961.9
475.112	1992.41
475.484	2044.16
475.855	2093.42
476.227	2136.13
476.598	2222.68
476.97	2271.95
477.341	2347.88
477.713	2353.3
478.084	2432.39
478.455	2483.92
478.827	2530.02
479.198	2632.84
479.569	2663.12
479.94	2789.45
480.311	2801.88
480.682	2937.47
481.053	2995.77
481.424	3076.44
481.795	3144.24
482.166	3210.45
482.537	3315.08
482.908	3417.9
483.279	3524.12
483.65	3578.8
484.021	3729.08
484.391	3817.22
484.762	3879.59
485.133	3987.16
485.503	4054.27
485.874	4202.74
486.244	4332.46
486.615	4465.33
486.985	4545.78
487.356	4715.05
487.726	4797.3
488.097	4930.41
488.467	4974.7
488.837	5153.23
489.207	5305.31
489.578	5411.52
489.948	5538.53
490.318	5635.47
490.688	5748.01
491.058	5889.7
491.428	6066.2
491.798	6154.56
492.168	6351.16
492.538	6412.63
492.908	6509.8
493.278	6779.4
493.648	6799.96
494.017	6986.85
494.387	7051.03
494.757	7183.68
495.126	7313.17
495.496	7437.69
495.866	7507.74
496.235	7699.6
496.605	7842.19
496.974	7926.26
497.344	8020.27
497.713	8123.77
498.082	8229.53
498.452	8418
498.821	8467.26
499.19	8525.34
499.559	8768.5
499.928	8791.77
500.298	8917.65
500.667	9024.54
501.036	9067.7
501.405	9202.61
501.774	9255.27
502.143	9357.18
502.512	9450.06
502.88	9544.07
503.249	9610.51
503.618	9684.41
503.987	9717.17
504.356	9823.84
504.724	9900.67
505.093	9971.18
505.462	10121.91
505.83	10185.86
506.199	10243.71
506.567	10373.88
506.936	10438.51
507.304	10593.31
507.672	10599.18
508.041	10613.42
508.409	10710.14
508.777	10843.7
509.145	10890.7
509.514	10905.17
509.882	10945.84
510.25	11051.6
510.618	11146.06
510.986	11131.37
511.354	11255.89
511.722	11286.62
512.09	11406.17
512.458	11400.75
512.826	11400.07
513.193	11505.15
513.561	11501.31
513.929	11604.58
514.297	11601.42
514.664	11719.16
515.032	11741.53
515.4	11771.13
515.767	11818.14
516.135	11896.55
516.502	11818.14
516.869	12024.01
517.237	11945.59
517.604	11880.51
517.972	12051.58
518.339	12073.27
518.706	12033.5
519.073	12139.48
519.44	12107.62
519.808	12249.08
520.175	12197.11
520.542	12333.83
520.909	12353.49
521.276	12300.61
521.643	12366.37
522.009	12398.91
522.376	12443.88
522.743	12443.43
523.11	12534.73
523.477	12610.43
523.843	12665.8
524.21	12683.88
524.577	12680.71
524.943	12691.33
525.31	12706.7
525.676	12807.26
526.043	12927.03
526.409	12862.63
526.776	12901.95
527.142	12807.94
527.508	12886.81
527.874	12980.36
528.241	12964.77
528.607	12916.86
528.973	13014.26
529.339	12991.21
529.705	13037.31
530.071	13075.96
530.437	13073.02
530.803	13081.38
531.169	12991.44
531.535	12952.12
531.901	12928.39
532.267	12958.67
532.632	12993.7
532.998	13008.61
533.364	12974.26
533.73	12963.19
534.095	12944.89
534.461	12952.8
534.826	12986.01
535.192	12945.79
535.557	12942.17
535.923	12931.78
536.288	12877.77
536.653	12994.6
537.019	12769.75
537.384	12799.8
537.749	12804.32
538.114	12789.41
538.479	12791.9
538.845	12723.87
539.21	12636.87
539.575	12636.19
539.94	12701.28
540.305	12718.45
540.67	12637.78
541.034	12592.35
541.399	12558.91
541.764	12517.33
542.129	12504.9
542.494	12486.59
542.858	12549.87
543.223	12433.03
543.587	12522.75
543.952	12395.52
544.316	12357.33
544.681	12297.9
545.045	12332.92
545.41	12294.51
545.774	12305.58
546.138	12182.42
546.503	12108.75
546.867	12200.72
547.231	12158.01
547.595	12114.62
547.959	12060.62
548.324	12038.24
548.688	12089.31
549.052	11954.86
549.416	12023.1
549.779	11955.53
550.143	11889.55
550.507	11905.59
550.871	11905.14
551.235	11847.74
551.599	11898.81
551.962	11868.3
552.326	11770.68
552.689	11770.23
553.053	11624.69
553.417	11725.26
553.78	11789.44
554.143	11670.12
554.507	11695.43
554.87	11675.54
555.234	11661.98
555.597	11551.25
555.96	11576.56
556.323	11557.13
556.686	11484.81
557.05	11580.18
557.413	11572.27
557.776	11516
558.139	11516.67
558.502	11576.11
558.865	11461.99
559.228	11551.48
559.59	11522.32
559.953	11510.35
560.316	11626.05
560.679	11533.4
561.041	11485.71
561.404	11535.21
561.767	11569.1
562.129	11474.19
562.492	11613.17
562.854	11544.02
563.217	11548.54
563.579	11513.74
563.941	11601.87
564.304	11552.61
564.666	11616.33
565.028	11511.93
565.39	11574.98
565.753	11631.7
566.115	11670.79
566.477	11668.53
566.839	11596.67
567.201	11640.74
567.563	11581.98
567.925	11678.25
568.287	11677.35
568.648	11632.83
569.01	11652.72
569.372	11781.75
569.734	11630.8
570.095	11768.42
570.457	11765.71
570.819	11809.1
571.18	11780.62
571.542	11743.34
571.903	11748.31
572.265	11820.17
572.626	11808.42
572.987	11766.39
573.349	11815.88
573.71	11769.1
574.071	11848.87
574.432	11818.36
574.794	11862.43
575.155	11856.55
575.516	11845.71
575.877	11883.67
576.238	11895.2
576.599	11866.5
576.96	11969.54
577.32	11864.46
577.681	11947.4
578.042	11873.95
578.403	11935.65
578.763	11906.27
579.124	11896.1
579.485	12014.74
579.845	11925.25
580.206	11893.16
580.566	12010.9
580.927	11925.48
581.287	11932.03
581.648	11948.53
582.008	11959.15
582.368	11966.83
582.728	11915.76
583.089	11830.56
583.449	11959.6
583.809	11892.48
584.169	11855.2
584.529	11831.02
584.889	11937.68
585.249	11926.83
585.609	11803.9
585.969	11906.72
586.329	11818.59
586.688	11862.65
587.048	11787.63
587.408	11701.75
587.768	11783.56
588.127	11737.69
588.487	11767.06
588.846	11833.5
589.206	11701.3
589.565	11708.99
589.925	11769.32
590.284	11765.03
590.643	11691.59
591.003	11702.43
591.362	11731.58
591.721	11725.03
592.08	11756.67
592.44	11720.96
592.799	11683.22
593.158	11783.79
593.517	11745.6
593.876	11712.38
594.235	11667.63
594.593	11679.16
594.952	11674.86
595.311	11589.89
595.67	11646.16
596.029	11738.14
596.387	11641.87
596.746	11615.66
597.104	11562.78
597.463	11617.01
597.822	11746.95
598.18	11614.98
598.538	11622.43
598.897	11762.77
599.255	11524.13
599.613	11725.26
599.972	11629.44
600.33	11678.93
600.688	11592.6
601.046	11689.55
601.404	11700.17
601.762	11603.45
602.12	11683.22
602.478	11681.87
602.836	11685.48
603.194	11576.11
603.552	11621.76
603.91	11557.13
604.268	11607.75
604.625	11583.57
604.983	11697.23
605.341	11576.11
605.698	11578.59
606.056	11705.6
606.413	11598.71
606.771	11666.95
607.128	11607.75
607.485	11618.82
607.843	11657.46
608.2	11706.05
608.557	11729.55
608.914	11627.18
609.272	11746.95
609.629	11706.73
609.986	11789.89
610.343	11660.4
610.7	11737.23
611.057	11708.08
611.414	11817.01
611.771	11809.32
612.127	11790.79
612.484	11772.49
612.841	11831.47
613.198	11756.44
613.554	11802.99
613.911	11804.58
614.267	11813.84
614.624	11812.71
614.98	11739.95
615.337	11809.55
615.693	11961.18
616.05	11874.18
616.406	11961.18
616.762	11866.27
617.118	11818.59
617.475	11891.81
617.831	11933.16
618.187	11882.77
618.543	11974.06
618.899	11919.15
619.255	11927.51
619.611	11917.12
619.967	12042.99
620.323	11983.1
620.678	11931.35
621.034	11934.97
621.39	11842.99
621.746	11837.12
622.101	12030.79
622.457	11940.62
622.812	11991.46
623.168	12003.44
623.523	12036.43
623.879	12001.86
624.234	11890.45
624.589	11980.62
624.945	11990.56
625.3	11990.79
625.655	11954.86
626.01	11919.15
626.365	11935.87
626.72	11915.99
627.075	11933.61
627.43	11960.73
627.785	11891.13
628.14	11981.52
628.495	11922.09
628.85	11940.84
629.205	11877.12
629.559	11957.34
629.914	11906.95
630.269	11850
630.623	11898.59
630.978	11839.38
631.332	11892.94
631.687	11912.37
632.041	11795.76
632.396	11847.51
632.75	11746.5
633.104	11788.53
633.459	11762.32
633.813	11725.26
634.167	11742.66
634.521	11741.08
634.875	11776.78
635.229	11770.45
635.583	11689.1
635.937	11702.21
636.291	11706.05
636.645	11727.06
636.999	11641.64
637.352	11679.61
637.706	11615.88
638.06	11682.77
638.413	11647.07
638.767	11612.94
639.121	11544.92
639.474	11508.09
639.828	11500.4
640.181	11586.73
640.534	11560.74
640.888	11471.25
641.241	11442.1
641.594	11421.99
641.947	11569.55
642.301	11478.94
642.654	11488.88
643.007	11494.98
643.36	11487.52
643.713	11435.09
644.066	11478.71
644.419	11458.15
644.771	11285.49
645.124	11320.07
645.477	11243.01
645.83	11255.21
646.182	11091.6
646.535	11121.66
646.888	11136.8
647.24	11098.61
647.593	11172.95
647.945	11113.97
648.298	11066.97
648.65	11069.23
649.002	11040.53
649.355	11056.35
649.707	11094.54
650.059	11162.33
650.411	11188.32
650.763	11263.35
651.115	11343.8
651.467	11320.3
651.819	11313.97
652.171	11328.43
652.523	11328.88
652.875	11255.66
653.227	11200.52
653.578	11344.7
653.93	11306.51
654.282	11280.75
654.633	11326.17
654.985	11360.29
655.337	11279.84
655.688	11324.14
656.039	11351.03
656.391	11221.54
656.742	11336.34
657.094	11299.73
657.445	11327.98
657.796	11262.22
658.147	11300.86
658.498	11266.74
658.849	11305.15
659.2	11314.42
659.551	11383.57
659.902	11330.69
660.253	11318.49
660.604	11249.34
660.955	11334.76
661.306	11370.92
661.656	11285.72
662.007	11306.96
662.358	11313.97
662.708	11312.16
663.059	11294.99
663.409	11304.25
663.76	11332.27
664.11	11330.24
664.461	11377.24
664.811	11376.11
665.161	11391.03
665.511	11298.15
665.862	11336.34
666.212	11335.89
666.562	11428.77
666.912	11366.4
667.262	11361.2
667.612	11341.31
667.962	11411.59
668.312	11355.55
668.662	11427.86
669.011	11359.62
669.361	11304.25
669.711	11301.99
670.06	11307.64
670.41	11298.83
670.76	11330.01
671.109	11339.96
671.459	11315.55
671.808	11306.74
672.157	11304.7
672.507	11276.45
672.856	11316.45
673.205	11254.76
673.554	11279.17
673.904	11249.34
674.253	11380.86
674.602	11261.77
674.951	11108.78
675.3	11072.84
675.649	11266.96
675.998	11193.07
676.346	11273.97
676.695	11220.41
677.044	11188.1
677.393	11213.41
677.741	11156.68
678.09	11125.05
678.438	11159.85
678.787	11131.6
679.135	11189.68
679.484	11052.51
679.832	11035.11
680.181	10985.62
680.529	11085.95
680.877	11033.52
681.225	11003.02
681.573	11155.1
681.922	10992.62
682.27	10955.79
682.618	11003.47
682.966	10944.49
683.314	10985.16
683.661	10948.55
684.009	10828.56
684.357	10827.65
684.705	10869.69
685.053	10799.18
685.4	10788.78
685.748	10787.65
686.095	10695.45
686.443	10660.65
686.79	10769.35
687.138	10676.92
687.485	10757.82
687.832	10642.57
688.18	10690.26
688.527	10623.14
688.874	10525.97
689.221	10556.02
689.568	10524.61
689.915	10459.08
690.262	10430.6
690.609	10412.07
690.956	10393.77
691.303	10334.78
691.65	10300.89
691.997	10292.75
692.344	10219.99
692.69	10162.81
693.037	10126.65
693.383	10104.28
693.73	10079.42
694.077	10051.4
694.423	9991.74
694.769	9970.27
695.116	10014.57
695.462	9988.58
695.808	9913.1
696.155	10011.4
696.501	9865.87
696.847	9822.93
697.193	9836.04
697.539	9806.21
697.885	9715.14
698.231	9621.36
698.577	9725.08
698.923	9659.77
699.269	9603.73
699.614	9582.71
699.96	9535.94
700.306	9523.51
700.651	9421.81
700.997	9428.82
701.342	9489.16
701.688	9394.24
702.033	9336.17
702.379	9392.44
702.724	9260.91
703.069	9312.66
703.415	9215.27
703.76	9201.03
704.105	9197.64
704.45	9102.73
704.795	9070.41
705.14	9008.04
705.485	9126.68
705.83	8964.65
706.175	9013.69
706.52	9034.93
706.865	8956.52
707.209	8960.13
707.554	8947.02
707.899	8937.76
708.243	8892.34
708.588	8842.17
708.932	8693.47
709.277	8757.2
709.621	8768.5
709.966	8669.07
710.31	8702.06
710.654	8654.6
710.998	8628.39
711.342	8715.84
711.687	8648.5
712.031	8554.27
712.375	8589.07
712.719	8521.05
713.063	8539.35
713.407	8534.38
713.75	8535.51
714.094	8569.18
714.438	8428.62
714.782	8403.99
715.125	8410.77
715.469	8392.24
715.812	8346.81
716.156	8349.98
716.499	8347.49
716.843	8305.23
717.186	8312.92
717.53	8273.6
717.873	8314.72
718.216	8296.19
718.559	8283.54
718.902	8304.56
719.246	8241.28
719.589	8201.73
719.932	8218.68
720.275	8185.91
720.617	8188.17
720.96	8199.47
721.303	8262.3
721.646	8182.3
721.989	8130.77
722.331	8207.61
722.674	8130.55
723.016	8129.19
723.359	8115.63
723.701	8143.66
724.044	8161.06
724.386	8085.58
724.729	8111.79
725.071	8119.25
725.413	8127.61
725.755	8125.35
726.097	8045.81
726.439	8005.35
726.782	8022.08
727.124	8039.48
727.465	8005.58
727.807	8068.18
728.149	8072.47
728.491	8007.61
728.833	8031.34
729.175	8013.26
729.516	8038.12
729.858	7964.9
730.199	8098.46
730.541	8014.39
730.882	8019.37
731.224	8019.14
731.565	7946.6
731.906	8011.23
732.248	8010.78
732.589	7968.75
732.93	7960.84
733.271	7960.84
733.612	7987.28
733.953	7976.88
734.294	7984.11
734.635	7961.29
734.976	8024.79
735.317	7988.41
735.658	7959.93
735.999	8032.92
736.339	7992.7
736.68	7983.43
737.021	7947.95
737.361	7959.03
737.702	8022.53
738.042	7975.07
738.383	8004.9
738.723	7989.54
739.063	8047.16
739.404	8032.7
739.744	8022.08
740.084	8066.14
740.424	8051.45
740.764	8043.32
741.104	8088.29
741.444	8083.54
741.784	8084.45
742.124	8062.75
742.464	8178.68
742.804	8187.95
743.143	8120.83
743.483	8138.91
743.823	8128.74
744.162	8194.95
744.502	8239.7
744.841	8270.66
745.181	8280.6
745.52	8279.47
745.86	8305.46
746.199	8381.62
746.538	8447.38
746.877	8546.36
747.216	8578.22
747.556	8541.16
747.895	8565.79
748.234	8646.02
748.573	8716.52
748.911	8737.76
749.25	8731.89
749.589	8839.68
749.928	8912.45
750.267	8980.92
750.605	8992.45
750.944	9094.37
751.283	9155.83
751.621	9297.3
751.96	9304.53
752.298	9395.83
752.636	9491.42
752.975	9519.21
753.313	9630.85
753.651	9797.4
753.989	9813.67
754.327	9941.8
754.666	10007.79
755.004	10139.99
755.342	10338.17
755.679	10482.8
756.017	10533.88
756.355	10736.13
756.693	10783.81
757.031	10938.61
757.368	10997.82
757.706	11191.03
758.044	11270.13
758.381	11527.07
758.719	11558.48
759.056	11768.87
759.394	11942.65
759.731	11913.73
760.068	12176.54
760.405	12382.87
760.743	12506.25
761.08	12663.09
761.417	12768.17
761.754	12967.26
762.091	13143.75
762.428	13218.1
762.765	13313.46
763.102	13606.79
763.438	13752.55
763.775	13786.45
764.112	13988.7
764.449	14235.7
764.785	14309.14
765.122	14423.94
765.458	14460.78
765.795	14716.36
766.131	14846.08
766.467	15003.14
766.804	15163.13
767.14	15180.99
767.476	15445.38
767.812	15501.43
768.148	15691.71
768.485	15710.46
768.821	15772.83
769.157	15878.82
769.492	16117.68
769.828	16189.55
770.164	16126.5
770.5	16305.7
770.836	16426.83
771.171	16509.99
771.507	16625.01
771.842	16623.66
772.178	16790.21
772.513	16841.05
772.849	16951.79
773.184	16936.42
773.519	17154.72
773.855	17006.93
774.19	17154.49
774.525	17260.03
774.86	17351.55
775.195	17384.54
775.53	17457.54
775.865	17452.34
776.2	17464.09
776.535	17434.03
776.87	17410.98
777.205	17547.48
777.539	17538.89
777.874	17719.22
778.209	17495.95
778.543	17679.68
778.878	17633.12
779.212	17663.41
779.547	17650.98
779.881	17778.88
780.215	17593.12
780.55	17794.48
780.884	17677.64
781.218	17726.45
781.552	17778.66
781.886	17681.26
782.22	17690.98
782.554	17745.44
782.888	17625.67
783.222	17658.21
783.556	17564.2
783.889	17659.56
784.223	17549.06
784.557	17478.1
784.89	17660.92
785.224	17501.38
785.557	17520.81
785.891	17480.81
786.224	17531.43
786.558	17576.18
786.891	17464.09
787.224	17454.15
787.557	17472.22
787.891	17355.62
788.224	17379.35
788.557	17460.7
788.89	17436.74
789.223	17439.46
789.556	17357.88
789.888	17305.45
790.221	17221.61
790.554	17168.05
790.887	17220.71
791.219	17048.51
791.552	17056.42
791.884	17055.06
792.217	17082.86
792.549	16944.78
792.882	16910.88
793.214	16858
793.546	16867.49
793.879	16864.78
794.211	16736.2
794.543	16832.92
794.875	16700.49
795.207	16898
795.539	16791.11
795.871	16727.84
796.203	16588.63
796.535	16496.2
796.867	16584.56
797.198	16495.98
797.53	16441.52
797.862	16447.39
798.193	16404.68
798.525	16439.71
798.856	16372.37
799.188	16265.93
799.519	16141.86
799.85	16162.65
800.182	16160.85
800.513	16096.44
800.844	16032.94
801.175	16134.18
801.506	16094.18
801.837	16057.12
802.168	15983.45
802.499	15896.45
802.83	15784.58
803.161	15823.91
803.491	15832.49
803.822	15902.1
804.153	15674.53
804.483	15641.54
804.814	15599.05
805.145	15599.73
805.475	15500.52
805.805	15527.19
806.136	15531.71
806.466	15499.62
806.796	15432.28
807.126	15436.8
807.457	15338.49
807.787	15352.51
808.117	15245.16
808.447	15199.06
808.777	15294.88
809.107	15229.12
809.436	15104.38
809.766	15103.02
810.096	15098.28
810.426	15049.46
810.755	15039.29
811.085	15032.29
811.414	15007.66
811.744	14927.21
812.073	14945.28
812.403	14794.78
812.732	14845.63
813.061	14863.71
813.39	14677.72
813.719	14679.3
814.049	14781.45
814.378	14703.26
814.707	14599.08
815.036	14604.05
815.365	14574.45
815.693	14516.82
816.022	14562.02
816.351	14501.91
816.68	14474.34
817.008	14457.16
817.337	14375.81
817.665	14263.72
817.994	14310.95
818.322	14325.41
818.651	14248.35
818.979	14192.08
819.307	14313.44
819.636	14218.75
819.964	14156.61
820.292	14146.66
820.62	14229.15
820.948	14147.79
821.276	14275.7
821.604	14061.24
821.932	14104.18
822.259	14116.83
822.587	14087.68
822.915	14031.64
823.243	14152.31
823.57	14108.24
823.898	14080.9
824.225	14013.11
824.553	14090.39
824.88	14162.25
825.207	14167.9
825.535	14110.96
825.862	14171.29
826.189	14080.9
826.516	14165.64
826.843	14249.26
827.17	14157.51
827.497	14164.06
827.824	14166.77
828.151	14271.86
828.478	14126.78
828.805	14241.12
829.131	14163.38
829.458	14127.23
829.785	14123.16
830.111	14100.11
830.438	14190.05
830.764	14194.57
831.09	14329.03
831.417	14084.52
831.743	14208.58
832.069	14189.37
832.395	13990.73
832.722	14141.69
833.048	14087.23
833.374	14069.83
833.7	14040.22
834.026	14064.86
834.351	14030.05
834.677	14076.16
835.003	14064.4
835.329	14042.48
835.654	14046.33
835.98	13927.91
836.306	13965.65
836.631	13929.04
836.956	13969.27
837.282	13985.54
837.607	13865.77
837.932	13882.49
838.258	13799.55
838.583	13845.65
838.908	13723.4
839.233	13777.63
839.558	13721.36
839.883	13692.21
840.208	13682.27
840.533	13641.59
840.858	13550.52
841.182	13713.23
841.507	13628.94
841.832	13541.93
842.156	13590.97
842.481	13616.05
842.805	13510.07
843.13	13462.61
843.454	13463.52
843.778	13388.26
844.103	13365.21
844.427	13315.72
844.751	13294.48
845.075	13297.19
845.399	13244.54
845.723	13164.09
846.047	13224.43
846.371	13060.14
846.695	13117.76
847.019	12951.89
847.343	12922.97
847.666	12855.4
847.99	12846.81
848.313	12734.72
848.637	12730.88
848.96	12709.19
849.284	12630.77
849.607	12617.66
849.931	12525.01
850.254	12496.31
850.577	12496.99
850.9	12300.38
851.223	12263.32
851.546	12292.02
851.869	12139.94
852.192	12239.82
852.515	12172.48
852.838	12074.4
853.161	12055.19
853.483	12002.31
853.806	11944.23
854.129	11939.94
854.451	11929.32
854.774	11856.1
855.096	11759.83
855.419	11778.36
855.741	11741.75
856.063	11697.01
856.385	11666.95
856.708	11578.14
857.03	11613.4
857.352	11593.96
857.674	11584.7
857.996	11515.54
858.318	11391.93
858.64	11462.89
858.961	11417.92
859.283	11308.54
859.605	11280.75
859.926	11259.28
860.248	11278.94
860.57	11182.67
860.891	11234.87
861.212	11144.93
861.534	11146.97
861.855	11174.31
862.176	11188.55
862.498	11130.92
862.819	11164.82
863.14	11010.25
863.461	11021.77
863.782	10980.42
864.103	11036.01
864.424	10967.54
864.745	10977.48
865.065	10864.49
865.386	10889.57
865.707	10869.01
866.027	10911.27
866.348	10838.27
866.668	10865.62
866.989	10814.09
867.309	10799.86
867.63	10781.55
867.95	10808.22
868.27	10711.27
868.59	10696.13
868.91	10743.14
869.23	10633.08
869.55	10686.87
869.87	10627.88
870.19	10656.13
870.51	10652.06
870.83	10648.67
871.15	10634.66
871.469	10539.3
871.789	10690.03
872.109	10596.92
872.428	10502.01
872.748	10508.57
873.067	10575.23
873.386	10483.03
873.706	10443.71
874.025	10421.34
874.344	10375.24
874.663	10446.19
874.982	10433.54
875.301	10432.64
875.62	10321.9
875.939	10343.15
876.258	10349.47
876.577	10275.58
876.896	10215.24
877.214	10249.14
877.533	10275.35
877.852	10255.01
878.17	10224.96
878.489	10206.43
878.807	10207.78
879.125	10155.35
879.444	10128.69
879.762	10100.21
880.08	10146.54
880.398	10076.49
880.716	10054.11
881.034	10017.5
881.352	10012.08
881.67	10113.32
881.988	10043.94
882.306	9977.96
882.624	9957.62
882.941	9933.21
883.259	9894.34
883.577	9890.95
883.894	9851.41
884.212	9822.93
884.529	9808.7
884.846	9799.88
885.164	9789.71
885.481	9806.44
885.798	9749.94
886.115	9675.14
886.432	9716.72
886.75	9691.41
887.067	9686.21
887.383	9632.88
887.7	9579.78
888.017	9622.04
888.334	9584.52
888.651	9532.77
888.967	9476.95
889.284	9502.72
889.6	9501.36
889.917	9339.78
890.233	9424.75
890.55	9397.41
890.866	9392.21
891.182	9334.81
891.498	9260.24
891.815	9267.47
892.131	9289.39
892.447	9177.98
892.763	9218.43
893.079	9137.53
893.395	9096.4
893.71	9125.33
894.026	9036.29
894.342	9053.91
894.657	8988.61
894.973	8975.95
895.289	8893.69
895.604	8914.48
895.92	8879.68
896.235	8822.28
896.55	8781.38
896.865	8786.8
897.181	8761.94
897.496	8747.26
897.811	8726.01
898.126	8672.68
898.441	8582.06
898.756	8612.12
899.071	8597.43
899.386	8572.35
899.7	8491.67
900.015	8481.05
900.33	8363.76
900.644	8358.11
900.959	8360.37
901.273	8337.32
901.588	8362.41
901.902	8288.28
902.216	8286.03
902.531	8279.92
902.845	8253.26
903.159	8147.5
903.473	8141.4
903.787	8143.2
904.101	8118.35
904.415	8104.79
904.729	8036.09
905.042	7949.31
905.356	8029.31
905.67	7930.55
905.984	7893.72
906.297	7926.71
906.611	7848.97
906.924	7898.24
907.237	7805.59
907.551	7815.53
907.864	7770.56
908.177	7752.25
908.491	7690.33
908.804	7593.61
909.117	7519.94
909.43	7565.14
909.743	7551.58
910.056	7512.71
910.368	7495.99
910.681	7499.61
910.994	7462.09
911.307	7317.24
911.619	7308.65
911.932	7350.68
912.244	7315.43
912.557	7319.72
912.869	7223.23
913.181	7192.04
913.494	7129.45
913.806	7151.37
914.118	7084.47
914.43	7077.7
914.742	7049.9
915.054	6999.05
915.366	7025.72
915.678	6970.81
915.99	6949.79
916.302	6882.9
916.613	6835.89
916.925	6839.06
917.236	6802.9
917.548	6817.82
917.859	6793.86
918.171	6799.51
918.482	6728.55
918.794	6653.07
919.105	6671.38
919.416	6609.23
919.727	6606.75
920.038	6591.83
920.349	6551.16
920.66	6524.04
920.971	6565.17
921.282	6521.55
921.593	6457.82
921.903	6441.78
922.214	6357.71
922.525	6333.31
922.835	6274.55
923.146	6271.84
923.456	6292.41
923.767	6193.65
924.077	6290.37
924.387	6256.47
924.697	6173.31
925.008	6159.98
925.318	6160.43
925.628	6122.92
925.938	6081.79
926.248	6029.59
926.558	6074.11
926.867	6004.28
927.177	6037.5
927.487	5951.85
927.796	5906.65
928.106	5958.85
928.416	5943.49
928.725	5874.11
929.034	5819.2
929.344	5824.17
929.653	5841.57
929.962	5772.42
930.271	5750.5
930.581	5715.47
930.89	5715.02
931.199	5646.55
931.508	5687.45
931.817	5680.44
932.125	5595.02
932.434	5641.57
932.743	5542.37
933.051	5507.79
933.36	5480.45
933.669	5506.44
933.977	5493.78
934.286	5493.78
934.594	5458.75
934.902	5375.59
935.21	5360.45
935.519	5405.42
935.827	5338.53
936.135	5334.92
936.443	5237.29
936.751	5277.29
937.059	5207.01
937.367	5228.25
937.674	5179.89
937.982	5194.81
938.29	5188.93
938.597	5165.66
938.905	5103.96
939.213	5116.39
939.52	5034.59
939.827	5028.48
940.135	5050.4
940.442	5014.7
940.749	5032.1
941.056	5053.57
941.363	4985.77
941.67	4891.31
941.977	4910.52
942.284	4856.74
942.591	4862.16
942.898	4807.25
943.205	4833.69
943.511	4791.88
943.818	4799.79
944.125	4733.35
944.431	4733.12
944.738	4699
945.044	4716.63
945.35	4677.98
945.657	4669.62
945.963	4616.07
946.269	4619
946.575	4594.14
946.881	4567.48
947.187	4572
947.493	4542.17
947.799	4541.72
948.105	4497.88
948.41	4504.43
948.716	4450.65
949.022	4447.03
949.327	4476.86
949.633	4377.88
949.938	4422.4
950.244	4412.23
950.549	4340.37
950.854	4330.65
951.16	4334.72
951.465	4308.05
951.77	4271.44
952.075	4247.49
952.38	4228.96
952.685	4212.01
952.99	4194.38
953.294	4135.85
953.599	4155.51
953.904	4128.17
954.209	4106.02
954.513	4107.83
954.818	4079.81
955.122	4088.62
955.426	4069.19
955.731	4069.64
956.035	4002.97
956.339	4033.71
956.643	3976.53
956.948	3983.09
957.252	3955.07
957.556	3961.39
957.86	3895.63
958.163	3894.28
958.467	3882.75
958.771	3887.72
959.075	3899.93
959.378	3835.07
959.682	3846.37
959.985	3815.41
960.289	3754.39
960.592	3774.05
960.896	3746.26
961.199	3747.84
961.502	3745.35
961.805	3685.02
962.108	3656.54
962.411	3685.47
962.714	3679.14
963.017	3614.51
963.32	3655.86
963.623	3639.59
963.926	3615.64
964.228	3588.3
964.531	3602.31
964.833	3577
965.136	3570.44
965.438	3518.69
965.741	3494.74
966.043	3489.32
966.345	3499.71
966.648	3444.34
966.95	3435.98
967.252	3462.42
967.554	3433.5
967.856	3374.97
968.158	3383.1
968.46	3360.5
968.761	3393.72
969.063	3365.48
969.365	3367.06
969.666	3318.7
969.968	3330.22
970.269	3311.69
970.571	3310.34
970.872	3266.95
971.174	3248.42
971.475	3261.98
971.776	3244.35
972.077	3174.97
972.378	3202.54
972.679	3169.32
972.98	3183.11
973.281	3148.53
973.582	3179.04
973.883	3135.88
974.183	3120.29
974.484	3107.18
974.785	3054.98
975.085	3051.36
975.386	3105.6
975.686	3037.58
975.986	3030.57
976.287	3012.72
976.587	2982.44
976.887	2990.35
977.187	2981.76
977.487	2992.38
977.787	2930.91
978.087	2942.21
978.387	2911.03
978.687	2916.22
978.987	2886.39
979.286	2881.65
979.586	2888.43
979.885	2858.37
980.185	2867.41
980.484	2850.24
980.784	2873.74
981.083	2834.19
981.382	2793.06
981.682	2798.26
981.981	2744.48
982.28	2774.31
982.579	2726.62
982.878	2711.48
983.177	2711.26
983.475	2722.56
983.774	2710.13
984.073	2687.75
984.372	2669
984.67	2674.42
984.969	2666.06
985.267	2657.7
985.566	2631.03
985.864	2588.77
986.162	2610.69
986.461	2591.03
986.759	2617.47
987.057	2545.61
987.355	2571.15
987.653	2576.8
987.951	2525.72
988.249	2506.52
988.547	2531.15
988.844	2524.82
989.142	2509
989.44	2483.47
989.737	2456.12
990.035	2457.25
990.332	2449.12
990.63	2396.24
990.927	2408.21
991.224	2436.46
991.521	2403.92
991.819	2402.11
992.116	2382.68
992.413	2390.36
992.71	2323.47
993.006	2349.46
993.303	2363.02
993.6	2343.81
993.897	2321.21
994.193	2280.99
994.49	2290.93
994.787	2311.27
995.083	2270.14
995.379	2274.21
995.676	2259.06
995.972	2253.19
996.268	2215.9
996.565	2208.9
996.861	2192.4
997.157	2182.68
997.453	2183.59
997.749	2171.16
998.044	2159.41
998.34	2134.32
998.636	2139.52
998.932	2131.38
999.227	2106.07
999.523	2095
999.818	2117.15
1000.114	2060.88
1000.409	2048.9
1000.704	2046.19
1001	2072.18
1001.295	2058.17
1001.59	2050.48
1001.885	2021.56
1002.18	1997.38
1002.475	1961.67
1002.77	1975.46
1003.065	1950.6
1003.359	1971.61
1003.654	1954.44
1003.949	1923.48
1004.243	1943.82
1004.538	1916.02
1004.832	1925.29
1005.127	1927.55
1005.421	1890.94
1005.715	1894.33
1006.009	1911.96
1006.304	1864.05
1006.598	1835.8
1006.892	1819.98
1007.186	1828.57
1007.48	1822.69
1007.773	1803.94
1008.067	1792.64
1008.361	1806.42
1008.655	1764.16
1008.948	1776.82
1009.242	1776.14
1009.535	1731.17
1009.829	1749.02
1010.122	1733.88
1010.415	1718.29
1010.708	1690.94
1011.001	1697.05
1011.295	1664.5
1011.588	1704.28
1011.881	1671.51
1012.173	1668.35
1012.466	1668.35
1012.759	1642.13
1013.052	1632.19
1013.344	1642.13
1013.637	1610.04
1013.93	1591.74
1014.222	1575.69
1014.514	1586.54
1014.807	1566.43
1015.099	1565.98
1015.391	1572.76
1015.683	1565.98
1015.976	1514.45
1016.268	1532.76
1016.56	1506.99
1016.851	1514.23
1017.143	1519.2
1017.435	1474.45
1017.727	1449.82
1018.018	1472.64
1018.31	1453.66
1018.602	1467.67
1018.893	1455.02
1019.185	1442.59
1019.476	1403.27
1019.767	1411.4
1020.058	1402.82
1020.35	1412.53
1020.641	1394.68
1020.932	1365.76
1021.223	1358.07
1021.514	1355.13
1021.804	1351.07
1022.095	1335.47
1022.386	1348.58
1022.677	1314.91
1022.967	1314
1023.258	1310.39
1023.548	1296.6
1023.839	1303.38
1024.129	1285.08
1024.419	1250.96
1024.709	1288.92
1025	1258.87
1025.29	1249.6
1025.58	1248.47
1025.87	1243.5
1026.16	1215.02
1026.449	1230.17
1026.739	1207.34
1027.029	1230.17
1027.319	1179.09
1027.608	1194.69
1027.898	1168.47
1028.187	1189.26
1028.477	1148.36
1028.766	1150.39
1029.055	1152.88
1029.344	1130.51
1029.634	1136.83
1029.923	1146.33
1030.212	1125.54
1030.501	1118.98
1030.79	1097.29
1031.078	1109.49
1031.367	1114.01
1031.656	1070.17
1031.945	1078.08
1032.233	1065.65
1032.522	1079.89
1032.81	1059.1
1033.099	1067.91
1033.387	1036.95
1033.675	1039.89
1033.963	1019.55
1034.251	1037.4
1034.54	1042.37
1034.828	1014.8
1035.116	1010.06
1035.403	1009.83
1035.691	1000.79
1035.979	1018.19
1036.267	994.01
1036.554	967.57
1036.842	988.59
1037.129	951.98
1037.417	972.32
1037.704	948.14
1037.992	958.08
1038.279	925.77
1038.566	941.81
1038.853	941.81
1039.14	941.81
