Data from hue_330_FLMS001491_90.txt Node
Date: Mon Feb 06 15:46:03 GMT 2017
User: dcchb
Spectrometer: FLMS00149
Trigger mode: 0
Integration Time (sec): 2.000000E-2
Scans to average: 10
Electric dark correction enabled: true
Nonlinearity correction enabled: false
Boxcar width: 0
XAxis mode: Wavelengths
Number of Pixels in Spectrum: 2048
>>>>>Begin Spectral Data<<<<<
341.393	0.56
341.776	0.56
342.16	0.56
342.543	-89.15
342.927	-90.28
343.31	-68.81
343.693	-71.3
344.077	-74.24
344.46	-57.96
344.843	-41.02
345.226	-24.07
345.61	-35.59
345.993	-28.36
346.376	7.34
346.759	12.09
347.142	-6.89
347.525	55.03
347.908	65.2
348.291	100.22
348.674	78.75
349.057	89.6
349.44	119.66
349.823	148.58
350.206	163.95
350.588	205.53
350.971	221.58
351.354	216.15
351.737	221.35
352.119	256.83
352.502	259.09
352.884	300.9
353.267	283.72
353.65	290.5
354.032	280.33
354.414	298.64
354.797	293.89
355.179	313.78
355.562	325.98
355.944	305.64
356.326	333.21
356.709	319.43
357.091	309.26
357.473	339.31
357.855	343.83
358.238	363.49
358.62	344.51
359.002	344.74
359.384	324.17
359.766	326.88
360.148	331.63
360.53	358.75
360.912	337.05
361.294	320.33
361.676	346.77
362.057	330.5
362.439	316.94
362.821	320.33
363.203	309.71
363.584	348.35
363.966	320.1
364.348	333.44
364.729	289.6
365.111	338.18
365.493	317.17
365.874	326.43
366.256	319.43
366.637	320.78
367.019	311.97
367.4	303.16
367.781	311.29
368.163	303.16
368.544	301.8
368.925	297.51
369.306	302.48
369.688	288.69
370.069	303.83
370.45	301.57
370.831	302.48
371.212	314.23
371.593	312.65
371.974	309.71
372.355	294.79
372.736	309.26
373.117	314
373.498	317.17
373.879	330.27
374.26	329.6
374.641	300.22
375.021	303.16
375.402	297.73
375.783	305.87
376.163	312.2
376.544	320.1
376.925	323.49
377.305	339.99
377.686	329.6
378.066	355.13
378.447	309.03
378.827	319.43
379.208	316.04
379.588	347
379.968	321.91
380.349	318.97
380.729	332.08
381.109	324.62
381.489	319.65
381.87	321.01
382.25	334.12
382.63	323.72
383.01	308.81
383.39	342.93
383.77	324.62
384.15	356.26
384.53	356.49
384.91	335.92
385.29	332.99
385.67	341.8
386.049	338.86
386.429	334.79
386.809	332.76
387.189	320.1
387.568	354
387.948	348.8
388.328	347.22
388.707	361.23
389.087	336.6
389.466	364.17
389.846	338.18
390.225	374.79
390.605	361.01
390.984	364.17
391.363	384.96
391.743	379.31
392.122	364.17
392.501	363.27
392.881	389.03
393.26	387.67
393.639	355.81
394.018	382.02
394.397	400.1
394.776	370.95
395.155	375.92
395.534	372.08
395.913	396.49
396.292	376.6
396.671	382.25
397.05	378.63
397.429	392.19
397.808	374.79
398.186	384.06
398.565	402.36
398.944	404.85
399.323	401.01
399.701	389.26
400.08	405.53
400.458	403.04
400.837	391.29
401.215	412.31
401.594	390.84
401.972	413.21
402.351	412.31
402.729	425.86
403.107	411.85
403.486	419.99
403.864	401.68
404.242	411.85
404.62	431.29
404.999	443.94
405.377	440.33
405.755	444.4
406.133	462.93
406.511	427.45
406.889	445.3
407.267	462.02
407.645	461.12
408.023	444.17
408.401	460.67
408.779	465.19
409.156	472.42
409.534	468.58
409.912	469.48
410.29	481
410.667	463.15
411.045	487.78
411.422	489.37
411.8	527.78
412.178	496.37
412.555	506.54
412.933	520.1
413.31	510.38
413.687	533.66
414.065	526.43
414.442	526.43
414.819	551.96
415.197	526.88
415.574	558.06
415.951	568.69
416.328	589.93
416.705	592.87
417.082	574.34
417.46	597.16
417.837	603.03
418.214	600.32
418.591	609.59
418.967	614.11
419.344	598.97
419.721	631.96
420.098	628.12
420.475	618.18
420.852	634.45
421.228	653.88
421.605	648.01
421.982	648.01
422.358	666.99
422.735	660.89
423.111	664.95
423.488	668.8
423.864	692.3
424.241	697.72
424.617	703.37
424.994	703.6
425.37	709.7
425.746	702.69
426.123	728.23
426.499	726.42
426.875	746.31
427.251	758.96
427.627	762.35
428.003	774.78
428.379	749.7
428.756	777.49
429.132	763.03
429.507	781.34
429.883	800.77
430.259	822.01
430.635	793.09
431.011	804.61
431.387	819.53
431.763	870.37
432.138	856.59
432.514	862.01
432.89	864.27
433.265	892.52
433.641	901.78
434.016	908.11
434.392	917.6
434.767	912.41
435.143	934.78
435.518	945.4
435.894	960.09
436.269	950.37
436.644	954.66
437.02	956.92
437.395	983.82
437.77	982.01
438.145	996.24
438.52	1002.12
438.895	1011.84
439.271	1005.74
439.646	1028.79
440.021	1044.83
440.395	1023.14
440.77	1018.62
441.145	1042.35
441.52	1046.87
441.895	1068.33
442.27	1077.82
442.645	1064.04
443.019	1090.71
443.394	1075.11
443.769	1120.99
444.143	1092.97
444.518	1113.3
444.892	1102
445.267	1104.49
445.641	1108.56
446.016	1154.43
446.39	1135.22
446.764	1129.57
447.139	1131.61
447.513	1150.14
447.887	1142.91
448.262	1138.84
448.636	1138.61
449.01	1153.53
449.384	1173.87
449.758	1203.7
450.132	1185.39
450.506	1168.44
450.88	1172.29
451.254	1183.81
451.628	1212.06
452.002	1230.59
452.376	1232.4
452.75	1229.46
453.123	1231.95
453.497	1272.85
453.871	1256.13
454.244	1247.76
454.618	1278.05
454.992	1282.79
455.365	1303.13
455.739	1325.5
456.112	1328.89
456.486	1344.48
456.859	1346.97
457.232	1359.17
457.606	1379.51
457.979	1353.07
458.352	1375.9
458.725	1362.11
459.099	1400.3
459.472	1428.78
459.845	1429.68
460.218	1450.7
460.591	1425.61
460.964	1467.65
461.337	1472.39
461.71	1502.45
462.083	1526.17
462.456	1506.29
462.829	1514.2
463.201	1513.52
463.574	1548.55
463.947	1573.18
464.32	1578.6
464.692	1585.61
465.065	1611.37
465.438	1621.99
465.81	1671.48
466.183	1673.74
466.555	1658.15
466.928	1676.45
467.3	1682.33
467.672	1718.71
468.045	1776.34
468.417	1748.32
468.789	1727.75
469.161	1763.46
469.534	1814.08
469.906	1804.59
470.278	1826.05
470.65	1860.63
471.022	1883.23
471.394	1886.39
471.766	1902.44
472.138	1957.58
472.51	1971.81
472.882	1995.31
473.253	2024.47
473.625	2008.42
473.997	2098.81
474.369	2070.79
474.74	2099.27
475.112	2113.28
475.484	2144.92
475.855	2195.99
476.227	2186.95
476.598	2243.9
476.97	2278.25
477.341	2297
477.713	2326.83
478.084	2351.92
478.455	2380.16
478.827	2364.57
479.198	2449.99
479.569	2438.01
479.94	2536.09
480.311	2527.96
480.682	2556.66
481.053	2631
481.424	2614.51
481.795	2654.28
482.166	2706.26
482.537	2705.58
482.908	2737.44
483.279	2809.76
483.65	2835.07
484.021	2875.29
484.391	2880.26
484.762	2928.17
485.133	2967.49
485.503	2964.1
485.874	3056.76
486.244	3065.12
486.615	3103.08
486.985	3166.58
487.356	3175.4
487.726	3210.65
488.097	3311.21
488.467	3249.29
488.837	3316.18
489.207	3358.44
489.578	3405.22
489.948	3438.44
490.318	3477.54
490.688	3503.3
491.058	3534.71
491.428	3570.87
491.798	3624.42
492.168	3672.56
492.538	3668.04
492.908	3682.95
493.278	3741.26
493.648	3801.59
494.017	3788.04
494.387	3815.83
494.757	3839.11
495.126	3854.25
495.496	3939.67
495.866	3917.07
496.235	3917.52
496.605	3977.86
496.974	3961.14
497.344	4012.21
497.713	4037.75
498.082	4047.01
498.452	4112.1
498.821	4111.42
499.19	4108.71
499.559	4155.48
499.928	4181.47
500.298	4198.19
500.667	4223.5
501.036	4203.84
501.405	4284.97
501.774	4247.68
502.143	4310.51
502.512	4295.37
502.88	4377.63
503.249	4371.98
503.618	4399.77
503.987	4405.42
504.356	4427.34
504.724	4404.97
505.093	4423.05
505.462	4493.55
505.83	4483.61
506.199	4534.01
506.567	4560.67
506.936	4564.74
507.304	4573.1
507.672	4633.44
508.041	4618.97
508.409	4605.42
508.777	4663.49
509.145	4693.77
509.514	4707.56
509.882	4693.32
510.25	4660.1
510.618	4777.16
510.986	4745.3
511.354	4766.32
511.722	4816.48
512.09	4858.74
512.458	4845.18
512.826	4863.71
513.193	4904.16
513.561	4919.31
513.929	4915.01
514.297	4903.94
514.664	4953.66
515.032	4967.21
515.4	5003.37
515.767	4977.38
516.135	5018.96
516.502	4979.42
516.869	5057.61
517.237	5119.07
517.604	5046.08
517.972	5084.5
518.339	5082.47
518.706	5153.65
519.073	5147.32
519.44	5182.58
519.808	5222.8
520.175	5201.11
520.542	5260.54
520.909	5240.65
521.276	5188.23
521.643	5261.22
522.009	5313.42
522.376	5357.71
522.743	5359.29
523.11	5411.95
523.477	5421.21
523.843	5427.31
524.21	5435.45
524.577	5528.78
524.943	5536.24
525.31	5572.4
525.676	5571.49
526.043	5652.39
526.409	5639.06
526.776	5707.76
527.142	5704.6
527.508	5759.06
527.874	5753.41
528.241	5827.98
528.607	5828.66
528.973	5865.72
529.339	5839.96
529.705	5928.54
530.071	5886.74
530.437	6004.7
530.803	6003.34
531.169	6016.45
531.535	6013.51
531.901	6027.07
532.267	6095.55
532.632	6046.73
532.998	6157.01
533.364	6152.04
533.73	6184.81
534.095	6218.93
534.461	6225.49
534.826	6303.68
535.192	6336.22
535.557	6316.78
535.923	6375.76
536.288	6355.88
536.653	6407.4
537.019	6420.74
537.384	6409.89
537.749	6449.43
538.114	6513.39
538.479	6516.55
538.845	6546.38
539.21	6540.28
539.575	6596.1
539.94	6620.5
540.305	6634.74
540.67	6606.49
541.034	6703.67
541.399	6764.91
541.764	6738.47
542.129	6741.4
542.494	6823.44
542.858	6764.91
543.223	6809.88
543.587	6852.59
543.952	6841.52
544.316	6916.09
544.681	6980.27
545.045	6965.35
545.41	7013.26
545.774	7004.9
546.138	7058.68
546.503	7055.97
546.867	7110.43
547.231	7180.49
547.595	7098.91
547.959	7194.73
548.324	7186.59
548.688	7189.3
549.052	7270.66
549.416	7236.76
549.779	7280.15
550.143	7315.63
550.507	7312.01
550.871	7447.6
551.235	7333.25
551.599	7415.96
551.962	7434.95
552.326	7487.6
552.689	7495.51
553.053	7500.71
553.417	7534.6
553.78	7684.43
554.143	7520.37
554.507	7593.13
554.87	7594.49
555.234	7662.28
555.597	7639.46
555.96	7665.9
556.323	7729.18
556.686	7711.32
557.05	7802.62
557.413	7838.78
557.776	7749.74
558.139	7851.21
558.502	7841.26
558.865	7955.61
559.228	7974.82
559.59	7983.41
559.953	7955.38
560.316	8033.8
560.679	8014.14
561.041	8103.4
561.404	8115.83
561.767	8100.46
562.129	8115.15
562.492	8153.57
562.854	8246.9
563.217	8223.4
563.579	8231.76
563.941	8328.71
564.304	8352.66
564.666	8387.01
565.028	8340.23
565.39	8315.83
565.753	8476.5
566.115	8444.64
566.477	8488.48
566.839	8546.33
567.201	8567.57
567.563	8563.5
567.925	8630.85
568.287	8648.02
568.648	8645.08
569.01	8776.38
569.372	8755.14
569.734	8782.48
570.095	8828.58
570.457	8862.7
570.819	8806.44
571.18	8857.73
571.542	8970.5
571.903	8973.66
572.265	8999.42
572.626	9139.31
572.987	9145.64
573.349	9241
573.71	9263.82
574.071	9271.06
574.432	9293.2
574.794	9400.54
575.155	9409.36
575.516	9423.82
575.877	9569.8
576.238	9575.68
576.599	9684.38
576.96	9737.48
577.32	9730.25
577.681	9905.16
578.042	9991.26
578.403	10080.53
578.763	10168.66
579.124	10198.26
579.485	10335.21
579.845	10494.07
580.206	10550.34
580.566	10654.75
580.927	10744.69
581.287	10919.6
581.648	10977.45
582.008	11180.38
582.368	11247.73
582.728	11491.34
583.089	11579.24
583.449	11662.86
583.809	11786.47
584.169	12100.36
584.529	12157.53
584.889	12457.41
585.249	12607.92
585.609	12784.86
585.969	13056.94
586.329	13142.59
586.688	13498.29
587.048	13659.64
587.408	13870.03
587.768	14071.38
588.127	14229.12
588.487	14523.35
588.846	14859.84
589.206	14988.42
589.565	15192.26
589.925	15583.21
590.284	15796.99
590.643	15938
591.003	16303.41
591.362	16594.93
591.721	16832.44
592.08	17056.61
592.44	17417.06
592.799	17731.17
593.158	17936.14
593.517	18173.87
593.876	18579.06
594.235	18784.48
594.593	19117.35
594.952	19399.38
595.311	19602.76
595.67	19937.44
596.029	20350.54
596.387	20524.32
596.746	20906.23
597.104	21111.65
597.463	21302.83
597.822	21835.47
598.18	21841.12
598.538	22176.48
598.897	22538.73
599.255	22687.43
599.613	23325.38
599.972	23370.35
600.33	23717.23
600.688	23942.08
601.046	24320.6
601.404	24692.8
601.762	24820.93
602.12	25157.64
602.478	25487.35
602.836	25762.37
603.194	25861.58
603.552	26192.87
603.91	26352.41
604.268	26612.97
604.625	26839.63
604.983	27340.64
605.341	27338.6
605.698	27817.46
606.056	27973.84
606.413	28199.37
606.771	28592.13
607.128	28808.85
607.485	28842.52
607.843	29101.95
608.2	29550.07
608.557	29729.95
608.914	29842.94
609.272	30119.55
609.629	30390.27
609.986	30628.23
610.343	30723.15
610.7	31159.29
611.057	31198.39
611.414	31375.79
611.771	31625.04
612.127	31898.48
612.484	32015.32
612.841	32378.47
613.198	32286.72
613.554	32560.61
613.911	32862.3
614.267	32950.21
614.624	33217.54
614.98	33316.3
615.337	33461.15
615.693	33589.96
616.05	33684.43
616.406	34136.62
616.762	34036.28
617.118	34222.26
617.475	34410.73
617.831	34645.98
618.187	34796.49
618.543	34860.67
618.899	35267.89
619.255	35213.88
619.611	35312.63
619.967	35463.81
620.323	35775.67
620.678	35737.25
621.034	35763.01
621.39	35819.28
621.746	35901.99
622.101	36319.84
622.457	36186.73
622.812	36312.38
623.168	36440.28
623.523	36635.76
623.879	36740.39
624.234	36665.82
624.589	36765.7
624.945	36934.06
625.3	37140.38
625.655	36992.81
626.01	37187.38
626.365	37266.03
626.72	37309.64
627.075	37284.56
627.43	37266.25
627.785	37402.07
628.14	37572.23
628.495	37622.17
628.85	37673.92
629.205	37558
629.559	37726.13
629.914	37563.19
630.269	37710.99
630.623	37602.97
630.978	37757.76
631.332	37986.91
631.687	38021.03
632.041	37996.18
632.396	38034.82
632.75	37906.91
633.104	38131.77
633.459	37871.66
633.813	37839.12
634.167	38022.39
634.521	37894.48
634.875	38110.07
635.229	38084.99
635.583	37855.39
635.937	37929.96
636.291	37877.99
636.645	37923.18
636.999	38007.7
637.352	38183.29
637.706	37902.62
638.06	38160.01
638.413	38022.16
638.767	38021.26
639.121	37968.83
639.474	37930.64
639.828	37851.77
640.181	37951.88
640.534	38021.26
640.888	37866.46
641.241	37677.99
641.594	37933.8
641.947	37998.44
642.301	37972.9
642.654	37955.27
643.007	38005.44
643.36	37854.03
643.713	37892.45
644.066	38021.03
644.419	37786.92
644.771	37683.42
645.124	37261.51
645.477	37188.29
645.83	37033.04
646.182	36814.51
646.535	36773.84
646.888	36856.77
647.24	36781.52
647.593	36863.55
647.945	36751.69
648.298	36751.69
648.65	36638.7
649.002	36617.23
649.355	36731.8
649.707	36652.48
650.059	36793.27
650.411	37162.53
650.763	37303.09
651.115	37712.34
651.467	37501.73
651.819	37579.24
652.171	37513.7
652.523	37418.34
652.875	37286.36
653.227	37209.98
653.578	37470.09
653.93	37393.25
654.282	37134.28
654.633	37249.08
654.985	37308.28
655.337	37288.17
655.688	37292.24
656.039	37434.83
656.391	37018.8
656.742	37128.63
657.094	37151.9
657.445	37317.55
657.796	37308.96
658.147	37146.93
658.498	37211.79
658.849	37212.69
659.2	37233.03
659.551	37031.68
659.902	37136.76
660.253	37096.54
660.604	37188.51
660.955	37039.82
661.306	37365.01
661.656	36949.2
662.007	37049.99
662.358	37121.17
662.708	37055.64
663.059	37135.41
663.409	36848.86
663.76	37118.46
664.11	37174.05
664.461	37064.68
664.811	37184.45
665.161	37116.2
665.511	36944
665.862	36936.32
666.212	37091.79
666.562	37136.54
666.912	37041.4
667.262	37019.25
667.612	37047.5
667.962	36875.3
668.312	36872.59
668.662	37198.23
669.011	37041.17
669.361	37002.53
669.711	36852.03
670.06	36897.67
670.41	36781.07
670.76	36939.03
671.109	36931.12
671.459	36905.58
671.808	36788.3
672.157	37094.28
672.507	36724.8
672.856	36779.94
673.205	36804.34
673.554	36834.62
673.904	36793.04
674.253	36975.19
674.602	36857
674.951	36236.9
675.3	36078.94
675.649	36646.38
675.998	36620.17
676.346	36774.29
676.695	36767.73
677.044	36504.01
677.393	36666.49
677.741	36617
678.09	36667.4
678.438	36358.48
678.787	36517.8
679.135	36547.4
679.484	36354.41
679.832	36406.61
680.181	36227.64
680.529	36373.85
680.877	36278.48
681.225	36160.74
681.573	36338.37
681.922	36160.74
682.27	36057.02
682.618	35994.19
682.966	35877.81
683.314	36176.11
683.661	35895.44
684.009	35842.33
684.357	35834.65
684.705	35662.68
685.053	35655.67
685.4	35774.09
685.748	35459.07
686.095	35348.34
686.443	35353.76
686.79	35323.48
687.138	35319.18
687.485	35339.97
687.832	35274.67
688.18	35281.22
688.527	35028.8
688.874	34936.82
689.221	34903.6
689.568	34921.23
689.915	34843.94
690.262	34811.85
690.609	34718.52
690.956	34589.03
691.303	34601.69
691.65	34429.49
691.997	34368.47
692.344	34174.81
692.69	34232.66
693.037	34216.84
693.383	33969.39
693.73	34094.36
694.077	33928.49
694.423	34026.56
694.769	33877.64
695.116	33740.24
695.462	33753.12
695.808	33612.11
696.155	33588.38
696.501	33410.31
696.847	33368.28
697.193	33187.71
697.539	33258
697.885	33049.87
698.231	33018.45
698.577	32941.85
698.923	32898.01
699.269	32757.67
699.614	32643.1
699.96	32571.46
700.306	32543.89
700.651	32533.04
700.997	32354.52
701.342	32277.91
701.688	32293.73
702.033	32173.28
702.379	32050.8
702.724	31940.52
703.069	31992.72
703.415	31764.25
703.76	31828.65
704.105	31795.89
704.45	31522.45
704.795	31522
705.14	31422.79
705.485	31494.43
705.83	31317.71
706.175	31249.46
706.52	31205.85
706.865	31089.69
707.209	31186.41
707.554	30893.76
707.899	31046.3
708.243	30858.96
708.588	30955.46
708.932	30628.91
709.277	30543.04
709.621	30637.27
709.966	30368.13
710.31	30532.64
710.654	30231.18
710.998	30274.8
711.342	30247.91
711.687	30223.95
712.031	30098.53
712.375	29915.26
712.719	29962.71
713.063	29984.64
713.407	29971.53
713.75	29923.85
714.094	29826.22
714.438	29732.21
714.782	29545.55
715.125	29451.54
715.469	29459
715.812	29475.5
716.156	29110.76
716.499	29397.76
716.843	29314.82
717.186	29247.93
717.53	29306.69
717.873	29395.72
718.216	29268.5
718.559	29113.02
718.902	28979.01
719.246	29039.12
719.589	28793.25
719.932	28854.72
720.275	28797.77
720.617	28753.03
720.96	28724.33
721.303	28645.46
721.646	28755.06
721.989	28462.19
722.331	28607.95
722.674	28503.54
723.016	28412.47
723.359	28315.98
723.701	28364.34
724.044	28286.37
724.386	28111.46
724.729	28284.12
725.071	28232.14
725.413	28231.46
725.755	28230.78
726.097	28069.88
726.439	27951.24
726.782	27894.07
727.124	28026.49
727.465	27869.89
727.807	27806.16
728.149	27771.81
728.491	27618.37
728.833	27756.45
729.175	27626.05
729.516	27588.31
729.858	27594.64
730.199	27563.68
730.541	27492.95
730.882	27407.98
731.224	27472.16
731.565	27256.12
731.906	27373.86
732.248	27324.14
732.589	27238.49
732.93	27105.84
733.271	27152.17
733.612	27145.84
733.953	27104.26
734.294	26925.28
734.635	26898.16
734.976	26993.53
735.317	26854.1
735.658	26838.28
735.999	26870.37
736.339	26837.15
736.68	26851.84
737.021	26633.54
737.361	26636.02
737.702	26654.55
738.042	26710.15
738.383	26604.39
738.723	26594.22
739.063	26502.24
739.404	26534.1
739.744	26464.5
740.084	26357.61
740.424	26316.48
740.764	26299.53
741.104	26463.82
741.444	26303.6
741.784	26150.16
742.124	26174.11
742.464	26168.69
742.804	26106.55
743.143	26007.11
743.483	26059.54
743.823	25930.28
744.162	25977.51
744.502	25898.87
744.841	25840.56
745.181	25826.78
745.52	25857.96
745.86	25719.44
746.199	25806.44
746.538	25767.8
746.877	25753.56
747.216	25713.56
747.556	25628.14
747.895	25731.87
748.234	25466.79
748.573	25623.17
748.911	25437.18
749.25	25440.8
749.589	25312.67
749.928	25409.61
750.267	25248.71
750.605	25251.43
750.944	25277.64
751.283	25190.64
751.621	25191.32
751.96	25064.76
752.298	24974.82
752.636	25176.85
752.975	24904.77
753.313	24792.91
753.651	24844.43
753.989	24725.79
754.327	24742.97
754.666	24568.96
755.004	24701.16
755.342	24697.99
755.679	24585
756.017	24352.24
756.355	24484.67
756.693	24373.71
757.031	24401.05
757.368	24311.56
757.706	24167.84
758.044	24158.12
758.381	24230.21
758.719	23976.88
759.056	24043.1
759.394	24047.62
759.731	23781.63
760.068	23778.24
760.405	23791.8
760.743	23677.23
761.08	23641.07
761.417	23572.6
761.754	23525.37
762.091	23397.46
762.428	23356.79
762.765	23211.71
763.102	23221.65
763.438	23169.9
763.775	23000.41
764.112	23072.95
764.449	22988.21
764.785	22885.16
765.122	22667.54
765.458	22660.31
765.795	22676.8
766.131	22576.69
766.467	22491.72
766.804	22430.48
767.14	22272.75
767.476	22242.01
767.812	22262.8
768.148	22287.66
768.485	22079.53
768.821	21960.44
769.157	22022.81
769.492	21893.55
769.828	21958.86
770.164	21582.14
770.5	21689.26
770.836	21698.53
771.171	21489.27
771.507	21410.85
771.842	21313.22
772.178	21228.71
772.513	21228.26
772.849	21268.25
773.184	21047.02
773.519	20969.73
773.855	20828.27
774.19	20882.05
774.525	20790.53
774.86	20783.75
775.195	20684.99
775.53	20673.69
775.865	20464.21
776.2	20378.11
776.535	20270.99
776.87	20215.17
777.205	20131.11
777.539	20174.72
777.874	20135.85
778.209	19904
778.543	19939.93
778.878	19826.71
779.212	19829.65
779.547	19522.76
779.881	19726.83
780.215	19599.6
780.55	19551.92
780.884	19408.19
781.218	19316.67
781.552	19336.33
781.886	19230.79
782.22	19263.79
782.554	19165.03
782.888	18964.13
783.222	18821.54
783.556	18730.69
783.889	18727.08
784.223	18644.37
784.557	18675.78
784.89	18582.9
785.224	18474.66
785.557	18383.36
785.891	18320.54
786.224	18350.14
786.558	18304.26
786.891	18200.54
787.224	18043.71
787.557	18004.39
787.891	17931.39
788.224	17992.63
788.557	17978.62
788.89	17943.37
789.223	17809.36
789.556	17665.86
789.888	17692.08
790.221	17573.66
790.554	17432.87
790.887	17474.68
791.219	17482.14
791.552	17407.79
791.884	17283.27
792.217	17270.85
792.549	17242.15
792.882	17124.41
793.214	16998.08
793.546	17039.66
793.879	16803.96
794.211	16825.89
794.543	16736.62
794.875	16723.29
795.207	16864.75
795.539	16627.25
795.871	16733.91
796.203	16553.35
796.535	16423.18
796.867	16361.94
797.198	16328.5
797.53	16392
797.862	16222.06
798.193	16243.53
798.525	16117.66
798.856	16162.85
799.188	15953.14
799.519	15906.14
799.85	15861.84
800.182	15875.85
800.513	15913.82
800.844	15748.63
801.175	15833.59
801.506	15824.1
801.837	15676.99
802.168	15656.65
802.499	15588.63
802.83	15463.44
803.161	15452.81
803.491	15427.73
803.822	15434.74
804.153	15354.51
804.483	15258.47
804.814	15187.28
805.145	15160.39
805.475	15109.09
805.805	15033.62
806.136	15011.02
806.466	15098.02
806.796	14982.09
807.126	14832.49
807.457	14865.94
807.787	14785.94
808.117	14800.63
808.447	14830.91
808.777	14721.53
809.107	14688.09
809.436	14688.99
809.766	14742.1
810.096	14573.29
810.426	14565.38
810.755	14509.79
811.085	14510.01
811.414	14498.26
811.744	14307.99
812.073	14330.58
812.403	14238.83
812.732	14215.78
813.061	14213.3
813.39	14118.61
813.719	14196.35
814.049	14142.34
814.378	14070.93
814.707	14022.8
815.036	13996.81
815.365	13987.54
815.693	13782.35
816.022	13900.31
816.351	13806.53
816.68	13734.67
817.008	13759.3
817.337	13621.68
817.665	13625.52
817.994	13653.77
818.322	13611.73
818.651	13592.07
818.979	13546.88
819.307	13593.2
819.636	13618.06
819.964	13411.96
820.292	13504.39
820.62	13571.96
820.948	13350.5
821.276	13490.15
821.604	13337.62
821.932	13386.2
822.259	13436.37
822.587	13402.25
822.915	13293.55
823.243	13343.49
823.57	13369.25
823.898	13396.37
824.225	13272.31
824.553	13307.56
824.88	13304.17
825.207	13409.03
825.535	13279.09
825.862	13387.56
826.189	13262.14
826.516	13350.95
826.843	13400.44
827.17	13351.63
827.497	13362.02
827.824	13366.77
828.151	13341.91
828.478	13409.03
828.805	13367.9
829.131	13261.46
829.458	13299.42
829.785	13310.27
830.111	13278.18
830.438	13272.98
830.764	13368.12
831.09	13305.98
831.417	13205.19
831.743	13328.12
832.069	13268.69
832.395	13191.63
832.722	13195.47
833.048	13232.31
833.374	13180.11
833.7	13166.09
834.026	13191.18
834.351	13154.8
834.677	13150.95
835.003	13190.73
835.329	13121.12
835.654	13136.26
835.98	13055.59
836.306	13152.54
836.631	13017.62
836.956	13008.13
837.282	13023.73
837.607	13034.35
837.932	12964.07
838.258	13038.41
838.583	13004.29
838.908	12920.45
839.233	12982.82
839.558	12874.12
839.883	12774.47
840.208	12829.15
840.533	12699.44
840.858	12814.01
841.182	12781.92
841.507	12770.62
841.832	12649.27
842.156	12617.86
842.481	12637.07
842.805	12676.84
843.13	12562.72
843.454	12571.53
843.778	12506.45
844.103	12409.96
844.427	12481.37
844.751	12479.56
845.075	12483.85
845.399	12335.16
845.723	12365.44
846.047	12320.24
846.371	12253.12
846.695	12175.84
847.019	12132
847.343	12088.61
847.666	12030.08
847.99	12022.85
848.313	11909.86
848.637	11837.09
848.96	11842.51
849.284	11755.96
849.607	11795.96
849.931	11721.16
850.254	11637.1
850.577	11605.46
850.9	11509.19
851.223	11458.57
851.546	11427.61
851.869	11343.09
852.192	11438.46
852.515	11285.24
852.838	11245.02
853.161	11252.92
853.483	11201.63
853.806	11132.02
854.129	11046.6
854.451	11066.71
854.774	11032.59
855.096	10884.8
855.419	10992.37
855.741	10959.15
856.063	10855.65
856.385	10850.9
856.708	10803.67
857.03	10782.65
857.352	10820.85
857.674	10690.91
857.996	10714.18
858.318	10604.35
858.64	10648.87
858.961	10544.02
859.283	10577.46
859.605	10519.38
859.926	10609.78
860.248	10538.14
860.57	10474.19
860.891	10513.06
861.212	10445.04
861.534	10460.85
861.855	10346.73
862.176	10421.76
862.498	10414.75
862.819	10344.25
863.14	10354.19
863.461	10262.22
863.782	10214.76
864.103	10261.54
864.424	10142.22
864.745	10157.59
865.065	10136.8
865.386	10170.92
865.707	10082.33
866.027	10158.94
866.348	10118.72
866.668	10112.84
866.989	10081.2
867.309	9972.05
867.63	10019.06
867.95	10025.39
868.27	9956.24
868.59	9899.97
868.91	9951.72
869.23	10040.98
869.55	9834.2
869.87	9932.51
870.19	9951.94
870.51	9885.5
870.83	9915.33
871.15	9837.37
871.469	9846.18
871.789	9891.38
872.109	9855.9
872.428	9827.2
872.748	9808.67
873.067	9762.79
873.386	9774.32
873.706	9720.54
874.025	9700.42
874.344	9658.62
874.663	9727.31
874.982	9633.76
875.301	9661.55
875.62	9629.69
875.939	9597.83
876.258	9567.32
876.577	9612.06
876.896	9485.51
877.214	9582.91
877.533	9479.64
877.852	9510.6
878.17	9547.43
878.489	9510.6
878.807	9473.54
879.125	9509.69
879.444	9430.15
879.762	9371.84
880.08	9412.97
880.398	9413.42
880.716	9412.97
881.034	9335.23
881.352	9398.06
881.67	9300.89
881.988	9334.1
882.306	9221.57
882.624	9304.05
882.941	9196.71
883.259	9208.01
883.577	9172.53
883.894	9119.42
884.212	9161.45
884.529	9205.52
884.846	9101.79
885.164	9062.02
885.481	9041.23
885.798	9078.07
886.115	8936.83
886.432	8981.35
886.75	8954.68
887.067	8999.88
887.383	8876.94
887.7	8930.27
888.017	8839.43
888.334	8850.28
888.651	8814.12
888.967	8772.76
889.284	8747.45
889.6	8778.41
889.917	8671.75
890.233	8777.51
890.55	8588.59
890.866	8717.85
891.182	8637.85
891.498	8604.86
891.815	8543.84
892.131	8603.05
892.447	8523.73
892.763	8477.18
893.079	8427.69
893.395	8405.77
893.71	8410.97
894.026	8458.65
894.342	8415.48
894.657	8400.57
894.973	8373
895.289	8307.47
895.604	8370.29
895.92	8213.68
896.235	8191.08
896.55	8175.49
896.865	8176.17
897.181	8168.94
897.496	8142.5
897.811	8058.88
898.126	8073.8
898.441	8073.8
898.756	8069.73
899.071	7963.52
899.386	8034.7
899.7	7884.2
900.015	7869.06
900.33	7878.1
900.644	7854.37
900.959	7815.05
901.273	7810.53
901.588	7828.38
901.902	7729.18
902.216	7723.07
902.531	7675.62
902.845	7677.65
903.159	7603.53
903.473	7549.07
903.787	7573.93
904.101	7488.5
904.415	7472.68
904.729	7481.95
905.042	7437.66
905.356	7449.18
905.67	7380.03
905.984	7386.36
906.297	7405.57
906.611	7359.02
906.924	7223.2
907.237	7258.23
907.551	7245.8
907.864	7204.9
908.177	7236.98
908.491	7157.89
908.804	7081.73
909.117	7147.95
909.43	7086.71
909.743	7043.77
910.056	7020.04
910.368	7004.9
910.681	6886.26
910.994	6879.48
911.307	6830.44
911.619	6846.94
911.932	6842.87
912.244	6794.28
912.557	6811.69
912.869	6705.47
913.181	6773.72
913.494	6693.72
913.806	6693.95
914.118	6604.46
914.43	6579.38
914.742	6599.26
915.054	6590
915.366	6494.86
915.678	6540.05
915.99	6510.45
916.302	6456.89
916.613	6428.64
916.925	6444.01
917.236	6450.34
917.548	6375.54
917.859	6340.51
918.171	6313.85
918.482	6267.29
918.794	6243.34
919.105	6261.42
919.416	6199.95
919.727	6180.97
920.038	6151.36
920.349	6138.03
920.66	6111.59
920.971	6077.24
921.282	6063.46
921.593	6010.35
921.903	5964.02
922.214	5981.2
922.525	5966.28
922.835	5925.61
923.146	5899.39
923.456	5877.02
923.767	5863.24
924.077	5842.22
924.387	5834.99
924.697	5770.58
925.008	5760.19
925.318	5710.7
925.628	5710.47
925.938	5718.61
926.248	5688.33
926.558	5661.21
926.867	5631.6
927.177	5551.38
927.487	5553.41
927.796	5446.52
928.106	5547.76
928.416	5485.39
928.725	5486.07
929.034	5401.33
929.344	5450.37
929.653	5413.08
929.962	5402.23
930.271	5320.2
930.581	5316.81
930.89	5293.08
931.199	5252.18
931.508	5223.25
931.817	5256.02
932.125	5227.77
932.434	5172.63
932.743	5226.87
933.051	5129.47
933.36	5118.85
933.669	5062.58
933.977	5068.23
934.286	5048.12
934.594	5025.07
934.902	5023.94
935.21	4972.64
935.519	5007.44
935.827	4957.95
936.135	4994.78
936.443	4907.1
936.751	4849.93
937.059	4886.09
937.367	4880.66
937.674	4800.44
937.982	4826.2
938.29	4789.37
938.597	4831.4
938.905	4752.3
939.213	4688.13
939.52	4733.55
939.827	4687.9
940.135	4670.05
940.442	4635.02
940.749	4634.57
941.056	4609.26
941.363	4553.89
941.67	4547.56
941.977	4505.98
942.284	4529.49
942.591	4534.91
942.898	4459.88
943.205	4466.66
943.511	4525.87
943.818	4439.77
944.125	4376.5
944.431	4390.96
944.738	4369.72
945.044	4351.86
945.35	4339.43
945.657	4329.49
945.963	4273.22
946.269	4301.02
946.575	4275.25
946.881	4271.87
947.187	4260.11
947.493	4203.17
947.799	4212.43
948.105	4189.83
948.41	4130.63
948.716	4164.98
949.022	4144.41
949.327	4130.85
949.633	4062.61
949.938	4089.27
950.244	4051.76
950.549	4062.83
950.854	4046.11
951.16	4032.1
951.465	4001.59
951.77	3966.56
952.075	3950.52
952.38	3948.71
952.685	3908.94
952.99	3931.54
953.294	3889.5
953.599	3856.06
953.904	3845.44
954.209	3870.75
954.513	3839.11
954.818	3770.41
955.122	3778.54
955.426	3772.9
955.731	3727.92
956.035	3739.22
956.339	3754.14
956.643	3701.48
956.948	3703.29
957.252	3677.76
957.556	3682.73
957.86	3641.6
958.163	3641.6
958.467	3599.79
958.771	3600.02
959.075	3588.49
959.378	3573.8
959.682	3537.87
959.985	3514.82
960.289	3529.29
960.592	3529.06
960.896	3472.11
961.199	3514.6
961.502	3467.37
961.805	3432.57
962.108	3449.51
962.411	3404.09
962.714	3378.78
963.017	3382.17
963.32	3415.62
963.623	3388.95
963.926	3346.69
964.228	3357.76
964.531	3320.7
964.833	3292
965.136	3252.91
965.438	3282.06
965.741	3259.24
966.043	3247.03
966.345	3189.18
966.648	3212.01
966.95	3167.49
967.252	3171.56
967.554	3181.95
967.856	3166.13
968.158	3131.78
968.46	3158
968.761	3087.26
969.063	3099.47
969.365	3129.75
969.666	3113.48
969.968	3031.9
970.269	3039.58
970.571	3060.82
970.872	3025.8
971.174	3015.85
971.475	3029.41
971.776	2989.19
972.077	2979.92
972.378	3010.66
972.679	2963.88
972.98	2964.1
973.281	2880.94
973.582	2930.88
973.883	2921.39
974.183	2877.78
974.484	2883.88
974.785	2897.44
975.085	2878
975.386	2861.96
975.686	2849.3
975.986	2840.72
976.287	2813.37
976.587	2791
976.887	2749.87
977.187	2781.96
977.487	2781.06
977.787	2740.83
978.087	2728.18
978.387	2732.47
978.687	2701.51
978.987	2700.61
979.286	2658.8
979.586	2639.37
979.885	2640.72
980.185	2656.09
980.484	2620.61
980.784	2618.58
981.083	2617.67
981.382	2598.24
981.682	2617.9
981.981	2589.88
982.28	2581.29
982.579	2563.66
982.878	2574.51
983.177	2537.67
983.475	2580.61
983.774	2537.45
984.073	2511.01
984.372	2464
984.67	2470.33
984.969	2486.83
985.267	2455.42
985.566	2459.03
985.864	2417.9
986.162	2425.81
986.461	2426.72
986.759	2391.24
987.057	2398.69
987.355	2375.42
987.653	2371.8
987.951	2358.47
988.249	2359.37
988.547	2378.81
988.844	2322.31
989.142	2346.49
989.44	2306.27
989.737	2280.73
990.035	2305.59
990.332	2267.85
990.63	2274.18
990.927	2267.4
991.224	2248.64
991.521	2230.56
991.819	2226.27
992.116	2227.17
992.413	2228.75
992.71	2194.86
993.006	2176.33
993.303	2181.07
993.6	2184.69
993.897	2154.63
994.193	2101.07
994.49	2157.57
994.787	2142.88
995.083	2126.16
995.379	2102.43
995.676	2106.72
995.972	2067.4
996.268	2062.21
996.565	2053.39
996.861	2078.93
997.157	2045.71
997.453	2030.79
997.749	2027.18
998.044	2016.33
998.34	2011.59
998.636	2036.22
998.932	1972.26
999.227	2020.85
999.523	1977.01
999.818	1980.17
1000.114	1925.03
1000.409	1908.99
1000.704	1935.2
1001	1946.95
1001.295	1928.42
1001.59	1897.01
1001.885	1910.8
1002.18	1871.93
1002.475	1840.29
1002.77	1866.05
1003.065	1879.16
1003.359	1828.77
1003.654	1870.8
1003.949	1831.25
1004.243	1812.95
1004.538	1816.79
1004.832	1766.85
1005.127	1781.08
1005.421	1787.64
1005.715	1763.23
1006.009	1745.83
1006.304	1748.32
1006.598	1753.97
1006.892	1703.57
1007.186	1713.51
1007.48	1715.32
1007.773	1700.18
1008.067	1712.16
1008.361	1664.93
1008.655	1666.74
1008.948	1660.18
1009.242	1659.05
1009.535	1622.9
1009.829	1636.68
1010.122	1634.87
1010.415	1597.59
1010.708	1607.08
1011.001	1618.15
1011.295	1590.58
1011.588	1585.16
1011.881	1575.66
1012.173	1548.32
1012.466	1535.21
1012.759	1583.57
1013.052	1538.15
1013.344	1529.11
1013.637	1536.57
1013.93	1487.53
1014.222	1506.97
1014.514	1483.24
1014.807	1502.9
1015.099	1476.91
1015.391	1470.58
1015.683	1444.37
1015.976	1471.94
1016.268	1460.64
1016.56	1424.26
1016.851	1416.35
1017.143	1448.66
1017.435	1400.08
1017.727	1412.51
1018.018	1377.7
1018.31	1375.67
1018.602	1368.66
1018.893	1408.89
1019.185	1342.45
1019.476	1378.61
1019.767	1356.46
1020.058	1315.56
1020.35	1330.47
1020.641	1322.79
1020.932	1311.04
1021.223	1261.32
1021.514	1275.56
1021.804	1295.67
1022.095	1264.71
1022.386	1263.58
1022.677	1244.6
1022.967	1249.35
1023.258	1226.52
1023.548	1222.23
1023.839	1232.62
1024.129	1235.33
1024.419	1199.86
1024.709	1193.08
1025	1202.12
1025.29	1190.36
1025.58	1169.8
1025.87	1188.56
1026.16	1147.43
1026.449	1163.47
1026.739	1162.57
1027.029	1142.23
1027.319	1155.11
1027.608	1111.72
1027.898	1110.59
1028.187	1109.46
1028.477	1116.47
1028.766	1126.86
1029.055	1083.25
1029.344	1097.26
1029.634	1091.84
1029.923	1068.11
1030.212	1077.37
1030.501	1059.52
1030.79	1052.29
1031.078	1038.73
1031.367	1059.07
1031.656	1042.57
1031.945	1037.83
1032.233	1000.99
1032.522	1026.3
1032.81	1028.56
1033.099	1001.67
1033.387	1021.56
1033.675	1003.48
1033.963	981.78
1034.251	976.13
1034.54	979.3
1034.828	988.56
1035.116	985.17
1035.403	968
1035.691	941.56
1035.979	938.85
1036.267	939.3
1036.554	926.42
1036.842	927.09
1037.129	942.69
1037.417	945.17
1037.704	925.96
1037.992	905.85
1038.279	901.56
1038.566	898.17
1038.853	898.17
1039.14	898.17
