Data from hue_24_FLMS001491_00012.txt Node
Date: Tue Feb 07 17:11:50 GMT 2017
User: dcchb
Spectrometer: FLMS00149
Trigger mode: 0
Integration Time (sec): 2.000000E-2
Scans to average: 10
Electric dark correction enabled: true
Nonlinearity correction enabled: false
Boxcar width: 0
XAxis mode: Wavelengths
Number of Pixels in Spectrum: 2048
>>>>>Begin Spectral Data<<<<<
341.393	-11.74
341.776	-11.74
342.16	-11.74
342.543	-68.23
342.927	-63.26
343.31	-80.66
343.693	-80.21
344.077	-54.45
344.46	-59.42
344.843	-52.41
345.226	-30.49
345.61	-36.14
345.993	1.82
346.376	19.9
346.759	0.47
347.142	33.69
347.525	33.91
347.908	75.94
348.291	60.58
348.674	93.35
349.057	74.14
349.44	138.09
349.823	131.54
350.206	141.48
350.588	193.46
350.971	225.54
351.354	242.72
351.737	270.29
352.119	257.86
352.502	265.54
352.884	275.26
353.267	282.27
353.65	292.44
354.032	298.09
354.414	291.08
354.797	317.97
355.179	340.8
355.562	316.16
355.944	328.59
356.326	340.8
356.709	347.35
357.091	354.13
357.473	348.03
357.855	340.57
358.238	343.73
358.62	333.56
359.002	338.31
359.384	347.12
359.766	351.64
360.148	361.13
360.53	332.89
360.912	336.05
361.294	335.37
361.676	343.06
362.057	328.37
362.439	319.78
362.821	349.16
363.203	332.43
363.584	306.22
363.966	334.24
364.348	325.2
364.729	320.46
365.111	335.82
365.493	318.88
365.874	332.21
366.256	321.81
366.637	326.79
367.019	337.18
367.4	306.9
367.781	323.85
368.163	331.3
368.544	303.06
368.925	315.71
369.306	320.68
369.688	314.13
370.069	300.35
370.45	317.75
370.831	325.66
371.212	309.38
371.593	317.75
371.974	336.28
372.355	333.11
372.736	327.69
373.117	328.82
373.498	319.33
373.879	306.9
374.26	317.29
374.641	321.36
375.021	334.69
375.402	334.47
375.783	326.79
376.163	324.75
376.544	339.89
376.925	350.97
377.305	317.29
377.686	323.4
378.066	322.04
378.447	331.3
378.827	340.57
379.208	358.2
379.588	319.1
379.968	341.7
380.349	341.02
380.729	349.16
381.109	311.87
381.489	360.46
381.87	350.97
382.25	342.15
382.63	343.28
383.01	355.94
383.39	359.1
383.77	355.71
384.15	352.1
384.53	351.19
384.91	339.89
385.29	368.14
385.67	349.16
386.049	359.1
386.429	366.56
386.809	330.85
387.189	350.29
387.568	365.65
387.948	371.98
388.328	377.63
388.707	374.24
389.087	365.88
389.466	369.72
389.846	370.17
390.225	362.49
390.605	381.02
390.984	381.47
391.363	388.25
391.743	368.14
392.122	385.31
392.501	394.35
392.881	378.08
393.26	405.43
393.639	390.74
394.018	384.41
394.397	382.15
394.776	406.11
395.155	408.82
395.534	382.15
395.913	371.98
396.292	376.5
396.671	418.31
397.05	421.25
397.429	401.13
397.808	415.6
398.186	397.29
398.565	408.36
398.944	397.29
399.323	424.41
399.701	435.71
400.08	421.02
400.458	397.97
400.837	413.79
401.215	428.93
401.594	425.09
401.972	424.86
402.351	429.83
402.729	410.62
403.107	410.4
403.486	407.69
403.864	415.37
404.242	416.05
404.62	442.71
404.999	424.86
405.377	457.4
405.755	464.86
406.133	444.3
406.511	439.78
406.889	463.73
407.267	453.11
407.645	441.13
408.023	473.45
408.401	469.83
408.779	461.24
409.156	468.02
409.534	468.02
409.912	465.09
410.29	483.84
410.667	473.22
411.045	465.99
411.422	467.8
411.8	494.01
412.178	493.79
412.555	473
412.933	506.89
413.31	495.82
413.687	494.24
414.065	510.74
414.442	492.2
414.819	521.13
415.197	529.04
415.574	505.99
415.951	511.19
416.328	515.03
416.705	550.06
417.082	538.08
417.46	542.37
417.837	548.7
418.214	533.56
418.591	526.1
418.967	533.11
419.344	547.8
419.721	567.46
420.098	555.48
420.475	560.68
420.852	574.24
421.228	558.87
421.605	590.96
421.982	565.87
422.358	573.33
422.735	569.94
423.111	582.82
423.488	584.63
423.864	588.7
424.241	598.42
424.617	597.51
424.994	597.74
425.37	588.25
425.746	587.8
426.123	607.46
426.499	614.24
426.875	617.4
427.251	618.53
427.627	625.31
428.003	657.85
428.379	650.62
428.756	632.54
429.132	647.23
429.507	662.37
429.883	664.4
430.259	656.49
430.635	633.67
431.011	694.01
431.387	669.6
431.763	696.94
432.138	691.75
432.514	698.53
432.89	684.97
433.265	734.46
433.641	708.92
434.016	739.2
434.392	717.06
434.767	742.82
435.143	756.38
435.518	756.38
435.894	773.55
436.269	781.69
436.644	755.7
437.02	775.59
437.395	774.01
437.77	803.61
438.145	801.57
438.52	818.75
438.895	798.86
439.271	785.3
439.646	808.58
440.021	796.38
440.395	832.53
440.77	823.5
441.145	818.3
441.52	857.62
441.895	809.48
442.27	842.93
442.645	866.66
443.019	878.64
443.394	840.22
443.769	853.78
444.143	869.14
444.518	869.14
444.892	894.23
445.267	907.79
445.641	903.95
446.016	912.53
446.39	910.5
446.764	879.54
447.139	899.65
447.513	906.2
447.887	923.61
448.262	905.98
448.636	918.63
449.01	939.2
449.384	935.36
449.758	943.94
450.132	959.99
450.506	956.6
450.88	994.79
451.254	992.53
451.628	987.56
452.002	1000.44
452.376	992.08
452.75	980.78
453.123	999.99
453.497	1033.43
453.871	1049.03
454.244	1031.63
454.618	1041.79
454.992	1074.34
455.365	1073.21
455.739	1110.72
456.112	1104.84
456.486	1079.31
456.859	1108.91
457.232	1186.65
457.606	1134.45
457.979	1162.02
458.352	1177.84
458.725	1177.84
459.099	1178.97
459.472	1209.02
459.845	1223.26
460.218	1227.78
460.591	1245.63
460.964	1257.38
461.337	1289.02
461.71	1308.23
462.083	1313.43
462.456	1288.57
462.829	1306.42
463.201	1336.02
463.574	1356.36
463.947	1377.38
464.32	1395.46
464.692	1396.36
465.065	1380.77
465.438	1406.98
465.81	1437.72
466.183	1459.64
466.555	1522.46
466.928	1497.83
467.3	1521.56
467.672	1520.88
468.045	1556.36
468.417	1557.49
468.789	1560.65
469.161	1578.5
469.534	1650.37
469.906	1673.42
470.278	1658.28
470.65	1679.52
471.022	1709.8
471.394	1749.12
471.766	1777.14
472.138	1795.67
472.51	1826.18
472.882	1848.78
473.253	1865.05
473.625	1911.6
473.997	1930.13
474.369	1966.74
474.74	1947.76
475.112	2001.32
475.484	2058.27
475.855	2101.88
476.227	2098.72
476.598	2181.43
476.97	2220.07
477.341	2230.46
477.713	2293.97
478.084	2323.34
478.455	2372.61
478.827	2373.06
479.198	2461.19
479.569	2464.58
479.94	2533.28
480.311	2597.46
480.682	2645.14
481.053	2722.88
481.424	2777.57
481.795	2757.91
482.166	2842.88
482.537	2857.34
482.908	2969.88
483.279	3007.17
483.65	3003.55
484.021	3105.47
484.391	3147.28
484.762	3221.85
485.133	3206.48
485.503	3279.25
485.874	3350.43
486.244	3358.8
486.615	3457.78
486.985	3451.22
487.356	3581.84
487.726	3620.03
488.097	3691.44
488.467	3730.31
488.837	3826.58
489.207	3841.04
489.578	3869.97
489.948	3981.15
490.318	4015.5
490.688	4008.27
491.058	4135.05
491.428	4148.83
491.798	4231.54
492.168	4300.92
492.538	4359.22
492.908	4381.82
493.278	4421.82
493.648	4422.04
494.017	4527.13
494.387	4597.41
494.757	4614.58
495.126	4678.31
495.496	4711.08
495.866	4733.9
496.235	4803.73
496.605	4847.12
496.974	4915.14
497.344	4933.67
497.713	4963.05
498.082	4996.04
498.452	5046.66
498.821	5076.94
499.19	5102.03
499.559	5157.39
499.928	5212.08
500.298	5261.34
500.667	5273.77
501.036	5305.41
501.405	5351.06
501.774	5342.25
502.143	5422.92
502.512	5490.27
502.88	5504.95
503.249	5492.07
503.618	5547.21
503.987	5543.82
504.356	5604.61
504.724	5637.38
505.093	5650.04
505.462	5704.95
505.83	5733.87
506.199	5756.25
506.567	5861.55
506.936	5802.8
507.304	5912.85
507.672	5878.73
508.041	5892.29
508.409	5961.21
508.777	5997.82
509.145	6039.4
509.514	6062.91
509.882	6088.67
510.25	6055.45
510.618	6160.3
510.986	6182.9
511.354	6198.72
511.722	6255.67
512.09	6325.27
512.458	6327.98
512.826	6357.14
513.193	6412.5
513.561	6342.45
513.929	6417.7
514.297	6448.21
514.664	6496.34
515.032	6515.78
515.4	6501.76
515.767	6578.37
516.135	6597.81
516.502	6546.73
516.869	6684.81
517.237	6654.53
517.604	6682.78
517.972	6746.96
518.339	6748.99
518.706	6743.11
519.073	6834.41
519.44	6864.01
519.808	6891.58
520.175	6967.51
520.542	6923.67
520.909	6974.07
521.276	7048.87
521.643	7105.36
522.009	7123.89
522.376	7128.41
522.743	7266.94
523.11	7307.39
523.477	7312.14
523.843	7333.83
524.21	7415.19
524.577	7481.17
524.943	7467.61
525.31	7517.33
525.676	7539.7
526.043	7553.04
526.409	7640.04
526.776	7737.89
527.142	7724.78
527.508	7736.99
527.874	7775.4
528.241	7854.5
528.607	7872.8
528.973	7935.4
529.339	7985.34
529.705	8134.49
530.071	8105.34
530.437	8057.66
530.803	8220.59
531.169	8194.15
531.535	8194.83
531.901	8197.31
532.267	8219.23
532.632	8269.63
532.998	8363.64
533.364	8388.04
533.73	8435.72
534.095	8489.73
534.461	8496.74
534.826	8586.68
535.192	8616.28
535.557	8583.52
535.923	8661.03
536.288	8633.91
536.653	8734.93
537.019	8720.69
537.384	8822.61
537.749	8835.94
538.114	8873.91
538.479	8821.03
538.845	8877.29
539.21	8927.46
539.575	8938.31
539.94	8950.97
540.305	9071.19
540.67	9040
541.034	9080.91
541.399	9079.32
541.764	9131.3
542.129	9171.75
542.494	9191.86
542.858	9244.97
543.223	9310.96
543.587	9336.72
543.952	9341.92
544.316	9369.71
544.681	9403.16
545.045	9516.6
545.41	9505.98
545.774	9580.55
546.138	9540.55
546.503	9605.86
546.867	9623.94
547.231	9667.33
547.595	9690.83
547.959	9669.36
548.324	9719.08
548.688	9762.47
549.052	9857.61
549.416	9852.86
549.779	9886.76
550.143	9912.52
550.507	10002.46
550.871	10037.94
551.235	9963.14
551.599	10109.35
551.962	10096.25
552.326	10094.66
552.689	10216.24
553.053	10164.49
553.417	10157.71
553.78	10347.99
554.143	10305.73
554.507	10311.61
554.87	10353.19
555.234	10456.91
555.597	10320.65
555.96	10528.78
556.323	10454.65
556.686	10518.38
557.05	10586.63
557.413	10561.09
557.776	10638.83
558.139	10665.72
558.502	10694.87
558.865	10687.42
559.228	10792.5
559.59	10810.8
559.953	10823.23
560.316	10958.82
560.679	10918.82
561.041	10961.53
561.404	11069.78
561.767	11081.98
562.129	11060.29
562.492	11189.55
562.854	11153.39
563.217	11151.59
563.579	11195.65
563.941	11354.97
564.304	11310.45
564.666	11419.6
565.028	11399.49
565.39	11463.89
565.753	11600.84
566.115	11534.17
566.477	11572.14
566.839	11627.51
567.201	11699.82
567.563	11679.03
567.925	11773.49
568.287	11737.56
568.648	11827.95
569.01	11963.54
569.372	11961.51
569.734	11985.69
570.095	12043.77
570.457	12079.24
570.819	12087.38
571.18	12146.14
571.542	12217.77
571.903	12201.28
572.265	12247.6
572.626	12401.27
572.987	12394.49
573.349	12504.32
573.71	12603.52
574.071	12666.8
574.432	12669.74
574.794	12716.06
575.155	12801.71
575.516	12788.15
575.877	12976.4
576.238	13005.55
576.599	13074.7
576.96	13123.06
577.32	13098.65
577.681	13375.03
578.042	13339.55
578.403	13486.89
578.763	13652.08
579.124	13720.11
579.485	13812.76
579.845	13955.35
580.206	13979.99
580.566	14114.45
580.927	14288.23
581.287	14409.58
581.648	14477.15
582.008	14695.45
582.368	14789.23
582.728	14981.32
583.089	15136.57
583.449	15216.79
583.809	15404.35
584.169	15645.7
584.529	15873.04
584.889	16027.39
585.249	16148.74
585.609	16242.07
585.969	16632.8
586.329	16762.51
586.688	16887.25
587.048	17282.72
587.408	17416.05
587.768	17706.22
588.127	17863.95
588.487	18170.16
588.846	18547.1
589.206	18544.84
589.565	18876.13
589.925	19159.74
590.284	19410.58
590.643	19749.33
591.003	20028.41
591.362	20324.9
591.721	20501.17
592.08	20883.31
592.44	21250.98
592.799	21550.41
593.158	21650.07
593.517	22075.14
593.876	22303.38
594.235	22573.88
594.593	22890.94
594.952	23302.45
595.311	23599.39
595.67	23868.77
596.029	24264.69
596.387	24498.58
596.746	24896.76
597.104	25091.11
597.463	25386.47
597.822	25766.79
598.18	25964.3
598.538	26259.21
598.897	26703.49
599.255	26773.55
599.613	27434.55
599.972	27528.56
600.33	27906.17
600.688	28162.66
601.046	28506.16
601.404	28862.31
601.762	29140.49
602.12	29686.92
602.478	29739.35
602.836	30103.86
603.194	30254.59
603.552	30641.24
603.91	30801.92
604.268	31278.97
604.625	31347.66
604.983	31661.33
605.341	31849.35
605.698	32269
606.056	32574.98
606.413	32763.9
606.771	33190.33
607.128	33368.85
607.485	33516.2
607.843	33842.51
608.2	34143.75
608.557	34459.67
608.914	34602.04
609.272	35043.84
609.629	35298.75
609.986	35544.62
610.343	35560.89
610.7	36021.89
611.057	36152.74
611.414	36256.46
611.771	36564.25
612.127	36956.56
612.484	36963.56
612.841	37272.93
613.198	37456.66
613.554	37479.93
613.911	37810.77
614.267	38090.99
614.624	38165.11
614.98	38365.33
615.337	38740.01
615.693	38813
616.05	38953.79
616.406	39284.18
616.762	39302.26
617.118	39381.8
617.475	39681.46
617.831	40110.37
618.187	40046.87
618.543	40343.36
618.899	40490.02
619.255	40564.37
619.611	40624.03
619.967	40982.67
620.323	41033.29
620.678	40984.7
621.034	41098.37
621.39	41276.89
621.746	41417.68
622.101	41807.5
622.457	41382.43
622.812	41720.05
623.168	41799.59
623.523	41965.69
623.879	42134.05
624.234	42088.4
624.589	42318.22
624.945	42373.59
625.3	42512.34
625.655	42477.09
626.01	42622.4
626.365	42651.77
626.72	42691.77
627.075	42774.93
627.43	42907.81
627.785	42762.28
628.14	42934.7
628.495	43013.12
628.85	43140.57
629.205	43117.07
629.559	43203.4
629.914	43083.63
630.269	43200.91
630.623	43255.83
630.978	43207.69
631.332	43530.85
631.687	43450.17
632.041	43252.21
632.396	43560.45
632.75	43323.62
633.104	43502.15
633.459	43275.94
633.813	43267.35
634.167	43521.81
634.521	43421.7
634.875	43624.4
635.229	43680.45
635.583	43388.7
635.937	43586.44
636.291	43453.79
636.645	43475.93
636.999	43327.91
637.352	43622.82
637.706	43417.63
638.06	43532.2
638.413	43487.68
638.767	43479.32
639.121	43453.33
639.474	43298.76
639.828	43369.95
640.181	43416.05
640.534	43499.89
640.888	43351.19
641.241	43200.91
641.594	43306.22
641.947	43473.45
642.301	43209.95
642.654	43398.2
643.007	43481.36
643.36	43346.22
643.713	43432.54
644.066	43500.11
644.419	43159.56
644.771	43016.74
645.124	42613.13
645.477	42632.11
645.83	42434.15
646.182	42253.37
646.535	42253.14
646.888	42242.29
647.24	42027.38
647.593	42412.91
647.945	42120.71
648.298	42002.53
648.65	41920.49
649.002	42068.06
649.355	42106.25
649.707	42047.95
650.059	42211.33
650.411	42678.44
650.763	42711.89
651.115	43096.51
651.467	42926.34
651.819	43063.51
652.171	42780.81
652.523	42849.06
652.875	42753.47
653.227	42760.47
653.578	42943.07
653.93	42695.84
654.282	42713.69
654.633	42665.78
654.985	42845.89
655.337	42696.07
655.688	42822.84
656.039	42984.19
656.391	42742.17
656.742	42701.04
657.094	42717.76
657.445	42698.1
657.796	42646.58
658.147	42624.43
658.498	42620.36
658.849	42668.04
659.2	42559.12
659.551	42501.95
659.902	42728.61
660.253	42628.05
660.604	42760.02
660.955	42481.61
661.306	42661.94
661.656	42705.11
662.007	42644.09
662.358	42604.32
662.708	42626.24
663.059	42641.6
663.409	42345.79
663.76	42672.79
664.11	42493.81
664.461	42563.19
664.811	42574.49
665.161	42428.5
665.511	42459.24
665.862	42409.07
666.212	42622.62
666.562	42660.36
666.912	42440.25
667.262	42454.04
667.612	42463.98
667.962	42556.86
668.312	42441.84
668.662	42672.56
669.011	42562.06
669.361	42444.32
669.711	42459.24
670.06	42367.49
670.41	42453.81
670.76	42280.71
671.109	42515.05
671.459	42323.42
671.808	42197.77
672.157	42430.99
672.507	42136.99
672.856	42091.79
673.205	42233.93
673.554	42361.84
673.904	42160.04
674.253	42466.69
674.602	42249.3
674.951	41669.43
675.3	41520.5
675.649	42096.99
675.998	42049.08
676.346	42079.59
676.695	42253.14
677.044	41920.49
677.393	42134.5
677.741	42060.15
678.09	41844.34
678.438	41848.86
678.787	41993.71
679.135	42118.91
679.484	41784.9
679.832	41896.77
680.181	41647.51
680.529	41798.92
680.877	41768.86
681.225	41540.39
681.573	41805.02
681.922	41501.3
682.27	41468.3
682.618	41436.89
682.966	41402.09
683.314	41383.78
683.661	41250.45
684.009	41066.05
684.357	40965.04
684.705	41081.19
685.053	41119.16
685.4	40836.91
685.748	40749
686.095	40856.79
686.443	40663.35
686.79	40540.19
687.138	40736.34
687.485	40712.39
687.832	40475.79
688.18	40675.55
688.527	40327.99
688.874	40328.9
689.221	40343.59
689.568	40281.89
689.915	40098.17
690.262	40203.93
690.609	40008.23
690.956	39843.03
691.303	39839.19
691.65	39530.5
691.997	39779.99
692.344	39406.66
692.69	39212.32
693.037	39250.73
693.383	39015.03
693.73	39184.75
694.077	39020.91
694.423	38935.49
694.769	38853
695.116	38836.73
695.462	38699.79
695.808	38687.58
696.155	38703.86
696.501	38573.46
696.847	38517.65
697.193	38154.04
697.539	38287.59
697.885	38107.49
698.231	37927.38
698.577	38082.4
698.923	37980.94
699.269	37696.2
699.614	37535.52
699.96	37526.26
700.306	37555.64
700.651	37361.74
700.997	37331.24
701.342	37315.64
701.688	37351.12
702.033	37046.72
702.379	36934.64
702.724	36887.86
703.069	36945.26
703.415	36487.64
703.76	36696.45
704.105	36786.17
704.45	36642.67
704.795	36364.48
705.14	36256.46
705.485	36186.41
705.83	36007.88
706.175	36198.84
706.52	36004.49
706.865	35937.37
707.209	35993.19
707.554	35614.9
707.899	35823.25
708.243	35444.73
708.588	35531.06
708.932	35172.42
709.277	35330.84
709.621	35457.39
709.966	34838.87
710.31	35134.91
710.654	34890.17
710.998	34993.44
711.342	34921.36
711.687	34848.36
712.031	34637.75
712.375	34609.95
712.719	34600.69
713.063	34504.19
713.407	34660.35
713.75	34440.92
714.094	34317.08
714.438	34386.91
714.782	34306.91
715.125	34085.45
715.469	34048.61
715.812	33954.15
716.156	33906.69
716.499	33820.14
716.843	33884.32
717.186	33749.64
717.53	33922.29
717.873	33826.24
718.216	33746.92
718.559	33507.38
718.902	33438
719.246	33399.14
719.589	33358.23
719.932	33223.1
720.275	33300.38
720.617	33226.49
720.96	33158.69
721.303	33209.31
721.646	33073.49
721.989	32928.41
722.331	33067.85
722.674	32907.4
723.016	32774.52
723.359	32827.85
723.701	32813.39
724.044	32615.88
724.386	32481.65
724.729	32588.76
725.071	32603
725.413	32486.17
725.755	32428.54
726.097	32242.78
726.439	32125.72
726.782	32075.33
727.124	32264.48
727.465	32116.46
727.807	31933.86
728.149	31994.88
728.491	32049.57
728.833	32020.64
729.175	31984.94
729.516	31889.12
729.858	31959.4
730.199	31949.23
730.541	31782
730.882	31703.59
731.224	31822.91
731.565	31647.54
731.906	31535.46
732.248	31644.83
732.589	31405.97
732.93	31397.15
733.271	31385.63
733.612	31423.37
733.953	31426.76
734.294	31200.78
734.635	31203.71
734.976	31309.25
735.317	31173.88
735.658	31155.13
735.999	31031.51
736.339	31012.98
736.68	31044.17
737.021	30932.08
737.361	30775.93
737.702	31012.08
738.042	30871.97
738.383	30694.35
738.723	30714.01
739.063	30679.21
739.404	30785.65
739.744	30533
740.084	30470.4
740.424	30647.34
740.764	30456.84
741.104	30588.36
741.444	30461.36
741.784	30366.22
742.124	30414.13
742.464	30203.06
742.804	30307.24
743.143	30194.7
743.483	30241.25
743.823	29999.68
744.162	30109.73
744.502	30068.38
744.841	29937.08
745.181	30091.88
745.52	29966.23
745.86	29829.51
746.199	29839.91
746.538	29825.9
746.877	29907.48
747.216	29927.59
747.556	29716.29
747.895	29766.01
748.234	29612.12
748.573	29588.39
748.911	29543.42
749.25	29544.77
749.589	29495.96
749.928	29505.45
750.267	29487.83
750.605	29426.36
750.944	29363.54
751.283	29320.15
751.621	29322.63
751.96	29124.9
752.298	29213.03
752.636	29227.04
752.975	29068.18
753.313	29042.87
753.651	29044.45
753.989	28891.68
754.327	28835.19
754.666	28732.37
755.004	28738.02
755.342	28583.67
755.679	28698.02
756.017	28495.54
756.355	28620.5
756.693	28441.3
757.031	28441.07
757.368	28335.99
757.706	28357.23
758.044	28214.41
758.381	28208.99
758.719	28153.4
759.056	28115.21
759.394	28061.2
759.731	27900.3
760.068	27899.62
760.405	27853.07
760.743	27593.19
761.08	27722.68
761.417	27510.93
761.754	27522.68
762.091	27488.78
762.428	27439.74
762.765	27200.43
763.102	27230.94
763.438	27191.39
763.775	27088.79
764.112	27210.15
764.449	27077.04
764.785	26925.63
765.122	26778.97
765.458	26613.78
765.795	26743.72
766.131	26678.18
766.467	26505.76
766.804	26306.67
767.14	26260.57
767.476	26246.1
767.812	26147.35
768.148	26192.55
768.485	25952.1
768.821	25870.52
769.157	25789.17
769.492	25635.72
769.828	25806.12
770.164	25476.86
770.5	25377.65
770.836	25426.46
771.171	25189.86
771.507	25232.35
771.842	25055.17
772.178	24996.87
772.513	24922.3
772.849	24906.93
773.184	24773.83
773.519	24773.15
773.855	24649.76
774.19	24609.08
774.525	24366.83
774.86	24514.85
775.195	24456.09
775.53	24281.18
775.865	24180.85
776.2	23858.14
776.535	23890.69
776.87	23837.58
777.205	23758.71
777.539	23575.89
777.874	23673.52
778.209	23401.43
778.543	23439.85
778.878	23230.36
779.212	23289.12
779.547	23171.38
779.881	23191.72
780.215	23007.32
780.55	22975.91
780.884	22841
781.218	22847.32
781.552	22847.1
781.886	22677.38
782.22	22586.76
782.554	22544.73
782.888	22345.87
783.222	22314.91
783.556	22173.44
783.889	22107.91
784.223	21992.43
784.557	21893.68
784.89	21984.29
785.224	21814.58
785.557	21728.93
785.891	21682.16
786.224	21679.22
786.558	21572.1
786.891	21297.08
787.224	21402.62
787.557	21246.69
787.891	21119.23
788.224	21173.69
788.557	21132.57
788.89	20982.06
789.223	21028.61
789.556	20892.35
789.888	20821.61
790.221	20686.7
790.554	20613.48
790.887	20599.02
791.219	20584.11
791.552	20561.96
791.884	20370.55
792.217	20296.66
792.549	20254.17
792.882	20137.11
793.214	20037.68
793.546	20044.91
793.879	20004.91
794.211	19790.68
794.543	19998.13
794.875	19825.93
795.207	19794.97
795.539	19774.64
795.871	19719.04
796.203	19488.54
796.535	19337.81
796.867	19395.89
797.198	19338.71
797.53	19248.1
797.862	19117.25
798.193	19141.88
798.525	19006.97
798.856	19003.36
799.188	18857.15
799.519	18749.8
799.85	18663.48
800.182	18707.09
800.513	18701.44
800.844	18565.85
801.175	18628
801.506	18562.01
801.837	18428.68
802.168	18457.38
802.499	18278.63
802.83	18306.65
803.161	18200.89
803.491	18113.89
803.822	18157.95
804.153	18106.66
804.483	17998.86
804.814	17880.9
805.145	17889.49
805.475	17837.96
805.805	17780.11
806.136	17818.3
806.466	17803.39
806.796	17682.26
807.126	17639.32
807.457	17510.06
807.787	17532.66
808.117	17501.02
808.447	17460.8
808.777	17451.53
809.107	17349.39
809.436	17248.15
809.766	17338.77
810.096	17289.05
810.426	17165.89
810.755	17175.83
811.085	17088.83
811.414	17075.95
811.744	17008.61
812.073	16853.81
812.403	16873.02
812.732	16761.16
813.061	16726.35
813.39	16602.29
813.719	16605
814.049	16688.61
814.378	16611.55
814.707	16442.97
815.036	16510.77
815.365	16452.91
815.693	16253.6
816.022	16332.01
816.351	16236.65
816.68	16189.19
817.008	16229.87
817.337	16196.42
817.665	16047.5
817.994	16138.12
818.322	15973.83
818.651	15987.39
818.979	15911.46
819.307	16071.46
819.636	15955.3
819.964	15916.21
820.292	15860.84
820.62	15871.69
820.948	15823.55
821.276	15792.37
821.604	15769.32
821.932	15773.38
822.259	15696.55
822.587	15800.28
822.915	15771.35
823.243	15800.95
823.57	15782.42
823.898	15715.53
824.225	15650.68
824.553	15594.63
824.88	15673.95
825.207	15779.49
825.535	15723.67
825.862	15789.88
826.189	15617
826.516	15758.7
826.843	15738.81
827.17	15628.3
827.497	15691.35
827.824	15690
828.151	15829.2
828.478	15656.33
828.805	15637.34
829.131	15685.93
829.458	15727.96
829.785	15602.54
830.111	15651.35
830.438	15731.58
830.764	15694.29
831.09	15696.55
831.417	15568.19
831.743	15631.47
832.069	15550.34
832.395	15602.32
832.722	15649.55
833.048	15535.2
833.374	15596.21
833.7	15537.91
834.026	15508.76
834.351	15546.72
834.677	15520.06
835.003	15492.04
835.329	15460.17
835.654	15429.44
835.98	15457.46
836.306	15499.27
836.631	15360.74
836.956	15385.37
837.282	15408.65
837.607	15344.24
837.932	15257.47
838.258	15277.35
838.583	15311.48
838.908	15184.25
839.233	15170.01
839.558	15128.43
839.883	15173.4
840.208	15062.89
840.533	15031.71
840.858	15056.34
841.182	15080.97
841.507	15079.62
841.832	14931.82
842.156	14928.44
842.481	14967.08
842.805	14798.04
843.13	14759.17
843.454	14823.81
843.778	14737.71
844.103	14720.31
844.427	14660.19
844.751	14593.3
845.075	14644.6
845.399	14592.4
845.723	14487.54
846.047	14550.14
846.371	14408
846.695	14403.7
847.019	14307.89
847.343	14249.58
847.666	14165.52
847.99	14029.93
848.313	14069.25
848.637	14038.06
848.96	14010.27
849.284	13963.71
849.607	13772.31
849.931	13812.53
850.254	13665.87
850.577	13676.04
850.9	13567.34
851.223	13485.76
851.546	13503.39
851.869	13325.99
852.192	13405.54
852.515	13267.01
852.838	13292.77
853.161	13273.34
853.483	13187.92
853.806	13168.71
854.129	13126
854.451	13080.12
854.774	12976.4
855.096	12873.8
855.419	12978.66
855.741	12923.52
856.063	12829.73
856.385	12859.56
856.708	12757.19
857.03	12775.5
857.352	12700.7
857.674	12706.12
857.996	12627.25
858.318	12532.79
858.64	12552.9
858.961	12562.85
859.283	12526.92
859.605	12432.68
859.926	12442.4
860.248	12360.59
860.57	12327.37
860.891	12338.9
861.212	12273.14
861.534	12175.74
861.855	12219.58
862.176	12227.04
862.498	12148.17
862.819	12119.92
863.14	12085.35
863.461	12089.87
863.782	12103.65
864.103	12084.22
864.424	12050.54
864.745	11998.34
865.065	12015.97
865.386	11958.8
865.707	11978.46
866.027	11901.4
866.348	11918.8
866.668	11935.97
866.989	11901.85
867.309	11811.23
867.63	11790.89
867.95	11823.43
868.27	11642.87
868.59	11782.08
868.91	11692.36
869.23	11710.89
869.55	11653.49
869.87	11663.21
870.19	11715.64
870.51	11688.29
870.83	11661.18
871.15	11529.88
871.469	11603.32
871.789	11606.49
872.109	11583.89
872.428	11427.51
872.748	11557.68
873.067	11480.16
873.386	11481.97
873.706	11425.7
874.025	11399.49
874.344	11392.71
874.663	11352.03
874.982	11384.8
875.301	11348.19
875.62	11302.99
875.939	11290.56
876.258	11188.65
876.577	11227.52
876.896	11216.67
877.214	11163.34
877.533	11184.35
877.852	11107.74
878.17	11157.23
878.489	11162.21
878.807	11194.3
879.125	11127.18
879.444	11190.68
879.762	11069.55
880.08	11116.78
880.398	11069.78
880.716	11034.3
881.034	10929.22
881.352	11012.83
881.67	10924.92
881.988	10999.27
882.306	10919.28
882.624	10849.67
882.941	10818.49
883.259	10702.11
883.577	10857.58
883.894	10785.04
884.212	10834.53
884.529	10765.15
884.846	10718.83
885.164	10687.87
885.481	10665.04
885.798	10654.88
886.115	10589.34
886.432	10558.83
886.75	10529
887.067	10529.45
887.383	10499.4
887.7	10538.49
888.017	10483.35
888.334	10503.24
888.651	10482
888.967	10368.1
889.284	10363.13
889.6	10305.05
889.917	10260.99
890.233	10257.6
890.55	10153.19
890.866	10256.47
891.182	10171.95
891.498	10183.93
891.815	10211.5
892.131	10127.88
892.447	10065.96
892.763	9950.26
893.079	9992.97
893.395	9969.47
893.71	9968.34
894.026	9951.62
894.342	9878.4
894.657	9827.55
894.973	9791.85
895.289	9760.89
895.604	9776.03
895.92	9641.34
896.235	9649.93
896.55	9671.85
896.865	9639.53
897.181	9568.8
897.496	9515.7
897.811	9551.85
898.126	9458.97
898.441	9478.18
898.756	9401.57
899.071	9394.8
899.386	9388.24
899.7	9330.39
900.015	9274.12
900.33	9190.96
900.644	9171.3
900.959	9219.88
901.273	9131.75
901.588	9083.39
901.902	9112.77
902.216	9044.3
902.531	9005.43
902.845	8990.96
903.159	8930.17
903.473	8921.59
903.787	8864.87
904.101	8828.93
904.415	8867.8
904.729	8805.21
905.042	8773.12
905.356	8728.82
905.67	8727.24
905.984	8696.28
906.297	8675.94
906.611	8606.12
906.924	8636.17
907.237	8572.22
907.551	8525.89
907.864	8463.97
908.177	8485.21
908.491	8444.76
908.804	8416.06
909.117	8319.12
909.43	8282.06
909.743	8243.64
910.056	8215.62
910.368	8224.66
910.681	8205.45
910.994	8188.27
911.307	8119.12
911.619	8030.99
911.932	8103.98
912.244	7953.03
912.557	8002.74
912.869	7921.16
913.181	7923.42
913.494	7873.25
913.806	7787.38
914.118	7789.87
914.43	7818.34
914.742	7786.93
915.054	7686.82
915.366	7707.16
915.678	7631.9
915.99	7615.41
916.302	7640.49
916.613	7488.4
916.925	7529.31
917.236	7479.59
917.548	7435.98
917.859	7464
918.171	7367.73
918.482	7383.32
918.794	7350.56
919.105	7337.45
919.416	7269.65
919.727	7251.57
920.038	7249.32
920.349	7134.52
920.66	7196.66
920.971	7140.39
921.282	7143.1
921.593	7026.27
921.903	7069.21
922.214	7008.64
922.525	7020.39
922.835	6919.15
923.146	6880.06
923.456	6842.55
923.767	6901.3
924.077	6859.95
924.387	6783.11
924.697	6777.46
925.008	6734.07
925.318	6729.55
925.628	6652.95
925.938	6672.83
926.248	6621.99
926.558	6591.93
926.867	6545.83
927.177	6516
927.487	6494.98
927.796	6436.91
928.106	6454.53
928.416	6434.65
928.725	6371.15
929.034	6376.57
929.344	6433.29
929.653	6306.74
929.962	6281.66
930.271	6302.9
930.581	6226.97
930.89	6193.52
931.199	6192.62
931.508	6178.38
931.817	6130.25
932.125	6071.94
932.434	6115.79
932.743	6027.65
933.051	5975.9
933.36	6018.84
933.669	5922.12
933.977	5959.86
934.286	5953.98
934.594	5911.27
934.902	5896.81
935.21	5822.01
935.519	5833.76
935.827	5842.35
936.135	5757.6
936.443	5769.13
936.751	5723.25
937.059	5724.84
937.367	5682.8
937.674	5651.39
937.982	5590.83
938.29	5643.03
938.597	5562.35
938.905	5535.69
939.213	5526.42
939.52	5472.41
939.827	5502.92
940.135	5448.23
940.442	5461.79
940.749	5450.04
941.056	5434.22
941.363	5360.78
941.67	5360.55
941.977	5316.94
942.284	5247.56
942.591	5277.84
942.898	5243.04
943.205	5263.6
943.511	5186.54
943.818	5216.37
944.125	5159.2
944.431	5169.6
944.738	5114.68
945.044	5110.84
945.35	5076.04
945.657	5050.73
945.963	4997.4
946.269	5020
946.575	4977.28
946.881	4929.6
947.187	4972.31
947.493	4902.94
947.799	4908.36
948.105	4895.03
948.41	4878.53
948.716	4882.37
949.022	4783.39
949.327	4761.92
949.633	4764.86
949.938	4708.82
950.244	4785.43
950.549	4726.22
950.854	4679.67
951.16	4664.52
951.465	4642.15
951.77	4625.88
952.075	4637.63
952.38	4584.07
952.685	4554.92
952.99	4547.24
953.294	4521.7
953.599	4502.49
953.904	4475.6
954.209	4452.55
954.513	4453.23
954.818	4437.86
955.122	4400.8
955.426	4353.57
955.731	4378.66
956.035	4375.94
956.339	4347.02
956.643	4351.09
956.948	4247.59
957.252	4294.36
957.556	4254.14
957.86	4213.01
958.163	4212.33
958.467	4196.06
958.771	4171.43
959.075	4179.57
959.378	4164.42
959.682	4173.01
959.985	4139.57
960.289	4049.17
960.592	4066.57
960.896	4117.42
961.199	4032
961.502	4047.14
961.805	4015.5
962.108	4003.3
962.411	3955.62
962.714	3961.49
963.017	3930.08
963.32	3941.61
963.623	3891.44
963.926	3905.67
964.228	3892.12
964.531	3837.88
964.833	3828.84
965.136	3827.94
965.438	3752.23
965.741	3779.12
966.043	3761.27
966.345	3723.53
966.648	3724.89
966.95	3760.82
967.252	3687.37
967.554	3665.45
967.856	3667.71
968.158	3633.82
968.46	3636.3
968.761	3597.43
969.063	3655.74
969.365	3598.34
969.666	3592.24
969.968	3563.31
970.269	3507.27
970.571	3544.33
970.872	3527.38
971.174	3487.15
971.475	3466.59
971.776	3482.86
972.077	3458.23
972.378	3488.74
972.679	3403.09
972.98	3409.87
973.281	3421.39
973.582	3386.59
973.883	3350.89
974.183	3377.33
974.484	3340.04
974.785	3352.47
975.085	3318.12
975.386	3303.2
975.686	3283.32
975.986	3240.61
976.287	3259.82
976.587	3246.26
976.887	3217.78
977.187	3187.73
977.487	3242.19
977.787	3171.68
978.087	3148.41
978.387	3134.62
978.687	3125.36
978.987	3142.08
979.286	3079.03
979.586	3088.29
979.885	3091.91
980.185	3033.38
980.484	3057.33
980.784	3055.98
981.083	3037.22
981.382	3008.52
981.682	2999.26
981.981	2970.56
982.28	2981.18
982.579	2950.67
982.878	2933.72
983.177	2926.49
983.475	2921.29
983.774	2927.62
984.073	2915.64
984.372	2833.39
984.67	2901.63
984.969	2864.12
985.267	2848.07
985.566	2847.4
985.864	2837.45
986.162	2803.56
986.461	2776.44
986.759	2771.01
987.057	2764.46
987.355	2734.63
987.653	2709.32
987.951	2690.56
988.249	2731.02
988.547	2712.49
988.844	2688.98
989.142	2671.36
989.44	2656.89
989.737	2638.14
990.035	2616.89
990.332	2605.37
990.63	2591.58
990.927	2587.29
991.224	2627.06
991.521	2574.86
991.819	2578.7
992.116	2550
992.413	2551.36
992.71	2525.82
993.006	2518.82
993.303	2512.04
993.6	2503.68
993.897	2506.39
994.193	2466.16
994.49	2481.98
994.787	2437.46
995.083	2407.63
995.379	2418.71
995.676	2408.09
995.972	2415.77
996.268	2406.5
996.565	2366.28
996.861	2360.18
997.157	2357.01
997.453	2331.48
997.749	2364.25
998.044	2345.72
998.34	2319.5
998.636	2312.04
998.932	2303.23
999.227	2272.5
999.523	2245.38
999.818	2268.88
1000.114	2247.64
1000.409	2218.49
1000.704	2209.9
1001	2195.66
1001.295	2173.29
1001.59	2215.78
1001.885	2173.52
1002.18	2178.49
1002.475	2133.29
1002.77	2114.31
1003.065	2101.43
1003.359	2073.18
1003.654	2113.63
1003.949	2090.81
1004.243	2052.39
1004.538	2076.34
1004.832	2069.79
1005.127	2026.4
1005.421	2041.09
1005.715	2010.36
1006.009	1987.98
1006.304	1991.37
1006.598	1978.72
1006.892	2007.87
1007.186	1957.7
1007.48	1965.16
1007.773	1938.04
1008.067	1905.5
1008.361	1937.14
1008.655	1899.4
1008.948	1899.85
1009.242	1911.83
1009.535	1897.14
1009.829	1864.82
1010.122	1850.13
1010.415	1849.68
1010.708	1814.66
1011.001	1812.17
1011.295	1819.4
1011.588	1805.39
1011.881	1792.51
1012.173	1787.76
1012.466	1763.58
1012.759	1732.4
1013.052	1801.1
1013.344	1773.53
1013.637	1714.55
1013.93	1740.53
1014.222	1700.53
1014.514	1688.33
1014.807	1676.81
1015.099	1677.94
1015.391	1679.74
1015.683	1659.18
1015.976	1649.69
1016.268	1652.17
1016.56	1630.93
1016.851	1619.41
1017.143	1592.29
1017.435	1595.9
1017.727	1557.49
1018.018	1562.68
1018.31	1592.06
1018.602	1569.24
1018.893	1562.68
1019.185	1545.74
1019.476	1514.32
1019.767	1509.58
1020.058	1527.43
1020.35	1495.57
1020.641	1503.93
1020.932	1479.75
1021.223	1481.56
1021.514	1434.55
1021.804	1437.72
1022.095	1435.46
1022.386	1435.68
1022.677	1432.29
1022.967	1383.25
1023.258	1395.23
1023.548	1390.03
1023.839	1391.84
1024.129	1399.3
1024.419	1384.16
1024.709	1357.94
1025	1372.63
1025.29	1357.27
1025.58	1336.25
1025.87	1328.11
1026.16	1306.42
1026.449	1303.71
1026.739	1281.11
1027.029	1281.11
1027.319	1267.55
1027.608	1289.02
1027.898	1287.89
1028.187	1242.47
1028.477	1247.44
1028.766	1243.6
1029.055	1227.1
1029.344	1240.43
1029.634	1234.56
1029.923	1219.19
1030.212	1190.49
1030.501	1182.81
1030.79	1211.28
1031.078	1160.66
1031.367	1164.73
1031.656	1169.47
1031.945	1180.55
1032.233	1152.3
1032.522	1147.78
1032.81	1135.35
1033.099	1086.54
1033.387	1115.92
1033.675	1125.41
1033.963	1117.05
1034.251	1117.27
1034.54	1086.31
1034.828	1079.31
1035.116	1086.54
1035.403	1077.5
1035.691	1070.95
1035.979	1072.98
1036.267	1068.23
1036.554	1042.92
1036.842	1018.97
1037.129	991.4
1037.417	1047.22
1037.704	1015.58
1037.992	1006.77
1038.279	992.08
1038.566	1005.41
1038.853	1005.41
1039.14	1005.41
