Data from hue_330_FLMS001491_50.txt Node
Date: Mon Feb 06 15:45:28 GMT 2017
User: dcchb
Spectrometer: FLMS00149
Trigger mode: 0
Integration Time (sec): 2.000000E-2
Scans to average: 10
Electric dark correction enabled: true
Nonlinearity correction enabled: false
Boxcar width: 0
XAxis mode: Wavelengths
Number of Pixels in Spectrum: 2048
>>>>>Begin Spectral Data<<<<<
341.393	-1.99
341.776	-1.99
342.16	-1.99
342.543	-44.48
342.927	-64.59
343.31	-79.73
343.693	-57.36
344.077	-77.02
344.46	-63.46
344.843	-39.5
345.226	-53.29
345.61	-39.28
345.993	-22.78
346.376	-17.36
346.759	26.93
347.142	26.93
347.525	47.27
347.908	66.48
348.291	69.42
348.674	110.1
349.057	102.64
349.44	99.47
349.823	140.15
350.206	182.18
350.588	213.37
350.971	223.77
351.354	225.35
351.737	253.6
352.119	237.55
352.502	265.57
352.884	258.57
353.267	285.01
353.65	281.84
354.032	308.06
354.414	305.57
354.797	294.95
355.179	313.03
355.562	316.42
355.944	320.03
356.326	347.38
356.709	331.79
357.091	325.46
357.473	338.56
357.855	303.99
358.238	315.29
358.62	349.86
359.002	310.99
359.384	330.43
359.766	347.38
360.148	327.27
360.53	337.43
360.912	331.33
361.294	344.44
361.676	320.03
362.057	326.81
362.439	330.2
362.821	309.41
363.203	320.94
363.584	313.25
363.966	309.19
364.348	324.33
364.729	324.55
365.111	327.27
365.493	317.32
365.874	311.67
366.256	299.47
366.637	290.88
367.019	322.75
367.4	303.99
367.781	296.76
368.163	320.71
368.544	306.47
368.925	306.25
369.306	327.94
369.688	307.83
370.069	301.28
370.45	317.77
370.831	309.86
371.212	318.45
371.593	311.45
371.974	322.52
372.355	320.26
372.736	330.66
373.117	306.02
373.498	324.1
373.879	306.7
374.26	331.11
374.641	324.78
375.021	287.27
375.402	309.86
375.783	314.61
376.163	322.29
376.544	304.89
376.925	312.12
377.305	320.03
377.686	325.46
378.066	325.91
378.447	335.4
378.827	339.69
379.208	328.85
379.588	330.88
379.968	342.18
380.349	334.04
380.729	320.49
381.109	326.59
381.489	319.81
381.87	335.17
382.25	323.2
382.63	339.24
383.01	321.62
383.39	328.17
383.77	355.29
384.15	352.8
384.53	342.86
384.91	341.28
385.29	372.69
385.67	346.7
386.049	362.29
386.429	346.47
386.809	344.44
387.189	347.83
387.568	358.23
387.948	374.72
388.328	367.26
388.707	351.45
389.087	363.87
389.466	369.07
389.846	356.42
390.225	337.89
390.605	365
390.984	382.86
391.363	373.37
391.743	379.24
392.122	363.65
392.501	345.34
392.881	369.07
393.26	399.58
393.639	371.56
394.018	362.74
394.397	370.43
394.776	376.53
395.155	378.34
395.534	382.86
395.913	356.19
396.292	395.06
396.671	372.46
397.05	395.96
397.429	386.47
397.808	384.67
398.186	385.57
398.565	378.11
398.944	414.95
399.323	389.41
399.701	411.56
400.08	388.51
400.458	390.31
400.837	408.62
401.215	392.12
401.594	394.83
401.972	402.29
402.351	405
402.729	407.49
403.107	412.23
403.486	402.97
403.864	394.83
404.242	410.43
404.62	421.27
404.999	414.04
405.377	415.4
405.755	422.18
406.133	416.75
406.511	440.26
406.889	426.92
407.267	437.09
407.645	449.97
408.023	446.13
408.401	450.88
408.779	454.27
409.156	457.21
409.534	452.46
409.912	465.57
410.29	457.88
410.667	457.21
411.045	463.31
411.422	490.88
411.8	481.61
412.178	503.98
412.555	505.79
412.933	511.44
413.31	494.27
413.687	507.15
414.065	522.06
414.442	519.8
414.819	519.35
415.197	531.78
415.574	537.43
415.951	544.43
416.328	548.5
416.705	572
417.082	548.5
417.46	556.64
417.837	599.12
418.214	563.19
418.591	557.99
418.967	576.07
419.344	597.99
419.721	597.99
420.098	597.09
420.475	611.1
420.852	608.39
421.228	605.68
421.605	629.86
421.982	651.32
422.358	631.66
422.735	652
423.111	607.48
423.488	660.59
423.864	650.87
424.241	666.01
424.617	668.5
424.994	656.07
425.37	670.31
425.746	676.18
426.123	693.81
426.499	662.85
426.875	687.48
427.251	712.34
427.627	747.59
428.003	747.37
428.379	727.93
428.756	729.97
429.132	743.53
429.507	757.99
429.883	746.01
430.259	760.7
430.635	798.89
431.011	776.97
431.387	756.63
431.763	780.59
432.138	812
432.514	814.26
432.89	813.35
433.265	826.46
433.641	836.4
434.016	845.67
434.392	856.29
434.767	857.19
435.143	872.34
435.518	870.98
435.894	879.79
436.269	904.2
436.644	895.61
437.02	903.07
437.395	906.91
437.77	914.59
438.145	918.21
438.52	908.49
438.895	922.28
439.271	945.78
439.646	937.87
440.021	983.29
440.395	981.03
440.77	956.63
441.145	986.01
441.52	971.32
441.895	991.65
442.27	990.52
442.645	1032.33
443.019	1004.31
443.394	1016.06
443.769	1031.2
444.143	1026
444.518	1006.8
444.892	1042.95
445.267	1028.04
445.641	1055.83
446.016	1061.71
446.39	1030.75
446.764	1047.47
447.139	1037.3
447.513	1065.33
447.887	1051.77
448.262	1051.77
448.636	1071.65
449.01	1090.41
449.384	1068.49
449.758	1088.15
450.132	1098.54
450.506	1120.01
450.88	1088.83
451.254	1110.97
451.628	1123.85
452.002	1131.99
452.376	1119.56
452.75	1116.17
453.123	1140.8
453.497	1139.67
453.871	1169.96
454.244	1169.05
454.618	1171.54
454.992	1188.49
455.365	1173.8
455.739	1181.25
456.112	1209.73
456.486	1223.51
456.859	1219.45
457.232	1252.21
457.606	1267.81
457.979	1248.6
458.352	1273.23
458.725	1287.69
459.099	1291.53
459.472	1341.25
459.845	1290.63
460.218	1305.09
460.591	1326.56
460.964	1332.89
461.337	1371.53
461.71	1369.72
462.083	1381.7
462.456	1385.99
462.829	1373.34
463.201	1409.72
463.574	1369.27
463.947	1424.41
464.32	1443.17
464.692	1437.29
465.065	1466.44
465.438	1473.9
465.81	1510.06
466.183	1501.7
466.555	1514.35
466.928	1543.5
467.3	1530.4
467.672	1585.76
468.045	1551.87
468.417	1587.8
468.789	1625.08
469.161	1594.35
469.534	1618.08
469.906	1658.08
470.278	1669.15
470.65	1691.3
471.022	1674.57
471.394	1711.64
471.766	1745.53
472.138	1760
472.51	1779.43
472.882	1789.15
473.253	1801.12
473.625	1824.63
473.997	1845.42
474.369	1847.68
474.74	1917.05
475.112	1895.59
475.484	1928.81
475.855	1995.92
476.227	1961.35
476.598	2008.58
476.97	2038.41
477.341	2046.54
477.713	2067.78
478.084	2094
478.455	2128.57
478.827	2144.17
479.198	2191.85
479.569	2209.7
479.94	2255.8
480.311	2260.77
480.682	2313.65
481.053	2326.53
481.424	2379.19
481.795	2376.03
482.166	2407.44
482.537	2449.24
482.908	2499.64
483.279	2484.04
483.65	2538.51
484.021	2578.73
484.391	2587.32
484.762	2626.19
485.133	2647.2
485.503	2678.62
485.874	2747.54
486.244	2700.08
486.615	2778.95
486.985	2820.76
487.356	2818.27
487.726	2850.36
488.097	2896.24
488.467	2923.13
488.837	2951.83
489.207	2994.54
489.578	2978.5
489.948	3056.23
490.318	3100.07
490.688	3072.96
491.058	3139.62
491.428	3169.45
491.798	3220.52
492.168	3238.83
492.538	3273.85
492.908	3298.49
493.278	3342.1
493.648	3351.37
494.017	3358.82
494.387	3375.77
494.757	3439.95
495.126	3464.36
495.496	3454.64
495.866	3465.71
496.235	3462.55
496.605	3554.3
496.974	3556.33
497.344	3605.15
497.713	3621.42
498.082	3642.88
498.452	3654.41
498.821	3622.55
499.19	3621.42
499.559	3682.88
499.928	3719.49
500.298	3727.63
500.667	3764.46
501.036	3766.05
501.405	3800.39
501.774	3745.25
502.143	3801.3
502.512	3817.57
502.88	3816.44
503.249	3858.7
503.618	3890.79
503.987	3906.83
504.356	3877.45
504.724	3944.57
505.093	3879.49
505.462	3942.31
505.83	3948.64
506.199	3987.51
506.567	4033.38
506.936	4005.59
507.304	4066.6
507.672	4053.27
508.041	4075.19
508.409	4087.17
508.777	4092.82
509.145	4109.76
509.514	4109.76
509.882	4124.45
510.25	4183.44
510.618	4188.86
510.986	4192.7
511.354	4225.92
511.722	4295.07
512.09	4224.56
512.458	4285.81
512.826	4303.66
513.193	4247.84
513.561	4300.72
513.929	4342.98
514.297	4362.41
514.664	4363.09
515.032	4303.66
515.4	4395.41
515.767	4375.07
516.135	4420.27
516.502	4384.79
516.869	4408.29
517.237	4446.71
517.604	4448.29
517.972	4467.72
518.339	4488.96
518.706	4500.26
519.073	4472.69
519.44	4474.5
519.808	4537.78
520.175	4526.25
520.542	4554.72
520.909	4608.28
521.276	4640.15
521.643	4584.78
522.009	4625.01
522.376	4669.98
522.743	4668.85
523.11	4738
523.477	4716.75
523.843	4760.82
524.21	4763.31
524.577	4751.78
524.943	4845.34
525.31	4806.92
525.676	4862.06
526.043	4872.91
526.409	4905
526.776	4935.05
527.142	4985.67
527.508	4956.3
527.874	4988.39
528.241	5075.84
528.607	5027.03
528.973	5050.76
529.339	5066.58
529.705	5116.97
530.071	5096.41
530.437	5184.99
530.803	5213.46
531.169	5185.89
531.535	5169.4
531.901	5209.62
532.267	5241.49
532.632	5276.97
532.998	5321.94
533.364	5304.99
533.73	5328.72
534.095	5379.79
534.461	5400.58
534.826	5440.58
535.192	5403.52
535.557	5496.17
535.923	5432.22
536.288	5477.64
536.653	5523.29
537.019	5539.78
537.384	5580.69
537.749	5573.68
538.114	5613.45
538.479	5622.95
538.845	5628.14
539.21	5703.85
539.575	5634.92
539.94	5694.13
540.305	5685.77
540.67	5711.98
541.034	5734.35
541.399	5818.87
541.764	5783.17
542.129	5874.24
542.494	5874.46
542.858	5931.41
543.223	5900.68
543.587	5943.16
543.952	5919.66
544.316	5962.82
544.681	6004.86
545.045	5984.97
545.41	6042.37
545.774	6021.35
546.138	6074.46
546.503	6113.1
546.867	6095.93
547.231	6161.24
547.595	6133.44
547.959	6217.73
548.324	6236.71
548.688	6212.53
549.052	6264.74
549.416	6340.44
549.779	6330.5
550.143	6309.71
550.507	6357.39
550.871	6381.8
551.235	6322.81
551.599	6375.92
551.962	6419.76
552.326	6435.81
552.689	6503.15
553.053	6509.93
553.417	6523.26
553.78	6559.19
554.143	6567.1
554.507	6478.29
554.87	6591.96
555.234	6644.39
555.597	6566.65
555.96	6626.53
556.323	6698.17
556.686	6645.29
557.05	6690.49
557.413	6697.49
557.776	6751.5
558.139	6781.56
558.502	6798.28
558.865	6784.72
559.228	6799.86
559.59	6855.91
559.953	6891.61
560.316	6934.55
560.679	6994.89
561.041	6936.58
561.404	7033.3
561.767	7029.01
562.129	6995.34
562.492	7068.56
562.854	7060.42
563.217	7080.08
563.579	7103.81
563.941	7110.59
564.304	7160.98
564.666	7242.34
565.028	7151.72
565.39	7204.6
565.753	7222.9
566.115	7257.03
566.477	7317.82
566.839	7311.71
567.201	7407.08
567.563	7347.42
567.925	7350.58
568.287	7407.76
568.648	7391.26
569.01	7510.58
569.372	7492.95
569.734	7525.49
570.095	7560.52
570.457	7600.75
570.819	7625.38
571.18	7629.9
571.542	7705.15
571.903	7736.79
572.265	7771.14
572.626	7822.44
572.987	7885.48
573.349	7907.41
573.71	8035.99
574.071	8015.2
574.432	8072.37
574.794	8160.05
575.155	8155.31
575.516	8147.85
575.877	8239.37
576.238	8306.04
576.599	8400.73
576.96	8390.78
577.32	8459.71
577.681	8581.96
578.042	8707.84
578.403	8763.43
578.763	8899.24
579.124	8885.46
579.485	9013.59
579.845	9067.6
580.206	9235.28
580.566	9356.86
580.927	9517.98
581.287	9536.29
581.648	9630.75
582.008	9821.71
582.368	9910.29
582.728	10122.04
583.089	10189.6
583.449	10402.93
583.809	10608.35
584.169	10707.78
584.529	10838.85
584.889	11157.26
585.249	11215.11
585.609	11435.67
585.969	11689.9
586.329	11818.94
586.688	12023.23
587.048	12316.55
587.408	12449.66
587.768	12661.63
588.127	12909.53
588.487	13055.74
588.846	13441.72
589.206	13571.66
589.565	13752.9
589.925	14056.17
590.284	14323.51
590.643	14620.22
591.003	14853.89
591.362	15125.52
591.721	15354.21
592.08	15702.45
592.44	15997.14
592.799	16200.52
593.158	16491.13
593.517	16743.78
593.876	17088.63
594.235	17363.2
594.593	17551.22
594.952	17917.99
595.311	18181.49
595.67	18418.77
596.029	18846.55
596.387	19129.48
596.746	19427.33
597.104	19540.77
597.463	19881.33
597.822	20203.13
598.18	20471.14
598.538	20729.44
598.897	21081.07
599.255	21172.14
599.613	21786.59
599.972	21936.87
600.33	22343.64
600.688	22443.52
601.046	22836.05
601.404	23187.23
601.762	23481.46
602.12	23797.61
602.478	23923.71
602.836	24253.87
603.194	24472.39
603.552	24777.02
603.91	24827.19
604.268	25370.45
604.625	25449.54
604.983	25751.23
605.341	25880.72
605.698	26330.42
606.056	26549.17
606.413	26734.93
606.771	27085.66
607.128	27276.16
607.485	27489.04
607.843	27621.24
608.2	28109.13
608.557	28265.29
608.914	28273.42
609.272	28742.56
609.629	29041.76
609.986	29202.66
610.343	29359.04
610.7	29620.05
611.057	29730.79
611.414	30025.47
611.771	30082.19
612.127	30475.17
612.484	30575.51
612.841	30974.82
613.198	30912.22
613.554	31154.03
613.911	31327.81
614.267	31550.4
614.624	31559.89
614.98	31842.14
615.337	32208.24
615.693	32202.13
616.05	32307.89
616.406	32757.37
616.762	32654.55
617.118	32705.85
617.475	32873.75
617.831	33106.52
618.187	33283.24
618.543	33256.8
618.899	33663.56
619.255	33773.84
619.611	33858.36
619.967	34000.05
620.323	34364.34
620.678	34125.7
621.034	34186.26
621.39	34414.96
621.746	34457.44
622.101	34731.33
622.457	34626.48
622.812	34797.32
623.168	35146.01
623.523	35124.09
623.879	35355.27
624.234	35027.37
624.589	35358.21
624.945	35381.94
625.3	35610.18
625.655	35502.84
626.01	35649.05
626.365	35772.44
626.72	35804.98
627.075	35860.57
627.43	35882.94
627.785	35913.9
628.14	36010.17
628.495	36196.83
628.85	36035.25
629.205	36075.48
629.559	36291.97
629.914	36204.74
630.269	36108.02
630.623	36202.03
630.978	36169.26
631.332	36425.75
631.687	36474.79
632.041	36489.25
632.396	36528.8
632.75	36436.6
633.104	36552.53
633.459	36473.66
633.813	36570.83
634.167	36500.33
634.521	36469.82
634.875	36616.93
635.229	36640.66
635.583	36412.64
635.937	36450.61
636.291	36519.53
636.645	36591.4
636.999	36592.75
637.352	36594.56
637.706	36577.61
638.06	36596.14
638.413	36490.38
638.767	36395.7
639.121	36658.06
639.474	36242.48
639.828	36393.21
640.181	36511.62
640.534	36497.39
640.888	36512.98
641.241	36348.47
641.594	36423.94
641.947	36450.84
642.301	36350.5
642.654	36433.89
643.007	36595.92
643.36	36408.8
643.713	36474.56
644.066	36409.03
644.419	36289.94
644.771	36085.65
645.124	35781.25
645.477	35720.01
645.83	35527.92
646.182	35549.16
646.535	35382.84
646.888	35483.4
647.24	35287.48
647.593	35470.97
647.945	35388.94
648.298	35169.29
648.65	35236.63
649.002	35124.54
649.355	35307.36
649.707	35150.53
650.059	35498.54
650.411	35746.9
650.763	35717.07
651.115	36220.56
651.467	36004.07
651.819	36026.89
652.171	35988.7
652.523	35994.35
652.875	35938.98
653.227	35938.98
653.578	36136.95
653.93	36002.49
654.282	35852.21
654.633	35769.72
654.985	35807.91
655.337	35815.15
655.688	35787.12
656.039	35943.73
656.391	35599.78
656.742	35774.47
657.094	35661.25
657.445	35798.2
657.796	35766.56
658.147	35765.66
658.498	35619.67
658.849	35841.59
659.2	35775.82
659.551	35550.97
659.902	35642.04
660.253	35647.24
660.604	35794.58
660.955	35587.81
661.306	35721.81
661.656	35615.15
662.007	35567.02
662.358	35619.67
662.708	35528.83
663.059	35647.01
663.409	35436.62
663.76	35622.38
664.11	35607.02
664.461	35675.04
664.811	35762.72
665.161	35637.98
665.511	35444.31
665.862	35602.27
666.212	35682.27
666.562	35580.58
666.912	35640.46
667.262	35512.33
667.612	35484.53
667.962	35586.68
668.312	35499.22
668.662	35682.72
669.011	35479.79
669.361	35474.82
669.711	35520.92
670.06	35449.51
670.41	35444.53
670.76	35349.62
671.109	35525.44
671.459	35396.17
671.808	35327.25
672.157	35432.11
672.507	35216.97
672.856	35363.41
673.205	35390.98
673.554	35468.04
673.904	35368.15
674.253	35581.25
674.602	35360.69
674.951	34873.7
675.3	34772.69
675.649	35331.99
675.998	35025.56
676.346	35200.25
676.695	35322.73
677.044	34992.12
677.393	35162.96
677.741	35200.92
678.09	35063.98
678.438	35103.3
678.787	35161.15
679.135	35191.43
679.484	34901.95
679.832	34903.76
680.181	34821.95
680.529	34902.18
680.877	34744.44
681.225	34717.55
681.573	35042.51
681.922	34715.51
682.27	34560.26
682.618	34613.37
682.966	34538.34
683.314	34582.41
683.661	34515.74
684.009	34315.07
684.357	34259.25
684.705	34157.34
685.053	34148.97
685.4	34171.12
685.748	34114.85
686.095	34109.43
686.443	33894.29
686.79	33929.55
687.138	34141.29
687.485	33909.89
687.832	33795.09
688.18	33777.46
688.527	33702.43
688.874	33623.11
689.221	33657.69
689.568	33593.74
689.915	33388.99
690.262	33532.04
690.609	33344.25
690.956	33292.73
691.303	33200.07
691.65	33193.29
691.997	33144.03
692.344	32913.08
692.69	32897.48
693.037	33056.35
693.383	32597.15
693.73	32840.99
694.077	32605.96
694.423	32626.53
694.769	32572.52
695.116	32412.52
695.462	32415.24
695.808	32196.71
696.155	32258.18
696.501	32108.8
696.847	31999.2
697.193	31819.54
697.539	31906.1
697.885	31714.91
698.231	31557.63
698.577	31581.13
698.923	31574.58
699.269	31420.69
699.614	31201.93
699.96	31267.92
700.306	31217.98
700.651	31083.52
700.997	31041.49
701.342	30956.06
701.688	30861.83
702.033	30852.56
702.379	30895.5
702.724	30706.58
703.069	30761.04
703.415	30487.6
703.76	30421.62
704.105	30386.14
704.45	30391.56
704.795	30218.23
705.14	30115.63
705.485	30128.06
705.83	29929.88
706.175	29996.09
706.52	29949.76
706.865	29836.55
707.209	29935.98
707.554	29690.79
707.899	29759.49
708.243	29501.64
708.588	29455.99
708.932	29307.07
709.277	29366.73
709.621	29417.57
709.966	29220.07
710.31	29265.04
710.654	28994.76
710.998	29137.13
711.342	29024.14
711.687	29007.42
712.031	28902.11
712.375	28719.29
712.719	28862.79
713.063	28606.3
713.407	28845.84
713.75	28602.91
714.094	28631.38
714.438	28522.91
714.782	28580.53
715.125	28398.39
715.469	28403.59
715.812	28182.35
716.156	28146.42
716.499	28107.33
716.843	28258.06
717.186	28038.63
717.53	28171.73
717.873	28064.84
718.216	28023.94
718.559	27901.91
718.902	27699.65
719.246	27781.01
719.589	27661.24
719.932	27482.94
720.275	27587.57
720.617	27519.54
720.96	27527.91
721.303	27530.62
721.646	27556.15
721.989	27312.54
722.331	27460.79
722.674	27353.22
723.016	27193
723.359	27389.15
723.701	27201.36
724.044	26978.99
724.386	26871.43
724.729	27072.1
725.071	26969.05
725.413	26981.71
725.755	27077.52
726.097	26918.66
726.439	26764.99
726.782	26752.11
727.124	26786.91
727.465	26678.89
727.807	26628.49
728.149	26556.41
728.491	26573.58
728.833	26551.66
729.175	26457.65
729.516	26338.56
729.858	26323.64
730.199	26343.76
730.541	26383.76
730.882	26389.63
731.224	26336.98
731.565	26248.62
731.906	26170.43
732.248	26070.77
732.589	25991.68
732.93	25913.94
733.271	26012.47
733.612	26088.62
733.953	26042.52
734.294	25886.82
734.635	25777.67
734.976	25925.91
735.317	25719.82
735.658	25583.1
735.999	25709.2
736.339	25699.25
736.68	25821.06
737.021	25657.22
737.361	25472.59
737.702	25643.21
738.042	25594.4
738.383	25452.48
738.723	25376.1
739.063	25395.98
739.404	25485.93
739.744	25331.81
740.084	25360.51
740.424	25222.66
740.764	25222.88
741.104	25221.75
741.444	25090.23
741.784	25074.64
742.124	25132.04
742.464	25013.62
742.804	25085.71
743.143	24944.25
743.483	24983.57
743.823	24854.76
744.162	24855.21
744.502	24860.41
744.841	24759.39
745.181	24782.89
745.52	24642.56
745.86	24696.57
746.199	24640.75
746.538	24559.85
746.877	24630.81
747.216	24538.61
747.556	24544.26
747.895	24562.79
748.234	24458.16
748.573	24449.12
748.911	24384.94
749.25	24327.09
749.589	24186.3
749.928	24225.17
750.267	24406.86
750.605	24092.29
750.944	24083.25
751.283	23944.27
751.621	24000.32
751.96	23882.13
752.298	23933.42
752.636	23825.4
752.975	23838.06
753.313	23748.57
753.651	23868.57
753.989	23579.54
754.327	23676.93
754.666	23544.73
755.004	23570.72
755.342	23592.42
755.679	23483.72
756.017	23296.38
756.355	23391.29
756.693	23369.37
757.031	23372.31
757.368	23256.61
757.706	23163.95
758.044	22999.66
758.381	23105.42
758.719	22950.63
759.056	23027.46
759.394	22792.66
759.731	22729.39
760.068	22645.77
760.405	22679.9
760.743	22565.32
761.08	22473.8
761.417	22414.82
761.754	22373.92
762.091	22302.96
762.428	22307.48
762.765	22159.01
763.102	22257.08
763.438	22106.13
763.775	22017.99
764.112	21989.97
764.449	22059.12
764.785	21848.96
765.122	21781.39
765.458	21636.76
765.795	21723.09
766.131	21735.97
766.467	21518.8
766.804	21421.4
767.14	21354.28
767.476	21390.89
767.812	21281.52
768.148	21232.48
768.485	21102.99
768.821	20960.17
769.157	21008.98
769.492	20961.3
769.828	20876.56
770.164	20752.72
770.5	20648.31
770.836	20662.78
771.171	20470.01
771.507	20540.97
771.842	20404.93
772.178	20366.51
772.513	20295.33
772.849	20291.26
773.184	20211.71
773.519	20142.56
773.855	20091.27
774.19	20043.13
774.525	19866.41
774.86	19834.55
775.195	19854.66
775.53	19695.57
775.865	19699.41
776.2	19404.28
776.535	19343.49
776.87	19492.64
777.205	19297.16
777.539	19210.38
777.874	19272.53
778.209	19185.07
778.543	18978.75
778.878	19025.3
779.212	18917.74
779.547	18845.65
779.881	18804.75
780.215	18684.97
780.55	18728.82
780.884	18625.09
781.218	18495.6
781.552	18584.86
781.886	18508.93
782.22	18334.02
782.554	18301.48
782.888	18039.79
783.222	18054.26
783.556	17939.68
783.889	17961.15
784.223	17762.06
784.557	17728.39
784.89	17807.26
785.224	17666.92
785.557	17624.89
785.891	17618.79
786.224	17435.52
786.558	17457.44
786.891	17391.45
787.224	17302.19
787.557	17196.88
787.891	17197.1
788.224	17204.34
788.557	17163.43
788.89	17108.07
789.223	17073.94
789.556	16884.8
789.888	16822.2
790.221	16655.88
790.554	16772.93
790.887	16663.33
791.219	16614.29
791.552	16634.86
791.884	16499.72
792.217	16449.55
792.549	16438.71
792.882	16285.72
793.214	16214.76
793.546	16293.85
793.879	16181.99
794.211	16088.21
794.543	16086.85
794.875	16103.8
795.207	16089.11
795.539	15922.56
795.871	15934.09
796.203	15790.81
796.535	15720.53
796.867	15724.6
797.198	15617.94
797.53	15623.59
797.862	15492.29
798.193	15427.21
798.525	15449.13
798.856	15463.82
799.188	15328.9
799.519	15242.81
799.85	15297.72
800.182	15169.14
800.513	15259.53
800.844	15038.97
801.175	15156.93
801.506	15091.62
801.837	14946.54
802.168	14908.58
802.499	14919.42
802.83	14798.07
803.161	14840.1
803.491	14712.42
803.822	14770.73
804.153	14699.54
804.483	14535.03
804.814	14489.83
805.145	14452.09
805.475	14464.29
805.805	14481.92
806.136	14406.9
806.466	14449.15
806.796	14375.48
807.126	14309.04
807.457	14233.57
807.787	14165.09
808.117	14152.66
808.447	14066.57
808.777	14140.01
809.107	14109.73
809.436	14019.33
809.766	13973.01
810.096	13952.9
810.426	13823.63
810.755	13879.9
811.085	13818.21
811.414	13864.08
811.744	13676.29
812.073	13660.93
812.403	13718.78
812.732	13606.24
813.061	13644.66
813.39	13531.89
813.719	13531.21
814.049	13673.13
814.378	13398.79
814.707	13412.12
815.036	13436.3
815.365	13301.84
815.693	13208.06
816.022	13352.23
816.351	13196.53
816.68	13141.62
817.008	13147.95
817.337	13110.21
817.665	13058.23
817.994	13040.15
818.322	13056.42
818.651	13012.36
818.979	12967.16
819.307	13006.25
819.636	12928.74
819.964	12841.29
820.292	12939.36
820.62	12810.33
820.948	12751.35
821.276	12813.26
821.604	12817.56
821.932	12758.35
822.259	12903.66
822.587	12860.04
822.915	12804.45
823.243	12818.24
823.57	12660.95
823.898	12817.33
824.225	12734.62
824.553	12727.84
824.88	12717.22
825.207	12790.44
825.535	12716.54
825.862	12767.84
826.189	12787.73
826.516	12745.47
826.843	12703.44
827.17	12836.09
827.497	12796.99
827.824	12744.57
828.151	12650.56
828.478	12707.5
828.805	12793.38
829.131	12756.54
829.458	12681.29
829.785	12614.4
830.111	12638.35
830.438	12716.09
830.764	12683.78
831.09	12760.16
831.417	12698.01
831.743	12789.31
832.069	12623.21
832.395	12607.39
832.722	12656.43
833.048	12609.43
833.374	12639.71
833.7	12576.43
834.026	12549.09
834.351	12637.45
834.677	12582.76
835.003	12564.23
835.329	12582.54
835.654	12552.93
835.98	12476.1
836.306	12490.79
836.631	12449.88
836.956	12532.14
837.282	12456.44
837.607	12430.9
837.932	12384.58
838.258	12362.88
838.583	12341.86
838.908	12298.25
839.233	12309.32
839.558	12281.08
839.883	12230.68
840.208	12151.81
840.533	12184.81
840.858	12257.8
841.182	12213.28
841.507	12159.27
841.832	12112.72
842.156	12112.94
842.481	12056.9
842.805	12035.88
843.13	12003.34
843.454	12063.45
843.778	11987.52
844.103	11963.12
844.427	11928.77
844.751	11946.39
845.075	11809.68
845.399	11865.49
845.723	11729.9
846.047	11767.42
846.371	11593.64
846.695	11718.38
847.019	11597.7
847.343	11536.24
847.666	11457.82
847.99	11442.45
848.313	11479.97
848.637	11326.07
848.96	11329.46
849.284	11336.24
849.607	11211.72
849.931	11174.44
850.254	11159.75
850.577	11047.66
850.9	10990.04
851.223	10948
851.546	10941.68
851.869	10764.96
852.192	10927.44
852.515	10832.75
852.838	10751.85
853.161	10785.97
853.483	10663.94
853.806	10665.3
854.129	10640.89
854.451	10595.47
854.774	10516.6
855.096	10529.71
855.419	10520.22
855.741	10423.05
856.063	10430.5
856.385	10379.43
856.708	10313.9
857.03	10325.65
857.352	10314.57
857.674	10294.01
857.996	10231.64
858.318	10164.07
858.64	10159.1
858.961	10203.62
859.283	10078.65
859.605	10081.59
859.926	10065.77
860.248	9984.41
860.57	9995.49
860.891	10043.85
861.212	10020.12
861.534	9985.09
861.855	9927.92
862.176	9941.93
862.498	9896.51
862.819	9911.19
863.14	9879.78
863.461	9788.49
863.782	9746.45
864.103	9792.78
864.424	9746.45
864.745	9764.76
865.065	9706.45
865.386	9688.38
865.707	9660.58
866.027	9621.94
866.348	9659.9
866.668	9650.64
866.989	9586.68
867.309	9535.84
867.63	9556.18
867.95	9636.63
868.27	9454.71
868.59	9507.59
868.91	9510.07
869.23	9550.07
869.55	9407.25
869.87	9511.2
870.19	9434.6
870.51	9429.4
870.83	9500.13
871.15	9408.83
871.469	9394.15
871.789	9400.25
872.109	9403.18
872.428	9316.18
872.748	9335.16
873.067	9313.7
873.386	9368.38
873.706	9319.57
874.025	9281.61
874.344	9263.75
874.663	9265.34
874.982	9230.76
875.301	9241.16
875.62	9251.55
875.939	9216.98
876.258	9175.39
876.577	9103.53
876.896	9153.93
877.214	9130.88
877.533	9154.6
877.852	9111.89
878.17	9119.35
878.489	9068.28
878.807	9068.28
879.125	9082.52
879.444	9066.24
879.762	9024.89
880.08	8994.61
880.398	8917.55
880.716	8971.33
881.034	8950.32
881.352	8927.04
881.67	8886.14
881.988	8897.21
882.306	8900.15
882.624	8864.67
882.941	8840.71
883.259	8763.43
883.577	8724.56
883.894	8755.29
884.212	8699.7
884.529	8709.87
884.846	8722.98
885.164	8673.03
885.481	8742.86
885.798	8698.8
886.115	8534.28
886.432	8591.23
886.75	8657.89
887.067	8554.17
887.383	8497.45
887.7	8497.67
888.017	8540.83
888.334	8516.43
888.651	8511.68
888.967	8494.96
889.284	8393.27
889.6	8370.67
889.917	8371.8
890.233	8372.03
890.55	8262.88
890.866	8393.49
891.182	8296.32
891.498	8237.34
891.815	8223.78
892.131	8181.07
892.447	8168.87
892.763	8181.3
893.079	8087.06
893.395	8113.95
893.71	8109.89
894.026	7994.41
894.342	8032.15
894.657	7983.34
894.973	7947.63
895.289	7961.87
895.604	7933.39
895.92	7921.87
896.235	7848.65
896.55	7887.29
896.865	7832.83
897.181	7787.86
897.496	7822.89
897.811	7743.12
898.126	7719.84
898.441	7644.36
898.756	7711.7
899.071	7637.36
899.386	7713.96
899.7	7566.85
900.015	7561.43
900.33	7495.21
900.644	7482.33
900.959	7431.71
901.273	7440.3
901.588	7391.03
901.902	7346.52
902.216	7311.71
902.531	7347.87
902.845	7333.18
903.159	7277.82
903.473	7223.36
903.787	7251.83
904.101	7130.48
904.415	7157.59
904.729	7143.58
905.042	7130.02
905.356	7095
905.67	7132.28
905.984	7068.11
906.297	7062.91
906.611	6972.29
906.924	7019.07
907.237	6911.05
907.551	6946.3
907.864	6856.81
908.177	6905.85
908.491	6852.29
908.804	6891.84
909.117	6779.3
909.43	6725.52
909.743	6695.69
910.056	6703.14
910.368	6645.52
910.681	6698.17
910.994	6634.9
911.307	6555.58
911.619	6519.42
911.932	6612.3
912.244	6538.85
912.557	6510.15
912.869	6451.85
913.181	6487.1
913.494	6497.05
913.806	6389.7
914.118	6396.26
914.43	6380.67
914.742	6318.52
915.054	6283.94
915.366	6268.8
915.678	6254.57
915.99	6239.43
916.302	6181.35
916.613	6189.26
916.925	6163.72
917.236	6164.85
917.548	6085.53
917.859	6117.4
918.171	6034.23
918.482	6000.56
918.794	6007.12
919.105	6009.38
919.416	5958.53
919.727	5953.78
920.038	5887.57
920.349	5856.16
920.66	5870.85
920.971	5867.91
921.282	5812.09
921.593	5754.24
921.903	5763.73
922.214	5723.51
922.525	5678.76
922.835	5685.54
923.146	5655.26
923.456	5639.89
923.767	5635.37
924.077	5660.23
924.387	5567.13
924.697	5527.81
925.008	5533.91
925.318	5510.86
925.628	5501.82
925.938	5429.5
926.248	5411.43
926.558	5398.77
926.867	5361.03
927.177	5361.94
927.487	5328.04
927.796	5283.29
928.106	5279.68
928.416	5236.97
928.725	5259.34
929.034	5293.01
929.344	5218.89
929.653	5156.06
929.962	5162.39
930.271	5118.1
930.581	5086.01
930.89	5136.63
931.199	5032.68
931.508	4984.32
931.817	5046.46
932.125	5016.18
932.434	4986.35
932.743	4928.73
933.051	4888.95
933.36	4956.75
933.669	4863.42
933.977	4870.2
934.286	4843.98
934.594	4846.47
934.902	4828.39
935.21	4758.56
935.519	4776.41
935.827	4727.38
936.135	4721.27
936.443	4715.17
936.751	4708.17
937.059	4681.5
937.367	4620.03
937.674	4697.77
937.982	4620.49
938.29	4606.93
938.597	4591.33
938.905	4503.65
939.213	4516.31
939.52	4551.11
939.827	4507.27
940.135	4502.75
940.442	4475.18
940.749	4492.81
941.056	4482.86
941.363	4434.95
941.67	4368.06
941.977	4384.11
942.284	4350.66
942.591	4348.18
942.898	4346.37
943.205	4273.6
943.511	4226.15
943.818	4263.43
944.125	4250.55
944.431	4210.55
944.738	4206.94
945.044	4204.68
945.35	4192.25
945.657	4174.62
945.963	4119.93
946.269	4115.19
946.575	4099.82
946.881	4086.26
947.187	4096.21
947.493	4060.5
947.799	4045.59
948.105	3995.42
948.41	4003.1
948.716	3978.02
949.022	4020.5
949.327	3914.52
949.633	3931.92
949.938	3931.46
950.244	3893.27
950.549	3884.91
950.854	3834.07
951.16	3844.69
951.465	3857.12
951.77	3800.39
952.075	3822.54
952.38	3806.72
952.685	3816.67
952.99	3709.1
953.294	3757.46
953.599	3711.36
953.904	3712.49
954.209	3701.64
954.513	3677.23
954.818	3632.04
955.122	3626.16
955.426	3620.06
955.731	3632.72
956.035	3602.66
956.339	3571.02
956.643	3536.67
956.948	3533.96
957.252	3520.85
957.556	3517.01
957.86	3502.55
958.163	3510.68
958.467	3456
958.771	3477.47
959.075	3478.59
959.378	3436.34
959.682	3467.52
959.985	3425.49
960.289	3364.02
960.592	3410.35
960.896	3333.51
961.199	3341.65
961.502	3351.82
961.805	3285.83
962.108	3278.37
962.411	3321.31
962.714	3287.19
963.017	3249
963.32	3268.88
963.623	3237.92
963.926	3198.15
964.228	3198.38
964.531	3172.61
964.833	3140.07
965.136	3132.16
965.438	3127.87
965.741	3141.65
966.043	3146.85
966.345	3092.39
966.648	3067.31
966.95	3065.72
967.252	3043.35
967.554	3080.87
967.856	3064.59
968.158	3029.79
968.46	3027.53
968.761	2980.75
969.063	2983.24
969.365	2964.94
969.666	2936.01
969.968	2926.07
970.269	2934.65
970.571	2919.51
970.872	2879.51
971.174	2852.17
971.475	2891.94
971.776	2876.58
972.077	2902.11
972.378	2836.35
972.679	2825.5
972.98	2827.31
973.281	2807.43
973.582	2797.48
973.883	2782.57
974.183	2762
974.484	2741.89
974.785	2741.21
975.085	2741.21
975.386	2721.55
975.686	2706.86
975.986	2742.34
976.287	2666.19
976.587	2656.47
976.887	2676.13
977.187	2649.69
977.487	2684.72
977.787	2613.53
978.087	2606.98
978.387	2614.89
978.687	2594.55
978.987	2575.79
979.286	2574.44
979.586	2559.75
979.885	2536.02
980.185	2532.86
980.484	2508.45
980.784	2580.54
981.083	2503.93
981.382	2505.51
981.682	2523.37
981.981	2525.17
982.28	2497.15
982.579	2435.91
982.878	2477.49
983.177	2417.38
983.475	2425.52
983.774	2393.43
984.073	2423.26
984.372	2389.36
984.67	2422.8
984.969	2404.27
985.267	2378.28
985.566	2357.49
985.864	2341.9
986.162	2320.43
986.461	2298.74
986.759	2322.69
987.057	2303.03
987.355	2306.2
987.653	2284.73
987.951	2260.55
988.249	2274.56
988.547	2255.35
988.844	2230.27
989.142	2265.07
989.44	2226.2
989.737	2223.03
990.035	2214.67
990.332	2196.14
990.63	2203.83
990.927	2158.63
991.224	2184.84
991.521	2155.01
991.819	2159.31
992.116	2153.88
992.413	2122.92
992.71	2114.34
993.006	2121.57
993.303	2082.93
993.6	2077.5
993.897	2077.05
994.193	2077.28
994.49	2058.29
994.787	2009.93
995.083	2059.2
995.379	2019.42
995.676	2002.7
995.972	2045.41
996.268	1973.32
996.565	2001.12
996.861	1978.52
997.157	1946.88
997.453	1976.04
997.749	1983.27
998.044	1941.23
998.34	1952.76
998.636	1922.93
998.932	1943.95
999.227	1893.1
999.523	1898.07
999.818	1887.22
1000.114	1873.67
1000.409	1882.25
1000.704	1871.86
1001	1837.06
1001.295	1835.25
1001.59	1849.03
1001.885	1792.54
1002.18	1826.44
1002.475	1786.89
1002.77	1795.7
1003.065	1752.09
1003.359	1766.32
1003.654	1762.48
1003.949	1773.78
1004.243	1752.54
1004.538	1745.31
1004.832	1723.16
1005.127	1744.4
1005.421	1721.13
1005.715	1702.14
1006.009	1711.18
1006.304	1678.42
1006.598	1679.55
1006.892	1662.82
1007.186	1641.13
1007.48	1673.67
1007.773	1648.36
1008.067	1624.63
1008.361	1625.54
1008.655	1618.3
1008.948	1607.01
1009.242	1613.56
1009.535	1597.06
1009.829	1546.89
1010.122	1542.37
1010.415	1544.41
1010.708	1567.68
1011.001	1533.56
1011.295	1512.77
1011.588	1515.48
1011.881	1504.86
1012.173	1483.17
1012.466	1497.63
1012.759	1513
1013.052	1483.85
1013.344	1467.12
1013.637	1488.14
1013.93	1455.37
1014.222	1460.34
1014.514	1432.55
1014.807	1418.08
1015.099	1440.23
1015.391	1411.08
1015.683	1404.98
1015.976	1394.36
1016.268	1398.88
1016.56	1406.33
1016.851	1366.56
1017.143	1361.36
1017.435	1373.79
1017.727	1352.32
1018.018	1372.89
1018.31	1335.37
1018.602	1343.06
1018.893	1347.13
1019.185	1320.69
1019.476	1298.77
1019.767	1287.47
1020.058	1327.47
1020.35	1277.3
1020.641	1257.86
1020.932	1291.31
1021.223	1249.05
1021.514	1255.38
1021.804	1235.04
1022.095	1234.81
1022.386	1232.33
1022.677	1204.98
1022.967	1243.4
1023.258	1199.33
1023.548	1194.59
1023.839	1199.11
1024.129	1189.39
1024.419	1208.82
1024.709	1155.27
1025	1160.46
1025.29	1140.35
1025.58	1152.78
1025.87	1148.03
1026.16	1141.71
1026.449	1135.38
1026.739	1139.67
1027.029	1121.59
1027.319	1087.92
1027.608	1075.04
1027.898	1106.68
1028.187	1086.79
1028.477	1098.09
1028.766	1081.14
1029.055	1059.22
1029.344	1083.86
1029.634	1046.34
1029.923	1035.95
1030.212	1049.96
1030.501	1019.22
1030.79	1017.64
1031.078	1016.06
1031.367	1047.25
1031.656	1005.44
1031.945	985.55
1032.233	988.26
1032.522	987.59
1032.81	971.09
1033.099	963.41
1033.387	973.35
1033.675	932
1033.963	949.17
1034.251	971.77
1034.54	913.24
1034.828	916.18
1035.116	917.31
1035.403	920.24
1035.691	930.41
1035.979	932
1036.267	903.75
1036.554	919.79
1036.842	905.33
1037.129	891.54
1037.417	881.83
1037.704	885.44
1037.992	882.73
1038.279	859.45
1038.566	863.97
1038.853	863.97
1039.14	863.97
