Data from hue_250_FLMS001491_00018.txt Node
Date: Tue Feb 07 16:00:37 GMT 2017
User: dcchb
Spectrometer: FLMS00149
Trigger mode: 0
Integration Time (sec): 2.000000E-2
Scans to average: 10
Electric dark correction enabled: true
Nonlinearity correction enabled: false
Boxcar width: 0
XAxis mode: Wavelengths
Number of Pixels in Spectrum: 2048
>>>>>Begin Spectral Data<<<<<
341.393	-31.36
341.776	-31.36
342.16	-31.36
342.543	-62.77
342.927	-42.43
343.31	-70.68
343.693	-62.54
344.077	-55.76
344.46	-37.91
344.843	-57.57
345.226	-33.84
345.61	-29.77
345.993	-41.3
346.376	-6.27
346.759	27.85
347.142	17.01
347.525	33.05
347.908	62.88
348.291	64.01
348.674	75.99
349.057	114.86
349.44	119.38
349.823	142.2
350.206	151.01
350.588	184.46
350.971	200.5
351.354	216.77
351.737	242.76
352.119	236.21
352.502	256.09
352.884	279.6
353.267	263.1
353.65	301.29
354.032	288.86
354.414	281.63
354.797	306.94
355.179	326.15
355.562	299.26
355.944	296.55
356.326	314.4
356.709	304.23
357.091	313.27
357.473	330.9
357.855	341.52
358.238	336.09
358.62	334.06
359.002	321.4
359.384	333.61
359.766	325.25
360.148	326.38
360.53	335.41
360.912	311.46
361.294	322.08
361.676	312.14
362.057	321.86
362.439	321.18
362.821	329.09
363.203	329.31
363.584	313.49
363.966	329.54
364.348	310.56
364.729	313.72
365.111	320.05
365.493	310.1
365.874	313.04
366.256	291.35
366.637	324.79
367.019	316.43
367.4	296.77
367.781	303.55
368.163	308.97
368.544	292.48
368.925	316.43
369.306	308.97
369.688	297.22
370.069	312.59
370.45	304.68
370.831	316.43
371.212	292.25
371.593	309.43
371.974	278.92
372.355	300.61
372.736	314.4
373.117	308.07
373.498	329.99
373.879	312.36
374.26	298.13
374.641	298.13
375.021	310.78
375.402	305.36
375.783	305.59
376.163	318.24
376.544	311.23
376.925	314.4
377.305	314.85
377.686	320.05
378.066	353.27
378.447	335.19
378.827	327.05
379.208	323.89
379.588	322.31
379.968	328.86
380.349	336.77
380.729	318.92
381.109	325.47
381.489	320.27
381.87	327.28
382.25	308.97
382.63	328.64
383.01	329.31
383.39	339.26
383.77	328.18
384.15	343.32
384.53	312.14
384.91	336.77
385.29	337.9
385.67	325.7
386.049	329.31
386.429	334.96
386.809	346.26
387.189	352.82
387.568	353.04
387.948	346.94
388.328	347.62
388.707	346.04
389.087	378.58
389.466	332.48
389.846	356.88
390.225	354.17
390.605	358.24
390.984	353.27
391.363	339.71
391.743	360.72
392.122	377.9
392.501	343.55
392.881	340.39
393.26	364.79
393.639	373.38
394.018	387.39
394.397	378.58
394.776	379.48
395.155	379.48
395.534	362.53
395.913	384.68
396.292	387.62
396.671	383.55
397.05	365.02
397.429	388.29
397.808	378.13
398.186	392.36
398.565	399.59
398.944	396.43
399.323	389.65
399.701	396.88
400.08	412.02
400.458	398.01
400.837	386.71
401.215	422.64
401.594	387.39
401.972	409.54
402.351	409.09
402.729	416.54
403.107	430.1
403.486	411.57
403.864	419.71
404.242	416.54
404.62	415.86
404.999	432.36
405.377	424.68
405.755	442.3
406.133	446.6
406.511	439.14
406.889	418.12
407.267	460.38
407.645	450.67
408.023	464.23
408.401	474.39
408.779	442.76
409.156	479.37
409.534	462.64
409.912	455.86
410.29	497.44
410.667	507.16
411.045	490.21
411.422	497.44
411.8	501.96
412.178	534.28
412.555	524.79
412.933	524.11
413.31	528.86
413.687	538.35
414.065	561.62
414.442	544
414.819	574.05
415.197	570.21
415.574	551.68
415.951	577.44
416.328	592.13
416.705	575.41
417.082	583.77
417.46	605.01
417.837	584.9
418.214	612.02
418.591	609.76
418.967	604.56
419.344	633.26
419.721	642.75
420.098	651.11
420.475	656.54
420.852	632.58
421.228	672.13
421.605	660.38
421.982	673.03
422.358	706.03
422.735	716.65
423.111	717.33
423.488	731.34
423.864	712.81
424.241	738.34
424.617	754.16
424.994	740.15
425.37	788.74
425.746	770.43
426.123	766.14
426.499	777.66
426.875	801.17
427.251	829.64
427.627	826.25
428.003	824.89
428.379	858.79
428.756	878
429.132	858.11
429.507	886.59
429.883	912.8
430.259	892.46
430.635	899.02
431.011	916.87
431.387	930.2
431.763	944.66
432.138	972.46
432.514	951.22
432.89	937.66
433.265	974.27
433.641	978.79
434.016	1008.84
434.392	985.57
434.767	1049.29
435.143	1044.55
435.518	1061.05
435.894	1075.06
436.269	1114.38
436.644	1123.87
437.02	1117.09
437.395	1128.39
437.77	1162.74
438.145	1148.05
438.52	1185.11
438.895	1211.1
439.271	1170.65
439.646	1231.44
440.021	1259.23
440.395	1258.33
440.77	1280.7
441.145	1261.72
441.52	1278.21
441.895	1324.77
442.27	1317.31
442.645	1325.67
443.019	1361.38
443.394	1360.92
443.769	1360.02
444.143	1383.07
444.518	1365.22
444.892	1381.72
445.267	1430.98
445.641	1410.19
446.016	1428.27
446.39	1422.62
446.764	1414.48
447.139	1437.76
447.513	1442.28
447.887	1479.57
448.262	1473.24
448.636	1480.7
449.01	1499.68
449.384	1542.39
449.758	1534.03
450.132	1525.21
450.506	1539
450.88	1568.38
451.254	1532.22
451.628	1560.92
452.002	1601.82
452.376	1597.75
452.75	1617.87
453.123	1628.04
453.497	1663.29
453.871	1677.07
454.244	1679.11
454.618	1706
454.992	1727.69
455.365	1741.93
455.739	1757.52
456.112	1779.44
456.486	1755.26
456.859	1812.89
457.232	1856.05
457.606	1833.23
457.979	1895.6
458.352	1902.61
458.725	1885.88
459.099	1906.45
459.472	1951.87
459.845	1941.47
460.218	1960.23
460.591	1971.98
460.964	2014.47
461.337	2028.93
461.71	2071.41
462.083	2103.96
462.456	2084.97
462.829	2105.99
463.201	2167.23
463.574	2135.59
463.947	2151.41
464.32	2251.07
464.692	2237.06
465.065	2258.75
465.438	2258.75
465.81	2301.24
466.183	2306.89
466.555	2354.34
466.928	2354.57
467.3	2377.4
467.672	2421.69
468.045	2458.3
468.417	2461.46
468.789	2498.3
469.161	2509.14
469.534	2559.54
469.906	2619.65
470.278	2630.04
470.65	2616.03
471.022	2698.97
471.394	2723.15
471.766	2714.11
472.138	2777.16
472.51	2792.07
472.882	2837.72
473.253	2895.57
473.625	2950.94
473.997	2962.69
474.369	2979.19
474.74	3004.05
475.112	3036.36
475.484	3094.21
475.855	3185.51
476.227	3150.48
476.598	3289.01
476.97	3246.3
477.341	3315.9
477.713	3415.11
478.084	3399.97
478.455	3459.17
478.827	3508.66
479.198	3557.7
479.569	3596.35
479.94	3644.25
480.311	3686.29
480.682	3769.67
481.053	3810.8
481.424	3881.08
481.795	3907.07
482.166	3937.81
482.537	4008.09
482.908	4067.97
483.279	4114.75
483.65	4156.11
484.021	4223.45
484.391	4280.85
484.762	4330.34
485.133	4302.99
485.503	4386.38
485.874	4461.86
486.244	4498.02
486.615	4570.33
486.985	4641.74
487.356	4677.9
487.726	4701.63
488.097	4810.78
488.467	4788.86
488.837	4906.37
489.207	4950.21
489.578	5018.68
489.948	5034.05
490.318	5048.06
490.688	5104.56
491.058	5194.04
491.428	5236.75
491.798	5251.22
492.168	5353.14
492.538	5363.31
492.908	5468.16
493.278	5512.68
493.648	5468.61
494.017	5523.98
494.387	5527.37
494.757	5573.24
495.126	5687.14
495.496	5661.38
495.866	5687.82
496.235	5778.89
496.605	5765.55
496.974	5828.6
497.344	5857.76
497.713	5909.28
498.082	5931.88
498.452	5943.18
498.821	5983.63
499.19	6025.21
499.559	6076.96
499.928	6033.12
500.298	6081.7
500.667	6167.58
501.036	6130.06
501.405	6174.81
501.774	6207.8
502.143	6238.76
502.512	6216.62
502.88	6288.93
503.249	6247.58
503.618	6293.9
503.987	6314.69
504.356	6377.29
504.724	6341.36
505.093	6388.82
505.462	6377.52
505.83	6445.08
506.199	6516.27
506.567	6536.38
506.936	6509.49
507.304	6569.6
507.672	6586.1
508.041	6641.01
508.409	6607.79
508.777	6729.15
509.145	6696.6
509.514	6693.67
509.882	6717.17
510.25	6753.55
510.618	6799.65
510.986	6717.39
511.354	6787
511.722	6853.66
512.09	6844.62
512.458	6869.93
512.826	6860.89
513.193	6955.81
513.561	6915.81
513.929	6993.54
514.297	6959.87
514.664	6996.71
515.032	6997.16
515.4	7077.84
515.767	7032.64
516.135	7056.14
516.502	7002.58
516.869	7133.2
517.237	7099.98
517.604	7114.45
517.972	7139.08
518.339	7146.08
518.706	7147.67
519.073	7217.27
519.44	7155.57
519.808	7212.75
520.175	7225.86
520.542	7322.58
520.909	7210.26
521.276	7242.8
521.643	7352.41
522.009	7328.9
522.376	7318.73
522.743	7391.95
523.11	7333.2
523.477	7468.79
523.843	7506.98
524.21	7546.75
524.577	7487.54
524.943	7478.5
525.31	7479.63
525.676	7612.74
526.043	7613.42
526.409	7609.35
526.776	7666.07
527.142	7678.05
527.508	7673.98
527.874	7685.28
528.241	7695.67
528.607	7626.75
528.973	7707.65
529.339	7691.83
529.705	7734.99
530.071	7764.15
530.437	7748.55
530.803	7783.58
531.169	7810.25
531.535	7735.9
531.901	7803.92
532.267	7741.55
532.632	7837.36
532.998	7782.9
533.364	7845.5
533.73	7806.4
534.095	7850.47
534.461	7876.46
534.826	7809.57
535.192	7830.81
535.557	7820.87
535.923	7793.52
536.288	7778.84
536.653	7850.02
537.019	7727.99
537.384	7840.98
537.749	7884.37
538.114	7844.37
538.479	7730.7
538.845	7787.65
539.21	7719.63
539.575	7794.2
539.94	7774.77
540.305	7787.42
540.67	7808.44
541.034	7758.27
541.399	7808.66
541.764	7770.02
542.129	7747.88
542.494	7724.37
542.858	7716.46
543.223	7757.37
543.587	7785.16
543.952	7774.54
544.316	7691.15
544.681	7673.3
545.045	7739.06
545.41	7760.08
545.774	7669.46
546.138	7686.86
546.503	7676.69
546.867	7699.29
547.231	7694.32
547.595	7656.58
547.959	7710.81
548.324	7656.35
548.688	7686.41
549.052	7578.84
549.416	7662.23
549.779	7656.35
550.143	7656.8
550.507	7683.24
550.871	7662.45
551.235	7551.04
551.599	7691.83
551.962	7605.05
552.326	7634.88
552.689	7601.44
553.053	7603.25
553.417	7601.44
553.78	7648.89
554.143	7569.35
554.507	7638.5
554.87	7615.68
555.234	7661.1
555.597	7644.83
555.96	7614.09
556.323	7607.99
556.686	7565.96
557.05	7583.59
557.413	7620.2
557.776	7612.29
558.139	7651.15
558.502	7612.74
558.865	7584.72
559.228	7696.58
559.59	7616.58
559.953	7632.4
560.316	7739.74
560.679	7672.62
561.041	7731.38
561.404	7719.18
561.767	7733.19
562.129	7689.8
562.492	7791.94
562.854	7798.5
563.217	7727.31
563.579	7783.35
563.941	7812.51
564.304	7837.82
564.666	7816.12
565.028	7848.21
565.39	7823.13
565.753	7881.66
566.115	7930.47
566.477	7875.78
566.839	7960.98
567.201	8003.69
567.563	7939.51
567.925	8008.21
568.287	7996
568.648	8008.43
569.01	8028.77
569.372	8118.04
569.734	7989.45
570.095	8086.17
570.457	8106.51
570.819	8104.48
571.18	8089.79
571.542	8146.28
571.903	8162.1
572.265	8174.53
572.626	8156
572.987	8163.91
573.349	8187.64
573.71	8189.22
574.071	8226.28
574.432	8246.85
574.794	8301.53
575.155	8357.35
575.516	8306.28
575.877	8347.18
576.238	8342.44
576.599	8358.93
576.96	8377.92
577.32	8413.85
577.681	8398.93
578.042	8475.31
578.403	8429.89
578.763	8466.5
579.124	8463.11
579.485	8508.76
579.845	8532.94
580.206	8518.93
580.566	8562.77
580.927	8554.41
581.287	8597.34
581.648	8564.58
582.008	8629.43
582.368	8544.01
582.728	8585.37
583.089	8601.86
583.449	8687.96
583.809	8671.92
584.169	8683.67
584.529	8685.7
584.889	8759.15
585.249	8647.51
585.609	8698.36
585.969	8758.47
586.329	8693.39
586.688	8731.8
587.048	8721.64
587.408	8739.49
587.768	8787.62
588.127	8762.99
588.487	8729.09
588.846	8802.76
589.206	8778.81
589.565	8774.97
589.925	8844.57
590.284	8847.28
590.643	8847.28
591.003	8869.43
591.362	8889.54
591.721	8817.23
592.08	8865.36
592.44	8913.27
592.799	8962.53
593.158	8917.34
593.517	8890.67
593.876	8918.92
594.235	8935.19
594.593	9001.85
594.952	8938.8
595.311	8916.88
595.67	9005.24
596.029	9022.42
596.387	8972.93
596.746	9059.93
597.104	8993.72
597.463	9008.41
597.822	9044.11
598.18	9014.73
598.538	8918.69
598.897	9027.16
599.255	8972.25
599.613	9092.02
599.972	9066.03
600.33	9109.65
600.688	9015.19
601.046	9053.83
601.404	9081.4
601.762	9056.77
602.12	9155.75
602.478	9074.62
602.836	9115.75
603.194	9122.75
603.552	9082.98
603.91	9085.47
604.268	9119.36
604.625	9101.74
604.983	9130.89
605.341	9096.09
605.698	9174.05
606.056	9180.15
606.413	9192.81
606.771	9162.53
607.128	9230.55
607.485	9148.06
607.843	9131.12
608.2	9196.65
608.557	9220.15
608.914	9135.18
609.272	9268.29
609.629	9202.07
609.986	9243.88
610.343	9197.1
610.7	9236.2
611.057	9290.21
611.414	9313.94
611.771	9271.23
612.127	9372.69
612.484	9276.42
612.841	9331.11
613.198	9281.39
613.554	9367.49
613.911	9378.34
614.267	9406.81
614.624	9321.62
614.98	9306.7
615.337	9386.93
615.693	9404.33
616.05	9373.37
616.406	9446.81
616.762	9394.61
617.118	9412.46
617.475	9337.66
617.831	9430.09
618.187	9452.24
618.543	9470.77
618.899	9483.87
619.255	9491.56
619.611	9470.32
619.967	9470.32
620.323	9521.16
620.678	9492.46
621.034	9398.68
621.39	9426.48
621.746	9445.91
622.101	9503.76
622.457	9399.36
622.812	9473.48
623.168	9449.75
623.523	9463.76
623.879	9577.88
624.234	9401.17
624.589	9506.47
624.945	9470.32
625.3	9479.81
625.655	9510.99
626.01	9480.49
626.365	9438.23
626.72	9489.98
627.075	9473.71
627.43	9398.23
627.785	9424.89
628.14	9449.98
628.495	9411.33
628.85	9408.85
629.205	9367.72
629.559	9449.3
629.914	9384.89
630.269	9395.52
630.623	9437.55
630.978	9372.24
631.332	9442.29
631.687	9366.14
632.041	9383.54
632.396	9418.34
632.75	9391.9
633.104	9340.83
633.459	9343.09
633.813	9265.58
634.167	9288.85
634.521	9310.77
634.875	9275.29
635.229	9328.85
635.583	9231
635.937	9280.49
636.291	9155.07
636.645	9182.87
636.999	9226.48
637.352	9242.75
637.706	9160.49
638.06	9226.25
638.413	9235.52
638.767	9200.72
639.121	9124.56
639.474	9148.74
639.828	9113.04
640.181	9122.98
640.534	9133.38
640.888	9101.51
641.241	9058.58
641.594	9061.74
641.947	9104.45
642.301	9156.2
642.654	9073.94
643.007	9094.28
643.36	9064
643.713	9117.33
644.066	9101.51
644.419	9017.9
644.771	9008.41
645.124	8880.73
645.477	8815.42
645.83	8755.76
646.182	8765.93
646.535	8774.97
646.888	8778.58
647.24	8748.75
647.593	8757.34
647.945	8738.13
648.298	8785.36
648.65	8719.6
649.002	8685.25
649.355	8703.78
649.707	8714.18
650.059	8752.37
650.411	8832.82
650.763	8923.44
651.115	8865.36
651.467	8959.82
651.819	8944
652.171	8848.19
652.523	8919.6
652.875	8855.64
653.227	8826.94
653.578	8887.96
653.93	8890.67
654.282	8829.88
654.633	8831.24
654.985	8885.25
655.337	8906.04
655.688	8916.66
656.039	8928.64
656.391	8825.81
656.742	8817
657.094	8837.11
657.445	8857.22
657.796	8905.81
658.147	8857.9
658.498	8920.5
658.849	8912.82
659.2	8833.72
659.551	8849.77
659.902	8907.84
660.253	8918.69
660.604	8930.67
660.955	8922.31
661.306	8864
661.656	8918.47
662.007	8854.74
662.358	8875.53
662.708	8890.67
663.059	8896.32
663.409	8896.09
663.76	8868.07
664.11	8929.31
664.461	8955.53
664.811	8888.18
665.161	8899.03
665.511	8885.02
665.862	8888.86
666.212	8916.88
666.562	8934.28
666.912	8850.22
667.262	8852.03
667.612	8866.72
667.962	8885.7
668.312	8899.71
668.662	8957.56
669.011	8952.14
669.361	8823.33
669.711	8859.26
670.06	8873.27
670.41	8909.43
670.76	8844.12
671.109	8871.46
671.459	8835.53
671.808	8887.96
672.157	8797.79
672.507	8843.44
672.856	8785.36
673.205	8769.09
673.554	8829.43
673.904	8806.38
674.253	8780.84
674.602	8824.46
674.951	8737.68
675.3	8628.76
675.649	8756.66
675.998	8738.58
676.346	8718.02
676.695	8820.62
677.044	8736.1
677.393	8697
677.741	8733.61
678.09	8696.1
678.438	8693.39
678.787	8685.93
679.135	8660.85
679.484	8652.03
679.832	8671.47
680.181	8607.51
680.529	8618.13
680.877	8606.16
681.225	8562.09
681.573	8630.11
681.922	8592.37
682.27	8518.25
682.618	8514.63
682.966	8517.57
683.314	8497.01
683.661	8483
684.009	8398.71
684.357	8452.04
684.705	8429.44
685.053	8388.76
685.4	8348.99
685.748	8341.76
686.095	8342.89
686.443	8375.66
686.79	8283.68
687.138	8359.38
687.485	8276.9
687.832	8282.78
688.18	8293.17
688.527	8206.17
688.874	8258.6
689.221	8166.4
689.568	8203.46
689.915	8204.59
690.262	8149.67
690.609	8191.25
690.956	8067.19
691.303	8126.85
691.65	8109.67
691.997	8039.39
692.344	8010.47
692.69	7914.42
693.037	7958.27
693.383	7923.92
693.73	7915.1
694.077	7793.3
694.423	7814.77
694.769	7765.5
695.116	7749.23
695.462	7825.84
695.808	7751.49
696.155	7777.71
696.501	7722.57
696.847	7709.46
697.193	7631.95
697.539	7678.72
697.885	7590.37
698.231	7548.78
698.577	7553.76
698.923	7556.69
699.269	7497.03
699.614	7441.89
699.96	7425.62
700.306	7425.85
700.651	7464.49
700.997	7389.92
701.342	7319.41
701.688	7298.85
702.033	7241.22
702.379	7309.69
702.724	7274.22
703.069	7258.85
703.415	7251.84
703.76	7212.07
704.105	7194.22
704.45	7079.19
704.795	7075.8
705.14	7060.21
705.485	7036.48
705.83	7069.7
706.175	7086.65
706.52	7014.79
706.865	7002.13
707.209	6988.57
707.554	6909.71
707.899	7003.49
708.243	6913.32
708.588	6916.94
708.932	6852.98
709.277	6858.41
709.621	6845.07
709.966	6792.87
710.31	6804.62
710.654	6728.02
710.998	6789.93
711.342	6790.61
711.687	6743.83
712.031	6701.35
712.375	6678.07
712.719	6679.88
713.063	6657.28
713.407	6701.58
713.75	6593.1
714.094	6664.74
714.438	6659.99
714.782	6651.18
715.125	6574.12
715.469	6648.47
715.812	6573.67
716.156	6549.49
716.499	6539.55
716.843	6556.95
717.186	6535.03
717.53	6565.31
717.873	6565.31
718.216	6511.07
718.559	6490.06
718.902	6446.44
719.246	6451.86
719.589	6376.84
719.932	6424.29
720.275	6458.87
720.617	6432.66
720.96	6370.06
721.303	6412.09
721.646	6401.02
721.989	6409.83
722.331	6411.87
722.674	6393.79
723.016	6398.76
723.359	6354.01
723.701	6352.21
724.044	6282.83
724.386	6306.78
724.729	6310.85
725.071	6295.03
725.413	6250.51
725.755	6300
726.097	6250.51
726.439	6235.37
726.782	6302.26
727.124	6316.5
727.465	6292.77
727.807	6254.13
728.149	6253.23
728.491	6258.42
728.833	6281.7
729.175	6274.69
729.516	6196.96
729.858	6241.93
730.199	6237.18
730.541	6227.92
730.882	6236.28
731.224	6229.95
731.565	6230.63
731.906	6198.54
732.248	6189.05
732.589	6207.35
732.93	6186.79
733.271	6151.76
733.612	6207.12
733.953	6220.23
734.294	6169.39
734.635	6199.22
734.976	6199.22
735.317	6180.01
735.658	6171.65
735.999	6133.68
736.339	6159.44
736.68	6200.35
737.021	6234.92
737.361	6183.4
737.702	6195.15
738.042	6226.11
738.383	6171.42
738.723	6155.83
739.063	6150.86
739.404	6208.03
739.744	6160.12
740.084	6210.29
740.424	6283.28
740.764	6223.85
741.104	6284.86
741.444	6260.23
741.784	6287.8
742.124	6227.01
742.464	6278.54
742.804	6248.25
743.143	6304.07
743.483	6272.43
743.823	6268.59
744.162	6293.9
744.502	6311.3
744.841	6345.65
745.181	6399.66
745.52	6369.83
745.86	6415.93
746.199	6362.83
746.538	6420
746.877	6510.62
747.216	6503.16
747.556	6506.78
747.895	6572.77
748.234	6571.64
748.573	6599.66
748.911	6699.99
749.25	6714.23
749.589	6779.09
749.928	6770.73
750.267	6854.34
750.605	6864.73
750.944	6851.18
751.283	6930.95
751.621	7047.78
751.96	7049.36
752.298	7106.08
752.636	7148.8
752.975	7259.75
753.313	7337.94
753.651	7401.22
753.989	7438.5
754.327	7516.02
754.666	7544.49
755.004	7645.51
755.342	7740.19
755.679	7812.96
756.017	7902.9
756.355	7983.8
756.693	8085.49
757.031	8169.33
757.368	8250.01
757.706	8303.57
758.044	8416.33
758.381	8566.61
758.719	8578.14
759.056	8680.51
759.394	8776.1
759.731	8810.9
760.068	9009.31
760.405	9097.44
760.743	9184
761.08	9282.3
761.417	9343.77
761.754	9536.98
762.091	9607.04
762.428	9639.13
762.765	9748.95
763.102	9918.44
763.438	9981.04
763.775	10040.02
764.112	10142.61
764.449	10284.76
764.785	10311.65
765.122	10411.31
765.458	10470.52
765.795	10626.44
766.131	10776.04
766.467	10824.86
766.804	10842.48
767.14	10948.02
767.476	10989.82
767.812	10977.85
768.148	11156.6
768.485	11117.96
768.821	11198.86
769.157	11362.02
769.492	11382.58
769.828	11510.94
770.164	11503.03
770.5	11568.11
770.836	11684.95
771.171	11696.02
771.507	11730.82
771.842	11775.57
772.178	11934.21
772.513	11858.95
772.849	11953.64
773.184	11999.06
773.519	11985.28
773.855	12048.55
774.19	12111.38
774.525	12145.05
774.86	12119.06
775.195	12164.93
775.53	12230.47
775.865	12169
776.2	12196.35
776.535	12152.73
776.87	12217.81
777.205	12244.48
777.539	12228.89
777.874	12310.02
778.209	12274.54
778.543	12266.85
778.878	12189.57
779.212	12211.03
779.547	12246.51
779.881	12293.29
780.215	12225.72
780.55	12232.73
780.884	12253.52
781.218	12223.01
781.552	12318.6
781.886	12247.64
782.22	12185.95
782.554	12205.61
782.888	12136.69
783.222	12126.97
783.556	12203.35
783.889	12148.44
784.223	12055.78
784.557	11996.35
784.89	12110.25
785.224	12047.2
785.557	12002.68
785.891	12010.59
786.224	12023.92
786.558	11999.51
786.891	11949.57
787.224	11915
787.557	11930.36
787.891	11925.84
788.224	11876.35
788.557	11865.06
788.89	11893.98
789.223	11904.83
789.556	11856.47
789.888	11820.31
790.221	11755.91
790.554	11775.34
790.887	11726.3
791.219	11649.02
791.552	11780.31
791.884	11699.18
792.217	11684.5
792.549	11663.03
792.882	11550.04
793.214	11543.93
793.546	11526.31
793.879	11494.9
794.211	11506.65
794.543	11563.59
794.875	11473.2
795.207	11520.88
795.539	11398.85
795.871	11482.92
796.203	11398.4
796.535	11348.91
796.867	11338.52
797.198	11221.91
797.53	11217.61
797.862	11243.38
798.193	11233.66
798.525	11060.33
798.856	11157.28
799.188	11021.24
799.519	11027.34
799.85	11030.5
800.182	11001.35
800.513	11023.5
800.844	10880.9
801.175	10970.62
801.506	11000.22
801.837	10856.49
802.168	10905.53
802.499	10829.38
802.83	10730.85
803.161	10840.22
803.491	10706.67
803.822	10739.89
804.153	10654.92
804.483	10664.41
804.814	10586.22
805.145	10678.42
805.475	10549.84
805.805	10637.97
806.136	10557.29
806.466	10557.07
806.796	10525.88
807.126	10508.93
807.457	10413.34
807.787	10443.4
808.117	10448.14
808.447	10380.35
808.777	10452.89
809.107	10421.93
809.436	10378.09
809.766	10393.46
810.096	10294.48
810.426	10250.86
810.755	10245.89
811.085	10229.39
811.414	10238.43
811.744	10188.49
812.073	10144.42
812.403	10169.73
812.732	10143.74
813.061	10162.28
813.39	10065.78
813.719	10055.39
814.049	10037.76
814.378	10057.65
814.707	10045.89
815.036	10021.71
815.365	9836.86
815.693	9887.71
816.022	9881.38
816.351	9784.66
816.68	9809.52
817.008	9840.93
817.337	9720.03
817.665	9766.35
817.994	9746.92
818.322	9768.39
818.651	9698.11
818.979	9616.53
819.307	9698.33
819.636	9663.08
819.964	9640.93
820.292	9631.22
820.62	9604.78
820.948	9586.92
821.276	9677.77
821.604	9569.07
821.932	9673.93
822.259	9593.7
822.587	9680.48
822.915	9551.9
823.243	9669.18
823.57	9633.48
823.898	9664.89
824.225	9613.59
824.553	9621.5
824.88	9612.23
825.207	9673.93
825.535	9642.74
825.862	9635.96
826.189	9584.66
826.516	9617.88
826.843	9619.46
827.17	9680.71
827.497	9605.91
827.824	9668.5
828.151	9654.72
828.478	9652.68
828.805	9700.59
829.131	9667.37
829.458	9712.34
829.785	9619.46
830.111	9663.53
830.438	9691.55
830.764	9599.8
831.09	9691.55
831.417	9552.35
831.743	9637.54
832.069	9636.64
832.395	9594.15
832.722	9636.41
833.048	9634.38
833.374	9626.7
833.7	9518
834.026	9553.93
834.351	9582.86
834.677	9628.05
835.003	9594.61
835.329	9521.39
835.654	9549.41
835.98	9573.14
836.306	9527.04
836.631	9502.18
836.956	9482.97
837.282	9524.55
837.607	9481.84
837.932	9445.01
838.258	9504.44
838.583	9431.22
838.908	9355.97
839.233	9422.41
839.558	9404.33
839.883	9280.04
840.208	9320.94
840.533	9331.34
840.858	9378.34
841.182	9282.98
841.507	9302.41
841.832	9314.84
842.156	9228.29
842.481	9274.39
842.805	9204.33
843.13	9136.77
843.454	9209.53
843.778	9144
844.103	9115.97
844.427	9069.87
844.751	9121.62
845.075	9040.27
845.399	9062.19
845.723	8991.01
846.047	9016.32
846.371	8885.02
846.695	8896.32
847.019	8840.05
847.343	8812.25
847.666	8806.83
847.99	8706.04
848.313	8779.94
848.637	8633.05
848.96	8612.03
849.284	8654.74
849.607	8557.57
849.931	8591.24
850.254	8588.98
850.577	8474.18
850.9	8499.04
851.223	8400.29
851.546	8371.36
851.869	8400.51
852.192	8307.41
852.515	8295.88
852.838	8304.02
853.161	8219.95
853.483	8221.31
853.806	8162.33
854.129	8175.66
854.451	8188.77
854.774	8106.96
855.096	8033.97
855.419	8008.66
855.741	8036.68
856.063	7995.33
856.385	7987.64
856.708	8000.75
857.03	8005.72
857.352	7937.25
857.674	7928.21
857.996	7893.63
858.318	7872.62
858.64	7822.45
858.961	7801.89
859.283	7808.89
859.605	7731.38
859.926	7756.01
860.248	7756.46
860.57	7711.94
860.891	7719.4
861.212	7694.32
861.534	7635.11
861.855	7676.46
862.176	7652.51
862.498	7618.16
862.819	7627.65
863.14	7545.85
863.461	7597.82
863.782	7545.39
864.103	7596.69
864.424	7591.5
864.745	7605.05
865.065	7505.85
865.386	7448.9
865.707	7420.88
866.027	7479.63
866.348	7470.59
866.668	7460.43
866.989	7366.42
867.309	7347.21
867.63	7415.91
867.95	7447.54
868.27	7375.91
868.59	7373.87
868.91	7317.83
869.23	7365.96
869.55	7324.84
869.87	7329.58
870.19	7338.17
870.51	7342.24
870.83	7335.91
871.15	7233.09
871.469	7275.35
871.789	7265.4
872.109	7212.52
872.428	7202.35
872.748	7265.63
873.067	7241
873.386	7265.4
873.706	7213.2
874.025	7144.95
874.344	7177.27
874.663	7174.78
874.982	7140.89
875.301	7091.17
875.62	7082.81
875.939	7059.31
876.258	7081.9
876.577	7122.36
876.896	7041.23
877.214	7055.92
877.533	7090.27
877.852	7065.63
878.17	7071.73
878.489	7065.63
878.807	7032.64
879.125	6985.41
879.444	6968.23
879.762	6955.58
880.08	6941.34
880.398	6940.21
880.716	6942.7
881.034	6921.68
881.352	6914.22
881.67	6881.68
881.988	6850.5
882.306	6849.37
882.624	6829.03
882.941	6874.68
883.259	6826.77
883.577	6846.2
883.894	6821.57
884.212	6801.91
884.529	6777.73
884.846	6734.34
885.164	6756.94
885.481	6669.49
885.798	6707.22
886.115	6678.75
886.432	6664.97
886.75	6689.82
887.067	6605.76
887.383	6649.37
887.7	6584.97
888.017	6574.12
888.334	6562.82
888.651	6583.84
888.967	6540.68
889.284	6546.55
889.6	6527.12
889.917	6416.84
890.233	6483.95
890.55	6388.59
890.866	6434.92
891.182	6393.56
891.498	6406.44
891.815	6370.96
892.131	6321.92
892.447	6364.41
892.763	6318.08
893.079	6327.57
893.395	6340.23
893.71	6280.8
894.026	6241.02
894.342	6208.03
894.657	6207.35
894.973	6194.7
895.289	6198.09
895.604	6168.71
895.92	6105.66
896.235	6068.6
896.55	6080.12
896.865	6069.05
897.181	6064.3
897.496	6073.8
897.811	6065.43
898.126	6033.8
898.441	5994.25
898.756	5966.68
899.071	5905.21
899.386	5961.93
899.7	5909.51
900.015	5854.59
900.33	5846
900.644	5853.69
900.959	5860.02
901.273	5775.5
901.588	5746.57
901.902	5690.08
902.216	5678.55
902.531	5664.77
902.845	5658.21
903.159	5669.29
903.473	5646.46
903.787	5633.81
904.101	5630.42
904.415	5629.29
904.729	5559.23
905.042	5481.27
905.356	5533.47
905.67	5553.13
905.984	5516.52
906.297	5485.34
906.611	5432
906.924	5434.04
907.237	5385
907.551	5420.7
907.864	5409.63
908.177	5392.46
908.491	5302.97
908.804	5291.22
909.117	5274.27
909.43	5245.12
909.743	5292.35
910.056	5274.27
910.368	5206.47
910.681	5175.97
910.994	5177.77
911.307	5163.76
911.619	5140.71
911.932	5091.45
912.244	5067.95
912.557	5061.84
912.869	5043.99
913.181	5040.15
913.494	5041.73
913.806	4983.2
914.118	4924.22
914.43	4923.77
914.742	4949.53
915.054	4933.49
915.366	4901.4
915.678	4848.29
915.99	4835.41
916.302	4823.88
916.613	4861.62
916.925	4743.43
917.236	4778.46
917.548	4796.54
917.859	4774.85
918.171	4730.1
918.482	4754.28
918.794	4684.23
919.105	4639.48
919.416	4655.53
919.727	4660.27
920.038	4628.41
920.349	4603.1
920.66	4552.03
920.971	4547.51
921.282	4552.71
921.593	4489.2
921.903	4519.94
922.214	4472.93
922.525	4472.71
922.835	4456.89
923.146	4393.39
923.456	4418.7
923.767	4400.17
924.077	4406.95
924.387	4375.99
924.697	4312.49
925.008	4351.58
925.318	4330.11
925.628	4324.69
925.938	4270.9
926.248	4279.49
926.558	4228.65
926.867	4244.69
927.177	4193.39
927.487	4185.03
927.796	4120.17
928.106	4177.35
928.416	4150
928.725	4137.35
929.034	4101.42
929.344	4121.3
929.653	4095.54
929.962	4061.87
930.271	4084.24
930.581	4014.19
930.89	4027.07
931.199	3958.14
931.508	3960.63
931.817	3959.5
932.125	3953.17
932.434	3914.53
932.743	3884.02
933.051	3921.76
933.36	3868.2
933.669	3888.32
933.977	3846.06
934.286	3821.2
934.594	3861.42
934.902	3835.21
935.21	3811.26
935.519	3785.27
935.827	3771.26
936.135	3767.87
936.443	3703.24
936.751	3696
937.059	3648.77
937.367	3704.37
937.674	3688.55
937.982	3695.78
938.29	3629.57
938.597	3629.11
938.905	3617.59
939.213	3637.93
939.52	3554.77
939.827	3563.58
940.135	3571.26
940.442	3572.62
940.749	3505.73
941.056	3545.73
941.363	3523.81
941.67	3505.5
941.977	3430.02
942.284	3499.85
942.591	3427.54
942.898	3427.31
943.205	3414.88
943.511	3418.5
943.818	3405.84
944.125	3378.72
944.431	3338.5
944.738	3331.04
945.044	3319.97
945.35	3297.37
945.657	3321.55
945.963	3290.59
946.269	3288.33
946.575	3263.47
946.881	3247.2
947.187	3243.59
947.493	3214.89
947.799	3186.19
948.105	3159.75
948.41	3205.17
948.716	3178.28
949.022	3126.3
949.327	3157.71
949.633	3154.78
949.938	3148.9
950.244	3101.9
950.549	3093.99
950.854	3096.92
951.16	3089.69
951.465	3057.83
951.77	3035.91
952.075	3018.28
952.38	2988.45
952.685	3020.54
952.99	3007.89
953.294	2991.39
953.599	2960.88
953.904	2982.12
954.209	2934.89
954.513	2958.17
954.818	2928.12
955.122	2933.54
955.426	2917.27
955.731	2877.27
956.035	2873.65
956.339	2839.3
956.643	2847.89
956.948	2811.51
957.252	2792.07
957.556	2818.06
957.86	2788.23
958.163	2780.1
958.467	2782.36
958.771	2805.41
959.075	2751.85
959.378	2724.96
959.682	2733.09
959.985	2713.88
960.289	2700.55
960.592	2688.8
960.896	2664.39
961.199	2688.8
961.502	2665.98
961.805	2634.56
962.108	2627.11
962.411	2622.59
962.714	2654.68
963.017	2625.75
963.32	2612.87
963.623	2605.86
963.926	2558.41
964.228	2529.71
964.531	2554.79
964.833	2557.5
965.136	2512.08
965.438	2510.27
965.741	2497.84
966.043	2528.8
966.345	2489.03
966.648	2460.56
966.95	2484.06
967.252	2478.18
967.554	2444.51
967.856	2432.53
968.158	2444.06
968.46	2428.92
968.761	2454.46
969.063	2396.83
969.365	2402.03
969.666	2395.93
969.968	2374.46
970.269	2376.49
970.571	2373.78
970.872	2346.66
971.174	2323.61
971.475	2367.9
971.776	2298.75
972.077	2325.65
972.378	2299.66
972.679	2276.15
972.98	2299.66
973.281	2259.21
973.582	2278.41
973.883	2219.21
974.183	2229.83
974.484	2237.29
974.785	2240.22
975.085	2227.12
975.386	2174.24
975.686	2237.51
975.986	2168.81
976.287	2157.97
976.587	2130.85
976.887	2135.37
977.187	2169.49
977.487	2125.42
977.787	2120.68
978.087	2157.29
978.387	2124.29
978.687	2084.75
978.987	2106.22
979.286	2073.22
979.586	2080.23
979.885	2065.76
980.185	2031.19
980.484	2054.24
980.784	2061.92
981.083	2076.84
981.382	2052.66
981.682	2034.81
981.981	2043.62
982.28	2010.85
982.579	2007.69
982.878	1961.13
983.177	1950.29
983.475	1962.94
983.774	1982.15
984.073	1934.92
984.372	1909.38
984.67	1940.34
984.969	1950.97
985.267	1920.68
985.566	1908.71
985.864	1940.8
986.162	1922.27
986.461	1905.32
986.759	1910.06
987.057	1822.61
987.355	1871.87
987.653	1863.06
987.951	1856.96
988.249	1842.27
988.547	1863.28
988.844	1850.63
989.142	1828.71
989.44	1805.88
989.737	1766.79
990.035	1811.99
990.332	1798.65
990.63	1778.99
990.927	1791.87
991.224	1781.03
991.521	1774.7
991.819	1717.98
992.116	1755.94
992.413	1759.78
992.71	1739.9
993.006	1727.24
993.303	1697.19
993.6	1706.45
993.897	1692.67
994.193	1688.15
994.49	1666
994.787	1672.1
995.083	1668.94
995.379	1679.11
995.676	1653.35
995.972	1644.76
996.268	1634.14
996.565	1633.91
996.861	1595.95
997.157	1623.97
997.453	1606.57
997.749	1630.3
998.044	1592.11
998.34	1584.42
998.636	1574.93
998.932	1562.95
999.227	1573.57
999.523	1552.33
999.818	1555.95
1000.114	1549.85
1000.409	1530.64
1000.704	1528.6
1001	1528.38
1001.295	1498.55
1001.59	1503.97
1001.885	1524.99
1002.18	1474.14
1002.475	1449.74
1002.77	1465.55
1003.065	1482.5
1003.359	1436.85
1003.654	1452
1003.949	1460.58
1004.243	1461.26
1004.538	1422.62
1004.832	1423.3
1005.127	1421.26
1005.421	1430.75
1005.715	1406.57
1006.009	1409.74
1006.304	1401.83
1006.598	1362.51
1006.892	1377.2
1007.186	1379.23
1007.48	1350.76
1007.773	1372.22
1008.067	1354.37
1008.361	1324.99
1008.655	1325.67
1008.948	1327.03
1009.242	1337.65
1009.535	1321.83
1009.829	1282.96
1010.122	1309.85
1010.415	1301.04
1010.708	1287.71
1011.001	1282.73
1011.295	1270.76
1011.588	1284.77
1011.881	1258.33
1012.173	1254.71
1012.466	1235.05
1012.759	1244.77
1013.052	1224.21
1013.344	1228.95
1013.637	1226.24
1013.93	1200.02
1014.222	1203.64
1014.514	1200.48
1014.807	1195.05
1015.099	1192.34
1015.391	1194.83
1015.683	1180.14
1015.976	1147.37
1016.268	1159.12
1016.56	1156.41
1016.851	1117.32
1017.143	1121.16
1017.435	1128.61
1017.727	1105.11
1018.018	1109.86
1018.31	1116.86
1018.602	1106.24
1018.893	1122.29
1019.185	1088.39
1019.476	1056.53
1019.767	1082.29
1020.058	1068.5
1020.35	1077.77
1020.641	1062.63
1020.932	1056.75
1021.223	1044.55
1021.514	1046.81
1021.804	1035.74
1022.095	1033.25
1022.386	1038.45
1022.677	1040.48
1022.967	1023.53
1023.258	1000.48
1023.548	1012.46
1023.839	999.13
1024.129	991.67
1024.419	985.79
1024.709	979.01
1025	952.57
1025.29	976.08
1025.58	965.45
1025.87	952.35
1026.16	944.44
1026.449	950.99
1026.739	937.43
1027.029	930.43
1027.319	960.94
1027.608	947.6
1027.898	917.55
1028.187	922.29
1028.477	906.7
1028.766	915.06
1029.055	875.29
1029.344	893.82
1029.634	875.51
1029.923	889.07
1030.212	879.13
1030.501	882.97
1030.79	903.08
1031.078	878
1031.367	853.59
1031.656	836.87
1031.945	848.4
1032.233	891.56
1032.522	857.89
1032.81	819.92
1033.099	830.77
1033.387	849.75
1033.675	841.62
1033.963	804.33
1034.251	825.57
1034.54	810.2
1034.828	807.94
1035.116	794.39
1035.403	812.69
1035.691	785.8
1035.979	802.97
1036.267	766.82
1036.554	756.42
1036.842	775.86
1037.129	757.1
1037.417	747.83
1037.704	778.79
1037.992	759.13
1038.279	744.22
1038.566	759.81
1038.853	759.81
1039.14	759.81
