Data from hue_170_FLMS001491_00089.txt Node
Date: Tue Feb 07 16:49:19 GMT 2017
User: dcchb
Spectrometer: FLMS00149
Trigger mode: 0
Integration Time (sec): 2.000000E-2
Scans to average: 10
Electric dark correction enabled: true
Nonlinearity correction enabled: false
Boxcar width: 0
XAxis mode: Wavelengths
Number of Pixels in Spectrum: 2048
>>>>>Begin Spectral Data<<<<<
341.393	9.08
341.776	9.08
342.16	9.08
342.543	-62.33
342.927	-60.07
343.31	-71.82
343.693	-72.27
344.077	-73.4
344.46	-82.67
344.843	-49.9
345.226	-40.41
345.61	-11.26
345.993	-18.04
346.376	-8.77
346.759	12.02
347.142	46.59
347.525	29.65
347.908	62.19
348.291	82.75
348.674	92.7
349.057	102.64
349.44	116.88
349.823	150.55
350.206	163.43
350.588	189.19
350.971	215.18
351.354	217.89
351.737	259.24
352.119	254.05
352.502	270.54
352.884	276.65
353.267	266.48
353.65	268.96
354.032	298.79
354.414	286.36
354.797	302.41
355.179	329.3
355.562	333.14
355.944	340.37
356.326	324.55
356.709	360.71
357.091	354.61
357.473	362.74
357.855	327.94
358.238	364.33
358.62	344.21
359.002	358.45
359.384	358.45
359.766	339.69
360.148	334.95
360.53	351.67
360.912	338.79
361.294	347.83
361.676	339.24
362.057	322.52
362.439	323.65
362.821	338.56
363.203	320.49
363.584	333.82
363.966	317.1
364.348	305.12
364.729	331.11
365.111	314.61
365.493	327.04
365.874	339.69
366.256	327.94
366.637	316.19
367.019	327.27
367.4	327.94
367.781	318.68
368.163	320.94
368.544	303.76
368.925	317.32
369.306	315.51
369.688	320.26
370.069	324.33
370.45	329.53
370.831	311.22
371.212	311.22
371.593	312.58
371.974	320.71
372.355	327.94
372.736	335.85
373.117	319.58
373.498	332.01
373.879	314.84
374.26	301.5
374.641	329.3
375.021	316.42
375.402	323.42
375.783	340.82
376.163	332.46
376.544	316.87
376.925	353.25
377.305	334.5
377.686	325.91
378.066	334.72
378.447	339.69
378.827	341.73
379.208	341.73
379.588	343.99
379.968	324.78
380.349	347.15
380.729	355.74
381.109	355.51
381.489	326.14
381.87	343.54
382.25	360.03
382.63	365.68
383.01	367.94
383.39	355.97
383.77	370.43
384.15	361.84
384.53	365.91
384.91	358.23
385.29	355.97
385.67	369.07
386.049	369.75
386.429	353.03
386.809	346.47
387.189	362.97
387.568	350.09
387.948	353.25
388.328	386.7
388.707	363.87
389.087	382.41
389.466	372.46
389.846	351.45
390.225	373.82
390.605	386.47
390.984	379.02
391.363	383.31
391.743	407.26
392.122	401.61
392.501	382.18
392.881	370.65
393.26	381.5
393.639	402.74
394.018	400.03
394.397	397.09
394.776	396.19
395.155	394.61
395.534	414.04
395.913	404.33
396.292	403.2
396.671	411.56
397.05	393.03
397.429	412.46
397.808	395.74
398.186	410.65
398.565	409.52
398.944	428.05
399.323	424.89
399.701	420.37
400.08	404.55
400.458	446.13
400.837	416.53
401.215	418.11
401.594	401.16
401.972	424.21
402.351	430.31
402.729	446.36
403.107	454.95
403.486	430.77
403.864	428.73
404.242	439.8
404.62	443.87
404.999	420.14
405.377	442.52
405.755	443.65
406.133	459.24
406.511	465.11
406.889	487.49
407.267	463.98
407.645	474.38
408.023	492.23
408.401	473.7
408.779	496.3
409.156	473.93
409.534	466.47
409.912	496.53
410.29	508.5
410.667	489.07
411.045	527.03
411.422	501.27
411.8	518.45
412.178	542.85
412.555	531.33
412.933	530.2
413.31	542.85
413.687	555.96
414.065	557.99
414.442	560.25
414.819	566.36
415.197	579.01
415.574	590.54
415.951	575.17
416.328	600.93
416.705	559.35
417.082	603.19
417.46	586.92
417.837	618.33
418.214	604.09
418.591	607.26
418.967	602.51
419.344	628.05
419.721	627.37
420.098	641.38
420.475	628.27
420.852	633.47
421.228	667.6
421.605	642.74
421.982	642.06
422.358	672.34
422.735	673.25
423.111	714.6
423.488	713.02
423.864	686.58
424.241	711.66
424.617	700.36
424.994	718.22
425.37	727.71
425.746	743.07
426.123	753.69
426.499	737.2
426.875	734.03
427.251	759.8
427.627	750.31
428.003	771.77
428.379	776.52
428.756	797.08
429.132	768.61
429.507	817.2
429.883	818.1
430.259	833.47
430.635	845.9
431.011	827.82
431.387	831.88
431.763	871.43
432.138	864.88
432.514	881.6
432.89	902.62
433.265	907.14
433.641	911.43
434.016	915.5
434.392	946.23
434.767	925.22
435.143	964.08
435.518	942.62
435.894	953.69
436.269	977.87
436.644	973.58
437.02	1003.63
437.395	1022.84
437.77	1045.44
438.145	1033.46
438.52	1080.47
438.895	1076.4
439.271	1066
439.646	1071.88
440.021	1096.74
440.395	1113.69
440.77	1122.27
441.145	1145.77
441.52	1122.5
441.895	1144.42
442.27	1188.49
442.645	1156.4
443.019	1155.04
443.394	1180.35
443.769	1207.69
444.143	1185.1
444.518	1240.91
444.892	1185.32
445.267	1233.68
445.641	1239.11
446.016	1235.72
446.39	1256.05
446.764	1267.13
447.139	1271.65
447.513	1261.03
447.887	1291.76
448.262	1294.92
448.636	1270.74
449.01	1347.13
449.384	1332.66
449.758	1342.15
450.132	1362.27
450.506	1373.34
450.88	1376.73
451.254	1396.39
451.628	1403.4
452.002	1425.77
452.376	1437.97
452.75	1442.72
453.123	1442.04
453.497	1480.46
453.871	1503.28
454.244	1501.25
454.618	1540.11
454.992	1516.84
455.365	1505.77
455.739	1595.03
456.112	1612.43
456.486	1616.5
456.859	1622.82
457.232	1675.7
457.606	1645.87
457.979	1675.93
458.352	1714.57
458.725	1718.42
459.099	1765.65
459.472	1812.65
459.845	1820.33
460.218	1843.38
460.591	1849.03
460.964	1841.8
461.337	1912.76
461.71	1920.9
462.083	1944.85
462.456	1983.72
462.829	1963.38
463.201	2004.96
463.574	2026.66
463.947	2039.08
464.32	2101
464.692	2138.29
465.065	2162.92
465.438	2169.02
465.81	2224.16
466.183	2243.37
466.555	2312.75
466.928	2334.22
467.3	2347.78
467.672	2363.82
468.045	2412.41
468.417	2457.83
468.789	2473.88
469.161	2548.45
469.534	2592.29
469.906	2635.91
470.278	2694.21
470.65	2709.12
471.022	2772.4
471.394	2824.83
471.766	2870.02
472.138	2907.76
472.51	2977.82
472.882	3056.23
473.253	3088.77
473.625	3131.49
473.997	3207.64
474.369	3228.88
474.74	3352.27
475.112	3415.77
475.484	3479.72
475.855	3560.63
476.227	3602.66
476.598	3687.4
476.97	3749.32
477.341	3850.34
477.713	3919.26
478.084	3974.85
478.455	4117.22
478.827	4152.02
479.198	4304.11
479.569	4352.02
479.94	4411.23
480.311	4545.69
480.682	4709.75
481.053	4846.92
481.424	4893.7
481.795	5015.5
482.166	5138.89
482.537	5201.71
482.908	5352.9
483.279	5450.97
483.65	5571.87
484.021	5716.05
484.391	5807.57
484.762	5930.51
485.133	6028.13
485.503	6118.75
485.874	6283.72
486.244	6398.07
486.615	6575.01
486.985	6721.22
487.356	6788.79
487.726	6866.08
488.097	7098.84
488.467	7127.31
488.837	7317.14
489.207	7486.85
489.578	7626.51
489.948	7783.11
490.318	7903.11
490.688	8027.63
491.058	8195.76
491.428	8326.38
491.798	8379.94
492.168	8616.99
492.538	8670.55
492.908	8795.07
493.278	8944.67
493.648	9030.54
494.017	9198.67
494.387	9298.1
494.757	9374.49
495.126	9569.06
495.496	9550.3
495.866	9640.47
496.235	9854.47
496.605	9972.21
496.974	10019.67
497.344	10113
497.713	10232.32
498.082	10318.42
498.452	10402.93
498.821	10494
499.19	10541.23
499.559	10662.13
499.928	10762.92
500.298	10869.81
500.667	10937.38
501.036	11012.41
501.405	11098.51
501.774	11089.24
502.143	11292.85
502.512	11254.89
502.88	11435.22
503.249	11406.97
503.618	11528.78
503.987	11568.78
504.356	11614.43
504.724	11584.6
505.093	11678.83
505.462	11801.77
505.83	11894.64
506.199	11959.5
506.567	12059.61
506.936	12015.09
507.304	12212.15
507.672	12164.47
508.041	12227.07
508.409	12330.11
508.777	12435.42
509.145	12524.46
509.514	12480.17
509.882	12578.69
510.25	12567.17
510.618	12569.66
510.986	12742.53
511.354	12765.13
511.722	12899.14
512.09	12894.39
512.458	12829.54
512.826	12923.32
513.193	12953.6
513.561	13045.8
513.929	13029.76
514.297	13129.64
514.664	13147.04
515.032	13222.52
515.4	13305.91
515.767	13392.68
516.135	13365.57
516.502	13279.24
516.869	13427.26
517.237	13366.47
517.604	13383.19
517.972	13514.26
518.339	13457.09
518.706	13483.98
519.073	13556.07
519.44	13576.18
519.808	13587.48
520.175	13645.79
520.542	13744.54
520.909	13758.55
521.276	13727.59
521.643	13808.27
522.009	13815.05
522.376	13891.88
522.743	13862.73
523.11	13958.32
523.477	14021.37
523.843	14022.95
524.21	14103.4
524.577	14138.88
524.943	14204.19
525.31	14131.2
525.676	14198.54
526.043	14155.38
526.409	14263.85
526.776	14359.44
527.142	14319.89
527.508	14336.16
527.874	14376.61
528.241	14342.94
528.607	14324.41
528.973	14350.17
529.339	14354.92
529.705	14495.48
530.071	14480.57
530.437	14496.16
530.803	14458.65
531.169	14446.22
531.535	14366.44
531.901	14371.87
532.267	14405.99
532.632	14364.86
532.998	14447.57
533.364	14354.24
533.73	14332.32
534.095	14407.35
534.461	14402.6
534.826	14422.26
535.192	14214.81
535.557	14387.91
535.923	14215.26
536.288	14266.79
536.653	14293.45
537.019	14232.66
537.384	14251.19
537.749	14248.48
538.114	14121.03
538.479	14069.5
538.845	14102.95
539.21	14044.87
539.575	14081.03
539.94	14005.1
540.305	14065.66
540.67	13982.27
541.034	13982.73
541.399	13847.14
541.764	13880.36
542.129	13850.07
542.494	13780.47
542.858	13718.55
543.223	13760.13
543.587	13675.39
543.952	13715.84
544.316	13630.42
544.681	13590.65
545.045	13612.11
545.41	13621.61
545.774	13519.91
546.138	13500.7
546.503	13446.47
546.867	13375.51
547.231	13349.97
547.595	13372.12
547.959	13352.69
548.324	13236.3
548.688	13226.59
549.052	13147.49
549.416	13164.67
549.779	13182.75
550.143	13091
550.507	13078.79
550.871	13093.48
551.235	13015.75
551.599	13026.82
551.962	13054.16
552.326	12974.62
552.689	13011.9
553.053	12852.36
553.417	12851.91
553.78	12828.86
554.143	12827.05
554.507	12819.82
554.87	12807.62
555.234	12896.2
555.597	12700.05
555.96	12756.09
556.323	12721.29
556.686	12713.83
557.05	12710.67
557.413	12750.22
557.776	12683.1
558.139	12736.43
558.502	12674.96
558.865	12618.24
559.228	12691.46
559.59	12611.69
559.953	12629.31
560.316	12752.25
560.679	12663.66
561.041	12663.44
561.404	12674.29
561.767	12721.52
562.129	12614.85
562.492	12653.27
562.854	12608.07
563.217	12657.79
563.579	12673.61
563.941	12684
564.304	12669.54
564.666	12710.44
565.028	12691.46
565.39	12709.76
565.753	12794.73
566.115	12718.8
566.477	12764.68
566.839	12598.36
567.201	12852.81
567.563	12776.2
567.925	12855.52
568.287	12760.61
568.648	12814.62
569.01	12848.29
569.372	12934.62
569.734	12792.02
570.095	12959.48
570.457	12949.08
570.819	12897.33
571.18	12861.63
571.542	12954.73
571.903	12832.25
572.265	12972.36
572.626	12942.3
572.987	12974.84
573.349	12867.05
573.71	13007.38
574.071	12989.31
574.432	13038.12
574.794	13058
575.155	13077.44
575.516	13039.47
575.877	13067.72
576.238	13007.16
576.599	13021.62
576.96	12959.25
577.32	13061.39
577.681	13074.05
578.042	13066.82
578.403	13045.12
578.763	13036.08
579.124	13034.5
579.485	13104.1
579.845	13059.13
580.206	13004.9
580.566	13021.85
580.927	13094.16
581.287	13128.28
581.648	12946.14
582.008	13063.2
582.368	13048.06
582.728	13033.37
583.089	13059.59
583.449	13019.36
583.809	12978.01
584.169	13100.94
584.529	12950.89
584.889	13140.94
585.249	13004.9
585.609	12909.99
585.969	12955.18
586.329	12891.45
586.688	13004.9
587.048	13013.26
587.408	12813.04
587.768	12924.45
588.127	12873.15
588.487	12921.28
588.846	12968.06
589.206	12842.19
589.565	12852.81
589.925	12959.48
590.284	12839.25
590.643	12849.87
591.003	12900.49
591.362	12911.57
591.721	12898.91
592.08	12782.76
592.44	12846.94
592.799	12830.21
593.158	12805.81
593.517	12786.37
593.876	12783.44
594.235	12770.33
594.593	12724.23
594.952	12780.95
595.311	12826.15
595.67	12826.37
596.029	12912.25
596.387	12853.72
596.746	12791.8
597.104	12753.38
597.463	12680.61
597.822	12767.62
598.18	12641.29
598.538	12718.13
598.897	12755.64
599.255	12664.57
599.613	12804.45
599.972	12686.04
600.33	12710.67
600.688	12708.86
601.046	12632.93
601.404	12831.34
601.762	12760.16
602.12	12754.28
602.478	12728.07
602.836	12793.15
603.194	12653.49
603.552	12750.44
603.91	12695.98
604.268	12765.36
604.625	12700.95
604.983	12746.15
605.341	12665.02
605.698	12694.17
606.056	12670.9
606.413	12648.75
606.771	12771.46
607.128	12779.14
607.485	12677.22
607.843	12715.19
608.2	12818.24
608.557	12813.49
608.914	12741.18
609.272	12783.89
609.629	12830.21
609.986	12830.67
610.343	12778.24
610.7	12867.95
611.057	12854.85
611.414	12852.81
611.771	12897.78
612.127	12855.52
612.484	12964.45
612.841	12980.49
613.198	12811.46
613.554	12876.09
613.911	12931.91
614.267	12897.78
614.624	12869.76
614.98	12897.1
615.337	12984.56
615.693	12907.95
616.05	12960.83
616.406	12944.11
616.762	12919.25
617.118	12890.1
617.475	12865.24
617.831	13013.49
618.187	12912.47
618.543	13060.72
618.899	13059.81
619.255	13069.98
619.611	13029.3
619.967	13013.71
620.323	13088.06
620.678	13072.69
621.034	12995.63
621.39	13032.69
621.746	13016.42
622.101	13132.35
622.457	13046.48
622.812	13012.13
623.168	13110.21
623.523	13066.14
623.879	13164.89
624.234	12997.44
624.589	13052.81
624.945	13049.87
625.3	13033.6
625.655	13064.33
626.01	13057.55
626.365	13117.66
626.72	13015.07
627.075	12911.57
627.43	13046.25
627.785	12994.05
628.14	13030.66
628.495	12990.89
628.85	13003.09
629.205	13008.29
629.559	13063.88
629.914	12950.44
630.269	12949.98
630.623	12928.29
630.978	12886.03
631.332	13047.16
631.687	12927.16
632.041	12908.4
632.396	12901.62
632.75	12833.83
633.104	12806.03
633.459	12869.08
633.813	12842.64
634.167	12866.14
634.521	12832.25
634.875	12821.4
635.229	12756.77
635.583	12738.01
635.937	12697.34
636.291	12802.19
636.645	12772.14
636.999	12691.46
637.352	12695.53
637.706	12720.84
638.06	12728.3
638.413	12642.42
638.767	12601.97
639.121	12629.31
639.474	12557.23
639.828	12570.79
640.181	12513.16
640.534	12595.19
640.888	12543.22
641.241	12427.29
641.594	12503.44
641.947	12497.34
642.301	12465.03
642.654	12499.6
643.007	12502.31
643.36	12499.37
643.713	12427.96
644.066	12507.51
644.419	12472.26
644.771	12397.46
645.124	12218.03
645.477	12234.52
645.83	12161.3
646.182	12046.51
646.535	12065.26
646.888	11986.62
647.24	11991.82
647.593	12107.75
647.945	12093.74
648.298	11922.89
648.65	11968.54
649.002	11904.81
649.355	12112.72
649.707	11955.66
650.059	12071.36
650.411	12201.53
650.763	12211.25
651.115	12360.4
651.467	12296.44
651.819	12289.66
652.171	12340.96
652.523	12284.24
652.875	12251.25
653.227	12198.59
653.578	12371.92
653.93	12390
654.282	12255.31
654.633	12241.3
654.985	12286.27
655.337	12303.9
655.688	12303.45
656.039	12323.11
656.391	12203.56
656.742	12292.15
657.094	12250.12
657.445	12319.94
657.796	12284.24
658.147	12258.93
658.498	12160.4
658.849	12309.1
659.2	12242.43
659.551	12243.11
659.902	12279.95
660.253	12243.34
660.604	12280.85
660.955	12309.32
661.306	12313.84
661.656	12296.22
662.007	12377.8
662.358	12293.5
662.708	12413.05
663.059	12286.95
663.409	12230
663.76	12322.66
664.11	12358.14
664.461	12355.42
664.811	12336.67
665.161	12359.27
665.511	12338.02
665.862	12323.11
666.212	12345.93
666.562	12367.63
666.912	12381.41
667.262	12287.18
667.612	12388.19
667.962	12358.14
668.312	12374.63
668.662	12462.09
669.011	12358.14
669.361	12284.01
669.711	12266.61
670.06	12326.95
670.41	12325.37
670.76	12241.08
671.109	12288.31
671.459	12226.61
671.808	12304.58
672.157	12273.84
672.507	12254.18
672.856	12248.99
673.205	12221.87
673.554	12255.99
673.904	12213.73
674.253	12309.1
674.602	12275.88
674.951	11957.24
675.3	11963.34
675.649	12152.72
675.998	12115.2
676.346	12178.93
676.695	12220.74
677.044	12099.84
677.393	12056.45
677.741	12174.64
678.09	12103.45
678.438	12057.35
678.787	12047.86
679.135	12093.06
679.484	11899.16
679.832	12111.36
680.181	11972.16
680.529	11951.82
680.877	11968.09
681.225	11983.91
681.573	11984.81
681.922	11917.02
682.27	11789.56
682.618	11836.79
682.966	11825.27
683.314	11834.99
683.661	11766.74
684.009	11674.31
684.357	11648.32
684.705	11681.09
685.053	11625.95
685.4	11658.94
685.748	11625.95
686.095	11562.68
686.443	11592.73
686.79	11489.46
687.138	11551.38
687.485	11505.05
687.832	11433.19
688.18	11575.56
688.527	11405.39
688.874	11409.01
689.221	11345.28
689.568	11340.31
689.915	11332.17
690.262	11296.24
690.609	11266.64
690.956	11259.63
691.303	11164.04
691.65	11126.53
691.997	11153.65
692.344	11073.88
692.69	11084.04
693.037	10960.88
693.383	10896.93
693.73	10922.24
694.077	10900.32
694.423	10840.89
694.769	10891.51
695.116	10832.3
695.462	10723.15
695.808	10768.8
696.155	10790.04
696.501	10668.01
696.847	10639.99
697.193	10549.37
697.539	10563.83
697.885	10528.35
698.231	10484.74
698.577	10374.23
698.923	10410.39
699.269	10374.01
699.614	10306.89
699.96	10253.56
700.306	10288.59
700.651	10243.61
700.997	10127.91
701.342	10138.08
701.688	10138.98
702.033	10103.28
702.379	10063.05
702.724	10027.58
703.069	10065.09
703.415	9938.09
703.76	9871.2
704.105	10002.49
704.45	9876.84
704.795	9747.81
705.14	9781.25
705.485	9781.93
705.83	9723.63
706.175	9756.85
706.52	9684.76
706.865	9655.38
707.209	9699.67
707.554	9560.02
707.899	9590.75
708.243	9586.23
708.588	9536.06
708.932	9469.17
709.277	9524.54
709.621	9405.67
709.966	9357.99
710.31	9434.14
710.654	9368.16
710.998	9343.3
711.342	9344.43
711.687	9323.87
712.031	9256.97
712.375	9231.89
712.719	9245.22
713.063	9241.83
713.407	9178.78
713.75	9224.21
714.094	9147.82
714.438	9132.46
714.782	9173.81
715.125	9124.32
715.469	9127.94
715.812	9074.15
716.156	8992.8
716.499	9059.69
716.843	9101.95
717.186	9006.13
717.53	9010.88
717.873	8949.86
718.216	9054.72
718.559	8960.94
718.902	8852.92
719.246	8860.83
719.589	8873.48
719.932	8840.49
720.275	8863.99
720.617	8882.29
720.96	8792.35
721.303	8768.4
721.646	8772.69
721.989	8818.57
722.331	8800.94
722.674	8806.14
723.016	8805.23
723.359	8792.81
723.701	8829.19
724.044	8741.96
724.386	8722.3
724.729	8713.71
725.071	8710.32
725.413	8716.42
725.755	8654.96
726.097	8617.44
726.439	8588.07
726.782	8614.51
727.124	8693.37
727.465	8630.1
727.807	8630.78
728.149	8638.69
728.491	8618.8
728.833	8691.11
729.175	8638.23
729.516	8572.92
729.858	8660.15
730.199	8551.68
730.541	8607.05
730.882	8671
731.224	8544.9
731.565	8597.33
731.906	8579.7
732.248	8548.29
732.589	8523.21
732.93	8529.99
733.271	8590.55
733.612	8492.7
733.953	8623.54
734.294	8541.51
734.635	8542.64
734.976	8597.33
735.317	8519.59
735.658	8500.16
735.999	8567.95
736.339	8527.95
736.68	8540.83
737.021	8584
737.361	8567.27
737.702	8601.62
738.042	8590.32
738.383	8536.77
738.723	8661.51
739.063	8584
739.404	8600.04
739.744	8556.43
740.084	8590.55
740.424	8660.61
740.764	8613.38
741.104	8685.24
741.444	8625.8
741.784	8672.58
742.124	8734.5
742.464	8747.38
742.804	8735.86
743.143	8680.94
743.483	8770.89
743.823	8756.65
744.162	8739.7
744.502	8848.4
744.841	8802.07
745.181	8872.35
745.52	8846.36
745.86	8979.02
746.199	8941.05
746.538	9015.85
746.877	9072.8
747.216	9139.01
747.556	9130.42
747.895	9271.66
748.234	9248.61
748.573	9368.16
748.911	9312.34
749.25	9423.07
749.589	9399.57
749.928	9580.36
750.267	9630.98
750.605	9687.25
750.944	9707.36
751.283	9793.68
751.621	9898.09
751.96	9958.88
752.298	10089.04
752.636	10117.52
752.975	10223.28
753.313	10352.54
753.651	10407.45
753.989	10538.07
754.327	10654.9
754.666	10752.75
755.004	10829.36
755.342	11002.69
755.679	11137.15
756.017	11229.58
756.355	11432.51
756.693	11499.4
757.031	11679.06
757.368	11811.71
757.706	11915.21
758.044	12043.34
758.381	12238.82
758.719	12422.77
759.056	12521.97
759.394	12719.48
759.731	12830.67
760.068	12965.35
760.405	13107.49
760.743	13206.93
761.08	13532.57
761.417	13586.35
761.754	13807.14
762.091	13922.39
762.428	14092.1
762.765	14146.79
763.102	14447.8
763.438	14492.99
763.775	14715.59
764.112	14909.71
764.449	15069.25
764.785	15237.61
765.122	15255.23
765.458	15511.5
765.795	15734.32
766.131	15870.81
766.467	15988.77
766.804	16060.86
767.14	16224.02
767.476	16344.92
767.812	16521.87
768.148	16713.95
768.485	16809.54
768.821	16898.36
769.157	16975.87
769.492	17128.86
769.828	17284.11
770.164	17282.53
770.5	17498.57
770.836	17604.55
771.171	17582.18
771.507	17668.28
771.842	17774.94
772.178	17903.75
772.513	18034.14
772.849	18100.58
773.184	18158.66
773.519	18130.19
773.855	18230.98
774.19	18358.66
774.525	18391.2
774.86	18572.66
775.195	18567.24
775.53	18535.6
775.865	18622.83
776.2	18570.85
776.535	18657.4
776.87	18610.4
777.205	18669.61
777.539	18679.1
777.874	18840.22
778.209	18873.22
778.543	18857.4
778.878	18862.15
779.212	18940.56
779.547	18779.89
779.881	19041.12
780.215	18929.94
780.55	19148.92
780.884	18932.65
781.218	18957.06
781.552	19152.76
781.886	19066.43
782.22	18995.25
782.554	19033.89
782.888	18902.82
783.222	18988.92
783.556	18902.14
783.889	18943.05
784.223	18811.07
784.557	18942.14
784.89	18970.39
785.224	18830.51
785.557	18848.13
785.891	18814.24
786.224	18818.3
786.558	18821.69
786.891	18681.36
787.224	18712.32
787.557	18728.82
787.891	18725.2
788.224	18756.16
788.557	18817.17
788.89	18706.67
789.223	18734.92
789.556	18640.68
789.888	18677.07
790.221	18550.97
790.554	18390.07
790.887	18482.95
791.219	18509.39
791.552	18411.54
791.884	18308.94
792.217	18329.28
792.549	18273.46
792.882	18178.1
793.214	18195.04
793.546	18281.6
793.879	18114.14
794.211	18142.84
794.543	18115.95
794.875	18085.67
795.207	18150.98
795.539	17913.7
795.871	18040.02
796.203	17870.76
796.535	17766.35
796.867	17739.01
797.198	17790.54
797.53	17779.91
797.862	17616.08
798.193	17703.76
798.525	17613.59
798.856	17601.61
799.188	17488.85
799.519	17408.62
799.85	17321.39
800.182	17378.34
800.513	17362.3
800.844	17246.14
801.175	17425.8
801.506	17268.51
801.837	17184.45
802.168	17174.28
802.499	17175.18
802.83	17047.96
803.161	17080.72
803.491	17069.88
803.822	17137.22
804.153	16943.78
804.483	16795.31
804.814	16816.32
805.145	16791.47
805.475	16711.92
805.805	16745.82
806.136	16660.85
806.466	16703.56
806.796	16732.03
807.126	16571.36
807.457	16667.85
807.787	16572.94
808.117	16527.74
808.447	16446.62
808.777	16491.13
809.107	16372.27
809.436	16344.7
809.766	16255.66
810.096	16280.29
810.426	16244.59
810.755	16239.16
811.085	16145.38
811.414	16235.1
811.744	16072.16
812.073	16039.85
812.403	16130.69
812.732	15930.24
813.061	15985.16
813.39	15948.1
813.719	15936.12
814.049	15941.09
814.378	15822.45
814.707	15832.85
815.036	15823.81
815.365	15734.09
815.693	15570.48
816.022	15677.82
816.351	15550.82
816.68	15560.09
817.008	15543.59
817.337	15470.6
817.665	15376.14
817.994	15447.09
818.322	15449.35
818.651	15397.15
818.979	15315.12
819.307	15428.11
819.636	15405.74
819.964	15255.23
820.292	15341.11
820.62	15311.28
820.948	15357.83
821.276	15352.18
821.604	15307.66
821.932	15315.57
822.259	15288
822.587	15333.2
822.915	15256.82
823.243	15343.37
823.57	15205.29
823.898	15210.94
824.225	15217.27
824.553	15186.31
824.88	15159.42
825.207	15296.14
825.535	15198.74
825.862	15333.2
826.189	15161.23
826.516	15288.68
826.843	15324.39
827.17	15273.54
827.497	15238.74
827.824	15319.87
828.151	15391.28
828.478	15267.21
828.805	15342.01
829.131	15291.17
829.458	15264.27
829.785	15221.56
830.111	15249.36
830.438	15341.33
830.764	15275.12
831.09	15317.38
831.417	15182.02
831.743	15301.79
832.069	15269.7
832.395	15167.33
832.722	15255.91
833.048	15152.86
833.374	15295.69
833.7	15147.67
834.026	15159.64
834.351	15211.17
834.677	15123.03
835.003	15150.38
835.329	15108.57
835.654	15090.27
835.98	15038.74
836.306	15073.77
836.631	14974.79
836.956	15078.29
837.282	15097.72
837.607	14950.38
837.932	14949.48
838.258	15032.64
838.583	14891.18
838.908	14894.11
839.233	14875.36
839.558	14916.49
839.883	14738.86
840.208	14777.73
840.533	14738.19
840.858	14751.97
841.182	14763.04
841.507	14642.37
841.832	14666.55
842.156	14675.14
842.481	14641.01
842.805	14551.3
843.13	14556.04
843.454	14567.34
843.778	14434.24
844.103	14449.15
844.427	14433.11
844.751	14408.7
845.075	14328.71
845.399	14304.3
845.723	14246.45
846.047	14173.46
846.371	14098.65
846.695	14090.97
847.019	13996.28
847.343	13951.77
847.666	13967.36
847.99	13871.77
848.313	13838.1
848.637	13744.77
848.96	13701.38
849.284	13715.16
849.607	13613.7
849.931	13564.43
850.254	13480.14
850.577	13420.25
850.9	13407.15
851.223	13370.76
851.546	13228.62
851.869	13159.24
852.192	13175.06
852.515	13055.52
852.838	12989.98
853.161	13029.08
853.483	12983.66
853.806	12931.23
854.129	12910.89
854.451	12812.36
854.774	12778.69
855.096	12767.84
855.419	12760.61
855.741	12673.38
856.063	12611.24
856.385	12640.16
856.708	12540.28
857.03	12526.27
857.352	12509.09
857.674	12499.6
857.996	12449.88
858.318	12408.3
858.64	12333.73
858.961	12388.64
859.283	12370.79
859.605	12260.51
859.926	12272.04
860.248	12230.23
860.57	12144.36
860.891	12302.09
861.212	12131.93
861.534	12122.21
861.855	12075.43
862.176	12030.69
862.498	12010.8
862.819	12041.76
863.14	11982.33
863.461	11879.28
863.782	11873.4
864.103	11896.23
864.424	11890.35
864.745	11908.88
865.065	11778.26
865.386	11809
865.707	11809
866.027	11699.4
866.348	11752.5
866.668	11773.29
866.989	11650.81
867.309	11631.83
867.63	11592.96
867.95	11681.77
868.27	11555.67
868.59	11571.72
868.91	11497.37
869.23	11513.86
869.55	11457.59
869.87	11598.61
870.19	11502.56
870.51	11581.21
870.83	11499.18
871.15	11432.28
871.469	11415.11
871.789	11433.64
872.109	11451.04
872.428	11419.4
872.748	11421.21
873.067	11324.72
873.386	11351.61
873.706	11280.65
874.025	11239.29
874.344	11208.34
874.663	11200.65
874.982	11189.58
875.301	11247.43
875.62	11240.88
875.939	11191.16
876.258	11176.02
876.577	11074.78
876.896	11095.34
877.214	11132.86
877.533	11129.47
877.852	11035.68
878.17	11079.3
878.489	11010.6
878.807	11093.08
879.125	10993.88
879.444	10974.44
879.762	10911.62
880.08	10984.84
880.398	10900.09
880.716	10954.78
881.034	10887.89
881.352	10897.38
881.67	10799.31
881.988	10806.54
882.306	10781.45
882.624	10736.03
882.941	10705.07
883.259	10676.37
883.577	10713.21
883.894	10664.17
884.212	10654
884.529	10579.65
884.846	10637.95
885.164	10571.74
885.481	10533.1
885.798	10519.09
886.115	10460.78
886.432	10394.35
886.75	10411.75
887.067	10409.71
887.383	10371.07
887.7	10365.19
888.017	10331.3
888.334	10377.62
888.651	10231.64
888.967	10293.11
889.284	10210.62
889.6	10164.29
889.917	10122.04
890.233	10114.35
890.55	10057.86
890.866	10130.17
891.182	10049.72
891.498	10007.24
891.815	10063.51
892.131	9950.97
892.447	9929.72
892.763	9900.35
893.079	9794.36
893.395	9818.99
893.71	9728.37
894.026	9788.26
894.342	9769.95
894.657	9690.18
894.973	9621.26
895.289	9738.32
895.604	9595.5
895.92	9587.36
896.235	9541.26
896.55	9504.88
896.865	9466.69
897.181	9497.19
897.496	9476.18
897.811	9446.57
898.126	9351.21
898.441	9309.18
898.756	9327.93
899.071	9236.18
899.386	9274.6
899.7	9147.37
900.015	9175.62
900.33	9085.91
900.644	9121.84
900.959	9085.23
901.273	9021.5
901.588	9042.29
901.902	9000.26
902.216	8955.74
902.531	8903.54
902.845	8835.06
903.159	8827.83
903.473	8834.39
903.787	8763.2
904.101	8716.88
904.415	8691.11
904.729	8689.76
905.042	8645.69
905.356	8611.12
905.67	8560.04
905.984	8589.87
906.297	8515.75
906.611	8541.06
906.924	8454.96
907.237	8428.07
907.551	8366.15
907.864	8313.5
908.177	8338.58
908.491	8312.14
908.804	8241.18
909.117	8175.42
909.43	8151.69
909.743	8080.96
910.056	8048.19
910.368	8012.04
910.681	8024.69
910.994	8028.53
911.307	7990.34
911.619	7906.05
911.932	7967.06
912.244	7879.61
912.557	7822.21
912.869	7747.86
913.181	7751.25
913.494	7740.4
913.806	7720.74
914.118	7621.54
914.43	7644.14
914.742	7623.34
915.054	7533.86
915.366	7574.31
915.678	7514.87
915.99	7534.31
916.302	7429
916.613	7365.95
916.925	7369.57
917.236	7384.25
917.548	7370.02
917.859	7346.06
918.171	7238.72
918.482	7221.32
918.794	7200.76
919.105	7146.52
919.416	7110.14
919.727	7123.02
920.038	7106.3
920.349	7030.37
920.66	7028.11
920.971	7051.61
921.282	7017.26
921.593	6918.96
921.903	6921.44
922.214	6885.96
922.525	6905.62
922.835	6822.46
923.146	6786.98
923.456	6781.11
923.767	6752.18
924.077	6724.84
924.387	6730.71
924.697	6668.79
925.008	6621.34
925.318	6586.99
925.628	6600.32
925.938	6574.33
926.248	6472.64
926.558	6507.44
926.867	6501.57
927.177	6449.36
927.487	6422.92
927.796	6418.86
928.106	6353.77
928.416	6340.44
928.725	6294.11
929.034	6313.77
929.344	6238.75
929.653	6265.19
929.962	6192.42
930.271	6162.37
930.581	6185.87
930.89	6133.44
931.199	6135.7
931.508	6038.98
931.817	6131.41
932.125	6077.62
932.434	6086.44
932.743	5999.43
933.051	5979.09
933.36	5929.15
933.669	5869.72
933.977	5855.93
934.286	5882.83
934.594	5869.27
934.902	5824.75
935.21	5798.08
935.519	5775.71
935.827	5778.65
936.135	5698.88
936.443	5680.8
936.751	5656.62
937.059	5646.45
937.367	5635.37
937.674	5589.27
937.982	5617.07
938.29	5566
938.597	5534.59
938.905	5478.99
939.213	5494.14
939.52	5422.27
939.827	5474.7
940.135	5462.05
940.442	5371.65
940.749	5413.46
941.056	5374.14
941.363	5311.99
941.67	5279.45
941.977	5282.84
942.284	5208.94
942.591	5250.53
942.898	5178.44
943.205	5208.04
943.511	5173.69
943.818	5187.7
944.125	5142.73
944.431	5107.25
944.738	5088.72
945.044	5060.93
945.35	5048.05
945.657	5010.76
945.963	4974.83
946.269	5032
946.575	4981.38
946.881	4943.19
947.187	4928.27
947.493	4923.08
947.799	4876.07
948.105	4863.19
948.41	4849.86
948.716	4825.23
949.022	4772.35
949.327	4793.14
949.633	4701.84
949.938	4723.99
950.244	4743.87
950.549	4695.29
950.854	4653.71
951.16	4672.91
951.465	4626.36
951.77	4624.55
952.075	4607.83
952.38	4574.16
952.685	4569.64
952.99	4481.96
953.294	4565.35
953.599	4486.25
953.904	4459.81
954.209	4440.15
954.513	4412.36
954.818	4382.3
955.122	4389.98
955.426	4373.94
955.731	4330.32
956.035	4311.57
956.339	4297.33
956.643	4338.46
956.948	4234.96
957.252	4266.82
957.556	4230.67
957.86	4227.73
958.163	4208.52
958.467	4185.02
958.771	4196.99
959.075	4118.58
959.378	4114.51
959.682	4149.31
959.985	4100.5
960.289	4095.53
960.592	4091.69
960.896	4038.81
961.199	4046.72
961.502	4037.68
961.805	3970.56
962.108	3975.08
962.411	3980.5
962.714	3923.33
963.017	3931.92
963.32	3924.01
963.623	3923.33
963.926	3893.5
964.228	3865.48
964.531	3848.98
964.833	3873.84
965.136	3806.5
965.438	3849.88
965.741	3774.41
966.043	3772.6
966.345	3744.8
966.648	3769.43
966.95	3743.67
967.252	3680.62
967.554	3668.87
967.856	3641.98
968.158	3632.72
968.46	3643.34
968.761	3629.55
969.063	3606.95
969.365	3569.44
969.666	3587.52
969.968	3543
970.269	3541.64
970.571	3547.52
970.872	3513.85
971.174	3486.73
971.475	3547.29
971.776	3485.83
972.077	3445.83
972.378	3430.46
972.679	3373.51
972.98	3447.86
973.281	3416.45
973.582	3402.89
973.883	3345.04
974.183	3352.5
974.484	3325.6
974.785	3313.4
975.085	3319.05
975.386	3273.85
975.686	3299.84
975.986	3273.85
976.287	3224.82
976.587	3216
976.887	3225.04
977.187	3207.42
977.487	3195.66
977.787	3189.34
978.087	3170.81
978.387	3178.26
978.687	3117.02
978.987	3114.31
979.286	3103.92
979.586	3094.42
979.885	3063.46
980.185	3090.13
980.484	3046.06
980.784	3024.82
981.083	3014.65
981.382	3027.76
981.682	2990.25
981.981	2990.47
982.28	2966.29
982.579	2951.83
982.878	2973.3
983.177	2927.65
983.475	2922.9
983.774	2893.75
984.073	2908.44
984.372	2847.43
984.67	2887.65
984.969	2871.15
985.267	2810.36
985.566	2822.57
985.864	2824.15
986.162	2814.43
986.461	2805.17
986.759	2750.48
987.057	2762
987.355	2730.59
987.653	2761.55
987.951	2746.41
988.249	2698.95
988.547	2696.24
988.844	2682.91
989.142	2721.78
989.44	2631.39
989.737	2637.49
990.035	2642.68
990.332	2615.57
990.63	2588.67
990.927	2615.57
991.224	2575.57
991.521	2588.67
991.819	2579.41
992.116	2569.92
992.413	2581.22
992.71	2519.3
993.006	2531.28
993.303	2499.86
993.6	2492.18
993.897	2479.98
994.193	2472.07
994.49	2472.52
994.787	2423.03
995.083	2416.93
995.379	2419.64
995.676	2428.23
995.972	2365.86
996.268	2347.33
996.565	2361.56
996.861	2374.67
997.157	2348
997.453	2372.86
997.749	2353.65
998.044	2319.98
998.34	2319.98
998.636	2303.48
998.932	2277.72
999.227	2261.23
999.523	2283.6
999.818	2238.18
1000.114	2221.9
1000.409	2225.29
1000.704	2196.37
1001	2187.33
1001.295	2176.71
1001.59	2170.83
1001.885	2150.95
1002.18	2151.17
1002.475	2153.21
1002.77	2141.45
1003.065	2126.77
1003.359	2100.1
1003.654	2106.88
1003.949	2082.7
1004.243	2066.65
1004.538	2087.67
1004.832	2037.95
1005.127	2010.38
1005.421	2022.36
1005.715	1999.09
1006.009	2005.41
1006.304	1971.29
1006.598	1970.61
1006.892	1946.21
1007.186	1980.33
1007.48	1949.14
1007.773	1927.45
1008.067	1919.31
1008.361	1892.65
1008.655	1913.44
1008.948	1905.08
1009.242	1888.81
1009.535	1887.45
1009.829	1836.6
1010.122	1853.33
1010.415	1841.58
1010.708	1833.21
1011.001	1789.6
1011.295	1797.06
1011.588	1785.53
1011.881	1773.78
1012.173	1787.11
1012.466	1789.37
1012.759	1728.36
1013.052	1755.48
1013.344	1732.88
1013.637	1741.47
1013.93	1710.05
1014.222	1740.34
1014.514	1666.44
1014.807	1701.69
1015.099	1686.33
1015.391	1666.21
1015.683	1670.73
1015.976	1644.52
1016.268	1620.56
1016.56	1599.77
1016.851	1578.53
1017.143	1585.76
1017.435	1588.7
1017.727	1602.49
1018.018	1561.36
1018.31	1579.66
1018.602	1550.28
1018.893	1545.09
1019.185	1523.84
1019.476	1506.44
1019.767	1506.9
1020.058	1501.92
1020.35	1490.4
1020.641	1495.37
1020.932	1479.33
1021.223	1445.65
1021.514	1456.5
1021.804	1455.15
1022.095	1435.26
1022.386	1442.94
1022.677	1421.93
1022.967	1448.14
1023.258	1400.68
1023.548	1380.8
1023.839	1387.35
1024.129	1401.59
1024.419	1387.12
1024.709	1331.98
1025	1344.87
1025.29	1340.57
1025.58	1326.79
1025.87	1335.6
1026.16	1318.65
1026.449	1302.83
1026.739	1303.28
1027.029	1306.45
1027.319	1298.99
1027.608	1282.72
1027.898	1263.74
1028.187	1259.9
1028.477	1235.26
1028.766	1254.7
1029.055	1221.93
1029.344	1243.17
1029.634	1223.29
1029.923	1189.62
1030.212	1213.8
1030.501	1193.23
1030.79	1180.12
1031.078	1191.65
1031.367	1182.16
1031.656	1159.33
1031.945	1161.37
1032.233	1132.44
1032.522	1171.76
1032.81	1134.02
1033.099	1126.11
1033.387	1128.15
1033.675	1112.1
1033.963	1087.25
1034.251	1089.51
1034.54	1117.98
1034.828	1091.54
1035.116	1084.76
1035.403	1071.2
1035.691	1051.99
1035.979	1060.13
1036.267	1037.08
1036.554	1052.67
1036.842	1028.04
1037.129	1030.98
1037.417	1037.76
1037.704	997.76
1037.992	987.14
1038.279	1005.67
1038.566	1001.6
1038.853	1001.6
1039.14	1001.6
