Data from hue_100_FLMS001491_00099.txt Node
Date: Tue Feb 07 17:03:55 GMT 2017
User: dcchb
Spectrometer: FLMS00149
Trigger mode: 0
Integration Time (sec): 2.000000E-2
Scans to average: 10
Electric dark correction enabled: true
Nonlinearity correction enabled: false
Boxcar width: 0
XAxis mode: Wavelengths
Number of Pixels in Spectrum: 2048
>>>>>Begin Spectral Data<<<<<
341.393	-1.1
341.776	-1.1
342.16	-1.1
342.543	-84.94
342.927	-55.79
343.31	-88.11
343.693	-58.28
344.077	-76.35
344.46	-44.26
344.843	-57.37
345.226	-41.55
345.61	-19.63
345.993	-25.96
346.376	-13.98
346.759	19.69
347.142	43.64
347.525	40.48
347.908	76.86
348.291	66.24
348.674	82.51
349.057	96.07
349.44	107.82
349.823	144.43
350.206	150.08
350.588	192.57
350.971	217.65
351.354	229.17
351.737	245.22
352.119	268.5
352.502	244.77
352.884	253.58
353.267	267.14
353.65	299.23
354.032	296.74
354.414	297.2
354.797	294.26
355.179	337.65
355.562	320.02
355.944	320.7
356.326	308.49
356.709	323.18
357.091	338.55
357.473	351.88
357.855	358.89
358.238	347.14
358.62	333.35
359.002	326.57
359.384	346.23
359.766	320.47
360.148	347.82
360.53	347.36
360.912	354.14
361.294	334.26
361.676	342.62
362.057	325.22
362.439	334.71
362.821	331.54
363.203	333.13
363.584	318.89
363.966	327.48
364.348	327.03
364.729	332
365.111	327.7
365.493	322.96
365.874	307.82
366.256	329.96
366.637	315.95
367.019	338.55
367.4	334.26
367.781	320.02
368.163	311.66
368.544	306.91
368.925	313.92
369.306	303.98
369.688	316.86
370.069	325.22
370.45	319.57
370.831	317.76
371.212	334.71
371.593	305.78
371.974	316.4
372.355	295.61
372.736	309.85
373.117	315.05
373.498	299.46
373.879	320.02
374.26	323.41
374.641	322.28
375.021	300.36
375.402	307.82
375.783	305.78
376.163	338.55
376.544	325.22
376.925	315.27
377.305	325.22
377.686	339
378.066	325.9
378.447	339
378.827	321.15
379.208	363.86
379.588	333.13
379.968	342.84
380.349	334.93
380.729	332.9
381.109	342.62
381.489	339.91
381.87	327.48
382.25	341.94
382.63	339.23
383.01	329.74
383.39	344.2
383.77	350.98
384.15	350.98
384.53	353.69
384.91	352.79
385.29	337.65
385.67	355.95
386.049	383.07
386.429	361.37
386.809	372.67
387.189	368.61
387.568	358.89
387.948	337.65
388.328	372.45
388.707	371.54
389.087	357.31
389.466	366.35
389.846	365.22
390.225	381.04
390.605	373.58
390.984	366.35
391.363	374.71
391.743	389.62
392.122	357.53
392.501	381.49
392.881	396.4
393.26	370.64
393.639	373.58
394.018	386.46
394.397	375.16
394.776	392.56
395.155	386.01
395.534	390.53
395.913	396.63
396.292	391.2
396.671	383.07
397.05	390.98
397.429	386.23
397.808	389.4
398.186	405.44
398.565	407.02
398.944	398.66
399.323	385.33
399.701	423.52
400.08	409.73
400.458	404.76
400.837	408.15
401.215	393.69
401.594	426.68
401.972	421.49
402.351	421.71
402.729	418.55
403.107	414.93
403.486	422.16
403.864	429.85
404.242	451.54
404.62	445.89
404.999	444.54
405.377	421.03
405.755	430.3
406.133	437.53
406.511	442.5
406.889	444.31
407.267	423.75
407.645	450.86
408.023	456.29
408.401	475.27
408.779	457.42
409.156	493.57
409.534	475.27
409.912	449.96
410.29	476.63
410.667	484.54
411.045	475.95
411.422	462.61
411.8	481.82
412.178	498.55
412.555	506.23
412.933	494.25
413.31	515.95
413.687	513.24
414.065	505.55
414.442	501.03
414.819	529.05
415.197	517.98
415.574	520.92
415.951	524.08
416.328	534.48
416.705	525.66
417.082	513.69
417.46	543.97
417.837	555.04
418.214	544.42
418.591	554.36
418.967	533.12
419.344	567.47
419.721	573.57
420.098	536.06
420.475	558.66
420.852	592.33
421.228	567.47
421.605	576.51
421.982	592.33
422.358	588.04
422.735	580.8
423.111	585.78
423.488	603.63
423.864	606.57
424.241	613.8
424.617	594.14
424.994	614.48
425.37	625.1
425.746	626.45
426.123	619.22
426.499	629.16
426.875	626.9
427.251	633.46
427.627	650.86
428.003	653.34
428.379	656.96
428.756	665.1
429.132	665.1
429.507	683.17
429.883	694.02
430.259	703.74
430.635	674.59
431.011	675.04
431.387	725.21
431.763	723.85
432.138	727.24
432.514	731.76
432.89	718.2
433.265	744.64
433.641	736.73
434.016	750.97
434.392	767.69
434.767	750.74
435.143	774.25
435.518	785.77
435.894	790.06
436.269	769.05
436.644	778.76
437.02	793.45
437.395	816.28
437.77	806.33
438.145	819.89
438.52	830.06
438.895	852.89
439.271	835.26
439.646	865.32
440.021	862.38
440.395	867.58
440.77	867.58
441.145	874.36
441.52	892.43
441.895	881.81
442.27	908.25
442.645	877.29
443.019	910.29
443.394	903.28
443.769	913
444.143	907.12
444.518	944.86
444.892	926.78
445.267	923.62
445.641	946.67
446.016	952.32
446.39	949.38
446.764	969.72
447.139	972.21
447.513	993.45
447.887	955.48
448.262	979.44
448.636	995.93
449.01	1027.8
449.384	1002.71
449.758	1017.4
450.132	1027.57
450.506	1024.18
450.88	1037.97
451.254	1024.63
451.628	1045.42
452.002	1081.58
452.376	1066.21
452.75	1081.13
453.123	1107.12
453.497	1094.01
453.871	1116.38
454.244	1128.36
454.618	1137.17
454.992	1153.9
455.365	1168.81
455.739	1167.23
456.112	1227.34
456.486	1188.7
456.859	1209.26
457.232	1231.63
457.606	1258.07
457.979	1214.69
458.352	1256.72
458.725	1277.06
459.099	1290.16
459.472	1345.76
459.845	1326.1
460.218	1338.52
460.591	1378.52
460.964	1356.83
461.337	1425.3
461.71	1417.17
462.083	1435.92
462.456	1432.76
462.829	1450.61
463.201	1474.34
463.574	1502.14
463.947	1492.64
464.32	1535.13
464.692	1543.49
465.065	1565.64
465.438	1582.59
465.81	1630.49
466.183	1652.87
466.555	1676.59
466.928	1715.24
467.3	1718.85
467.672	1729.25
468.045	1788.23
468.417	1764.05
468.789	1818.51
469.161	1844.95
469.534	1887.44
469.906	1891.73
470.278	1929.47
470.65	1995.23
471.022	2006.76
471.394	2058.28
471.766	2072.52
472.138	2121.1
472.51	2136.24
472.882	2196.81
473.253	2237.48
473.625	2298.72
473.997	2371.27
474.369	2349.35
474.74	2445.61
475.112	2511.83
475.484	2525.16
475.855	2622.11
476.227	2621.2
476.598	2750.69
476.97	2822.78
477.341	2876.11
477.713	2939.16
478.084	2949.1
478.455	3090.57
478.827	3149.1
479.198	3256.21
479.569	3303.9
479.94	3421.86
480.311	3506.83
480.682	3582.53
481.053	3713.38
481.424	3815.3
481.795	3872.24
482.166	3979.58
482.537	4076.98
482.908	4208.73
483.279	4261.61
483.65	4377.77
484.021	4508.61
484.391	4585.67
484.762	4770.07
485.133	4853.23
485.503	4962.61
485.874	5127.13
486.244	5168.48
486.615	5346.1
486.985	5459.55
487.356	5648.47
487.726	5696.6
488.097	5892.98
488.467	6013.66
488.837	6189.02
489.207	6296.36
489.578	6508.56
489.948	6590.59
490.318	6710.36
490.688	6858.15
491.058	7008.88
491.428	7152.83
491.798	7337.46
492.168	7483.9
492.538	7589.89
492.908	7805.02
493.278	7966.15
493.648	7977.67
494.017	8228.51
494.387	8331.33
494.757	8437.55
495.126	8596.19
495.496	8686.81
495.866	8865.11
496.235	8956.18
496.605	9160.92
496.974	9190.97
497.344	9388.48
497.713	9500.34
498.082	9629.38
498.452	9751.18
498.821	9878.41
499.19	9972.87
499.559	10127.67
499.928	10226.43
500.298	10332.41
500.667	10477.04
501.036	10571.28
501.405	10697.6
501.774	10699.86
502.143	10806.07
502.512	10899.63
502.88	11060.3
503.249	11114.54
503.618	11224.37
503.987	11279.28
504.356	11406.96
504.724	11523.79
505.093	11574.87
505.462	11731.47
505.83	11793.16
506.199	11902.09
506.567	12084.46
506.936	12057.34
507.304	12237.45
507.672	12314.73
508.041	12266.82
508.409	12482.19
508.777	12562.41
509.145	12581.84
509.514	12601.73
509.882	12747.26
510.25	12719.47
510.618	12815.96
510.986	12855.96
511.354	13050.76
511.722	13127.14
512.09	13167.37
512.458	13154.03
512.826	13280.81
513.193	13296.4
513.561	13376.4
513.929	13438.32
514.297	13526.9
514.664	13620.46
515.032	13637.86
515.4	13672.44
515.767	13804.19
516.135	13832.66
516.502	13744.53
516.869	13850.51
517.237	14044.86
517.604	13943.39
517.972	14043.05
518.339	14168.92
518.706	14076.49
519.073	14085.76
519.44	14098.64
519.808	14242.59
520.175	14302.48
520.542	14384.06
520.909	14456.15
521.276	14450.04
521.643	14508.57
522.009	14659.3
522.376	14542.47
522.743	14615.24
523.11	14794.89
523.477	14740.43
523.843	14838.28
524.21	14909.92
524.577	14939.97
524.943	14952.18
525.31	15006.87
525.676	15125.05
526.043	15116.01
526.409	15127.99
526.776	15244.6
527.142	15190.36
527.508	15283.92
527.874	15352.17
528.241	15311.49
528.607	15312.85
528.973	15366.63
529.339	15372.96
529.705	15494.99
530.071	15552.39
530.437	15468.77
530.803	15525.95
531.169	15492.95
531.535	15451.83
531.901	15430.36
532.267	15410.02
532.632	15592.16
532.998	15540.41
533.364	15615.21
533.73	15541.09
534.095	15621.54
534.461	15662.89
534.826	15530.69
535.192	15600.75
535.557	15622.67
535.923	15658.83
536.288	15568.88
536.653	15572.5
537.019	15492.05
537.384	15506.97
537.749	15506.51
538.114	15398.95
538.479	15376.35
538.845	15460.19
539.21	15336.35
539.575	15305.61
539.94	15294.32
540.305	15308.33
540.67	15220.19
541.034	15385.16
541.399	15224.94
541.764	15312.17
542.129	15239.63
542.494	15260.42
542.858	15252.96
543.223	15205.96
543.587	15262.45
543.952	15181.32
544.316	15116.24
544.681	15094.32
545.045	15099.74
545.41	15137.26
545.774	15046.86
546.138	15059.52
546.503	14996.24
546.867	14957.15
547.231	14955.79
547.595	14833.76
547.959	14947.43
548.324	14847.55
548.688	14920.77
549.052	14916.7
549.416	14830.15
549.779	14824.72
550.143	14805.51
550.507	14737.49
550.871	14730.04
551.235	14686.42
551.599	14723.93
551.962	14721.22
552.326	14675.57
552.689	14723.26
553.053	14601
553.417	14544.96
553.78	14768
554.143	14651.85
554.507	14604.84
554.87	14581.57
555.234	14633.09
555.597	14555.35
555.96	14522.36
556.323	14505.18
556.686	14535.92
557.05	14560.1
557.413	14522.36
557.776	14500.66
558.139	14573.66
558.502	14490.04
558.865	14558.52
559.228	14512.87
559.59	14560.1
559.953	14527.33
560.316	14578.63
560.679	14579.31
561.041	14645.52
561.404	14609.36
561.767	14585.41
562.129	14572.07
562.492	14656.14
562.854	14672.41
563.217	14623.15
563.579	14598.29
563.941	14648.68
564.304	14747.21
564.666	14745.86
565.028	14620.89
565.39	14738.17
565.753	14820.88
566.115	14732.75
566.477	14866.3
566.839	14815.01
567.201	14910.14
567.563	14845.74
567.925	14982.69
568.287	14994.66
568.648	14863.14
569.01	14975.23
569.372	15040.54
569.734	14849.58
570.095	15024.04
570.457	15032.63
570.819	15025.4
571.18	15051.84
571.542	14993.53
571.903	15004.15
572.265	15112.17
572.626	15086.41
572.987	15103.13
573.349	15171.61
573.71	15145.84
574.071	15183.13
574.432	15076.47
574.794	15278.72
575.155	15224.71
575.516	15194.43
575.877	15278.27
576.238	15218.16
576.599	15268.55
576.96	15208.44
577.32	15240.08
577.681	15318.95
578.042	15309.91
578.403	15254.09
578.763	15304.03
579.124	15342.22
579.485	15448.44
579.845	15367.31
580.206	15309.23
580.566	15269.91
580.927	15311.26
581.287	15410.47
581.648	15239.18
582.008	15393.07
582.368	15312.85
582.728	15355.1
583.089	15318.5
583.449	15220.42
583.809	15319.4
584.169	15246.86
584.529	15275.11
584.889	15378.38
585.249	15281.21
585.609	15229.23
585.969	15226.07
586.329	15212.28
586.688	15319.85
587.048	15262.23
587.408	15179.29
587.768	15166.64
588.127	15068.56
588.487	15145.39
588.846	15214.54
589.206	15098.84
589.565	15176.58
589.925	15122.34
590.284	15164.83
590.643	15221.1
591.003	15088.9
591.362	15215.67
591.721	15177.93
592.08	15107.2
592.44	15164.38
592.799	15049.8
593.158	15061.78
593.517	15063.81
593.876	15204.6
594.235	15034.89
594.593	14968.9
594.952	15099.29
595.311	14994.44
595.67	15037.37
596.029	15138.84
596.387	15065.39
596.746	15066.75
597.104	15019.29
597.463	15041.44
597.822	15068.56
598.18	14968.67
598.538	15052.51
598.897	15063.59
599.255	14863.59
599.613	15147.43
599.972	15041.21
600.33	15044.83
600.688	15019.52
601.046	14998.73
601.404	15061.1
601.762	15135.22
602.12	15133.42
602.478	15102.91
602.836	15041.44
603.194	14945.4
603.552	14973.42
603.91	14913.31
604.268	15098.39
604.625	14970.48
604.983	15021.78
605.341	14924.38
605.698	15001.67
606.056	15135.9
606.413	15047.54
606.771	15087.99
607.128	15105.85
607.485	14940.65
607.843	15021.78
608.2	15196.92
608.557	15216.35
608.914	15071.72
609.272	15202.79
609.629	15216.8
609.986	15167.99
610.343	15218.39
610.7	15226.52
611.057	15240.31
611.414	15267.2
611.771	15175.9
612.127	15190.82
612.484	15184.94
612.841	15239.85
613.198	15154.88
613.554	15217.71
613.911	15295.67
614.267	15285.73
614.624	15273.3
614.98	15243.24
615.337	15339.06
615.693	15315.11
616.05	15287.08
616.406	15398.49
616.762	15341.77
617.118	15342
617.475	15314.88
617.831	15440.07
618.187	15381.09
618.543	15447.08
618.899	15457.25
619.255	15476.23
619.611	15388.1
619.967	15477.81
620.323	15479.4
620.678	15583.57
621.034	15474.2
621.39	15529.79
621.746	15491.82
622.101	15621.54
622.457	15452.73
622.812	15454.54
623.168	15563.46
623.523	15488.66
623.879	15586.51
624.234	15511.26
624.589	15459.96
624.945	15510.35
625.3	15509.68
625.655	15456.57
626.01	15476.01
626.365	15463.35
626.72	15443.69
627.075	15459.28
627.43	15437.59
627.785	15448.44
628.14	15473.97
628.495	15486.4
628.85	15473.52
629.205	15413.63
629.559	15455.89
629.914	15409.34
630.269	15384.71
630.623	15292.06
630.978	15403.69
631.332	15403.24
631.687	15466.29
632.041	15323.24
632.396	15368.89
632.75	15342.22
633.104	15352.62
633.459	15263.58
633.813	15200.98
634.167	15313.3
634.521	15165.96
634.875	15234.88
635.229	15197.37
635.583	15106.3
635.937	15142.45
636.291	14997.6
636.645	15063.81
636.999	15136.58
637.352	15135.22
637.706	15084.83
638.06	15022.91
638.413	15046.64
638.767	15032.63
639.121	15019.75
639.474	14986.98
639.828	14950.6
640.181	14897.72
640.534	14935
640.888	14890.48
641.241	14827.66
641.594	14864.04
641.947	14918.51
642.301	14904.04
642.654	14766.65
643.007	14761.9
643.36	14859.75
643.713	14826.98
644.066	14857.94
644.419	14700.21
644.771	14641
645.124	14562.13
645.477	14595.58
645.83	14398.97
646.182	14378.41
646.535	14343.83
646.888	14342.7
647.24	14230.16
647.593	14370.95
647.945	14350.84
648.298	14285.3
648.65	14281.69
649.002	14187.23
649.355	14308.8
649.707	14252.76
650.059	14396.49
650.411	14598.29
650.763	14498.4
651.115	14657.27
651.467	14613.66
651.819	14674.67
652.171	14610.72
652.523	14539.98
652.875	14583.83
653.227	14547.22
653.578	14624.05
653.93	14659.76
654.282	14584.96
654.633	14574.33
654.985	14556.93
655.337	14590.38
655.688	14679.42
656.039	14638.29
656.391	14488.01
656.742	14572.3
657.094	14610.27
657.445	14654.11
657.796	14575.46
658.147	14613.66
658.498	14613.66
658.849	14626.99
659.2	14626.99
659.551	14536.14
659.902	14588.57
660.253	14670.83
660.604	14622.47
660.955	14546.31
661.306	14657.27
661.656	14683.03
662.007	14683.71
662.358	14640.55
662.708	14680.55
663.059	14662.69
663.409	14578.4
663.76	14725.52
664.11	14680.55
664.461	14746.76
664.811	14776.14
665.161	14786.31
665.511	14627.44
665.862	14704.95
666.212	14738.85
666.562	14631.06
666.912	14706.31
667.262	14636.25
667.612	14632.86
667.962	14682.58
668.312	14665.86
668.662	14784.95
669.011	14678.51
669.361	14628.34
669.711	14632.41
670.06	14626.99
670.41	14584.28
670.76	14617.27
671.109	14659.76
671.459	14552.64
671.808	14549.02
672.157	14610.49
672.507	14455.24
672.856	14552.41
673.205	14604.84
673.554	14552.64
673.904	14514.45
674.253	14625.63
674.602	14512.19
674.951	14361.68
675.3	14236.49
675.649	14474.45
675.998	14405.75
676.346	14447.78
676.695	14494.11
677.044	14341.35
677.393	14362.36
677.741	14354.45
678.09	14401.23
678.438	14313.1
678.787	14279.65
679.135	14344.51
679.484	14181.8
679.832	14300.67
680.181	14210.95
680.529	14196.94
680.877	14227.22
681.225	14198.75
681.573	14194.46
681.922	14166.44
682.27	14031.98
682.618	14047.12
682.966	14033.56
683.314	14144.52
683.661	13983.16
684.009	13915.82
684.357	13891.87
684.705	13924.41
685.053	13878.99
685.4	13847.35
685.748	13842.15
686.095	13753.34
686.443	13753.56
686.79	13702.04
687.138	13707.46
687.485	13712.89
687.832	13638.77
688.18	13696.17
688.527	13514.02
688.874	13527.81
689.221	13525.32
689.568	13509.96
689.915	13461.37
690.262	13499.33
690.609	13424.31
690.956	13347.02
691.303	13246.01
691.65	13353.58
691.997	13272
692.344	13175.73
692.69	13193.58
693.037	13041.72
693.383	13023.41
693.73	13135.05
694.077	13028.61
694.423	12970.53
694.769	12975.73
695.116	12805.57
695.462	12801.5
695.808	12766.7
696.155	12790.65
696.501	12656.19
696.847	12638.79
697.193	12613.93
697.539	12558.34
697.885	12534.16
698.231	12461.4
698.577	12414.17
698.923	12346.6
699.269	12335.3
699.614	12260.95
699.96	12201.97
700.306	12290.33
700.651	12155.87
700.997	12103.66
701.342	12106.15
701.688	12055.76
702.033	12001.52
702.379	11936.66
702.724	11938.47
703.069	11958.58
703.415	11805.59
703.76	11780.06
704.105	11794.29
704.45	11764.69
704.795	11684.69
705.14	11631.59
705.485	11594.53
705.83	11656.9
706.175	11616.45
706.52	11591.59
706.865	11493.06
707.209	11442.89
707.554	11382.78
707.899	11446.28
708.243	11376.23
708.588	11363.57
708.932	11269.56
709.277	11308.43
709.621	11277.47
709.966	11238.15
710.31	11212.61
710.654	11078.61
710.998	11131.49
711.342	11103.24
711.687	11097.36
712.031	11076.57
712.375	10996.35
712.719	10954.32
713.063	10944.15
713.407	11035.9
713.75	10897.14
714.094	10940.98
714.438	10856.47
714.782	10868.44
715.125	10793.87
715.469	10837.48
715.812	10812.63
716.156	10677.49
716.499	10725.17
716.843	10677.71
717.186	10630.94
717.53	10765.17
717.873	10704.38
718.216	10678.17
718.559	10615.34
718.902	10541.67
719.246	10649.92
719.589	10557.72
719.932	10454.67
720.275	10545.06
720.617	10510.49
720.96	10500.32
721.303	10472.75
721.646	10505.51
721.989	10446.76
722.331	10461
722.674	10415.35
723.016	10416.93
723.359	10347.55
723.701	10399.08
724.044	10410.38
724.386	10333.99
724.729	10383.03
725.071	10391.85
725.413	10345.97
725.755	10357.5
726.097	10311.4
726.439	10274.11
726.782	10216.48
727.124	10301
727.465	10315.46
727.807	10302.13
728.149	10216.03
728.491	10216.26
728.833	10317.5
729.175	10165.64
729.516	10208.35
729.858	10215.8
730.199	10204.73
730.541	10125.86
730.882	10175.58
731.224	10217.16
731.565	10190.27
731.906	10195.92
732.248	10151.85
732.589	10189.59
732.93	10045.19
733.271	10112.98
733.612	10105.98
733.953	10206.77
734.294	10130.84
734.635	10044.96
734.976	10170.83
735.317	10082.25
735.658	10144.85
735.999	10121.12
736.339	10105.53
736.68	10121.12
737.021	10138.29
737.361	10151.63
737.702	10171.29
738.042	10165.86
738.383	10091.51
738.723	10192.98
739.063	10177.61
739.404	10263.26
739.744	10199.31
740.084	10173.55
740.424	10287.44
740.764	10206.31
741.104	10269.14
741.444	10177.61
741.784	10179.87
742.124	10298.06
742.464	10300.55
742.804	10320.43
743.143	10330.6
743.483	10444.5
743.823	10310.04
744.162	10335.35
744.502	10461.22
744.841	10422.35
745.181	10525.4
745.52	10414.22
745.86	10472.52
746.199	10495.57
746.538	10625.74
746.877	10775.34
747.216	10725.17
747.556	10796.13
747.895	10790.48
748.234	10753.42
748.573	10813.98
748.911	10926.75
749.25	11002
749.589	11077.25
749.928	11129.68
750.267	11239.96
750.605	11290.13
750.944	11320.63
751.283	11361.09
751.621	11530.35
751.96	11555.43
752.298	11626.16
752.636	11774.86
752.975	11804.92
753.313	11893.95
753.651	12033.61
753.989	12130.78
754.327	12218.01
754.666	12305.69
755.004	12421.4
755.342	12629.53
755.679	12741.61
756.017	12797.21
756.355	13020.48
756.693	13110.19
757.031	13230.64
757.368	13263.41
757.706	13447.13
758.044	13625.43
758.381	13844.41
758.719	13946.33
759.056	14128.24
759.394	14262.48
759.731	14347.45
760.068	14513.54
760.405	14613.88
760.743	14793.09
761.08	14994.66
761.417	15068.56
761.754	15318.95
762.091	15446.85
762.428	15605.95
762.765	15676.23
763.102	15915.77
763.438	15955.09
763.775	16103.56
764.112	16355.98
764.449	16533.83
764.785	16665.13
765.122	16846.36
765.458	16892.01
765.795	17046.59
766.131	17230.99
766.467	17329.97
766.804	17424.2
767.14	17513.92
767.476	17648.6
767.812	17628.27
768.148	17932.21
768.485	17991.19
768.821	18037.52
769.157	18209.49
769.492	18303.05
769.828	18426.21
770.164	18403.39
770.5	18491.52
770.836	18763.15
771.171	18670.05
771.507	18853.77
771.842	18828.69
772.178	18953.88
772.513	19087.44
772.849	19123.82
773.184	19249.69
773.519	19242.46
773.855	19269.58
774.19	19323.59
774.525	19392.96
774.86	19448.56
775.195	19475
775.53	19475.45
775.865	19487.43
776.2	19568.55
776.535	19453.3
776.87	19527.2
777.205	19607.65
777.539	19566.52
777.874	19809.22
778.209	19642.22
778.543	19751.83
778.878	19647.2
779.212	19788.89
779.547	19693.07
779.881	19715.67
780.215	19711.6
780.55	19898.04
780.884	19699.85
781.218	19723.13
781.552	19716.35
781.886	19733.75
782.22	19615.78
782.554	19703.46
782.888	19662.56
783.222	19575.56
783.556	19488.33
783.889	19584.15
784.223	19486.07
784.557	19488.1
784.89	19699.62
785.224	19503.24
785.557	19351.61
785.891	19535.33
786.224	19380.54
786.558	19452.85
786.891	19355
787.224	19271.61
787.557	19258.28
787.891	19255.79
788.224	19191.84
788.557	19246.75
788.89	19183.25
789.223	19303.48
789.556	19124.72
789.888	19090.37
790.221	19058.28
790.554	18982.58
790.887	18995.69
791.219	18921.79
791.552	18832.98
791.884	18826.43
792.217	18816.93
792.549	18812.19
792.882	18629.14
793.214	18550.27
793.546	18595.92
793.879	18585.75
794.211	18554.57
794.543	18515.7
794.875	18485.19
795.207	18582.82
795.539	18379.88
795.871	18463.95
796.203	18335.59
796.535	18347.12
796.867	18240.9
797.198	18257.85
797.53	18192.32
797.862	18096.95
798.193	18095.15
798.525	18032.55
798.856	18040.23
799.188	17814.02
799.519	17819.22
799.85	17739.22
800.182	17787.36
800.513	17727.47
800.844	17732.67
801.175	17674.14
801.506	17627.36
801.837	17541.04
802.168	17635.04
802.499	17484.99
802.83	17469.17
803.161	17412.9
803.491	17386.24
803.822	17437.99
804.153	17268.05
804.483	17183.31
804.814	17126.58
805.145	17119.8
805.475	17122.29
805.805	17037.55
806.136	17024.89
806.466	16977.66
806.796	17007.94
807.126	16872.8
807.457	16869.64
807.787	16902.63
808.117	16740.61
808.447	16684.11
808.777	16763.2
809.107	16755.75
809.436	16612.7
809.766	16579.93
810.096	16471.91
810.426	16487.05
810.755	16520.95
811.085	16468.75
811.414	16444.57
811.744	16310.56
812.073	16303.78
812.403	16351.69
812.732	16233.27
813.061	16229.66
813.39	16212.03
813.719	16137.91
814.049	16259.26
814.378	16101.98
814.707	16059.27
815.036	16077.8
815.365	16058.14
815.693	15925.26
816.022	15787.86
816.351	15928.42
816.68	15784.92
817.008	15828.09
817.337	15610.01
817.665	15669.22
817.994	15718.26
818.322	15654.76
818.651	15671.93
818.979	15571.37
819.307	15670.12
819.636	15570.92
819.964	15433.29
820.292	15583.8
820.62	15502.45
820.948	15533.63
821.276	15497.7
821.604	15470.13
821.932	15438.72
822.259	15522.11
822.587	15439.17
822.915	15372.05
823.243	15531.15
823.57	15467.19
823.898	15391.49
824.225	15313.52
824.553	15395.56
824.88	15366.86
825.207	15433.75
825.535	15426.97
825.862	15498.83
826.189	15433.75
826.516	15402.11
826.843	15504.48
827.17	15553.74
827.497	15498.83
827.824	15471.94
828.151	15541.31
828.478	15537.02
828.805	15559.17
829.131	15445.95
829.458	15493.86
829.785	15378.83
830.111	15410.47
830.438	15482.56
830.764	15507.87
831.09	15471.26
831.417	15433.97
831.743	15420.87
832.069	15528.43
832.395	15351.94
832.722	15400.08
833.048	15375.9
833.374	15404.82
833.7	15284.15
834.026	15390.58
834.351	15316.91
834.677	15337.03
835.003	15365.5
835.329	15332.73
835.654	15321.43
835.98	15250.7
836.306	15151.27
836.631	15177.26
836.956	15301.77
837.282	15207.09
837.607	15169.35
837.932	15111.27
838.258	15045.28
838.583	15102.23
838.908	15002.8
839.233	15134.32
839.558	15085.06
839.883	14935.68
840.208	14977.04
840.533	14932.97
840.858	14933.65
841.182	14854.1
841.507	14939.07
841.832	14810.49
842.156	14867.21
842.481	14768
842.805	14747.44
843.13	14750.37
843.454	14753.76
843.778	14740.88
844.103	14570.49
844.427	14581.57
844.751	14572.98
845.075	14513.77
845.399	14463.83
845.723	14376.83
846.047	14409.14
846.371	14376.6
846.695	14236.49
847.019	14214.57
847.343	14159.2
847.666	14065.87
847.99	14035.14
848.313	13999.66
848.637	13936.61
848.96	13957.85
849.284	13813.9
849.607	13715.15
849.931	13709.27
850.254	13662.27
850.577	13597.18
850.9	13459.79
851.223	13523.29
851.546	13443.74
851.869	13295.72
852.192	13357.64
852.515	13288.49
852.838	13198.33
853.161	13246.46
853.483	13160.81
853.806	13109.97
854.129	13048.05
854.451	12983.19
854.774	12986.58
855.096	12887.82
855.419	12900.48
855.741	12854.38
856.063	12738.68
856.385	12772.12
856.708	12718.34
857.03	12671.33
857.352	12632.69
857.674	12569.64
857.996	12566.93
858.318	12525.12
858.64	12454.62
858.961	12418.68
859.283	12421.17
859.605	12330.78
859.926	12388.63
860.248	12338.69
860.57	12277.45
860.891	12276.54
861.212	12137.56
861.534	12166.49
861.855	12157
862.176	12154.51
862.498	12181.85
862.819	12155.41
863.14	12042.65
863.461	12038.13
863.782	11966.27
864.103	12033.16
864.424	11938.02
864.745	11957.23
865.065	11899.38
865.386	11779.15
865.707	11847.63
866.027	11917.91
866.348	11797.23
866.668	11849.66
866.989	11803.79
867.309	11775.76
867.63	11851.02
867.95	11741.64
868.27	11637.69
868.59	11714.75
868.91	11664.13
869.23	11674.07
869.55	11550.46
869.87	11664.58
870.19	11672.26
870.51	11632.72
870.83	11633.39
871.15	11466.39
871.469	11559.72
871.789	11610.12
872.109	11511.59
872.428	11426.85
872.748	11461.65
873.067	11499.39
873.386	11434.3
873.706	11442.21
874.025	11378.03
874.344	11299.84
874.663	11377.81
874.982	11303.91
875.301	11340.52
875.62	11253.74
875.939	11232.5
876.258	11226.17
876.577	11127.19
876.896	11215.1
877.214	11134.2
877.533	11181.2
877.852	11119.74
878.17	11145.27
878.489	11180.07
878.807	11066.18
879.125	11054.2
879.444	11091.71
879.762	11007.42
880.08	11055.56
880.398	10955.9
880.716	11055.1
881.034	10940.98
881.352	11040.42
881.67	10913.87
881.988	10891.49
882.306	10893.75
882.624	10838.84
882.941	10765.39
883.259	10757.26
883.577	10714.32
883.894	10738.95
884.212	10747.99
884.529	10756.13
884.846	10699.41
885.164	10679.3
885.481	10592.97
885.798	10632.29
886.115	10574.89
886.432	10569.47
886.75	10524.5
887.067	10477.04
887.383	10523.82
887.7	10520.2
888.017	10415.8
888.334	10445.4
888.651	10343.03
888.967	10361.56
889.284	10303.26
889.6	10304.84
889.917	10223.49
890.233	10270.04
890.55	10225.07
890.866	10236.82
891.182	10137.39
891.498	10112.53
891.815	10011.74
892.131	10004.74
892.447	9953.66
892.763	9911.41
893.079	9992.53
893.395	10025.08
893.71	9876.6
894.026	9854.46
894.342	9837.06
894.657	9756.83
894.973	9745.53
895.289	9749.15
895.604	9743.95
895.92	9630.51
896.235	9663.28
896.55	9646.55
896.865	9602.26
897.181	9510.51
897.496	9482.94
897.811	9408.82
898.126	9457.63
898.441	9406.79
898.756	9359.33
899.071	9370.86
899.386	9283.63
899.7	9266.68
900.015	9202.95
900.33	9179.9
900.644	9164.08
900.959	9213.12
901.273	9125.66
901.588	8994.59
901.902	9073.69
902.216	9026.01
902.531	9002.05
902.845	8983.97
903.159	8919.12
903.473	8878.21
903.787	8809.06
904.101	8803.41
904.415	8812
904.729	8768.61
905.042	8656.98
905.356	8632.8
905.67	8679.35
905.984	8614.94
906.297	8591.21
906.611	8570.65
906.924	8538.79
907.237	8543.76
907.551	8480.26
907.864	8464.21
908.177	8428.73
908.491	8379.47
908.804	8361.16
909.117	8269.42
909.43	8212.02
909.743	8192.58
910.056	8098.12
910.368	8106.48
910.681	8146.71
910.994	8079.36
911.307	8094.05
911.619	8010.44
911.932	8031
912.244	7918.24
912.557	7974.73
912.869	7892.25
913.181	7787.39
913.494	7802.08
913.806	7772.25
914.118	7711.46
914.43	7688.87
914.742	7743.55
915.054	7668.3
915.366	7640.05
915.678	7619.71
915.99	7525.93
916.302	7542.2
916.613	7461.08
916.925	7468.31
917.236	7417.91
917.548	7410.23
917.859	7360.96
918.171	7299.95
918.482	7257.46
918.794	7256.33
919.105	7216.11
919.416	7232.38
919.727	7244.13
920.038	7191.03
920.349	7094.08
920.66	7121.42
920.971	7132.5
921.282	7035.1
921.593	7079.84
921.903	6988.09
922.214	7006.4
922.525	6975.66
922.835	6925.04
923.146	6872.84
923.456	6823.35
923.767	6796.46
924.077	6781.77
924.387	6791.49
924.697	6724.15
925.008	6692.28
925.318	6640.31
925.628	6628.33
925.938	6619.29
926.248	6612.06
926.558	6609.12
926.867	6564.15
927.177	6539.97
927.487	6471.95
927.796	6453.87
928.106	6432.63
928.416	6431.95
928.725	6379.3
929.034	6313.31
929.344	6307.43
929.653	6343.14
929.962	6260.88
930.271	6254.78
930.581	6212.97
930.89	6202.58
931.199	6122.58
931.508	6170.71
931.817	6111.96
932.125	6124.39
932.434	6050.94
932.743	6067.44
933.051	5971.62
933.36	6005.52
933.669	5979.53
933.977	5937.73
934.286	5926.88
934.594	5920.78
934.902	5903.83
935.21	5805.3
935.519	5817.73
935.827	5815.02
936.135	5717.62
936.443	5678.07
936.751	5685.75
937.059	5687.79
937.367	5638.3
937.674	5683.95
937.982	5694.12
938.29	5622.25
938.597	5601.91
938.905	5505.87
939.213	5487.34
939.52	5525.53
939.827	5528.02
940.135	5450.96
940.442	5436.5
940.749	5481.47
941.056	5412.32
941.363	5322.83
941.67	5352.2
941.977	5266.78
942.284	5273.56
942.591	5260.68
942.898	5287.57
943.205	5236.05
943.511	5186.33
943.818	5217.52
944.125	5199.89
944.431	5114.02
944.738	5116.73
945.044	5089.84
945.35	5084.87
945.657	5048.26
945.963	5031.08
946.269	4992.89
946.575	5026.79
946.881	4980.46
947.187	4934.59
947.493	4914.7
947.799	4966
948.105	4871.54
948.41	4875.83
948.716	4839.22
949.022	4872.22
949.327	4821.37
949.633	4780.47
949.938	4776.85
950.244	4812.78
950.549	4702.28
950.854	4659.79
951.16	4665.22
951.465	4666.12
951.77	4657.76
952.075	4603.97
952.38	4622.51
952.685	4600.13
952.99	4546.12
953.294	4517.2
953.599	4496.63
953.904	4523.75
954.209	4419.35
954.513	4498.44
954.818	4453.92
955.122	4418.44
955.426	4417.31
955.731	4361.27
956.035	4370.76
956.339	4323.08
956.643	4293.7
956.948	4305
957.252	4268.84
957.556	4276.07
957.86	4240.14
958.163	4232.69
958.467	4236.53
958.771	4261.39
959.075	4197.21
959.378	4151.56
959.682	4145
959.985	4160.37
960.289	4139.13
960.592	4095.51
960.896	4096.42
961.199	4061.84
961.502	4053.93
961.805	4023.43
962.108	4005.57
962.411	4002.18
962.714	3904.33
963.017	3911.56
963.32	3959.92
963.623	3931.9
963.926	3902.75
964.228	3890.1
964.531	3855.07
964.833	3887.84
965.136	3825.24
965.438	3800.61
965.741	3796.31
966.043	3780.72
966.345	3756.54
966.648	3760.61
966.95	3733.49
967.252	3721.74
967.554	3688.74
967.856	3698.46
968.158	3648.29
968.46	3632.25
968.761	3631.8
969.063	3611.91
969.365	3610.1
969.666	3601.74
969.968	3542.31
970.269	3532.14
970.571	3552.7
970.872	3546.83
971.174	3513.61
971.475	3466.15
971.776	3491.24
972.077	3420.73
972.378	3454.63
972.679	3451.91
972.98	3436.55
973.281	3395.19
973.582	3382.31
973.883	3387.06
974.183	3357.23
974.484	3372.37
974.785	3298.25
975.085	3362.2
975.386	3344.35
975.686	3292.37
975.986	3284.46
976.287	3244.91
976.587	3226.16
976.887	3237.23
977.187	3241.75
977.487	3234.75
977.787	3171.47
978.087	3174.41
978.387	3132.6
978.687	3144.58
978.987	3116.1
979.286	3110.45
979.586	3111.81
979.885	3105.26
980.185	3090.12
980.484	3069.55
980.784	3040.85
981.083	3046.28
981.382	3056.45
981.682	3030.01
981.981	3020.97
982.28	2973.96
982.579	2959.05
982.878	2969.89
983.177	2936.67
983.475	2949.33
983.774	2903.45
984.073	2893.51
984.372	2867.07
984.67	2869.56
984.969	2868.2
985.267	2913.17
985.566	2829.78
985.864	2813.51
986.162	2812.38
986.461	2776
986.759	2793.63
987.057	2761.76
987.355	2708.88
987.653	2742.1
987.951	2770.12
988.249	2761.99
988.547	2678.83
988.844	2699.84
989.142	2656.23
989.44	2661.65
989.737	2664.14
990.035	2641.09
990.332	2652.16
990.63	2592.28
990.927	2615.55
991.224	2602.45
991.521	2587.98
991.819	2577.14
992.116	2564.48
992.413	2574.88
992.71	2521.09
993.006	2525.16
993.303	2494.43
993.6	2467.31
993.897	2461.21
994.193	2450.59
994.49	2473.41
994.787	2436.8
995.083	2415.33
995.379	2424.15
995.676	2400.87
995.972	2409.46
996.268	2396.35
996.565	2363.58
996.861	2374.66
997.157	2360.19
997.453	2347.76
997.749	2320.42
998.044	2290.36
998.34	2317.71
998.636	2300.08
998.932	2282.91
999.227	2257.6
999.523	2275.22
999.818	2232.29
1000.114	2245.84
1000.409	2207.65
1000.704	2216.47
1001	2174.21
1001.295	2193.87
1001.59	2195.68
1001.885	2159.52
1002.18	2161.55
1002.475	2155
1002.77	2167.88
1003.065	2125.4
1003.359	2079.97
1003.654	2105.28
1003.949	2115.68
1004.243	2087.66
1004.538	2022.35
1004.832	2054.44
1005.127	2060.09
1005.421	2009.69
1005.715	1999.07
1006.009	2013.53
1006.304	1994.55
1006.598	1990.48
1006.892	1979.41
1007.186	1944.84
1007.48	1964.5
1007.773	1927.89
1008.067	1924.95
1008.361	1912.07
1008.655	1911.62
1008.948	1882.01
1009.242	1903.48
1009.535	1872.52
1009.829	1870.71
1010.122	1872.3
1010.415	1836.59
1010.708	1816.93
1011.001	1856.93
1011.295	1828.45
1011.588	1788.91
1011.881	1796.14
1012.173	1772.86
1012.466	1746.42
1012.759	1762.92
1013.052	1792.52
1013.344	1729.93
1013.637	1750.94
1013.93	1730.83
1014.222	1737.84
1014.514	1717.05
1014.807	1698.51
1015.099	1670.94
1015.391	1669.14
1015.683	1659.65
1015.976	1641.34
1016.268	1632.53
1016.56	1600.44
1016.851	1653.09
1017.143	1607.22
1017.435	1608.57
1017.727	1572.42
1018.018	1579.65
1018.31	1549.59
1018.602	1574.68
1018.893	1570.16
1019.185	1536.94
1019.476	1541.46
1019.767	1499.42
1020.058	1524.73
1020.35	1522.93
1020.641	1479.09
1020.932	1490.61
1021.223	1467.79
1021.514	1447.67
1021.804	1415.58
1022.095	1474.79
1022.386	1451.52
1022.677	1430.05
1022.967	1385.75
1023.258	1407.9
1023.548	1421.46
1023.839	1385.3
1024.129	1388.24
1024.419	1395.7
1024.709	1336.26
1025	1357.73
1025.29	1328.35
1025.58	1315.7
1025.87	1321.35
1026.16	1338.52
1026.449	1318.86
1026.739	1293.1
1027.029	1293.1
1027.319	1267.11
1027.608	1279.09
1027.898	1281.12
1028.187	1274.12
1028.477	1259.43
1028.766	1244.97
1029.055	1224.85
1029.344	1239.32
1029.634	1212.88
1029.923	1219.88
1030.212	1170.17
1030.501	1181.69
1030.79	1188.7
1031.078	1177.62
1031.367	1170.84
1031.656	1162.94
1031.945	1149.15
1032.233	1148.25
1032.522	1161.35
1032.81	1147.57
1033.099	1105.76
1033.387	1120.22
1033.675	1090.85
1033.963	1082.94
1034.251	1096.72
1034.54	1072.32
1034.828	1078.64
1035.116	1066.21
1035.403	1052.66
1035.691	1077.29
1035.979	1041.36
1036.267	1030.96
1036.554	1030.06
1036.842	1018.31
1037.129	1045.42
1037.417	1013.11
1037.704	1009.72
1037.992	1018.31
1038.279	993.9
1038.566	1014.69
1038.853	1014.69
1039.14	1014.69
