Data from hue_200_FLMS001491_00076.txt Node
Date: Tue Feb 07 16:43:55 GMT 2017
User: dcchb
Spectrometer: FLMS00149
Trigger mode: 0
Integration Time (sec): 2.000000E-2
Scans to average: 10
Electric dark correction enabled: true
Nonlinearity correction enabled: false
Boxcar width: 0
XAxis mode: Wavelengths
Number of Pixels in Spectrum: 2048
>>>>>Begin Spectral Data<<<<<
341.393	-4.34
341.776	-4.34
342.16	-4.34
342.543	-38.46
342.927	-77.1
343.31	-82.98
343.693	-74.84
344.077	-46.14
344.46	-65.13
344.843	-47.95
345.226	-27.84
345.61	-25.8
345.993	-31
346.376	-14.51
346.759	4.03
347.142	6.96
347.525	39.28
347.908	63.01
348.291	81.09
348.674	92.38
349.057	129.45
349.44	129.45
349.823	138.49
350.206	159.28
350.588	164.7
350.971	187.98
351.354	234.08
351.737	227.3
352.119	256.67
352.502	246.73
352.884	252.15
353.267	271.14
353.65	276.56
354.032	296.22
354.414	274.3
354.797	307.75
355.179	289.89
355.562	298.48
355.944	314.3
356.326	314.07
356.709	345.03
357.091	317.69
357.473	336.9
357.855	323.79
358.238	319.27
358.62	322.89
359.002	354.52
359.384	337.58
359.766	348.42
360.148	338.48
360.53	324.24
360.912	324.69
361.294	334.64
361.676	333.73
362.057	335.54
362.439	328.08
362.821	316.11
363.203	326.5
363.584	303.9
363.966	314.98
364.348	323.11
364.729	322.66
365.111	333.73
365.493	320.85
365.874	320.4
366.256	307.52
366.637	281.53
367.019	331.02
367.4	298.93
367.781	310.01
368.163	306.84
368.544	299.61
368.925	316.33
369.306	326.73
369.688	299.61
370.069	294.87
370.45	310.23
370.831	310.91
371.212	298.93
371.593	310.23
371.974	307.75
372.355	296.45
372.736	314.98
373.117	310.46
373.498	324.02
373.879	308.88
374.26	310.68
374.641	308.42
375.021	332.83
375.402	309.1
375.783	286.28
376.163	324.24
376.544	319.05
376.925	313.62
377.305	322.89
377.686	316.11
378.066	299.38
378.447	321.76
378.827	302.77
379.208	332.38
379.588	331.47
379.968	321.08
380.349	327.86
380.729	307.75
381.109	320.4
381.489	310.68
381.87	321.08
382.25	335.77
382.63	327.63
383.01	331.25
383.39	333.28
383.77	340.29
384.15	336.9
384.53	350.91
384.91	345.49
385.29	329.44
385.67	335.99
386.049	370.12
386.429	341.64
386.809	361.08
387.189	356.11
387.568	345.49
387.948	332.6
388.328	343
388.707	357.69
389.087	342.1
389.466	359.27
389.846	359.5
390.225	365.6
390.605	351.81
390.984	343.45
391.363	347.52
391.743	377.8
392.122	362.21
392.501	383.22
392.881	367.63
393.26	371.02
393.639	373.28
394.018	350.91
394.397	395.88
394.776	391.13
395.155	371.47
395.534	379.83
395.913	364.24
396.292	378.93
396.671	404.69
397.05	391.13
397.429	374.41
397.808	388.42
398.186	385.26
398.565	391.59
398.944	395.88
399.323	389.1
399.701	386.61
400.08	408.53
400.458	395.43
400.837	433.17
401.215	423
401.594	423.45
401.972	407.4
402.351	425.03
402.729	431.81
403.107	426.16
403.486	429.78
403.864	413.05
404.242	434.3
404.62	417.57
404.999	448.53
405.377	453.73
405.755	452.15
406.133	455.31
406.511	446.73
406.889	472.04
407.267	478.14
407.645	492.15
408.023	479.27
408.401	488.76
408.779	459.83
409.156	483.79
409.534	488.76
409.912	538.47
410.29	544.35
410.667	539.6
411.045	537.34
411.422	532.82
411.8	552.71
412.178	550
412.555	552.49
412.933	588.64
413.31	605.59
413.687	598.13
414.065	606.04
414.442	623.9
414.819	645.82
415.197	640.62
415.574	646.72
415.951	651.69
416.328	657.34
416.705	690.56
417.082	681.52
417.46	693.05
417.837	697.11
418.214	732.37
418.591	713.84
418.967	748.86
419.344	755.64
419.721	763.33
420.098	779.82
420.475	778.92
420.852	802.65
421.228	808.98
421.605	824.57
421.982	845.36
422.358	843.33
422.735	866.83
423.111	848.75
423.488	893.95
423.864	937.33
424.241	924
424.617	953.83
424.994	979.14
425.37	983.66
425.746	990.89
426.123	1011.46
426.499	1021.85
426.875	1018.01
427.251	1042.19
427.627	1056.2
428.003	1051.23
428.379	1087.39
428.756	1103.21
429.132	1124.67
429.507	1128.97
429.883	1139.14
430.259	1141.62
430.635	1186.59
431.011	1169.19
431.387	1226.59
431.763	1238.57
432.138	1236.31
432.514	1257.78
432.89	1265.01
433.265	1309.75
433.641	1313.14
434.016	1333.93
434.392	1403.76
434.767	1397.89
435.143	1421.62
435.518	1453.25
435.894	1482.63
436.269	1510.43
436.644	1541.39
437.02	1572.12
437.395	1585.45
437.77	1597.88
438.145	1636.52
438.52	1659.12
438.895	1718.33
439.271	1722.4
439.646	1762.4
440.021	1769.63
440.395	1812.79
440.77	1801.72
441.145	1847.59
441.52	1877.42
441.895	1888.27
442.27	1914.03
442.645	1928.27
443.019	1977.76
443.394	1970.75
443.769	1991.77
444.143	1960.13
444.518	2028.38
444.892	2024.09
445.267	2062.95
445.641	2109.51
446.016	2099.56
446.39	2111.09
446.764	2159.67
447.139	2130.52
447.513	2186.34
447.887	2182.5
448.262	2225.44
448.636	2200.35
449.01	2255.94
449.384	2292.78
449.758	2300.24
450.132	2322.16
450.506	2344.98
450.88	2353.79
451.254	2341.82
451.628	2423.85
452.002	2416.62
452.376	2463.4
452.75	2466.79
453.123	2488.48
453.497	2530.51
453.871	2536.84
454.244	2592.66
454.618	2620.91
454.992	2652.32
455.365	2623.62
455.739	2706.33
456.112	2749.26
456.486	2766.21
456.859	2781.58
457.232	2825.65
457.606	2837.17
457.979	2869.71
458.352	2941.8
458.725	2963.95
459.099	2998.75
459.472	3036.71
459.845	3071.97
460.218	3095.24
460.591	3177.95
460.964	3144.51
461.337	3189.25
461.71	3251.4
462.083	3328.91
462.456	3313.77
462.829	3307.22
463.201	3391.05
463.574	3399.64
463.947	3460.43
464.32	3543.82
464.692	3541.11
465.065	3556.02
465.438	3618.62
465.81	3678.73
466.183	3705.85
466.555	3758.28
466.928	3834.89
467.3	3825.39
467.672	3855.9
468.045	3975.67
468.417	3971.83
468.789	3973.64
469.161	4070.36
469.534	4116.23
469.906	4214.08
470.278	4254.08
470.65	4251.15
471.022	4289.11
471.394	4398.94
471.766	4447.52
472.138	4513.96
472.51	4601.19
472.882	4614.75
473.253	4670.57
473.625	4745.14
473.997	4860.85
474.369	4842.77
474.74	4942.88
475.112	4989.2
475.484	5054.29
475.855	5115.98
476.227	5174.06
476.598	5375.86
476.97	5386.93
477.341	5502.19
477.713	5535.63
478.084	5634.39
478.455	5701.5
478.827	5786.47
479.198	5928.62
479.569	5969.07
479.94	6072.57
480.311	6100.59
480.682	6214.48
481.053	6383.29
481.424	6461.71
481.795	6500.58
482.166	6656.96
482.537	6710.06
482.908	6842.26
483.279	6862.83
483.65	7058.53
484.021	7087.91
484.391	7103.73
484.762	7198.41
485.133	7276.6
485.503	7369.03
485.874	7500.78
486.244	7548.23
486.615	7707.55
486.985	7739.64
487.356	7911.84
487.726	7914.1
488.097	8040.65
488.467	8098.28
488.837	8258.5
489.207	8321.09
489.578	8455.1
489.948	8515.21
490.318	8640.63
490.688	8664.59
491.058	8733.97
491.428	8896.45
491.798	8910.23
492.168	8974.18
492.538	9031.81
492.908	9140.51
493.278	9301.41
493.648	9275.42
494.017	9351.8
494.387	9471.57
494.757	9483.78
495.126	9625.47
495.496	9588.86
495.866	9642.42
496.235	9747.72
496.605	9770.1
496.974	9765.35
497.344	9861.39
497.713	9898.91
498.082	10009.86
498.452	10098.45
498.821	10097.32
499.19	10127.37
499.559	10092.12
499.928	10166.92
500.298	10182.29
500.667	10285.79
501.036	10269.97
501.405	10351.55
501.774	10380.93
502.143	10463.86
502.512	10396.07
502.88	10522.39
503.249	10447.59
503.618	10566.91
503.987	10592.9
504.356	10637.87
504.724	10661.6
505.093	10697.76
505.462	10707.92
505.83	10759.67
506.199	10821.59
506.567	10887.81
506.936	10777.75
507.304	10974.36
507.672	10916.51
508.041	10888.03
508.409	10969.61
508.777	11039.22
509.145	11103.62
509.514	11047.8
509.882	11057.29
510.25	11052.55
510.618	11215.48
510.986	11084.19
511.354	11255.03
511.722	11291.19
512.09	11302.03
512.458	11206.22
512.826	11238.98
513.193	11304.29
513.561	11302.03
513.929	11348.59
514.297	11412.31
514.664	11454.8
515.032	11362.14
515.4	11504.97
515.767	11459.54
516.135	11498.19
516.502	11367.79
516.869	11575.7
517.237	11499.09
517.604	11425.87
517.972	11524.85
518.339	11535.7
518.706	11537.06
519.073	11517.39
519.44	11537.51
519.808	11624.06
520.175	11544.74
520.542	11650.05
520.909	11640.78
521.276	11588.13
521.643	11606.66
522.009	11659.31
522.376	11695.24
522.743	11699.76
523.11	11684.85
523.477	11830.38
523.843	11715.81
524.21	11866.54
524.577	11874.9
524.943	11757.61
525.31	11815.01
525.676	11928.23
526.043	11826.99
526.409	11849.82
526.776	11913.09
527.142	11885.29
527.508	11820.44
527.874	11876.71
528.241	11925.52
528.607	11884.16
528.973	11929.36
529.339	11818.63
529.705	11903.15
530.071	11897.72
530.437	11816.82
530.803	11762.59
531.169	11760.1
531.535	11686.66
531.901	11676.03
532.267	11630.16
532.632	11764.62
532.998	11643.49
533.364	11620.67
533.73	11562.37
534.095	11626.77
534.461	11615.7
534.826	11572.53
535.192	11598.07
535.557	11608.01
535.923	11472.65
536.288	11428.13
536.653	11406.89
537.019	11332.99
537.384	11364.63
537.749	11280.79
538.114	11277.63
538.479	11219.32
538.845	11137.07
539.21	11118.31
539.575	11116.28
539.94	11092.55
540.305	11041.93
540.67	10934.36
541.034	10973.45
541.399	10930.52
541.764	10870.18
542.129	10837.86
542.494	10762.84
542.858	10695.72
543.223	10757.64
543.587	10692.33
543.952	10608.27
544.316	10598.32
544.681	10505.22
545.045	10522.39
545.41	10481.04
545.774	10376.86
546.138	10374.83
546.503	10387.03
546.867	10263.87
547.231	10281.72
547.595	10216.41
547.959	10199.46
548.324	10102.06
548.688	10088.73
549.052	10039.02
549.416	10022.29
549.779	10036.08
550.143	9867.04
550.507	9921.28
550.871	9848.51
551.235	9881.73
551.599	9786.14
551.962	9700.04
552.326	9673.83
552.689	9726.48
553.053	9539.82
553.417	9541.85
553.78	9619.82
554.143	9463.21
554.507	9458.47
554.87	9438.13
555.234	9467.96
555.597	9380.5
555.96	9343.89
556.323	9378.69
556.686	9270.67
557.05	9333.27
557.413	9281.52
557.776	9212.82
558.139	9301.86
558.502	9164.46
558.865	9255.99
559.228	9211.47
559.59	9183.22
559.953	9111.13
560.316	9183.67
560.679	9110.9
561.041	9098.02
561.404	9112.26
561.767	9080.17
562.129	9047.86
562.492	9065.03
562.854	9017.35
563.217	9047.86
563.579	9065.93
563.941	9043.34
564.304	8975.09
564.666	9073.39
565.028	9033.39
565.39	8983
565.753	9067.52
566.115	8999.5
566.477	9028.65
566.839	8954.3
567.201	8984.81
567.563	9046.05
567.925	8947.97
568.287	8978.7
568.648	8954.07
569.01	9030.45
569.372	9005.6
569.734	8926.05
570.095	9006.5
570.457	8967.86
570.819	8993.39
571.18	9009.21
571.542	9017.8
571.903	9042.43
572.265	8990.23
572.626	9039.27
572.987	8976.67
573.349	9054.18
573.71	9031.81
574.071	9006.5
574.432	9052.6
574.794	9107.97
575.155	9031.58
575.516	8980.96
575.877	8976.67
576.238	9046.05
576.599	9009.44
576.96	8972.38
577.32	9022.55
577.681	9025.93
578.042	9053.5
578.403	9011.25
578.763	9050.34
579.124	8999.27
579.485	8975.09
579.845	9092.6
580.206	9012.38
580.566	8977.8
580.927	9002.21
581.287	9075.43
581.648	8963.34
582.008	9023.68
582.368	8980.96
582.728	9030.68
583.089	8947.52
583.449	9001.75
583.809	8975.09
584.169	8967.18
584.529	8935.54
584.889	8971.47
585.249	8993.39
585.609	8931.7
585.969	8932.6
586.329	8964.92
586.688	8926.05
587.048	8903.9
587.408	8904.36
587.768	8918.14
588.127	8907.07
588.487	8815.77
588.846	8956.78
589.206	8860.74
589.565	8892.15
589.925	8897.35
590.284	8852.83
590.643	8851.48
591.003	8881.98
591.362	8882.66
591.721	8880.85
592.08	8888.76
592.44	8851.25
592.799	8853.28
593.158	8808.99
593.517	8830.91
593.876	8798.6
594.235	8885.37
594.593	8786.62
594.952	8793.4
595.311	8780.52
595.67	8820.52
596.029	8809.9
596.387	8806.73
596.746	8832.72
597.104	8767.64
597.463	8714.53
597.822	8772.16
598.18	8731.48
598.538	8776.9
598.897	8765.15
599.255	8690.12
599.613	8752.04
599.972	8730.8
600.33	8736.9
600.688	8651.71
601.046	8685.38
601.404	8782.33
601.762	8773.29
602.12	8816.22
602.478	8760.18
602.836	8757.24
603.194	8706.4
603.552	8653.52
603.91	8705.72
604.268	8662.1
604.625	8714.08
604.983	8674.08
605.341	8654.87
605.698	8719.05
606.056	8761.08
606.413	8714.08
606.771	8733.74
607.128	8713.4
607.485	8656.23
607.843	8665.72
608.2	8776.68
608.557	8718.6
608.914	8640.18
609.272	8727.86
609.629	8828.43
609.986	8764.02
610.343	8760.63
610.7	8807.41
611.057	8753.4
611.414	8720.41
611.771	8714.53
612.127	8700.07
612.484	8785.04
612.841	8823.91
613.198	8761.99
613.554	8722.67
613.911	8814.64
614.267	8849.22
614.624	8821.87
614.98	8783
615.337	8826.17
615.693	8809.67
616.05	8810.8
616.406	8807.64
616.762	8857.13
617.118	8775.55
617.475	8827.97
617.831	8831.14
618.187	8826.39
618.543	8883.79
618.899	8834.53
619.255	8861.42
619.611	8901.42
619.967	8869.1
620.323	8945.03
620.678	8839.73
621.034	8912.94
621.39	8862.32
621.746	8872.04
622.101	8903
622.457	8830.91
622.812	8912.04
623.168	8930.57
623.523	8795.43
623.879	8865.26
624.234	8927.41
624.589	8887.63
624.945	8940.51
625.3	8884.47
625.655	8795.21
626.01	8881.08
626.365	8872.04
626.72	8824.58
627.075	8873.85
627.43	8817.58
627.785	8815.09
628.14	8843.79
628.495	8834.98
628.85	8785.04
629.205	8823.91
629.559	8922.66
629.914	8787.3
630.269	8783
630.623	8747.75
630.978	8777.35
631.332	8789.78
631.687	8754.08
632.041	8708.66
632.396	8799.05
632.75	8668.66
633.104	8723.12
633.459	8743.68
633.813	8720.63
634.167	8694.42
634.521	8682.44
634.875	8724.93
635.229	8634.76
635.583	8615.55
635.937	8612.16
636.291	8600.86
636.645	8628.88
636.999	8597.47
637.352	8581.65
637.706	8535.1
638.06	8636.11
638.413	8505.27
638.767	8492.16
639.121	8568.55
639.474	8490.81
639.828	8532.39
640.181	8549.79
640.534	8558.6
640.888	8448.32
641.241	8462.11
641.594	8439.74
641.947	8465.72
642.301	8527.64
642.654	8508.21
643.007	8446.97
643.36	8456.91
643.713	8422.34
644.066	8462.79
644.419	8418.27
644.771	8344.6
645.124	8282.68
645.477	8305.28
645.83	8284.03
646.182	8188.44
646.535	8187.09
646.888	8246.52
647.24	8131.5
647.593	8124.26
647.945	8157.94
648.298	8131.95
648.65	8111.61
649.002	8063.25
649.355	8115.68
649.707	8167.88
650.059	8164.49
650.411	8293.98
650.763	8306.18
651.115	8350.47
651.467	8367.42
651.819	8381.43
652.171	8300.3
652.523	8238.16
652.875	8300.76
653.227	8311.83
653.578	8321.77
653.93	8363.13
654.282	8326.97
654.633	8299.17
654.985	8365.61
655.337	8313.64
655.688	8331.72
656.039	8376.01
656.391	8306.41
656.742	8359.06
657.094	8321.77
657.445	8332.39
657.796	8410.81
658.147	8324.26
658.498	8337.59
658.849	8414.65
659.2	8318.83
659.551	8333.75
659.902	8399.06
660.253	8404.93
660.604	8404.71
660.955	8328.78
661.306	8399.96
661.656	8384.6
662.007	8398.83
662.358	8411.26
662.708	8431.37
663.059	8393.41
663.409	8367.87
663.76	8418.95
664.11	8404.03
664.461	8410.58
664.811	8481.77
665.161	8437.25
665.511	8436.35
665.862	8440.41
666.212	8422.34
666.562	8479.73
666.912	8424.82
667.262	8432.73
667.612	8404.26
667.962	8463.01
668.312	8385.05
668.662	8442.22
669.011	8434.31
669.361	8373.52
669.711	8455.55
670.06	8376.91
670.41	8399.74
670.76	8419.85
671.109	8371.04
671.459	8377.14
671.808	8319.29
672.157	8427.76
672.507	8368.78
672.856	8365.84
673.205	8351.15
673.554	8368.1
673.904	8309.12
674.253	8402.67
674.602	8340.08
674.951	8269.8
675.3	8200.19
675.649	8314.32
675.998	8291.27
676.346	8295.56
676.695	8251.94
677.044	8235.67
677.393	8231.15
677.741	8284.26
678.09	8265.28
678.438	8234.54
678.787	8220.08
679.135	8241.77
679.484	8180.53
679.832	8162.91
680.181	8105.96
680.529	8133.76
680.877	8188.67
681.225	8142.57
681.573	8204.49
681.922	8103.02
682.27	8081.33
682.618	8047.43
682.966	8045.17
683.314	8039.75
683.661	8016.47
684.009	7985.96
684.357	8079.52
684.705	7986.41
685.053	8006.53
685.4	7984.83
685.748	7930.6
686.095	7900.31
686.443	7863.03
686.79	7882.46
687.138	7813.09
687.485	7838.4
687.832	7789.13
688.18	7779.19
688.527	7824.61
688.874	7781.22
689.221	7672.98
689.568	7654.45
689.915	7682.02
690.262	7665.29
690.609	7599.53
690.956	7621.68
691.303	7597.5
691.65	7593.66
691.997	7495.13
692.344	7509.82
692.69	7496.26
693.037	7469.14
693.383	7448.8
693.73	7460.78
694.077	7434.34
694.423	7359.31
694.769	7374.45
695.116	7294.68
695.462	7261.24
695.808	7232.99
696.155	7284.74
696.501	7233.67
696.847	7206.32
697.193	7112.99
697.539	7145.98
697.885	7093.33
698.231	7072.31
698.577	7073.22
698.923	7037.29
699.269	7019.21
699.614	6989.38
699.96	6949.61
700.306	6979.66
700.651	6846.33
700.997	6836.16
701.342	6871.19
701.688	6856.5
702.033	6813.11
702.379	6776.95
702.724	6753.45
703.069	6819.44
703.415	6684.3
703.76	6690.63
704.105	6675.71
704.45	6645.88
704.795	6605.21
705.14	6608.37
705.485	6611.99
705.83	6508.49
706.175	6596.17
706.52	6536.51
706.865	6451.31
707.209	6473.91
707.554	6441.6
707.899	6478.88
708.243	6455.38
708.588	6419
708.932	6393.24
709.277	6348.27
709.621	6371.99
709.966	6322.05
710.31	6292
710.654	6224.2
710.998	6313.24
711.342	6266.69
711.687	6169.96
712.031	6211.55
712.375	6182.62
712.719	6195.73
713.063	6139.68
713.407	6139.68
713.75	6152.79
714.094	6092.68
714.438	6156.63
714.782	6120.47
715.125	6094.03
715.469	6156.41
715.812	6096.75
716.156	6006.81
716.499	6038.22
716.843	6065.56
717.186	6057.43
717.53	6063.53
717.873	6026.92
718.216	6063.75
718.559	6024.66
718.902	5952.57
719.246	5943.53
719.589	5977.88
719.932	5910.54
720.275	5970.2
720.617	5995.51
720.96	5974.72
721.303	5918.22
721.646	5943.08
721.989	5882.29
722.331	5968.61
722.674	5892.01
723.016	5940.59
723.359	5866.92
723.701	5943.08
724.044	5919.8
724.386	5850.43
724.729	5853.14
725.071	5906.92
725.413	5864.21
725.755	5878.9
726.097	5820.14
726.439	5794.16
726.782	5845.91
727.124	5867.83
727.465	5845.45
727.807	5838.67
728.149	5871.67
728.491	5841.39
728.833	5798
729.175	5836.87
729.516	5749.86
729.858	5834.83
730.199	5814.27
730.541	5865.34
730.882	5828.73
731.224	5835.96
731.565	5827.83
731.906	5833.02
732.248	5873.93
732.589	5805.45
732.93	5836.64
733.271	5807.49
733.612	5816.53
733.953	5825.12
734.294	5844.55
734.635	5807.26
734.976	5836.64
735.317	5844.1
735.658	5836.19
735.999	5873.93
736.339	5878.45
736.68	5838.67
737.021	5886.36
737.361	5901.72
737.702	5883.42
738.042	5863.76
738.383	5907.15
738.723	5871.22
739.063	5873.48
739.404	5946.47
739.744	5941.27
740.084	5917.54
740.424	6013.13
740.764	5950.31
741.104	6006.13
741.444	5960.48
741.784	6034.38
742.124	6004.77
742.464	6049.06
742.804	6040.7
743.143	6086.35
743.483	6103.3
743.823	6048.84
744.162	6122.28
744.502	6184.2
744.841	6219.46
745.181	6245.44
745.52	6240.47
745.86	6317.76
746.199	6313.24
746.538	6382.61
746.877	6423.07
747.216	6474.59
747.556	6434.14
747.895	6538.09
748.234	6554.14
748.573	6597.07
748.911	6637.98
749.25	6757.07
749.589	6781.02
749.928	6838.87
750.267	6934.69
750.605	6988.7
750.944	7066.21
751.283	7128.13
751.621	7258.07
751.96	7283.61
752.298	7316.38
752.636	7541.91
752.975	7568.12
753.313	7644.95
753.651	7798.85
753.989	7945.51
754.327	8025.74
754.666	8124.26
755.004	8275.22
755.342	8355.44
755.679	8544.14
756.017	8652.84
756.355	8832.95
756.693	8941.42
757.031	9071.58
757.368	9186.16
757.706	9320.16
758.044	9489.43
758.381	9635.18
758.719	9817.78
759.056	9995.85
759.394	10165.34
759.731	10331.44
760.068	10446.01
760.405	10652.78
760.743	10761.48
761.08	11099.78
761.417	11116.28
761.754	11321.24
762.091	11539.32
762.428	11716.71
762.765	11838.29
763.102	12119.64
763.438	12206.64
763.775	12433.98
764.112	12638.5
764.449	12778.83
764.785	12912.16
765.122	13067.86
765.458	13218.14
765.795	13388.53
766.131	13575.42
766.467	13769.99
766.804	13847.5
767.14	14080.49
767.476	14250.2
767.812	14318.23
768.148	14535.62
768.485	14577.2
768.821	14735.84
769.157	14890.41
769.492	15016.06
769.828	15165.21
770.164	15194.36
770.5	15381.02
770.836	15475.48
771.171	15549.15
771.507	15684.74
771.842	15794.12
772.178	15934.23
772.513	15987.11
772.849	16149.82
773.184	16075.69
773.519	16288.12
773.855	16310.26
774.19	16435.23
774.525	16521.56
774.86	16571.73
775.195	16734.43
775.53	16733.3
775.865	16814.43
776.2	16827.76
776.535	16785.73
776.87	16924.48
777.205	16949.34
777.539	16903.47
777.874	17122.22
778.209	17036.35
778.543	17112.95
778.878	17141.88
779.212	17285.15
779.547	17207.87
779.881	17373.29
780.215	17277.92
780.55	17408.09
780.884	17302.33
781.218	17465.04
781.552	17444.47
781.886	17467.52
782.22	17425.94
782.554	17410.8
782.888	17313.4
783.222	17341.65
783.556	17332.84
783.889	17361.99
784.223	17316.11
784.557	17253.97
784.89	17485.6
785.224	17406.51
785.557	17366.28
785.891	17265.49
786.224	17352.72
786.558	17316.56
786.891	17286.06
787.224	17273.85
787.557	17261.65
787.891	17307.75
788.224	17338.03
788.557	17333.06
788.89	17280.41
789.223	17267.3
789.556	17189.56
789.888	17191.37
790.221	17119.73
790.554	17020.53
790.887	17139.85
791.219	17144.37
791.552	17054.42
791.884	16958.16
792.217	17051.71
792.549	16946.18
792.882	16844.26
793.214	16924.03
793.546	16881.55
793.879	16699.41
794.211	16671.16
794.543	16827.99
794.875	16775.11
795.207	16851.72
795.539	16716.58
795.871	16768.1
796.203	16553.65
796.535	16597.04
796.867	16510.71
797.198	16515.46
797.53	16464.61
797.862	16386.65
798.193	16484.27
798.525	16306.42
798.856	16364.95
799.188	16300.32
799.519	16241.11
799.85	16112.98
800.182	16192.75
800.513	16145.52
800.844	16034.56
801.175	16131.06
801.506	16047.9
801.837	15993.21
802.168	15997.73
802.499	16026.2
802.83	15962.93
803.161	15833.67
803.491	15873.89
803.822	15872.99
804.153	15744.63
804.483	15744.63
804.814	15647.68
805.145	15680
805.475	15598.42
805.805	15634.57
806.136	15541.02
806.466	15593.45
806.796	15501.92
807.126	15501.47
807.457	15385.99
807.787	15365.88
808.117	15407.01
808.447	15328.82
808.777	15387.8
809.107	15347.8
809.436	15235.49
809.766	15306.45
810.096	15188.48
810.426	15037.08
810.755	15202.04
811.085	15160.01
811.414	15167.69
811.744	15037.08
812.073	14998.89
812.403	14949.4
812.732	14919.34
813.061	14990.52
813.39	14754.37
813.719	14807.93
814.049	14937.42
814.378	14856.97
814.707	14767.7
815.036	14768.61
815.365	14698.1
815.693	14558.22
816.022	14656.3
816.351	14579.24
816.68	14549.18
817.008	14659.23
817.337	14497.2
817.665	14497.88
817.994	14516.86
818.322	14457.66
818.651	14376.3
818.979	14299.47
819.307	14447.04
819.636	14359.13
819.964	14378.34
820.292	14399.58
820.62	14374.72
820.948	14314.61
821.276	14267.15
821.604	14336.98
821.932	14269.19
822.259	14293.37
822.587	14326.81
822.915	14310.99
823.243	14300.15
823.57	14250.66
823.898	14350.09
824.225	14211.11
824.553	14274.84
824.88	14273.03
825.207	14276.87
825.535	14287.49
825.862	14318
826.189	14256.98
826.516	14325
826.843	14363.65
827.17	14319.58
827.497	14330.2
827.824	14337.21
828.151	14388.96
828.478	14402.97
828.805	14342.63
829.131	14289.75
829.458	14326.59
829.785	14268.96
830.111	14275.29
830.438	14360.03
830.764	14298.79
831.09	14430.31
831.417	14275.97
831.743	14348.51
832.069	14243.2
832.395	14266.7
832.722	14360.03
833.048	14259.02
833.374	14313.48
833.7	14165.23
834.026	14188.74
834.351	14229.19
834.677	14269.41
835.003	14263.09
835.329	14238.68
835.654	14158
835.98	14118.68
836.306	14160.04
836.631	14129.53
836.956	14172.47
837.282	14129.53
837.607	14059.93
837.932	14031.45
838.258	14028.74
838.583	13996.65
838.908	13992.58
839.233	14054.96
839.558	13897.45
839.883	13945.81
840.208	13847.96
840.533	13896.54
840.858	13901.74
841.182	13876.2
841.507	13833.72
841.832	13761.4
842.156	13779.48
842.481	13786.04
842.805	13742.42
843.13	13661.52
843.454	13721.86
843.778	13634.63
844.103	13671.24
844.427	13566.15
844.751	13584.46
845.075	13474.63
845.399	13478.7
845.723	13332.71
846.047	13389.66
846.371	13280.74
846.695	13325.71
847.019	13206.84
847.343	13146.05
847.666	13102.21
847.99	13007.98
848.313	12943.8
848.637	12932.27
848.96	12926.17
849.284	12859.96
849.607	12766.63
849.931	12750.13
850.254	12720.75
850.577	12638.04
850.9	12559.63
851.223	12526.63
851.546	12369.35
851.869	12421.55
852.192	12465.84
852.515	12298.39
852.838	12267.43
853.161	12336.58
853.483	12326.19
853.806	12185.4
854.129	12164.16
854.451	12116.48
854.774	12037.61
855.096	12002.58
855.419	11932.75
855.741	12013.88
856.063	11878.29
856.385	11890.27
856.708	11844.62
857.03	11785.86
857.352	11726.43
857.674	11706.32
857.996	11773.21
858.318	11659.76
858.64	11619.54
858.961	11594.23
859.283	11484.4
859.605	11545.64
859.926	11494.57
860.248	11482.37
860.57	11397.62
860.891	11465.42
861.212	11351.98
861.534	11375.25
861.855	11324.18
862.176	11384.97
862.498	11318.98
862.819	11322.6
863.14	11204.86
863.461	11193.56
863.782	11244.86
864.103	11205.54
864.424	11163.51
864.745	11183.17
865.065	11117.18
865.386	11073.11
865.707	11121.25
866.027	11116.73
866.348	11053.45
866.668	11065.88
866.989	11050.51
867.309	10965.55
867.63	10918.54
867.95	10900.01
868.27	10861.59
868.59	10943.4
868.91	10862.95
869.23	10807.13
869.55	10741.82
869.87	10866.56
870.19	10902.27
870.51	10846.23
870.83	10815.72
871.15	10775.72
871.469	10771.2
871.789	10765.78
872.109	10772.56
872.428	10675.61
872.748	10765.1
873.067	10642.62
873.386	10644.2
873.706	10641.94
874.025	10603.07
874.344	10603.07
874.663	10559
874.982	10575.72
875.301	10602.39
875.62	10526.46
875.939	10510.64
876.258	10563.3
876.577	10510.19
876.896	10490.76
877.214	10445.33
877.533	10467.25
877.852	10361.72
878.17	10422.51
878.489	10357.43
878.807	10369.85
879.125	10356.97
879.444	10413.24
879.762	10323.3
880.08	10390.64
880.398	10222.97
880.716	10299.8
881.034	10250.54
881.352	10339.35
881.67	10220.25
881.988	10190.88
882.306	10156.07
882.624	10191.55
882.941	10088.51
883.259	10056.64
883.577	10088.05
883.894	10062.29
884.212	10021.62
884.529	10032.91
884.846	9963.54
885.164	9985.23
885.481	9905.91
885.798	9937.1
886.115	9876.99
886.432	9797.21
886.75	9848.06
887.067	9781.4
887.383	9722.41
887.7	9849.42
888.017	9783.88
888.334	9723.09
888.651	9659.59
888.967	9650.1
889.284	9627.28
889.6	9583.89
889.917	9506.6
890.233	9563.32
890.55	9551.12
890.866	9557.45
891.182	9408.07
891.498	9454.4
891.815	9378.24
892.131	9428.86
892.447	9355.87
892.763	9346.6
893.079	9241.3
893.395	9274.74
893.71	9329.66
894.026	9212.37
894.342	9170.79
894.657	9109.55
894.973	9101.19
895.289	9117.46
895.604	9169.21
895.92	8975.31
896.235	9017.8
896.55	8976.44
896.865	8962.89
897.181	8881.53
897.496	8972.38
897.811	8825.94
898.126	8820.97
898.441	8904.81
898.756	8793.85
899.071	8752.5
899.386	8660.75
899.7	8644.93
900.015	8632.72
900.33	8515.89
900.644	8500.98
900.959	8564.48
901.273	8537.36
901.588	8526.06
901.902	8390.92
902.216	8392.28
902.531	8341.66
902.845	8361.32
903.159	8317.93
903.473	8251.49
903.787	8254.2
904.101	8249.23
904.415	8184.83
904.729	8151.83
905.042	8130.14
905.356	8110.48
905.67	8093.53
905.984	8063.93
906.297	8004.49
906.611	7943.7
906.924	7993.19
907.237	7992.52
907.551	7926.53
907.864	7855.8
908.177	7818.06
908.491	7805.85
908.804	7781.22
909.117	7663.26
909.43	7704.84
909.743	7657.16
910.056	7625.97
910.368	7617.38
910.681	7537.16
910.994	7538.97
911.307	7474.56
911.619	7478.63
911.932	7462.81
912.244	7380.1
912.557	7356.37
912.869	7376.94
913.181	7392.31
913.494	7290.61
913.806	7249.94
914.118	7183.05
914.43	7199.99
914.742	7147.11
915.054	7099.66
915.366	7134.01
915.678	7029.6
915.99	6996.84
916.302	6993.22
916.613	6974.24
916.925	6971.98
917.236	6974.24
917.548	6964.75
917.859	6920.45
918.171	6868.7
918.482	6816.95
918.794	6756.39
919.105	6789.61
919.416	6736.05
919.727	6721.81
920.038	6668.48
920.349	6666.45
920.66	6529.73
920.971	6593.91
921.282	6614.47
921.593	6538.09
921.903	6536.73
922.214	6464.19
922.525	6476.85
922.835	6441.37
923.146	6421.03
923.456	6373.58
923.767	6400.47
924.077	6318.21
924.387	6292.45
924.697	6265.33
925.008	6283.63
925.318	6220.13
925.628	6223.3
925.938	6157.31
926.248	6188.95
926.558	6139.01
926.867	6126.58
927.177	6073.7
927.487	6045.22
927.796	6008.61
928.106	6040.7
928.416	6011.55
928.725	5962.29
929.034	5870.54
929.344	5956.41
929.653	5933.59
929.962	5893.59
930.271	5802.74
930.581	5790.09
930.89	5805
931.199	5763.42
931.508	5752.8
931.817	5799.13
932.125	5741.5
932.434	5702.18
932.743	5639.13
933.051	5638
933.36	5569.08
933.669	5613.14
933.977	5586.03
934.286	5580.83
934.594	5518.68
934.902	5511.9
935.21	5497.67
935.519	5486.82
935.827	5454.73
936.135	5393.04
936.443	5379.7
936.751	5379.03
937.059	5330.66
937.367	5329.54
937.674	5309.87
937.982	5333.38
938.29	5282.98
938.597	5270.55
938.905	5187.62
939.213	5210.89
939.52	5118.24
939.827	5137.22
940.135	5104
940.442	5086.38
940.749	5105.13
941.056	5077.56
941.363	5043.67
941.67	5005.25
941.977	4941.07
942.284	4926.83
942.591	4951.69
942.898	4888.87
943.205	4907.63
943.511	4855.42
943.818	4862.88
944.125	4838.47
944.431	4839.83
944.738	4790.57
945.044	4774.75
945.35	4727.29
945.657	4766.84
945.963	4702.66
946.269	4690.23
946.575	4678.25
946.881	4625.82
947.187	4605.49
947.493	4649.55
947.799	4573.4
948.105	4539.5
948.41	4549.22
948.716	4536.56
949.022	4479.39
949.327	4502.89
949.633	4481.2
949.938	4481.2
950.244	4454.3
950.549	4408.43
950.854	4414.53
951.16	4406.17
951.465	4385.15
951.77	4348.54
952.075	4359.84
952.38	4305.38
952.685	4310.35
952.99	4291.6
953.294	4233.74
953.599	4242.33
953.904	4226.29
954.209	4165.27
954.513	4202.11
954.818	4154.65
955.122	4140.64
955.426	4125.95
955.731	4099.06
956.035	4085.27
956.339	4065.84
956.643	4078.27
956.948	4056.8
957.252	4041.66
957.556	4022
957.86	3986.75
958.163	3988.1
958.467	3982.45
958.771	3968.67
959.075	3940.64
959.378	3916.24
959.682	3904.71
959.985	3902.23
960.289	3890.02
960.592	3861.55
960.896	3835.79
961.199	3831.04
961.502	3792.85
961.805	3791.5
962.108	3767.09
962.411	3769.58
962.714	3725.51
963.017	3735.23
963.32	3734.32
963.623	3667.88
963.926	3637.83
964.228	3633.31
964.531	3613.65
964.833	3604.83
965.136	3604.38
965.438	3596.93
965.741	3553.54
966.043	3592.63
966.345	3523.93
966.648	3536.36
966.95	3487.55
967.252	3486.42
967.554	3462.24
967.856	3448.91
968.158	3397.61
968.46	3436.93
968.761	3427.21
969.063	3419.08
969.365	3391.73
969.666	3379.76
969.968	3359.64
970.269	3309.7
970.571	3342.24
970.872	3323.71
971.174	3289.59
971.475	3275.58
971.776	3289.59
972.077	3267.44
972.378	3236.93
972.679	3266.09
972.98	3205.3
973.281	3199.2
973.582	3222.02
973.883	3175.24
974.183	3149.93
974.484	3140.21
974.785	3130.72
975.085	3131.85
975.386	3134.11
975.686	3105.86
975.986	3070.39
976.287	3057.28
976.587	2997.84
976.887	3038.07
977.187	3018.86
977.487	3039.43
977.787	3003.72
978.087	2982.93
978.387	2949.48
978.687	2979.99
978.987	2958.52
979.286	2924.4
979.586	2904.29
979.885	2888.92
980.185	2886.66
980.484	2873.1
980.784	2873.33
981.083	2832.65
981.382	2869.03
981.682	2873.33
981.981	2846.89
982.28	2782.48
982.579	2786.1
982.878	2794.23
983.177	2761.69
983.475	2757.4
983.774	2742.26
984.073	2696.61
984.372	2725.99
984.67	2700.9
984.969	2685.76
985.267	2660.68
985.566	2705.65
985.864	2666.55
986.162	2643.96
986.461	2649.15
986.759	2643.96
987.057	2553.79
987.355	2616.39
987.653	2568.93
987.951	2554.24
988.249	2548.37
988.547	2544.98
988.844	2538.2
989.142	2520.8
989.44	2522.83
989.737	2459.33
990.035	2497.97
990.332	2504.52
990.63	2466.11
990.927	2469.95
991.224	2455.03
991.521	2418.65
991.819	2429.72
992.116	2424.3
992.413	2451.42
992.71	2410.06
993.006	2384.75
993.303	2392.44
993.6	2389.95
993.897	2369.61
994.193	2365.77
994.49	2297.98
994.787	2319.44
995.083	2299.78
995.379	2306.79
995.676	2282.16
995.972	2293
996.268	2278.32
996.565	2252.1
996.861	2276.06
997.157	2227.92
997.453	2222.05
997.749	2225.89
998.044	2200.8
998.34	2190.41
998.636	2144.31
998.932	2166.68
999.227	2154.48
999.523	2155.83
999.818	2118.77
1000.114	2105.66
1000.409	2109.28
1000.704	2103.63
1001	2093.46
1001.295	2082.39
1001.59	2073.35
1001.885	2069.96
1002.18	2036.06
1002.475	2020.47
1002.77	1997.87
1003.065	2012.11
1003.359	1989.06
1003.654	1964.2
1003.949	1970.53
1004.243	1959.91
1004.538	1925.56
1004.832	1953.13
1005.127	1917.2
1005.421	1942.51
1005.715	1890.98
1006.009	1928.04
1006.304	1878.55
1006.598	1862.28
1006.892	1837.88
1007.186	1833.58
1007.48	1857.31
1007.773	1835.84
1008.067	1810.31
1008.361	1776.86
1008.655	1776.63
1008.948	1807.59
1009.242	1782.51
1009.535	1767.37
1009.829	1791.1
1010.122	1728.27
1010.415	1728.05
1010.708	1733.7
1011.001	1742.28
1011.295	1677.2
1011.588	1694.83
1011.881	1671.78
1012.173	1691.21
1012.466	1658.45
1012.759	1652.34
1013.052	1649.63
1013.344	1652.34
1013.637	1633.81
1013.93	1636.3
1014.222	1596.75
1014.514	1598.11
1014.807	1618.22
1015.099	1594.27
1015.391	1564.89
1015.683	1585.9
1015.976	1558.33
1016.268	1545.68
1016.56	1535.96
1016.851	1498.9
1017.143	1512.91
1017.435	1491.22
1017.727	1486.92
1018.018	1486.7
1018.31	1476.75
1018.602	1476.75
1018.893	1453.93
1019.185	1460.03
1019.476	1438.79
1019.767	1430.88
1020.058	1437.89
1020.35	1393.37
1020.641	1390.88
1020.932	1390.43
1021.223	1374.16
1021.514	1396.08
1021.804	1365.8
1022.095	1384.78
1022.386	1355.4
1022.677	1333.26
1022.967	1326.02
1023.258	1312.47
1023.548	1309.3
1023.839	1316.31
1024.129	1318.79
1024.419	1297.32
1024.709	1282.41
1025	1264.11
1025.29	1281.73
1025.58	1257.55
1025.87	1256.65
1026.16	1239.93
1026.449	1255.29
1026.739	1225.69
1027.029	1211.23
1027.319	1212.81
1027.608	1210.32
1027.898	1208.51
1028.187	1178.68
1028.477	1192.69
1028.766	1187.5
1029.055	1179.81
1029.344	1179.36
1029.634	1154.5
1029.923	1129.65
1030.212	1131.68
1030.501	1101.17
1030.79	1124.9
1031.078	1102.08
1031.367	1099.36
1031.656	1105.92
1031.945	1088.52
1032.233	1084.67
1032.522	1084.67
1032.81	1071.79
1033.099	1077.44
1033.387	1055.75
1033.675	1060.49
1033.963	1038.35
1034.251	1041.51
1034.54	1029.08
1034.828	1003.1
1035.116	1011.46
1035.403	1020.5
1035.691	993.83
1035.979	1004.9
1036.267	1003.1
1036.554	974.4
1036.842	967.39
1037.129	996.09
1037.417	970.78
1037.704	976.43
1037.992	950.67
1038.279	941.63
1038.566	938.24
1038.853	938.24
1039.14	938.24
