Data from hue_290_FLMS001491_00090.txt Node
Date: Tue Feb 07 15:53:25 GMT 2017
User: dcchb
Spectrometer: FLMS00149
Trigger mode: 0
Integration Time (sec): 2.000000E-2
Scans to average: 10
Electric dark correction enabled: true
Nonlinearity correction enabled: false
Boxcar width: 0
XAxis mode: Wavelengths
Number of Pixels in Spectrum: 2048
>>>>>Begin Spectral Data<<<<<
341.393	-19.62
341.776	-19.62
342.16	-19.62
342.543	-60.75
342.927	-73.63
343.31	-69.11
343.693	-88.32
344.077	-75.66
344.46	-51.48
344.843	-60.52
345.226	-48.54
345.61	-44.48
345.993	-13.52
346.376	-7.19
346.759	11.12
347.142	33.04
347.525	50.89
347.908	81.4
348.291	76.2
348.674	104.67
349.057	101.51
349.44	121.17
349.823	135.63
350.206	160.04
350.588	174.73
350.971	198
351.354	223.54
351.737	211.11
352.119	226.03
352.502	257.89
352.884	268.51
353.267	268.28
353.65	282.07
354.032	285.46
354.414	294.72
354.797	295.4
355.179	323.2
355.562	311.45
355.944	335.63
356.326	314.38
356.709	311.22
357.091	331.33
357.473	343.31
357.855	330.66
358.238	328.85
358.62	342.41
359.002	338.79
359.384	332.69
359.766	322.07
360.148	333.37
360.53	320.03
360.912	333.59
361.294	321.39
361.676	332.01
362.057	347.83
362.439	334.72
362.821	327.94
363.203	318.9
363.584	347.38
363.966	325.46
364.348	310.09
364.729	302.18
365.111	316.19
365.493	324.78
365.874	324.55
366.256	306.02
366.637	314.38
367.019	307.83
367.4	312.8
367.781	319.81
368.163	282.97
368.544	315.51
368.925	308.28
369.306	314.38
369.688	312.58
370.069	266.93
370.45	322.52
370.831	285.01
371.212	309.19
371.593	324.1
371.974	311.45
372.355	296.76
372.736	313.48
373.117	321.84
373.498	325.68
373.879	318
374.26	309.41
374.641	282.75
375.021	308.73
375.402	324.55
375.783	321.39
376.163	326.81
376.544	304.22
376.925	332.24
377.305	328.4
377.686	314.84
378.066	318.9
378.447	308.96
378.827	329.53
379.208	325.01
379.588	319.36
379.968	330.66
380.349	336.08
380.729	322.52
381.109	327.04
381.489	334.5
381.87	337.66
382.25	337.66
382.63	318.9
383.01	339.02
383.39	333.37
383.77	335.63
384.15	346.93
384.53	332.69
384.91	343.99
385.29	345.8
385.67	355.97
386.049	341.5
386.429	327.04
386.809	345.34
387.189	346.02
387.568	368.62
387.948	350.77
388.328	350.54
388.707	332.46
389.087	356.64
389.466	350.77
389.846	354.16
390.225	347.38
390.605	354.61
390.984	375.85
391.363	383.31
391.743	365.46
392.122	385.12
392.501	350.09
392.881	389.86
393.26	378.11
393.639	375.4
394.018	357.32
394.397	364.55
394.776	387.6
395.155	386.7
395.534	390.54
395.913	383.31
396.292	376.08
396.671	372.91
397.05	378.79
397.429	393.7
397.808	388.51
398.186	395.06
398.565	403.42
398.944	415.62
399.323	404.1
399.701	400.71
400.08	413.59
400.458	407.04
400.837	422.86
401.215	407.26
401.594	403.87
401.972	400.48
402.351	410.43
402.729	417.21
403.107	435.29
403.486	445.68
403.864	446.81
404.242	452.69
404.62	433.25
404.999	455.17
405.377	433.93
405.755	418.56
406.133	451.33
406.511	442.97
406.889	464.44
407.267	465.11
407.645	487.26
408.023	473.25
408.401	470.31
408.779	488.39
409.156	490.88
409.534	517.99
409.912	506.7
410.29	519.12
410.667	507.6
411.045	531.78
411.422	534.27
411.8	522.97
412.178	552.12
412.555	564.32
412.933	553.93
413.31	573.36
413.687	569.74
414.065	571.55
414.442	590.99
414.819	590.31
415.197	607.26
415.574	600.93
415.951	616.98
416.328	629.4
416.705	645.68
417.082	645.68
417.46	640.48
417.837	642.96
418.214	671.89
418.591	652
418.967	652.23
419.344	691.32
419.721	698.56
420.098	687.03
420.475	724.54
420.852	703.53
421.228	727.48
421.605	718.67
421.982	710.98
422.358	745.33
422.735	750.31
423.111	767.71
423.488	790.08
423.864	766.12
424.241	795.95
424.617	798.67
424.994	807.7
425.37	803.86
425.746	839.57
426.123	830.75
426.499	854.26
426.875	857.65
427.251	873.01
427.627	889.96
428.003	883.63
428.379	910.75
428.756	924.54
429.132	928.38
429.507	935.84
429.883	946.01
430.259	959.34
430.635	941.26
431.011	973.58
431.387	999.56
431.763	1010.64
432.138	1004.76
432.514	1031.2
432.89	1003.41
433.265	1042.27
433.641	1060.13
434.016	1067.36
434.392	1085.66
434.767	1118.43
435.143	1099.67
435.518	1148.26
435.894	1139.45
436.269	1149.16
436.644	1162.27
437.02	1163.63
437.395	1189.62
437.77	1203.85
438.145	1219.67
438.52	1230.07
438.895	1215.83
439.271	1263.29
439.646	1264.64
440.021	1267.58
440.395	1281.36
440.77	1263.74
441.145	1313.45
441.52	1284.53
441.895	1306.67
442.27	1336.28
442.645	1336.96
443.019	1334.24
443.394	1357.07
443.769	1360.68
444.143	1358.42
444.518	1361.59
444.892	1375.83
445.267	1377.86
445.641	1405.88
446.016	1393.9
446.39	1407.91
446.764	1444.75
447.139	1428.48
447.513	1422.6
447.887	1422.15
448.262	1415.37
448.636	1441.36
449.01	1469.38
449.384	1455.6
449.758	1470.74
450.132	1472.09
450.506	1469.61
450.88	1491.53
451.254	1519.1
451.628	1515.48
452.002	1509.83
452.376	1508.93
452.75	1538.53
453.123	1521.13
453.497	1565.65
453.871	1589.15
454.244	1625.76
454.618	1589.83
454.992	1628.93
455.365	1600.23
455.739	1613.79
456.112	1643.84
456.486	1667.8
456.859	1671.64
457.232	1697.85
457.606	1661.47
457.979	1696.27
458.352	1744.18
458.725	1763.61
459.099	1780.79
459.472	1751.41
459.845	1785.53
460.218	1818.53
460.591	1831.18
460.964	1816.49
461.337	1862.14
461.71	1858.3
462.083	1880.67
462.456	1887.22
462.829	1903.04
463.201	1910.95
463.574	1901.24
463.947	1944.4
464.32	2002.25
464.692	1973.55
465.065	2010.84
465.438	2007.45
465.81	2026.2
466.183	2064.39
466.555	2070.72
466.928	2077.28
467.3	2069.59
467.672	2105.75
468.045	2144.84
468.417	2169.7
468.789	2183.26
469.161	2198.18
469.534	2206.76
469.906	2262.58
470.278	2249.02
470.65	2251.96
471.022	2291.96
471.394	2315.01
471.766	2355.69
472.138	2400.21
472.51	2422.58
472.882	2448.79
473.253	2465.51
473.625	2489.24
473.997	2549.35
474.369	2543.48
474.74	2537.83
475.112	2575.34
475.484	2620.31
475.855	2642.46
476.227	2627.09
476.598	2706.64
476.97	2720.65
477.341	2770.14
477.713	2776.01
478.084	2782.12
478.455	2872.06
478.827	2888.1
479.198	2948.67
479.569	2954.09
479.94	3001.77
480.311	3045.61
480.682	3051.71
481.053	3124.48
481.424	3163.58
481.795	3178.49
482.166	3221.43
482.537	3222.33
482.908	3258.94
483.279	3324.93
483.65	3378.03
484.021	3432.04
484.391	3441.53
484.762	3448.99
485.133	3476.56
485.503	3512.49
485.874	3596.11
486.244	3579.16
486.615	3617.8
486.985	3671.81
487.356	3758.81
487.726	3745.25
488.097	3826.16
488.467	3798.13
488.837	3863.44
489.207	3851.01
489.578	3921.75
489.948	3931.01
490.318	3992.93
490.688	3984.12
491.058	4037.9
491.428	4092.59
491.798	4142.53
492.168	4153.61
492.538	4195.19
492.908	4263.89
493.278	4253.72
493.648	4328.06
494.017	4349.53
494.387	4332.13
494.757	4421.17
495.126	4368.06
495.496	4472.02
495.866	4416.65
496.235	4450.32
496.605	4513.82
496.974	4474.73
497.344	4541.39
497.713	4571.45
498.082	4573.71
498.452	4637.66
498.821	4644.44
499.19	4632.01
499.559	4698.45
499.928	4712.46
500.298	4764.66
500.667	4778.22
501.036	4781.61
501.405	4740.48
501.774	4756.08
502.143	4811.89
502.512	4806.47
502.88	4865.9
503.249	4836.07
503.618	4916.3
503.987	4894.38
504.356	4910.65
504.724	4950.19
505.093	4977.76
505.462	4970.08
505.83	5005.33
506.199	5025.45
506.567	5111.32
506.936	5046.46
507.304	5129.85
507.672	5086.69
508.041	5133.24
508.409	5152.68
508.777	5159.91
509.145	5212.56
509.514	5199.23
509.882	5185.44
510.25	5223.86
510.618	5227.48
510.986	5269.06
511.354	5246.68
511.722	5307.02
512.09	5383.86
512.458	5313.8
512.826	5375.27
513.193	5373.23
513.561	5375.49
513.929	5401.93
514.297	5457.75
514.664	5457.3
515.032	5462.5
515.4	5522.16
515.767	5482.61
516.135	5486.45
516.502	5445.55
516.869	5515.83
517.237	5579.33
517.604	5551.99
517.972	5604.64
518.339	5594.92
518.706	5592.89
519.073	5628.37
519.44	5654.81
519.808	5683.96
520.175	5699.78
520.542	5722.15
520.909	5738.65
521.276	5777.29
521.643	5768.7
522.009	5829.49
522.376	5829.49
522.743	5885.54
523.11	5859.78
523.477	5919.21
523.843	5955.59
524.21	5994.91
524.577	5988.81
524.943	6013.67
525.31	6023.16
525.676	6042.6
526.043	6068.81
526.409	6160.11
526.776	6152.87
527.142	6189.03
527.508	6230.61
527.874	6231.06
528.241	6264.28
528.607	6278.75
528.973	6328.01
529.339	6320.55
529.705	6361.01
530.071	6354.68
530.437	6427.67
530.803	6440.78
531.169	6435.13
531.535	6454.79
531.901	6549.93
532.267	6558.06
532.632	6527.33
532.998	6567.78
533.364	6592.19
533.73	6585.18
534.095	6611.85
534.461	6706.76
534.826	6713.09
535.192	6698.62
535.557	6751.05
535.923	6689.58
536.288	6796.93
536.653	6815
537.019	6759.41
537.384	6771.16
537.749	6792.63
538.114	6851.39
538.479	6857.26
538.845	6853.87
539.21	6886.19
539.575	6934.55
539.94	6943.36
540.305	6968.45
540.67	6944.27
541.034	7006.19
541.399	6957.37
541.764	7006.86
542.129	7112.4
542.494	7104.71
542.858	7123.02
543.223	7071.49
543.587	7099.52
543.952	7133.87
544.316	7137.26
544.681	7152.17
545.045	7224.49
545.41	7219.74
545.774	7295.44
546.138	7262.45
546.503	7262.9
546.867	7234.88
547.231	7403.69
547.595	7318.72
547.959	7365.72
548.324	7375.67
548.688	7398.94
549.052	7371.15
549.416	7422.9
549.779	7441.43
550.143	7447.98
550.507	7462.45
550.871	7509.9
551.235	7532.27
551.599	7514.65
551.962	7568.66
552.326	7571.59
552.689	7600.97
553.053	7529.11
553.417	7615.44
553.78	7664.93
554.143	7662.21
554.507	7651.14
554.87	7722.78
555.234	7737.01
555.597	7679.16
555.96	7637.58
556.323	7792.38
556.686	7727.97
557.05	7767.07
557.413	7804.36
557.776	7826.28
558.139	7854.3
558.502	7920.51
558.865	7831.47
559.228	7945.82
559.59	7918.25
559.953	7979.49
560.316	8032.37
560.679	7976.78
561.041	8094.07
561.404	8066.27
561.767	8053.84
562.129	8113.05
562.492	8129.09
562.854	8086.61
563.217	8155.53
563.579	8172.48
563.941	8192.6
564.304	8207.51
564.666	8246.61
565.028	8259.94
565.39	8299.26
565.753	8321.86
566.115	8365.92
566.477	8379.48
566.839	8405.92
567.201	8429.88
567.563	8395.75
567.925	8504.9
568.287	8503.55
568.648	8493.15
569.01	8548.29
569.372	8643.43
569.734	8605.69
570.095	8664.67
570.457	8750.55
570.819	8762.98
571.18	8725.69
571.542	8834.61
571.903	8819.47
572.265	8851.34
572.626	8878
572.987	8885.23
573.349	8868.06
573.71	8984.44
574.071	9015.17
574.432	9028.28
574.794	9123.87
575.155	9109.63
575.516	9187.15
575.877	9226.92
576.238	9247.71
576.599	9313.47
576.96	9391.89
577.32	9445.9
577.681	9504.88
578.042	9557.98
578.403	9589.39
578.763	9649.51
579.124	9693.35
579.485	9806.34
579.845	9816.28
580.206	9900.8
580.566	9952.78
580.927	10021.7
581.287	10148.48
581.648	10086.33
582.008	10270.28
582.368	10323.61
582.728	10367
583.089	10471.18
583.449	10622.36
583.809	10684.96
584.169	10816.71
584.529	10855.12
584.889	11023.93
585.249	11038.17
585.609	11173.31
585.969	11322.46
586.329	11388.44
586.688	11419.86
587.048	11617.59
587.408	11729.45
587.768	11792.27
588.127	11954.53
588.487	12054.41
588.846	12317.23
589.206	12281.3
589.565	12383.67
589.925	12621.18
590.284	12727.17
590.643	12843.09
591.003	12974.39
591.362	13130.09
591.721	13265.91
592.08	13415.06
592.44	13499.8
592.799	13656.18
593.158	13775.5
593.517	13873.12
593.876	14055.94
594.235	14179.56
594.593	14243.06
594.952	14509.49
595.311	14552.65
595.67	14707.9
596.029	14833.32
596.387	15051.4
596.746	15178.63
597.104	15189.25
597.463	15363.03
597.822	15452.97
598.18	15565.51
598.538	15607.09
598.897	15834.88
599.255	15891.83
599.613	16272.38
599.972	16249.11
600.33	16431.25
600.688	16357.8
601.046	16607.74
601.404	16800.5
601.762	16852.71
602.12	17001.18
602.478	17099.03
602.836	17303.32
603.194	17218.35
603.552	17297.44
603.91	17153.72
604.268	17579.02
604.625	17598.45
604.983	17697.43
605.341	17747.6
605.698	17884.77
606.056	18059.45
606.413	18133.8
606.771	18227.81
607.128	18294.25
607.485	18225.1
607.843	18368.15
608.2	18573.34
608.557	18647.24
608.914	18657.4
609.272	18795.48
609.629	18915.7
609.986	19040.22
610.343	19021.24
610.7	19192.76
611.057	19197.5
611.414	19247.45
611.771	19359.08
612.127	19406.09
612.484	19382.58
612.841	19576.93
613.198	19523.14
613.554	19660.77
613.911	19703.03
614.267	19802.23
614.624	19758.62
614.98	19861.44
615.337	19921.33
615.693	20041.32
616.05	19982.12
616.406	20200.64
616.762	20152.28
617.118	20168.33
617.475	20337.59
617.831	20305.95
618.187	20386.17
618.543	20442.44
618.899	20539.16
619.255	20527.19
619.611	20631.36
619.967	20815.09
620.323	20718.59
620.678	20722.21
621.034	20637.24
621.39	20731.02
621.746	20743.9
622.101	21036.1
622.457	20872.04
622.812	20954.29
623.168	21000.85
623.523	21049.21
623.879	21066.61
624.234	21019.6
624.589	21040.17
624.945	21063.9
625.3	21146.15
625.655	21093.27
626.01	21218.02
626.365	21160.16
626.72	21098.24
627.075	21194.06
627.43	21234.29
627.785	21173.5
628.14	21305.92
628.495	21273.61
628.85	21314.51
629.205	21157.23
629.559	21326.04
629.914	21249.43
630.269	21239.71
630.623	21179.37
630.978	21190.9
631.332	21185.47
631.687	21179.82
632.041	21241.29
632.396	21357.67
632.75	21124.01
633.104	21206.72
633.459	21132.37
633.813	21132.59
634.167	21139.83
634.521	21142.09
634.875	21169.2
635.229	21202.2
635.583	20999.94
635.937	21056.44
636.291	20991.58
636.645	21200.84
636.999	21150.22
637.352	21138.02
637.706	20935.99
638.06	21117.45
638.413	21045.59
638.767	21009.43
639.121	21055.31
639.474	20903.45
639.828	20936.22
640.181	21123.1
640.534	21051.47
640.888	21004.01
641.241	20804.69
641.594	20916.1
641.947	20950.9
642.301	20851.7
642.654	20880.85
643.007	20894.41
643.36	20897.35
643.713	20796.56
644.066	20961.75
644.419	20839.49
644.771	20749.55
645.124	20536.45
645.477	20391.37
645.83	20343.24
646.182	20295.78
646.535	20362.22
646.888	20326.97
647.24	20199.51
647.593	20321.77
647.945	20300.07
648.298	20143.47
648.65	20148.67
649.002	20147.54
649.355	20292.62
649.707	20183.69
650.059	20295.55
650.411	20591.14
650.763	20531.03
651.115	20757.46
651.467	20759.04
651.819	20762.89
652.171	20676.11
652.523	20667.07
652.875	20598.37
653.227	20639.73
653.578	20790.91
653.93	20687.18
654.282	20631.14
654.633	20598.37
654.985	20672.95
655.337	20679.95
655.688	20683.57
656.039	20779.16
656.391	20596.11
656.742	20610.35
657.094	20678.37
657.445	20671.82
657.796	20735.54
658.147	20607.18
658.498	20642.89
658.849	20696.45
659.2	20643.79
659.551	20607.86
659.902	20782.32
660.253	20719.72
660.604	20696.9
660.955	20546.17
661.306	20709.55
661.656	20604.47
662.007	20662.55
662.358	20707.75
662.708	20749.1
663.059	20760.63
663.409	20586.39
663.76	20734.86
664.11	20693.51
664.461	20845.14
664.811	20741.64
665.161	20810.57
665.511	20763.34
665.862	20742.77
666.212	20821.64
666.562	20799.72
666.912	20754.3
667.262	20657.35
667.612	20758.82
667.962	20741.19
668.312	20664.36
668.662	20851.25
669.011	20750.91
669.361	20772.6
669.711	20781.19
670.06	20674.75
670.41	20671.59
670.76	20703.68
671.109	20629.78
671.459	20695.77
671.808	20698.93
672.157	20610.35
672.507	20517.02
672.856	20634.98
673.205	20635.88
673.554	20642.44
673.904	20514.98
674.253	20636.56
674.602	20603.57
674.951	20242.45
675.3	20308.89
675.649	20500.75
675.998	20468.88
676.346	20483.35
676.695	20564.25
677.044	20386.17
677.393	20429.34
677.741	20423.23
678.09	20402.9
678.438	20412.39
678.787	20481.54
679.135	20331.49
679.484	20321.09
679.832	20322.22
680.181	20168.33
680.529	20240.64
680.877	20240.64
681.225	20254.65
681.573	20349.11
681.922	20189.12
682.27	20099.4
682.618	20025.28
682.966	20034.77
683.314	20104.15
683.661	19965.17
684.009	19782.12
684.357	19812.18
684.705	19833.19
685.053	19809.01
685.4	19762.23
685.748	19710.71
686.095	19718.62
686.443	19621.22
686.79	19515.01
687.138	19609.47
687.485	19572.18
687.832	19503.71
688.18	19458.51
688.527	19437.5
688.874	19377.16
689.221	19354.11
689.568	19276.82
689.915	19256.26
690.262	19135.13
690.609	19102.59
690.956	19009.03
691.303	18987.57
691.65	18983.5
691.997	18898.08
692.344	18837.97
692.69	18782.15
693.037	18714.35
693.383	18651.76
693.73	18610.17
694.077	18530.63
694.423	18627.8
694.769	18532.66
695.116	18428.71
695.462	18447.92
695.808	18312.78
696.155	18332.67
696.501	18171.32
696.847	18143.75
697.193	18081.6
697.539	18086.57
697.885	17910.76
698.231	17871.44
698.577	17826.92
698.923	17889.97
699.269	17701.95
699.614	17609.3
699.96	17615.85
700.306	17567.26
700.651	17505.8
700.997	17517.77
701.342	17456.53
701.688	17303.77
702.033	17228.06
702.379	17286.14
702.724	17192.13
703.069	17253.83
703.415	16987.39
703.76	17075.53
704.105	16989.43
704.45	16979.93
704.795	16899.26
705.14	16770.45
705.485	16822.88
705.83	16781.52
706.175	16776.78
706.52	16665.37
706.865	16570.45
707.209	16563.9
707.554	16593.28
707.899	16546.05
708.243	16438.03
708.588	16389.67
708.932	16266.73
709.277	16261.76
709.621	16264.47
709.966	16083.24
710.31	16120.3
710.654	16067.87
710.998	15937.7
711.342	16031.26
711.687	15983.35
712.031	15903.13
712.375	15878.04
712.719	15952.39
713.063	15858.83
713.407	15890.92
713.75	15852.28
714.094	15696.58
714.438	15682.34
714.782	15721.21
715.125	15593.98
715.469	15606.41
715.812	15443.03
716.156	15475.57
716.499	15500.2
716.843	15582.91
717.186	15431.5
717.53	15498.84
717.873	15471.27
718.216	15318.51
718.559	15382.69
718.902	15295.91
719.246	15307.66
719.589	15238.74
719.932	15129.14
720.275	15163.71
720.617	15274.22
720.96	15233.77
721.303	15163.26
721.646	15220.89
721.989	15089.59
722.331	15198.74
722.674	15083.49
723.016	15048.69
723.359	15063.38
723.701	15130.04
724.044	14971.4
724.386	14923.27
724.729	14989.25
725.071	14994.9
725.413	14870.61
725.755	14961
726.097	14945.19
726.439	14851.63
726.782	14801.46
727.124	15005.98
727.465	14868.35
727.807	14885.3
728.149	14921.01
728.491	14831.06
728.833	14821.8
729.175	14758.07
729.516	14691.18
729.858	14767.79
730.199	14763.04
730.541	14786.77
730.882	14695.93
731.224	14685.76
731.565	14640.11
731.906	14696.15
732.248	14761.91
732.589	14582.71
732.93	14572.99
733.271	14640.79
733.612	14648.7
733.953	14608.02
734.294	14633.78
734.635	14626.78
734.976	14607.12
735.317	14535.03
735.658	14563.73
735.999	14618.64
736.339	14558.53
736.68	14633.1
737.021	14583.84
737.361	14562.6
737.702	14645.53
738.042	14595.14
738.383	14621.58
738.723	14542.48
739.063	14573.44
739.404	14645.76
739.744	14557.17
740.084	14571.41
740.424	14619.09
740.764	14573.67
741.104	14690.28
741.444	14574.8
741.784	14657.96
742.124	14657.06
742.464	14739.54
742.804	14723.05
743.143	14737.51
743.483	14762.37
743.823	14635.59
744.162	14710.39
744.502	14787.45
744.841	14771.63
745.181	14862.7
745.52	14818.64
745.86	14945.41
746.199	14962.81
746.538	15007.11
746.877	14990.16
747.216	15114.9
747.556	15034
747.895	15180.21
748.234	15151.51
748.573	15223.14
748.911	15282.8
749.25	15289.81
749.589	15387.43
749.928	15425.4
750.267	15532.29
750.605	15582.46
750.944	15564.15
751.283	15669.91
751.621	15746.07
751.96	15717.37
752.298	15947.19
752.636	15991.03
752.975	15885.73
753.313	16082.11
753.651	16214.08
753.989	16259.5
754.327	16253.63
754.666	16464.02
755.004	16601.41
755.342	16634.41
755.679	16738.59
756.017	16709.89
756.355	16941.97
756.693	17040.95
757.031	17109.87
757.368	17218.35
757.706	17344.9
758.044	17346.25
758.381	17460.37
758.719	17649.52
759.056	17704.89
759.394	17780.82
759.731	17701.95
760.068	17991.89
760.405	18096.97
760.743	18135.38
761.08	18306.68
761.417	18263.52
761.754	18453.57
762.091	18474.58
762.428	18609.04
762.765	18624.41
763.102	18828.7
763.438	18724.07
763.775	18826.44
764.112	18990.28
764.449	19199.99
764.785	19056.49
765.122	19180.33
765.458	19212.19
765.795	19265.75
766.131	19450.38
766.467	19375.58
766.804	19378.52
767.14	19475.69
767.476	19530.83
767.812	19508.46
768.148	19697.15
768.485	19661.67
768.821	19600.2
769.157	19713.87
769.492	19705.06
769.828	19775.12
770.164	19717.49
770.5	19804.95
770.836	19859.63
771.171	19844.94
771.507	19905.28
771.842	19745.96
772.178	19860.76
772.513	19785.06
772.849	19837.71
773.184	19787.54
773.519	19875.9
773.855	19794.55
774.19	19872.29
774.525	19759.52
774.86	19846.98
775.195	19868.22
775.53	19806.98
775.865	19700.54
776.2	19670.94
776.535	19632.52
776.87	19643.82
777.205	19592.3
777.539	19557.04
777.874	19558.85
778.209	19396.59
778.543	19491.06
778.878	19402.92
779.212	19376.48
779.547	19294.45
779.881	19389.82
780.215	19192.76
780.55	19361.79
780.884	19216.71
781.218	19185.3
781.552	19234.11
781.886	19061.01
782.22	19130.84
782.554	18974.01
782.888	18781.47
783.222	18814.91
783.556	18817.4
783.889	18757.97
784.223	18696.73
784.557	18722.26
784.89	18685.65
785.224	18633.68
785.557	18565.88
785.891	18494.47
786.224	18479.56
786.558	18538.09
786.891	18419.45
787.224	18287.92
787.557	18296.74
787.891	18231.88
788.224	18291.09
788.557	18183.29
788.89	18176.51
789.223	18106.91
789.556	18042.73
789.888	17982.62
790.221	17933.81
790.554	17734.72
790.887	17793.25
791.219	17794.38
791.552	17757.54
791.884	17628.28
792.217	17609.97
792.549	17545.12
792.882	17450.88
793.214	17438.68
793.546	17421.05
793.879	17323.2
794.211	17175.64
794.543	17232.13
794.875	17326.14
795.207	17238.91
795.539	17181.51
795.871	17303.54
796.203	17025.81
796.535	16960.73
796.867	16851.58
797.198	16798.7
797.53	16902.65
797.862	16782.2
798.193	16828.07
798.525	16725.7
798.856	16619.04
799.188	16527.07
799.519	16412.27
799.85	16424.92
800.182	16435.99
800.513	16395.54
800.844	16271.48
801.175	16379.95
801.506	16300.63
801.837	16250.01
802.168	16144.02
802.499	16202.1
802.83	16039.39
803.161	16000.07
803.491	15991.71
803.822	15960.53
804.153	15872.62
804.483	15808.67
804.814	15664.94
805.145	15799.17
805.475	15699.06
805.805	15603.02
806.136	15672.85
806.466	15627.65
806.796	15603.93
807.126	15545.17
807.457	15427.21
807.787	15431.95
808.117	15372.07
808.447	15296.82
808.777	15392.18
809.107	15266.76
809.436	15289.13
809.766	15221.79
810.096	15149.02
810.426	15063.38
810.755	15192.64
811.085	15107.67
811.414	14967.33
811.744	14925.3
812.073	14942.47
812.403	14945.86
812.732	14848.24
813.061	14923.94
813.39	14710.39
813.719	14734.57
814.049	14771.63
814.378	14770.5
814.707	14685.53
815.036	14646.66
815.365	14627
815.693	14433.79
816.022	14416.84
816.351	14456.16
816.68	14437.63
817.008	14401.92
817.337	14333.9
817.665	14289.16
817.994	14338.87
818.322	14207.8
818.651	14210.06
818.979	14191.53
819.307	14204.64
819.636	14201.48
819.964	14013.01
820.292	14231.53
820.62	14157.86
820.948	14013.91
821.276	14121.25
821.604	14044.42
821.932	14040.58
822.259	14075.83
822.587	14018.88
822.915	14011.88
823.243	14069.95
823.57	14006.45
823.898	13996.74
824.225	13977.98
824.553	13964.65
824.88	14002.61
825.207	14028.83
825.535	14040.35
825.862	13989.28
826.189	13953.57
826.516	13959.45
826.843	14069.73
827.17	14058.88
827.497	14026.11
827.824	14022.95
828.151	14013.23
828.478	14081.93
828.805	14050.75
829.131	13994.7
829.458	13952.9
829.785	13989.05
830.111	13897.3
830.438	14090.97
830.764	13966.45
831.09	13959.22
831.417	13887.81
831.743	13992.67
832.069	13907.02
832.395	13904.54
832.722	13900.02
833.048	13953.35
833.374	13816.85
833.7	13823.41
834.026	13831.54
834.351	13837.42
834.677	13861.6
835.003	13796.52
835.329	13803.97
835.654	13831.77
835.98	13712
836.306	13781.83
836.631	13768.49
836.956	13811.88
837.282	13726.46
837.607	13729.17
837.932	13696.41
838.258	13647.59
838.583	13585.9
838.908	13508.39
839.233	13571.44
839.558	13481.72
839.883	13491.21
840.208	13435.85
840.533	13466.81
840.858	13497.31
841.182	13478.33
841.507	13387.94
841.832	13436.3
842.156	13323.76
842.481	13327.15
842.805	13320.37
843.13	13310.88
843.454	13213.25
843.778	13134.16
844.103	13161.73
844.427	13129.41
844.751	13190.66
845.075	13098.68
845.399	13067.95
845.723	12964.22
846.047	12994.5
846.371	12778.69
846.695	12964.45
847.019	12774.4
847.343	12739.14
847.666	12633.38
847.99	12619.15
848.313	12618.47
848.637	12466.38
848.96	12497.34
849.284	12420.05
849.607	12391.35
849.931	12333.96
850.254	12222.77
850.577	12209.89
850.9	12189.55
851.223	12078.37
851.546	12073.17
851.869	11970.8
852.192	12022.55
852.515	11893.06
852.838	11813.97
853.161	11829.11
853.483	11799.96
853.806	11792.5
854.129	11699.62
854.451	11684.48
854.774	11629.79
855.096	11628.89
855.419	11531.04
855.741	11579.17
856.063	11510.02
856.385	11488.55
856.708	11396.35
857.03	11470.7
857.352	11500.98
857.674	11341.44
857.996	11341.44
858.318	11273.19
858.64	11259.18
858.961	11189.35
859.283	11125.4
859.605	11164.27
859.926	11141.44
860.248	11134.66
860.57	11112.52
860.891	11034.55
861.212	10952.75
861.534	11044.5
861.855	10928.12
862.176	10956.36
862.498	10931.96
862.819	10886.99
863.14	10849.47
863.461	10927.21
863.782	10824.39
864.103	10800.21
864.424	10794.56
864.745	10795.01
865.065	10756.82
865.386	10751.4
865.707	10744.17
866.027	10710.95
866.348	10665.52
866.668	10615.36
866.989	10676.37
867.309	10558.18
867.63	10565.87
867.95	10567.67
868.27	10572.19
868.59	10481.35
868.91	10514.34
869.23	10495.13
869.55	10452.65
869.87	10499.2
870.19	10482.7
870.51	10487.22
870.83	10432.08
871.15	10320.67
871.469	10410.39
871.789	10374.46
872.109	10365.42
872.428	10270.28
872.748	10370.62
873.067	10372.43
873.386	10281.35
873.706	10275.48
874.025	10288.36
874.344	10186.67
874.663	10195.25
874.982	10209.72
875.301	10207.68
875.62	10235.25
875.939	10148.48
876.258	10138.31
876.577	10103.96
876.896	10033.45
877.214	10078.2
877.533	10035.71
877.852	10048.37
878.17	10030.74
878.489	10055.82
878.807	10041.13
879.125	9942.83
879.444	9970.4
879.762	9956.16
880.08	9945.77
880.398	9834.13
880.716	9906
881.034	9871.42
881.352	9884.75
881.67	9752.78
881.988	9855.6
882.306	9746
882.624	9741.93
882.941	9790.29
883.259	9716.17
883.577	9726.11
883.894	9668.26
884.212	9631.43
884.529	9676.17
884.846	9638.21
885.164	9563.18
885.481	9572.45
885.798	9555.95
886.115	9525.44
886.432	9490.87
886.75	9472.34
887.067	9429.62
887.383	9391.66
887.7	9430.75
888.017	9366.35
888.334	9359.8
888.651	9356.18
888.967	9332.68
889.284	9295.17
889.6	9238.22
889.917	9182.4
890.233	9214.72
890.55	9163.19
890.866	9147.82
891.182	9156.64
891.498	9094.72
891.815	9015.62
892.131	9080.03
892.447	8956.42
892.763	9007.72
893.079	8965
893.395	8958.68
893.71	8847.27
894.026	8864.89
894.342	8865.12
894.657	8805.23
894.973	8825.57
895.289	8789.19
895.604	8778.57
895.92	8694.28
896.235	8637.56
896.55	8742.86
896.865	8639.59
897.181	8581.06
897.496	8586.48
897.811	8607.5
898.126	8522.53
898.441	8461.51
898.756	8422.65
899.071	8390.1
899.386	8440.05
899.7	8308.75
900.015	8338.58
900.33	8217.23
900.644	8274.18
900.959	8278.47
901.273	8269.2
901.588	8200.5
901.902	8145.36
902.216	8170.22
902.531	8135.87
902.845	8014.97
903.159	8064.69
903.473	8036.44
903.787	7951.02
904.101	7916.22
904.415	7912.15
904.729	7863.34
905.042	7833.28
905.356	7836.45
905.67	7790.57
905.984	7756.67
906.297	7767.75
906.611	7664.02
906.924	7713.29
907.237	7621.54
907.551	7614.98
907.864	7593.97
908.177	7588.54
908.491	7577.24
908.804	7524.14
909.117	7476.91
909.43	7443.91
909.743	7419.73
910.056	7379.51
910.368	7336.8
910.681	7259.74
910.994	7309.45
911.307	7268.55
911.619	7197.14
911.932	7216.35
912.244	7138.16
912.557	7099.06
912.869	7037.82
913.181	7079.63
913.494	7043.92
913.806	7038.95
914.118	6987.66
914.43	6966.86
914.742	6937.26
915.054	6938.17
915.366	6814.55
915.678	6824.95
915.99	6864.49
916.302	6797.15
916.613	6781.33
916.925	6740.88
917.236	6732.07
917.548	6681
917.859	6716.25
918.171	6604.16
918.482	6660.43
918.794	6511.51
919.105	6532.98
919.416	6502.47
919.727	6478.97
920.038	6505.86
920.349	6377.73
920.66	6424.05
920.971	6428.12
921.282	6413.21
921.593	6402.13
921.903	6276.26
922.214	6281.46
922.525	6322.36
922.835	6251.63
923.146	6212.99
923.456	6159.65
923.767	6143.38
924.077	6134.12
924.387	6137.73
924.697	6085.08
925.008	6046.44
925.318	6024.97
925.628	6039.66
925.938	5977.06
926.248	5932.32
926.558	5903.16
926.867	5924.41
927.177	5811.41
927.487	5821.58
927.796	5745.88
928.106	5784.98
928.416	5764.18
928.725	5760.34
929.034	5706.33
929.344	5677.41
929.653	5672.89
929.962	5604.64
930.271	5621.59
930.581	5539.56
930.89	5576.17
931.199	5525.09
931.508	5521.25
931.817	5516.73
932.125	5478.99
932.434	5457.3
932.743	5424.76
933.051	5405.55
933.36	5425.44
933.669	5357.42
933.977	5345.21
934.286	5376.85
934.594	5318.77
934.902	5286.91
935.21	5252.79
935.519	5232
935.827	5214.82
936.135	5240.58
936.443	5127.82
936.751	5146.57
937.059	5139.57
937.367	5071.55
937.674	5109.96
937.982	5090.3
938.29	5058.21
938.597	5010.76
938.905	5006.01
939.213	4953.36
939.52	4954.71
939.827	4915.39
940.135	4939.8
940.442	4911.1
940.749	4895.96
941.056	4855.73
941.363	4845.79
941.67	4834.27
941.977	4777.54
942.284	4690.99
942.591	4784.78
942.898	4684.21
943.205	4719.69
943.511	4709.07
943.818	4682.63
944.125	4645.57
944.431	4643.54
944.738	4608.73
945.044	4597.66
945.35	4564.22
945.657	4528.51
945.963	4504.33
946.269	4500.71
946.575	4534.39
946.881	4446.48
947.187	4441.28
947.493	4408.06
947.799	4394.05
948.105	4422.75
948.41	4363.09
948.716	4320.38
949.022	4322.41
949.327	4372.58
949.633	4283.09
949.938	4307.95
950.244	4269.99
950.549	4254.62
950.854	4231.34
951.16	4179.82
951.465	4237.9
951.77	4192.93
952.075	4143.44
952.38	4171.01
952.685	4112.25
952.99	4060.27
953.294	4075.87
953.599	4073.16
953.904	4051.69
954.209	4040.84
954.513	3977.34
954.818	3958.81
955.122	3931.01
955.426	3957.45
955.731	3927.62
956.035	3900.96
956.339	3893.5
956.643	3862.99
956.948	3863.9
957.252	3809.66
957.556	3844.69
957.86	3800.85
958.163	3799.72
958.467	3733.73
958.771	3778.7
959.075	3746.84
959.378	3727.63
959.682	3721.53
959.985	3732.15
960.289	3683.34
960.592	3657.8
960.896	3653.05
961.199	3635.65
961.502	3688.76
961.805	3599.5
962.108	3607.18
962.411	3575.54
962.714	3603.34
963.017	3539.16
963.32	3524.02
963.623	3514.07
963.926	3540.97
964.228	3476.79
964.531	3479.5
964.833	3499.16
965.136	3438.82
965.438	3441.31
965.741	3420.07
966.043	3385.94
966.345	3362.44
966.648	3380.52
966.95	3384.36
967.252	3325.6
967.554	3338.71
967.856	3336.68
968.158	3295.55
968.46	3313.18
968.761	3265.49
969.063	3210.58
969.365	3253.06
969.666	3209.68
969.968	3235.21
970.269	3217.81
970.571	3167.42
970.872	3200.64
971.174	3172.16
971.475	3130.13
971.776	3127.19
972.077	3149.11
972.378	3143.46
972.679	3069.34
972.98	3089.45
973.281	3097.59
973.582	3063.69
973.883	3018.95
974.183	3016.69
974.484	3008.55
974.785	2992.28
975.085	2994.99
975.386	2999.06
975.686	2969
975.986	2923.36
976.287	2918.16
976.587	2887.42
976.887	2936.01
977.187	2909.57
977.487	2886.97
977.787	2862.34
978.087	2846.75
978.387	2809.69
978.687	2787.77
978.987	2829.12
979.286	2799.97
979.586	2766.07
979.885	2759.97
980.185	2755.45
980.484	2724.04
980.784	2705.96
981.083	2732.63
981.382	2740.31
981.682	2709.58
981.981	2677.49
982.28	2700.31
982.579	2661.44
982.878	2632.74
983.177	2622.57
983.475	2647.2
983.774	2616.02
984.073	2573.99
984.372	2592.97
984.67	2591.16
984.969	2569.47
985.267	2573.53
985.566	2523.82
985.864	2558.39
986.162	2528.79
986.461	2508
986.759	2499.64
987.057	2471.84
987.355	2458.51
987.653	2430.94
987.951	2473.65
988.249	2452.86
988.547	2445.18
988.844	2419.19
989.142	2410.6
989.44	2390.49
989.737	2369.7
990.035	2389.36
990.332	2359.75
990.63	2340.55
990.927	2349.81
991.224	2320.43
991.521	2350.72
991.819	2303.26
992.116	2315.91
992.413	2302.13
992.71	2256.71
993.006	2284.28
993.303	2275.24
993.6	2247.21
993.897	2252.41
994.193	2228.23
994.49	2224.62
994.787	2220.77
995.083	2195.92
995.379	2191.4
995.676	2179.19
995.972	2181.23
996.268	2105.52
996.565	2154.11
996.861	2106.65
997.157	2110.04
997.453	2129.03
997.749	2093.09
998.044	2078.86
998.34	2071.4
998.636	2096.26
998.932	2027.33
999.227	2045.64
999.523	2019.88
999.818	2034.11
1000.114	2053.77
1000.409	2039.99
1000.704	1991.85
1001	1975.58
1001.295	1991.4
1001.59	2001.57
1001.885	1941.91
1002.18	1945.3
1002.475	1918.86
1002.77	1906.43
1003.065	1912.99
1003.359	1902.82
1003.654	1856.72
1003.949	1879.54
1004.243	1876.6
1004.538	1847.68
1004.832	1876.83
1005.127	1853.1
1005.421	1837.73
1005.715	1822.37
1006.009	1813.78
1006.304	1805.19
1006.598	1799.77
1006.892	1787.34
1007.186	1760.67
1007.48	1775.81
1007.773	1755.7
1008.067	1738.53
1008.361	1727.68
1008.655	1745.99
1008.948	1694.91
1009.242	1694.24
1009.535	1712.31
1009.829	1731.3
1010.122	1695.82
1010.415	1645.2
1010.708	1661.92
1011.001	1622.15
1011.295	1669.6
1011.588	1631.19
1011.881	1593.67
1012.173	1640.9
1012.466	1578.31
1012.759	1600.9
1013.052	1597.29
1013.344	1571.75
1013.637	1527.01
1013.93	1542.6
1014.222	1561.13
1014.514	1527.69
1014.807	1525.65
1015.099	1512.09
1015.391	1527.91
1015.683	1506.9
1015.976	1507.12
1016.268	1477.74
1016.56	1477.74
1016.851	1480.46
1017.143	1443.39
1017.435	1455.37
1017.727	1445.88
1018.018	1442.26
1018.31	1428.25
1018.602	1426.67
1018.893	1397.07
1019.185	1382.6
1019.476	1389.16
1019.767	1379.67
1020.058	1382.83
1020.35	1360.46
1020.641	1362.04
1020.932	1363.85
1021.223	1322.27
1021.514	1309.16
1021.804	1322.27
1022.095	1297.41
1022.386	1302.16
1022.677	1276.39
1022.967	1284.3
1023.258	1282.27
1023.548	1287.69
1023.839	1259.44
1024.129	1268.48
1024.419	1246.79
1024.709	1238.88
1025	1240.46
1025.29	1197.3
1025.58	1214.93
1025.87	1213.12
1026.16	1207.02
1026.449	1199.33
1026.739	1180.35
1027.029	1189.16
1027.319	1145.32
1027.608	1163.18
1027.898	1140.8
1028.187	1144.87
1028.477	1129.05
1028.766	1123.4
1029.055	1127.92
1029.344	1127.7
1029.634	1100.58
1029.923	1107.81
1030.212	1096.51
1030.501	1086.34
1030.79	1075.95
1031.078	1072.78
1031.367	1051.77
1031.656	1079.56
1031.945	1043.63
1032.233	1042.05
1032.522	1023.97
1032.81	1045.66
1033.099	1033.91
1033.387	1024.42
1033.675	1014.03
1033.963	1002.05
1034.251	1005.21
1034.54	1002.95
1034.828	1017.64
1035.116	960.24
1035.403	1000.02
1035.691	983.07
1035.979	953.92
1036.267	964.76
1036.554	937.87
1036.842	921.83
1037.129	932.22
1037.417	928.15
1037.704	946.23
1037.992	924.31
1038.279	931.32
1038.566	906.91
1038.853	906.91
1039.14	906.91
