Data from hue_10_FLMS001491_83.txt Node
Date: Mon Feb 06 15:32:41 GMT 2017
User: dcchb
Spectrometer: FLMS00149
Trigger mode: 0
Integration Time (sec): 2.000000E-2
Scans to average: 10
Electric dark correction enabled: true
Nonlinearity correction enabled: false
Boxcar width: 0
XAxis mode: Wavelengths
Number of Pixels in Spectrum: 2048
>>>>>Begin Spectral Data<<<<<
341.393	-22.15
341.776	-22.15
342.16	-22.15
342.543	-54.69
342.927	-52.43
343.31	-75.25
343.693	-76.16
344.077	-55.59
344.46	-52.65
344.843	-37.97
345.226	-51.07
345.61	-32.54
345.993	-15.37
346.376	-8.81
346.759	8.36
347.142	11.07
347.525	40.22
347.908	80
348.291	63.5
348.674	87.91
349.057	114.35
349.44	107.57
349.823	160.45
350.206	168.13
350.588	194.35
350.971	205.42
351.354	228.02
351.737	226.21
352.119	269.82
352.502	244.74
352.884	269.15
353.267	269.82
353.65	294
354.032	310.5
354.414	320.22
354.797	306.43
355.179	322.7
355.562	305.53
355.944	340.33
356.326	338.97
356.709	321.57
357.091	339.88
357.473	348.69
357.855	328.58
358.238	335.81
358.62	355.92
359.002	341.91
359.384	359.76
359.766	343.04
360.148	328.58
360.53	353.44
360.912	339.65
361.294	323.83
361.676	350.5
362.057	331.97
362.439	331.29
362.821	331.29
363.203	331.29
363.584	321.57
363.966	330.39
364.348	334.23
364.729	327.45
365.111	330.39
365.493	314.34
365.874	323.16
366.256	308.24
366.637	329.71
367.019	306.21
367.4	303.27
367.781	319.77
368.163	318.64
368.544	314.12
368.925	311.63
369.306	309.6
369.688	317.73
370.069	320.44
370.45	312.08
370.831	330.84
371.212	320.9
371.593	314.12
371.974	331.74
372.355	299.88
372.736	321.35
373.117	345.08
373.498	320.22
373.879	313.44
374.26	318.64
374.641	305.3
375.021	317.96
375.402	323.16
375.783	330.61
376.163	333.32
376.544	318.64
376.925	334.68
377.305	332.42
377.686	351.4
378.066	344.62
378.447	321.8
378.827	334.91
379.208	337.39
379.588	340.1
379.968	334.91
380.349	336.94
380.729	344.85
381.109	326.09
381.489	350.27
381.87	359.09
382.25	337.17
382.63	339.88
383.01	340.1
383.39	353.21
383.77	327.45
384.15	365.87
384.53	331.52
384.91	351.86
385.29	345.08
385.67	358.18
386.049	352.99
386.429	355.92
386.809	359.31
387.189	348.92
387.568	353.21
387.948	363.83
388.328	356.83
388.707	345.53
389.087	338.97
389.466	363.83
389.846	366.54
390.225	360.22
390.605	376.94
390.984	350.95
391.363	368.58
391.743	373.32
392.122	371.97
392.501	373.1
392.881	342.82
393.26	364.51
393.639	383.94
394.018	391.18
394.397	379.65
394.776	363.61
395.155	399.09
395.534	368.13
395.913	355.47
396.292	375.81
396.671	367
397.05	385.75
397.429	368.13
397.808	379.2
398.186	370.16
398.565	396.6
398.944	407.9
399.323	385.53
399.701	381.46
400.08	390.72
400.458	397.73
400.837	388.92
401.215	377.84
401.594	410.38
401.972	400.22
402.351	406.09
402.729	391.4
403.107	392.53
403.486	395.92
403.864	387.33
404.242	397.05
404.62	401.35
404.999	396.83
405.377	407.9
405.755	411.06
406.133	406.54
406.511	403.15
406.889	412.87
407.267	406.32
407.645	399.31
408.023	422.14
408.401	432.31
408.779	417.39
409.156	422.14
409.534	452.42
409.912	435.92
410.29	446.32
410.667	422.59
411.045	424.17
411.422	441.34
411.8	438.86
412.178	454
412.555	445.41
412.933	449.48
413.31	467.56
413.687	476.15
414.065	480.89
414.442	463.26
414.819	451.06
415.197	483.83
415.574	486.31
415.951	472.3
416.328	468.24
416.705	487.67
417.082	474.34
417.46	478.41
417.837	497.61
418.214	501.46
418.591	503.49
418.967	496.94
419.344	485.64
419.721	497.84
420.098	473.43
420.475	516.82
420.852	487.44
421.228	499.42
421.605	529.03
421.982	517.27
422.358	530.16
422.735	525.64
423.111	535.13
423.488	518.4
423.864	525.41
424.241	538.52
424.617	545.07
424.994	547.56
425.37	541
425.746	530.61
426.123	538.06
426.499	538.06
426.875	561.34
427.251	518.86
427.627	556.6
428.003	576.71
428.379	594.56
428.756	594.11
429.132	588.69
429.507	577.16
429.883	592.75
430.259	583.71
430.635	571.51
431.011	578.97
431.387	613.77
431.763	641.11
432.138	604.73
432.514	589.82
432.89	624.39
433.265	615.8
433.641	635.46
434.016	625.75
434.392	651.06
434.767	653.54
435.143	637.95
435.518	660.32
435.894	651.51
436.269	659.64
436.644	683.37
437.02	661
437.395	664.84
437.77	682.02
438.145	688.57
438.52	679.53
438.895	691.96
439.271	692.86
439.646	709.13
440.021	716.59
440.395	701.22
440.77	716.14
441.145	717.5
441.52	686.08
441.895	719.3
442.27	722.92
442.645	715.24
443.019	760.88
443.394	708
443.769	747.1
444.143	728.12
444.518	746.87
444.892	736.48
445.267	769.92
445.641	760.21
446.016	770.83
446.39	741.45
446.764	784.16
447.139	750.94
447.513	743.94
447.887	767.44
448.262	768.79
448.636	779.19
449.01	777.83
449.384	794.33
449.758	794.1
450.132	791.62
450.506	792.07
450.88	790.04
451.254	799.75
451.628	825.06
452.002	845.63
452.376	804.05
452.75	813.31
453.123	831.16
453.497	853.31
453.871	872.75
454.244	871.62
454.618	866.64
454.992	874.78
455.365	872.52
455.739	912.52
456.112	909.13
456.486	918.85
456.859	904.61
457.232	932.63
457.606	935.12
457.979	930.37
458.352	952.74
458.725	952.97
459.099	940.77
459.472	953.42
459.845	966.53
460.218	968.34
460.591	983.93
460.964	999.52
461.337	1003.14
461.71	1024.38
462.083	1039.52
462.456	1056.7
462.829	1041.78
463.201	1041.78
463.574	1059.18
463.947	1073.42
464.32	1080.42
464.692	1110.48
465.065	1116.35
465.438	1119.74
465.81	1155
466.183	1149.57
466.555	1154.32
466.928	1171.49
467.3	1163.13
467.672	1183.25
468.045	1226.86
468.417	1237.26
468.789	1204.49
469.161	1226.41
469.534	1248.55
469.906	1281.77
470.278	1302.56
470.65	1312.51
471.022	1310.25
471.394	1346.18
471.766	1337.82
472.138	1362
472.51	1402.45
472.882	1420.08
473.253	1415.78
473.625	1470.47
473.997	1493.29
474.369	1478.38
474.74	1505.5
475.112	1548.89
475.484	1551.82
475.855	1578.49
476.227	1626.62
476.598	1661.65
476.97	1665.27
477.341	1678.83
477.713	1720.41
478.084	1759.73
478.455	1759.05
478.827	1811.48
479.198	1840.18
479.569	1842.21
479.94	1910.68
480.311	1907.29
480.682	1968.76
481.053	1999.27
481.424	2041.3
481.795	2053.28
482.166	2098.7
482.537	2126.95
482.908	2192.94
483.279	2216.21
483.65	2244.01
484.021	2311.8
484.391	2344.12
484.762	2372.59
485.133	2412.82
485.503	2453.27
485.874	2494.62
486.244	2484.23
486.615	2598.35
486.985	2580.72
487.356	2642.42
487.726	2670.89
488.097	2741.17
488.467	2742.07
488.837	2830.43
489.207	2861.17
489.578	2872.69
489.948	2942.07
490.318	2936.65
490.688	3001.5
491.058	3026.59
491.428	3069.52
491.798	3138.22
492.168	3215.96
492.538	3179.35
492.908	3242.4
493.278	3314.72
493.648	3283.98
494.017	3345.67
494.387	3388.61
494.757	3439.23
495.126	3483.75
495.496	3522.85
495.866	3477.87
496.235	3518.78
496.605	3566.01
496.974	3596.52
497.344	3653.24
497.713	3663.86
498.082	3673.35
498.452	3751.09
498.821	3759.22
499.19	3744.76
499.559	3817.53
499.928	3860.24
500.298	3886.23
500.667	3901.14
501.036	3912.21
501.405	3940.24
501.774	3893.68
502.143	3977.75
502.512	3988.14
502.88	4022.49
503.249	4006.67
503.618	4089.61
503.987	4062.72
504.356	4143.17
504.724	4137.29
505.093	4197.4
505.462	4238.98
505.83	4167.57
506.199	4210.28
506.567	4287.34
506.936	4267.68
507.304	4354.01
507.672	4326.44
508.041	4363.28
508.409	4445.76
508.777	4452.54
509.145	4411.41
509.514	4414.35
509.882	4423.84
510.25	4436.72
510.618	4499.54
510.986	4540.22
511.354	4549.71
511.722	4566.21
512.09	4561.46
512.458	4589.03
512.826	4641.69
513.193	4644.17
513.561	4633.32
513.929	4732.76
514.297	4665.64
514.664	4695.7
515.032	4724.85
515.4	4715.58
515.767	4765.52
516.135	4815.24
516.502	4763.49
516.869	4804.17
517.237	4817.05
517.604	4823.38
517.972	4899.31
518.339	4854.34
518.706	4899.76
519.073	4933.2
519.44	4937.95
519.808	4952.19
520.175	4938.4
520.542	5013.43
520.909	5005.74
521.276	5030.6
521.643	5074.89
522.009	5092.75
522.376	5113.99
522.743	5160.32
523.11	5191.28
523.477	5222.01
523.843	5176.36
524.21	5234.44
524.577	5293.19
524.943	5316.02
525.31	5304.04
525.676	5339.52
526.043	5435.79
526.409	5424.04
526.776	5487.09
527.142	5498.84
527.508	5503.36
527.874	5502
528.241	5548.78
528.607	5556.69
528.973	5651.38
529.339	5557.59
529.705	5681.88
530.071	5692.96
530.437	5684.37
530.803	5774.54
531.169	5811.6
531.535	5740.64
531.901	5771.6
532.267	5808.66
532.632	5832.62
532.998	5885.27
533.364	5910.13
533.73	5892.73
534.095	5972.95
534.461	5989
534.826	6045.94
535.192	6010.69
535.557	6086.17
535.923	6076.9
536.288	6089.78
536.653	6165.49
537.019	6164.36
537.384	6156.67
537.749	6156.9
538.114	6177.69
538.479	6272.38
538.845	6258.59
539.21	6283.22
539.575	6337.91
539.94	6352.83
540.305	6385.37
540.67	6407.06
541.034	6398.93
541.399	6392.15
541.764	6445.25
542.129	6499.04
542.494	6540.39
542.858	6531.13
543.223	6537.68
543.587	6616.55
543.952	6645.25
544.316	6680.28
544.681	6607.74
545.045	6697.68
545.41	6739.48
545.774	6756.21
546.138	6723.89
546.503	6849.76
546.867	6788.75
547.231	6841.4
547.595	6835.3
547.959	6867.62
548.324	6915.3
548.688	6918.46
549.052	7005.24
549.416	6968.18
549.779	6985.13
550.143	7005.47
550.507	7063.09
550.871	7119.13
551.235	7054.28
551.599	7165.46
551.962	7186.7
552.326	7141.96
552.689	7171.79
553.053	7131.79
553.417	7217.21
553.78	7249.53
554.143	7282.29
554.507	7298.11
554.87	7290.88
555.234	7361.84
555.597	7345.57
555.96	7422.63
556.323	7448.84
556.686	7352.8
557.05	7477.32
557.413	7523.19
557.776	7461.5
558.139	7549.18
558.502	7563.87
558.865	7532.01
559.228	7594.15
559.59	7651.32
559.953	7663.53
560.316	7717.54
560.679	7701.72
561.041	7773.35
561.404	7777.87
561.767	7834.6
562.129	7821.94
562.492	7890.64
562.854	7944.65
563.217	7851.77
563.579	7940.36
563.941	7984.87
564.304	7966.8
564.666	8034.37
565.028	8080.92
565.39	8107.81
565.753	8228.48
566.115	8184.87
566.477	8174.02
566.839	8205.66
567.201	8290.86
567.563	8294.47
567.925	8308.71
568.287	8296.51
568.648	8380.8
569.01	8386.9
569.372	8417.86
569.734	8440.23
570.095	8473
570.457	8518.19
570.819	8592.32
571.18	8552.77
571.542	8630.96
571.903	8687.46
572.265	8688.59
572.626	8739.88
572.987	8774.91
573.349	8828.47
573.71	8970.61
574.071	8943.72
574.432	9024.85
574.794	9087.22
575.155	9076.37
575.516	9123.83
575.877	9214.9
576.238	9241.79
576.599	9303.48
576.96	9432.75
577.32	9497.15
577.681	9601.56
578.042	9677.94
578.403	9714.32
578.763	9787.31
579.124	9929.23
579.485	9990.7
579.845	10145.27
580.206	10177.81
580.566	10325.83
580.927	10440.4
581.287	10599.95
581.648	10614.41
582.008	10883.78
582.368	10951.58
582.728	11109.99
583.089	11190.67
583.449	11430.89
583.809	11460.04
584.169	11697.55
584.529	11888.5
584.889	12184.31
585.249	12196.52
585.609	12335.49
585.969	12533.46
586.329	12812.32
586.688	13049.37
587.048	13260.44
587.408	13384.05
587.768	13664.5
588.127	13921.22
588.487	14118.5
588.846	14514.65
589.206	14624.93
589.565	14852.04
589.925	15173.61
590.284	15357.11
590.643	15678.68
591.003	15909.86
591.362	16372
591.721	16440.7
592.08	16735.38
592.44	17066.67
592.799	17388.92
593.158	17649.93
593.517	17940.55
593.876	18219.63
594.235	18533.3
594.593	18847.41
594.952	19179.61
595.311	19333.05
595.67	19720.84
596.029	20165.12
596.387	20499.57
596.746	20683.98
597.104	20914.93
597.463	21303.17
597.822	21676.94
598.18	21852.31
598.538	22242.8
598.897	22614.32
599.255	22710.36
599.613	23438.71
599.972	23510.34
600.33	23867.17
600.688	23997.79
601.046	24462.63
601.404	24793.02
601.762	25043.18
602.12	25444.75
602.478	25686.56
602.836	25991.41
603.194	26165.64
603.552	26502.81
603.91	26602.24
604.268	27035.9
604.625	27329.68
604.983	27557.47
605.341	27776.22
605.698	28161.75
606.056	28568.06
606.413	28632.69
606.771	29044.43
607.128	29304.54
607.485	29429.96
607.843	29663.85
608.2	30017.29
608.557	30334.34
608.914	30422.93
609.272	30815.91
609.629	31020.43
609.986	31355.33
610.343	31489.12
610.7	31864.7
611.057	31979.05
611.414	32179.72
611.771	32466.04
612.127	32672.59
612.484	32843.43
612.841	33245.23
613.198	33253.59
613.554	33432.57
613.911	33790.07
614.267	33851.09
614.624	33913.91
614.98	34372.43
615.337	34520
615.693	34621.91
616.05	34709.37
616.406	35214.67
616.762	35048.12
617.118	35247.66
617.475	35438.39
617.831	35620.53
618.187	35704.37
618.543	35938.26
618.899	36271.36
619.255	36363.11
619.611	36380.51
619.967	36704.12
620.323	36797.22
620.678	36674.52
621.034	36874.06
621.39	37006.03
621.746	37048.97
622.101	37589.29
622.457	37403.08
622.812	37528.5
623.168	37559.01
623.523	37835.84
623.879	37829.97
624.234	37747.93
624.589	38003.29
624.945	38215.72
625.3	38192.67
625.655	38219.56
626.01	38361.48
626.365	38505.43
626.72	38488.25
627.075	38506.56
627.43	38700.9
627.785	38429.27
628.14	38910.16
628.495	38904.74
628.85	38831.3
629.205	38909.94
629.559	38909.71
629.914	38964.4
630.269	38821.13
630.623	38904.06
630.978	38947
631.332	39178.18
631.687	39215.92
632.041	39031.97
632.396	39239.19
632.75	39071.06
633.104	39277.84
633.459	39055.7
633.813	39141.57
634.167	39188.35
634.521	39118.07
634.875	39303.6
635.229	39466.53
635.583	39174.56
635.937	39152.64
636.291	39085.75
636.645	39190.38
636.999	39169.14
637.352	39219.08
637.706	39258.18
638.06	39303.37
638.413	39298.4
638.767	39179.53
639.121	39239.87
639.474	38979.54
639.828	39069.93
640.181	39196.94
640.534	39228.8
640.888	39103.38
641.241	39031.97
641.594	39054.11
641.947	39181.57
642.301	39093.44
642.654	39027.22
643.007	39102.7
643.36	38986.32
643.713	39035.13
644.066	39067.9
644.419	38880.11
644.771	38808.47
645.124	38418.2
645.477	38298.88
645.83	38176.85
646.182	38064.54
646.535	37907.48
646.888	38038.77
647.24	37741.83
647.593	38110.18
647.945	38014.14
648.298	37819.12
648.65	37733.92
649.002	37588.84
649.355	37892.79
649.707	37798.1
650.059	37830.64
650.411	38345.21
650.763	38431.08
651.115	38826.32
651.467	38647.57
651.819	38672.2
652.171	38590.85
652.523	38593.34
652.875	38492.55
653.227	38395.6
653.578	38560.79
653.93	38475.37
654.282	38301.14
654.633	38414.81
654.985	38463.85
655.337	38370.52
655.688	38375.94
656.039	38687.57
656.391	38222.27
656.742	38323.74
657.094	38309.73
657.445	38489.16
657.796	38347.24
658.147	38295.26
658.498	38432.44
658.849	38472.89
659.2	38311.99
659.551	38281.48
659.902	38307.92
660.253	38353.12
660.604	38352.89
660.955	38147.02
661.306	38326
661.656	38243.74
662.007	38291.65
662.358	38238.77
662.708	38184.31
663.059	38183.4
663.409	37862.73
663.76	38248.26
664.11	38086.91
664.461	38249.39
664.811	38229.73
665.161	38102.95
665.511	37968.49
665.862	38116.74
666.212	38296.85
666.562	38163.29
666.912	38145.21
667.262	38075.61
667.612	38014.59
667.962	38089.17
668.312	38056.17
668.662	38148.38
669.011	37988.83
669.361	37975.95
669.711	37975.27
670.06	37925.1
670.41	37872.9
670.76	37866.57
671.109	38037.19
671.459	37873.81
671.808	37884.65
672.157	38005.78
672.507	37647.6
672.856	37847.59
673.205	37673.13
673.554	37882.62
673.904	37721.27
674.253	37966.23
674.602	37813.47
674.951	37294.84
675.3	37041.06
675.649	37677.43
675.998	37584.77
676.346	37649.41
676.695	37795.39
677.044	37551.1
677.393	37548.62
677.741	37636.3
678.09	37639.91
678.438	37434.95
678.787	37545
679.135	37505.23
679.484	37279.25
679.832	37443.54
680.181	37298.91
680.529	37322.18
680.877	37227.27
681.225	37089.87
681.573	37485.12
681.922	37044
682.27	37113.83
682.618	37091.45
682.966	36892.82
683.314	37088.97
683.661	36947.28
684.009	36752.71
684.357	36660.5
684.705	36501.19
685.053	36693.5
685.4	36583.22
685.748	36302.32
686.095	36441.98
686.443	36274.53
686.79	36157.02
687.138	36234.53
687.485	36196.56
687.832	36061.88
688.18	36171.93
688.527	35963.35
688.874	35920.86
689.221	35874.31
689.568	35726.07
689.915	35713.19
690.262	35724.03
690.609	35674.54
690.956	35438.84
691.303	35500.76
691.65	35458.73
691.997	35219.64
692.344	35212.86
692.69	35044.73
693.037	35059.19
693.383	34803.83
693.73	34982.13
694.077	34749.14
694.423	34791.4
694.769	34603.16
695.116	34544.18
695.462	34534.23
695.808	34420.34
696.155	34419.21
696.501	34259.21
696.847	34236.84
697.193	33951.88
697.539	34197.97
697.885	33845.89
698.231	33790.98
698.577	33762.5
698.923	33669.85
699.269	33485.67
699.614	33381.5
699.96	33447.93
700.306	33383.75
700.651	33220.6
700.997	33090.88
701.342	32966.82
701.688	33142.41
702.033	32915.74
702.379	32882.3
702.724	32768.86
703.069	32935.86
703.415	32531.12
703.76	32623.32
704.105	32464.23
704.45	32455.42
704.795	32172.49
705.14	32267.17
705.485	32114.18
705.83	31922.55
706.175	31971.59
706.52	31912.83
706.865	31780.86
707.209	31857.47
707.554	31646.85
707.899	31823.8
708.243	31535.22
708.588	31523.46
708.932	31442.34
709.277	31320.53
709.621	31333.41
709.966	31115.34
710.31	31140.42
710.654	30892.75
710.998	30906.53
711.342	30899.3
711.687	30849.81
712.031	30664.05
712.375	30642.81
712.719	30642.13
713.063	30465.41
713.407	30613.66
713.75	30521.01
714.094	30548.35
714.438	30346.32
714.782	30435.81
715.125	30334.12
715.469	30257.96
715.812	30149.94
716.156	29949.27
716.499	30044.63
716.843	29987.23
717.186	29869.5
717.53	29952.66
717.873	30020.45
718.216	29939.33
718.559	29923.96
718.902	29635.83
719.246	29597.19
719.589	29550.41
719.932	29516.96
720.275	29454.59
720.617	29467.7
720.96	29342.96
721.303	29302.51
721.646	29290.98
721.989	29107.03
722.331	29272.9
722.674	29088.27
723.016	29194.26
723.359	28978.67
723.701	29039.69
724.044	28942.29
724.386	28697.32
724.729	28889.64
725.071	28752.24
725.413	28834.95
725.755	28715.63
726.097	28637.89
726.439	28516.99
726.782	28544.56
727.124	28571
727.465	28506.14
727.807	28367.16
728.149	28388.63
728.491	28352.93
728.833	28316.09
729.175	28176.21
729.516	28187.96
729.858	28067.06
730.199	28118.13
730.541	28027.06
730.882	28092.14
731.224	28101.41
731.565	27803.11
731.906	27944.58
732.248	27888.76
732.589	27734.86
732.93	27612.83
733.271	27751.36
733.612	27686.28
733.953	27723.11
734.294	27488.54
734.635	27543
734.976	27667.75
735.317	27376.46
735.658	27407.64
735.999	27336.46
736.339	27341.43
736.68	27388.88
737.021	27342.33
737.361	27176.91
737.702	27431.6
738.042	27307.53
738.383	27158.16
738.723	27277.25
739.063	27160.42
739.404	27201.09
739.744	27041.1
740.084	26911.16
740.424	26961.32
740.764	26846.07
741.104	26919.07
741.444	26793.65
741.784	26818.28
742.124	26747.09
742.464	26869.8
742.804	26621.9
743.143	26639.75
743.483	26667.55
743.823	26562.01
744.162	26497.38
744.502	26597.94
744.841	26381.45
745.181	26539.42
745.52	26435.24
745.86	26473.88
746.199	26380.32
746.538	26320.21
746.877	26391.85
747.216	26317.95
747.556	26195.47
747.895	26268.24
748.234	26180.1
748.573	26136.26
748.911	26029.37
749.25	26008.81
749.589	25964.06
749.928	26025.98
750.267	25983.05
750.605	25874.57
750.944	25871.41
751.283	25813.11
751.621	25892.88
751.96	25585.09
752.298	25621.93
752.636	25667.35
752.975	25477.07
753.313	25476.39
753.651	25495.15
753.989	25366.11
754.327	25308.26
754.666	25311.2
755.004	25261.03
755.342	25347.58
755.679	25190.07
756.017	25135.38
756.355	25149.62
756.693	24940.59
757.031	25050.87
757.368	24826.92
757.706	24886.35
758.044	24724.55
758.381	24711.89
758.719	24588.96
759.056	24651.1
759.394	24581.95
759.731	24404.56
760.068	24387.38
760.405	24325.91
760.743	24235.97
761.08	24321.85
761.417	24254.73
761.754	24144.22
762.091	24131.57
762.428	23973.61
762.765	23862.2
763.102	23965.7
763.438	23716.66
763.775	23595.09
764.112	23667.4
764.449	23765.93
764.785	23562.54
765.122	23435.09
765.458	23392.61
765.795	23311.93
766.131	23327.97
766.467	23227.41
766.804	23156.91
767.14	23033.29
767.476	23050.69
767.812	22981.09
768.148	22996.68
768.485	22807.31
768.821	22702.23
769.157	22612.96
769.492	22491.84
769.828	22475.57
770.164	22351.73
770.5	22282.13
770.836	22290.49
771.171	22106.76
771.507	22234.67
771.842	21994.22
772.178	21871.29
772.513	21866.32
772.849	21762.82
773.184	21706.55
773.519	21654.8
773.855	21634.69
774.19	21466.78
774.525	21469.04
774.86	21289.61
775.195	21365.54
775.53	21282.38
775.865	21166.45
776.2	21018.88
776.535	20823.63
776.87	20763.97
777.205	20702.73
777.539	20663.19
777.874	20656.41
778.209	20582.06
778.543	20486.47
778.878	20274.95
779.212	20350.65
779.547	20264.55
779.881	20290.77
780.215	20153.37
780.55	20107.49
780.884	19968.06
781.218	19912.7
781.552	19863.88
781.886	19838.35
782.22	19682.65
782.554	19648.52
782.888	19565.36
783.222	19465.7
783.556	19381.86
783.889	19334.41
784.223	19083.79
784.557	19202.21
784.89	19261.64
785.224	18989.11
785.557	18943
785.891	18924.47
786.224	18794.76
786.558	18890.58
786.891	18675.89
787.224	18629.34
787.557	18578.04
787.891	18573.97
788.224	18557.93
788.557	18461.89
788.89	18420.08
789.223	18448.1
789.556	18364.04
789.888	18130.14
790.221	18122.24
790.554	18022.8
790.887	18093.31
791.219	17884.05
791.552	17940.55
791.884	17853.54
792.217	17793.66
792.549	17741
792.882	17619.42
793.214	17573.1
793.546	17574.45
793.879	17405.42
794.211	17280.22
794.543	17354.8
794.875	17311.18
795.207	17350.5
795.539	17168.59
795.871	17201.58
796.203	17002.04
796.535	16976.5
796.867	16917.97
797.198	16917.97
797.53	16822.83
797.862	16667.81
798.193	16836.62
798.525	16588.26
798.856	16650.64
799.188	16527.93
799.519	16370.87
799.85	16329.97
800.182	16309.85
800.513	16328.38
800.844	16211.1
801.175	16281.61
801.506	16190.53
801.837	16117.32
802.168	16070.09
802.499	16045.68
802.83	15978.56
803.161	15932.24
803.491	15950.99
803.822	15947.83
804.153	15866.7
804.483	15735.41
804.814	15725.46
805.145	15550.78
805.475	15668.06
805.805	15565.47
806.136	15486.82
806.466	15545.58
806.796	15491.34
807.126	15371.35
807.457	15377.67
807.787	15347.62
808.117	15219.26
808.447	15253.38
808.777	15197.57
809.107	15231.69
809.436	15124.8
809.766	15065.37
810.096	15041.19
810.426	14979.27
810.755	14985.37
811.085	14868.08
811.414	14902.43
811.744	14880.29
812.073	14755.09
812.403	14686.85
812.732	14728.43
813.061	14663.34
813.39	14569.56
813.719	14553.06
814.049	14611.37
814.378	14451.6
814.707	14440.3
815.036	14471.26
815.365	14474.2
815.693	14284.14
816.022	14309
816.351	14203.92
816.68	14172.73
817.008	14219.29
817.337	13973.87
817.665	14037.82
817.994	14049.57
818.322	14131.38
818.651	14058.16
818.979	13958.05
819.307	13961.89
819.636	13902.69
819.964	13851.16
820.292	13903.14
820.62	13839.64
820.948	13825.85
821.276	13882.8
821.604	13835.34
821.932	13820.2
822.259	13807.32
822.587	13795.12
822.915	13785.85
823.243	13800.99
823.57	13792.86
823.898	13751.5
824.225	13766.42
824.553	13662.24
824.88	13730.26
825.207	13766.42
825.535	13719.41
825.862	13716.02
826.189	13767.32
826.516	13761.67
826.843	13837.15
827.17	13871.27
827.497	13836.25
827.824	13783.14
828.151	13811.39
828.478	13648.23
828.805	13805.29
829.131	13759.64
829.458	13670.38
829.785	13609.36
830.111	13653.2
830.438	13752.18
830.764	13688
831.09	13715.12
831.417	13628.12
831.743	13728.23
832.069	13613.43
832.395	13653.65
832.722	13632.18
833.048	13654.33
833.374	13588.12
833.7	13520.1
834.026	13583.15
834.351	13541.56
834.677	13578.17
835.003	13536.37
835.329	13588.8
835.654	13432.19
835.98	13430.38
836.306	13381.8
836.631	13438.06
836.956	13497.95
837.282	13435.58
837.607	13405.98
837.932	13368.91
838.258	13382.47
838.583	13285.53
838.908	13297.96
839.233	13220.67
839.558	13259.76
839.883	13219.09
840.208	13122.82
840.533	13168.24
840.858	13124.85
841.182	13147.22
841.507	13167.34
841.832	13074.46
842.156	13032.43
842.481	13029.26
842.805	13038.53
843.13	12974.12
843.454	12854.58
843.778	12862.26
844.103	12892.77
844.427	12872.66
844.751	12874.01
845.075	12798.76
845.399	12813.67
845.723	12679.89
846.047	12670.63
846.371	12551.76
846.695	12556.28
847.019	12527.13
847.343	12437.19
847.666	12330.98
847.99	12323.29
848.313	12360.13
848.637	12182.05
848.96	12231.09
849.284	12196.52
849.607	12092.34
849.931	12039.91
850.254	11986.35
850.577	11899.35
850.9	11828.16
851.223	11793.81
851.546	11817.32
851.869	11726.92
852.192	11676.3
852.515	11665.68
852.838	11605.57
853.161	11604.67
853.483	11498.91
853.806	11524.67
854.129	11500.26
854.451	11427.5
854.774	11370.55
855.096	11299.82
855.419	11292.36
855.741	11287.84
856.063	11221.63
856.385	11175.53
856.708	11159.93
857.03	11154.28
857.352	11071.12
857.674	11121.29
857.996	11039.26
858.318	10964.46
858.64	10971.91
858.961	10950.9
859.283	10845.59
859.605	10873.84
859.926	10893.72
860.248	10833.16
860.57	10772.82
860.891	10771.47
861.212	10700.96
861.534	10712.26
861.855	10598.37
862.176	10656.89
862.498	10733.96
862.819	10711.36
863.14	10583.9
863.461	10542.55
863.782	10548.65
864.103	10521.98
864.424	10474.53
864.745	10535.32
865.065	10481.98
865.386	10456
865.707	10423.23
866.027	10447.18
866.348	10443.34
866.668	10439.27
866.989	10356.34
867.309	10268.2
867.63	10278.6
867.95	10302.55
868.27	10242.89
868.59	10244.48
868.91	10244.93
869.23	10227.98
869.55	10166.74
869.87	10149.11
870.19	10123.12
870.51	10207.19
870.83	10196.57
871.15	10047.87
871.469	10147.53
871.789	10190.01
872.109	10100.53
872.428	10051.49
872.748	10136.91
873.067	10049.68
873.386	10027.98
873.706	10022.34
874.025	9957.93
874.344	9949.57
874.663	10003.35
874.982	9938.95
875.301	9887.42
875.62	9903.47
875.939	9925.16
876.258	9861.66
876.577	9874.32
876.896	9756.81
877.214	9756.81
877.533	9767.43
877.852	9748.67
878.17	9801.32
878.489	9763.59
878.807	9707.77
879.125	9681.1
879.444	9705.51
879.762	9672.06
880.08	9643.59
880.398	9603.59
880.716	9626.87
881.034	9570.14
881.352	9621.89
881.67	9581.44
881.988	9536.25
882.306	9553.65
882.624	9516.36
882.941	9469.13
883.259	9438.17
883.577	9483.14
883.894	9399.53
884.212	9371.73
884.529	9323.6
884.846	9347.78
885.164	9333.99
885.481	9303.26
885.798	9327.66
886.115	9288.57
886.432	9217.84
886.75	9222.13
887.067	9167.44
887.383	9130.16
887.7	9152.53
888.017	9170.83
888.334	9163.6
888.651	9151.4
888.967	9152.53
889.284	9009.25
889.6	8990.27
889.917	8951.18
890.233	8950.27
890.55	8930.39
890.866	8968.13
891.182	8904.85
891.498	8879.54
891.815	8839.09
892.131	8764.06
892.447	8757.51
892.763	8731.52
893.079	8764.97
893.395	8655.82
893.71	8658.76
894.026	8654.46
894.342	8633.67
894.657	8648.59
894.973	8592.77
895.289	8611.07
895.604	8522.26
895.92	8444.98
896.235	8455.37
896.55	8418.76
896.865	8459.44
897.181	8360.46
897.496	8362.72
897.811	8343.74
898.126	8256.96
898.441	8270.07
898.756	8247.01
899.071	8221.25
899.386	8259.44
899.7	8146
900.015	8094.48
900.33	8129.73
900.644	8073.23
900.959	8101.93
901.273	8064.65
901.588	8031.88
901.902	7956.85
902.216	7935.84
902.531	7871.43
902.845	7833.69
903.159	7849.74
903.473	7783.52
903.787	7792.11
904.101	7721.6
904.415	7709.4
904.729	7717.54
905.042	7687.71
905.356	7694.03
905.67	7637.99
905.984	7576.07
906.297	7607.03
906.611	7511.21
906.924	7532.46
907.237	7505.11
907.551	7464.44
907.864	7392.8
908.177	7426.02
908.491	7364.78
908.804	7342.41
909.117	7322.07
909.43	7306.25
909.743	7229.64
910.056	7178.12
910.368	7214.27
910.681	7180.6
910.994	7194.39
911.307	7098.8
911.619	7058.57
911.932	7061.28
912.244	7006.6
912.557	6928.86
912.869	6930.67
913.181	6914.17
913.494	6913.26
913.806	6880.72
914.118	6826.04
914.43	6797.56
914.742	6774.74
915.054	6795.53
915.366	6702.65
915.678	6707.17
915.99	6677.11
916.302	6610.45
916.613	6615.87
916.925	6554.86
917.236	6561.18
917.548	6536.33
917.859	6518.02
918.171	6443.67
918.482	6417.23
918.794	6407.52
919.105	6404.13
919.416	6379.72
919.727	6320.96
920.038	6286.39
920.349	6287.74
920.66	6317.12
920.971	6242.77
921.282	6211.14
921.593	6178.37
921.903	6172.95
922.214	6108.09
922.525	6091.14
922.835	6076
923.146	6008.2
923.456	6038.03
923.767	6063.12
924.077	5980.18
924.387	6001.42
924.697	5961.88
925.008	5911.93
925.318	5914.87
925.628	5873.74
925.938	5830.36
926.248	5833.29
926.558	5771.6
926.867	5797.36
927.177	5750.36
927.487	5726.4
927.796	5686.63
928.106	5664.03
928.416	5665.61
928.725	5621.1
929.034	5586.07
929.344	5589.68
929.653	5566.41
929.962	5519.63
930.271	5449.8
930.581	5487.77
930.89	5461.78
931.199	5397.15
931.508	5416.58
931.817	5403.93
932.125	5362.12
932.434	5408.45
932.743	5280.77
933.051	5330.03
933.36	5269.24
933.669	5288.22
933.977	5246.87
934.286	5201.45
934.594	5218.62
934.902	5114.22
935.21	5125.29
935.519	5068.12
935.827	5064.73
936.135	5066.31
936.443	5073.99
936.751	5004.84
937.059	5000.09
937.367	4997.61
937.674	4966.88
937.982	4958.06
938.29	4921.9
938.597	4942.02
938.905	4861.79
939.213	4899.53
939.52	4834.22
939.827	4813.66
940.135	4805.98
940.442	4743.83
940.749	4746.77
941.056	4758.07
941.363	4735.92
941.67	4657.05
941.977	4686.88
942.284	4649.14
942.591	4638.07
942.898	4624.06
943.205	4588.13
943.511	4591.97
943.818	4550.39
944.125	4509.94
944.431	4482.37
944.738	4516.27
945.044	4510.62
945.35	4450.28
945.657	4377.96
945.963	4413.44
946.269	4405.31
946.575	4398.08
946.881	4350.39
947.187	4322.82
947.493	4329.15
947.799	4288.93
948.105	4330.73
948.41	4242.6
948.716	4255.26
949.022	4236.95
949.327	4221.13
949.633	4182.26
949.938	4154.69
950.244	4172.32
950.549	4119.44
950.854	4099.55
951.16	4084.41
951.465	4091.19
951.77	4075.83
952.075	4025.88
952.38	3992.89
952.685	4003.28
952.99	3994.92
953.294	4025.2
953.599	3920.8
953.904	3951.08
954.209	3909.5
954.513	3912.44
954.818	3922.61
955.122	3865.66
955.426	3817.75
955.731	3843.06
956.035	3787.47
956.339	3777.08
956.643	3777.75
956.948	3806.68
957.252	3789.96
957.556	3806.68
957.86	3759
958.163	3734.59
958.467	3687.59
958.771	3703.86
959.075	3700.24
959.378	3679.9
959.682	3638.32
959.985	3589.96
960.289	3600.36
960.592	3588.38
960.896	3556.29
961.199	3561.49
961.502	3545.9
961.805	3533.69
962.108	3500.02
962.411	3542.73
962.714	3511.09
963.017	3486.24
963.32	3502.73
963.623	3422.28
963.926	3482.39
964.228	3428.38
964.531	3362.17
964.833	3405.56
965.136	3402.85
965.438	3368.27
965.741	3361.95
966.043	3287.82
966.345	3294.15
966.648	3320.36
966.95	3279.24
967.252	3270.42
967.554	3303.87
967.856	3266.13
968.158	3212.34
968.46	3215.06
968.761	3196.98
969.063	3175.74
969.365	3168.05
969.666	3183.65
969.968	3149.3
970.269	3138.45
970.571	3125.79
970.872	3102.74
971.174	3084.44
971.475	3083.53
971.776	3010.99
972.077	3005.57
972.378	3018.23
972.679	3065.68
972.98	3046.47
973.281	3000.83
973.582	3031.56
973.883	2992.01
974.183	2929.19
974.484	2938
974.785	2948.62
975.085	2908.4
975.386	2910.88
975.686	2884.67
975.986	2880.15
976.287	2901.17
976.587	2827.04
976.887	2874.5
977.187	2847.16
977.487	2825.46
977.787	2829.76
978.087	2779.14
978.387	2807.38
978.687	2776.42
978.987	2772.81
979.286	2746.82
979.586	2739.36
979.885	2725.35
980.185	2711.79
980.484	2709.99
980.784	2696.88
981.083	2663.21
981.382	2670.44
981.682	2692.13
981.981	2596.77
982.28	2612.36
982.579	2595.19
982.878	2601.97
983.177	2580.72
983.475	2611.46
983.774	2574.4
984.073	2553.61
984.372	2505.47
984.67	2571.23
984.969	2519.03
985.267	2514.96
985.566	2515.87
985.864	2493.72
986.162	2491.91
986.461	2458.01
986.759	2428.41
987.057	2409.2
987.355	2434.06
987.653	2426.15
987.951	2418.02
988.249	2408.52
988.547	2367.17
988.844	2343.89
989.142	2393.61
989.44	2325.81
989.737	2349.54
990.035	2332.82
990.332	2329.66
990.63	2310.22
990.927	2313.61
991.224	2309.32
991.521	2313.61
991.819	2313.39
992.116	2299.6
992.413	2260.05
992.71	2265.93
993.006	2228.42
993.303	2230
993.6	2251.01
993.897	2209.43
994.193	2192.71
994.49	2228.19
994.787	2197.46
995.083	2180.28
995.379	2156.55
995.676	2176.44
995.972	2144.58
996.268	2131.92
996.565	2123.79
996.861	2068.19
997.157	2097.8
997.453	2092.6
997.749	2084.69
998.044	2048.31
998.34	2060.96
998.636	2075.88
998.932	2043.34
999.227	2024.58
999.523	2012.6
999.818	1998.14
1000.114	1972.15
1000.409	1998.37
1000.704	1965.15
1001	1975.99
1001.295	1970.12
1001.59	1935.32
1001.885	1939.38
1002.18	1929.89
1002.475	1911.14
1002.77	1913.62
1003.065	1905.03
1003.359	1902.1
1003.654	1879.27
1003.949	1872.72
1004.243	1857.13
1004.538	1827.3
1004.832	1828.43
1005.127	1821.87
1005.421	1841.08
1005.715	1783.46
1006.009	1801.31
1006.304	1782.78
1006.598	1740.75
1006.892	1764.93
1007.186	1732.61
1007.48	1768.09
1007.773	1712.5
1008.067	1705.49
1008.361	1713.63
1008.655	1700.97
1008.948	1688.09
1009.242	1670.24
1009.535	1669.79
1009.829	1665.72
1010.122	1663.01
1010.415	1636.12
1010.708	1666.85
1011.001	1613.74
1011.295	1638.6
1011.588	1601.54
1011.881	1602.22
1012.173	1568.77
1012.466	1594.08
1012.759	1570.81
1013.052	1556.57
1013.344	1562.44
1013.637	1584.37
1013.93	1552.95
1014.222	1556.8
1014.514	1522.9
1014.807	1498.72
1015.099	1501.88
1015.391	1519.06
1015.683	1480.41
1015.976	1501.2
1016.268	1474.31
1016.56	1486.74
1016.851	1448.55
1017.143	1466.18
1017.435	1450.13
1017.727	1430.02
1018.018	1436.35
1018.31	1425.05
1018.602	1399.29
1018.893	1403.35
1019.185	1366.29
1019.476	1375.11
1019.767	1382.79
1020.058	1360.19
1020.35	1349.8
1020.641	1323.36
1020.932	1323.13
1021.223	1334.88
1021.514	1316.58
1021.804	1300.76
1022.095	1308.44
1022.386	1286.29
1022.677	1279.29
1022.967	1291.94
1023.258	1289.91
1023.548	1254.88
1023.839	1246.29
1024.129	1231.83
1024.419	1248.1
1024.709	1262.34
1025	1224.15
1025.29	1187.99
1025.58	1211.49
1025.87	1213.98
1026.16	1180.99
1026.449	1178.27
1026.739	1152.29
1027.029	1156.13
1027.319	1139.18
1027.608	1181.66
1027.898	1149.57
1028.187	1143.47
1028.477	1150.7
1028.766	1138.28
1029.055	1115.9
1029.344	1098.73
1029.634	1103.02
1029.923	1098.95
1030.212	1080.42
1030.501	1102.8
1030.79	1084.49
1031.078	1060.31
1031.367	1037.49
1031.656	1082.68
1031.945	1058.5
1032.233	1024.61
1032.522	1046.3
1032.81	1049.92
1033.099	1030.48
1033.387	1031.61
1033.675	995.23
1033.963	998.17
1034.251	1005.17
1034.54	1009.24
1034.828	990.26
1035.116	972.86
1035.403	966.53
1035.691	948.45
1035.979	971.95
1036.267	944.16
1036.554	949.58
1036.842	958.62
1037.129	971.5
1037.417	932.4
1037.704	921.11
1037.992	923.14
1038.279	905.51
1038.566	918.85
1038.853	918.85
1039.14	918.85
