Data from hue_250_FLMS001491_00078.txt Node
Date: Tue Feb 07 16:01:27 GMT 2017
User: dcchb
Spectrometer: FLMS00149
Trigger mode: 0
Integration Time (sec): 2.000000E-2
Scans to average: 10
Electric dark correction enabled: true
Nonlinearity correction enabled: false
Boxcar width: 0
XAxis mode: Wavelengths
Number of Pixels in Spectrum: 2048
>>>>>Begin Spectral Data<<<<<
341.393	-11.2
341.776	-11.2
342.16	-11.2
342.543	-51.43
342.927	-49.84
343.31	-89.84
343.693	-84.64
344.077	-55.72
344.46	-57.3
344.843	-50.3
345.226	-42.84
345.61	-33.35
345.993	-6.23
346.376	-7.36
346.759	13.43
347.142	14.56
347.525	37.84
347.908	62.24
348.291	73.32
348.674	116.03
349.057	110.15
349.44	124.16
349.823	150.15
350.206	165.07
350.588	178.63
350.971	211.84
351.354	203.71
351.737	230.6
352.119	248.23
352.502	257.95
352.884	275.12
353.267	292.75
353.65	285.29
354.032	308.57
354.414	290.71
354.797	323.25
355.179	328.68
355.562	309.02
355.944	315.8
356.326	326.19
356.709	325.29
357.091	331.16
357.473	330.26
357.855	320.09
358.238	336.81
358.62	335.91
359.002	326.87
359.384	329.13
359.766	327.32
360.148	338.85
360.53	327.32
360.912	312.18
361.294	320.99
361.676	339.07
362.057	324.16
362.439	309.02
362.821	313.76
363.203	324.38
363.584	307.89
363.966	324.61
364.348	299.3
364.729	337.72
365.111	317.15
365.493	312.63
365.874	323.48
366.256	297.49
366.637	298.4
367.019	316.02
367.4	307.66
367.781	311.73
368.163	310.37
368.544	301.56
368.925	317.6
369.306	290.71
369.688	309.7
370.069	293.2
370.45	303.82
370.831	311.96
371.212	299.98
371.593	304.27
371.974	298.85
372.355	295.91
372.736	313.31
373.117	300.43
373.498	310.15
373.879	321.9
374.26	320.99
374.641	297.49
375.021	286.65
375.402	307.44
375.783	306.53
376.163	307.44
376.544	327.32
376.925	317.83
377.305	320.77
377.686	311.96
378.066	320.32
378.447	307.66
378.827	314.89
379.208	330.71
379.588	319.86
379.968	321.22
380.349	324.84
380.729	315.34
381.109	338.85
381.489	323.25
381.87	338.62
382.25	338.4
382.63	345.85
383.01	319.41
383.39	330.26
383.77	347.43
384.15	329.81
384.53	331.62
384.91	351.05
385.29	338.4
385.67	343.59
386.049	356.47
386.429	356.25
386.809	349.69
387.189	350.37
387.568	334.78
387.948	339.3
388.328	334.33
388.707	351.95
389.087	362.35
389.466	365.96
389.846	369.81
390.225	358.96
390.605	356.47
390.984	368.68
391.363	353.08
391.743	357.38
392.122	368.45
392.501	356.93
392.881	379.98
393.26	370.94
393.639	383.14
394.018	370.26
394.397	379.07
394.776	367.09
395.155	383.37
395.534	386.98
395.913	395.12
396.292	393.99
396.671	386.53
397.05	416.59
397.429	384.04
397.808	403.03
398.186	399.64
398.565	378.85
398.944	398.05
399.323	401.9
399.701	427.43
400.08	405.29
400.458	396.02
400.837	417.26
401.215	417.94
401.594	428.56
401.972	411.16
402.351	406.87
402.729	427.88
403.107	402.35
403.486	430.14
403.864	450.26
404.242	425.62
404.62	434.89
404.999	444.15
405.377	448.9
405.755	446.87
406.133	460.65
406.511	410.03
406.889	467.88
407.267	474.44
407.645	464.04
408.023	494.55
408.401	481.22
408.779	459.07
409.156	489.58
409.534	492.06
409.912	513.76
410.29	512.63
410.667	519.41
411.045	524.38
411.422	530.71
411.8	511.27
412.178	520.31
412.555	540.2
412.933	572.29
413.31	559.63
413.687	564.15
414.065	566.86
414.442	561.89
414.819	561.67
415.197	598.95
415.574	589.46
415.951	614.77
416.328	608.22
416.705	611.83
417.082	632.62
417.46	623.13
417.837	628.1
418.214	648.9
418.591	624.49
418.967	633.3
419.344	674.88
419.721	654.77
420.098	670.14
420.475	690.02
420.852	674.21
421.228	682.34
421.605	696.8
421.982	704.49
422.358	706.75
422.735	707.2
423.111	722.79
423.488	743.81
423.864	744.26
424.241	774.77
424.617	777.48
424.994	781.1
425.37	796.01
425.746	815.67
426.123	813.86
426.499	817.93
426.875	831.04
427.251	836.24
427.627	840.75
428.003	842.34
428.379	868.78
428.756	861.09
429.132	903.8
429.507	929.57
429.883	925.05
430.259	914.65
430.635	924.59
431.011	933.63
431.387	930.24
431.763	978.83
432.138	974.76
432.514	978.83
432.89	1021.09
433.265	1030.13
433.641	1053.4
434.016	1055.44
434.392	1054.99
434.767	1098.83
435.143	1105.38
435.518	1103.8
435.894	1129.11
436.269	1136.11
436.644	1175.89
437.02	1174.98
437.395	1158.71
437.77	1206.85
438.145	1222.67
438.52	1219.28
438.895	1232.38
439.271	1243.68
439.646	1277.81
440.021	1283.91
440.395	1280.74
440.77	1300.86
441.145	1325.26
441.52	1331.14
441.895	1346.28
442.27	1363
442.645	1363
443.019	1388.08
443.394	1384.47
443.769	1417.24
444.143	1417.24
444.518	1438.93
444.892	1435.54
445.267	1461.3
445.641	1475.54
446.016	1474.41
446.39	1506.95
446.764	1485.48
447.139	1497.46
447.513	1543.56
447.887	1539.04
448.262	1517.12
448.636	1548.76
449.01	1572.26
449.384	1575.65
449.758	1589.21
450.132	1599.6
450.506	1650.68
450.88	1652.48
451.254	1597.8
451.628	1663.78
452.002	1663.56
452.376	1670.11
452.75	1711.69
453.123	1702.2
453.497	1717.57
453.871	1729.09
454.244	1753.05
454.618	1765.25
454.992	1800.05
455.365	1828.98
455.739	1848.86
456.112	1857.23
456.486	1868.07
456.859	1879.37
457.232	1925.92
457.606	1922.31
457.979	1915.53
458.352	1969.31
458.725	1974.06
459.099	2023.77
459.472	2019.71
459.845	2050.44
460.218	2035.75
460.591	2095.64
460.964	2132.25
461.337	2103.09
461.71	2167.05
462.083	2188.97
462.456	2188.06
462.829	2205.24
463.201	2214.05
463.574	2263.77
463.947	2253.37
464.32	2339.92
464.692	2323.65
465.065	2352.58
465.438	2404.33
465.81	2407.95
466.183	2391.67
466.555	2483.42
466.928	2492.69
467.3	2509.41
467.672	2533.37
468.045	2595.96
468.417	2602.06
468.789	2613.59
469.161	2617.21
469.534	2655.17
469.906	2731.1
470.278	2750.31
470.65	2760.48
471.022	2845.22
471.394	2848.39
471.766	2907.59
472.138	2912.11
472.51	2966.35
472.882	3014.26
473.253	2991.21
473.625	3093.35
473.997	3135.84
474.369	3147.13
474.74	3135.61
475.112	3218.09
475.484	3291.31
475.855	3296.74
476.227	3306.68
476.598	3462.83
476.97	3459.44
477.341	3548.25
477.713	3556.62
478.084	3616.5
478.455	3661.92
478.827	3691.08
479.198	3795.25
479.569	3762.49
479.94	3864.86
480.311	3880
480.682	3987.56
481.053	4101.91
481.424	4092.87
481.795	4162.02
482.166	4194.11
482.537	4282.25
482.908	4305.52
483.279	4369.93
483.65	4394.33
484.021	4510.71
484.391	4565.18
484.762	4570.37
485.133	4599.07
485.503	4661.67
485.874	4727.21
486.244	4780.99
486.615	4870.93
486.985	4865.96
487.356	4997.03
487.726	4984.83
488.097	5103.24
488.467	5139.85
488.837	5208.78
489.207	5212.17
489.578	5313.18
489.948	5379.62
490.318	5386.85
490.688	5405.83
491.058	5496
491.428	5545.94
491.798	5599.73
492.168	5717.69
492.538	5784.58
492.908	5816.9
493.278	5876.55
493.648	5831.36
494.017	5907.06
494.387	5985.93
494.757	5978.92
495.126	6054.4
495.496	6023.67
495.866	6142.99
496.235	6180.5
496.605	6165.59
496.974	6194.29
497.344	6251.46
497.713	6272.02
498.082	6328.29
498.452	6346.15
498.821	6414.62
499.19	6389.08
499.559	6442.19
499.928	6499.59
500.298	6501.62
500.667	6561.96
501.036	6591.56
501.405	6611.45
501.774	6619.59
502.143	6724.89
502.512	6695.74
502.88	6790.43
503.249	6749.53
503.618	6755.18
503.987	6727.38
504.356	6823.65
504.724	6854.38
505.093	6844.66
505.462	6884.66
505.83	6886.25
506.199	6953.14
506.567	7020.48
506.936	6989.29
507.304	7074.26
507.672	7107.71
508.041	7105.22
508.409	7132.79
508.777	7190.19
509.145	7224.32
509.514	7174.83
509.882	7219.8
510.25	7224.99
510.618	7242.39
510.986	7246.24
511.354	7339.57
511.722	7396.51
512.09	7384.31
512.458	7408.04
512.826	7391.99
513.193	7476.51
513.561	7433.8
513.929	7554.7
514.297	7606.45
514.664	7570.52
515.032	7530.52
515.4	7616.4
515.767	7680.57
516.135	7680.8
516.502	7570.52
516.869	7712.44
517.237	7674.47
517.604	7658.88
517.972	7678.54
518.339	7694.81
518.706	7738.2
519.073	7747.24
519.44	7795.15
519.808	7840.57
520.175	7795.6
520.542	7889.61
520.909	7949.04
521.276	7866.78
521.643	7909.72
522.009	7962.15
522.376	7970.06
522.743	8045.54
523.11	8080.34
523.477	8137.51
523.843	8122.82
524.21	8121.92
524.577	8179.32
524.943	8204.18
525.31	8179.54
525.676	8282.37
526.043	8249.15
526.409	8256.38
526.776	8343.83
527.142	8293.89
527.508	8317.39
527.874	8314.46
528.241	8435.81
528.607	8356.26
528.973	8387.45
529.339	8323.95
529.705	8439.2
530.071	8468.8
530.437	8492.53
530.803	8494.79
531.169	8542.7
531.535	8555.81
531.901	8537.5
532.267	8489.59
532.632	8523.72
532.998	8443.94
533.364	8522.81
533.73	8546.54
534.095	8615.47
534.461	8536.6
534.826	8573.66
535.192	8617.05
535.557	8650.49
535.923	8573.66
536.288	8581.79
536.653	8573.66
537.019	8549.48
537.384	8545.41
537.749	8635.8
538.114	8595.81
538.479	8612.98
538.845	8670.38
539.21	8588.8
539.575	8602.13
539.94	8591.06
540.305	8637.16
540.67	8529.37
541.034	8585.41
541.399	8587.9
541.764	8558.07
542.129	8583.83
542.494	8577.05
542.858	8536.15
543.223	8578.86
543.587	8610.27
543.952	8566.88
544.316	8606.65
544.681	8575.47
545.045	8595.13
545.41	8586.54
545.774	8586.09
546.138	8583.83
546.503	8545.86
546.867	8515.13
547.231	8568.91
547.595	8558.29
547.959	8575.69
548.324	8596.71
548.688	8552.87
549.052	8594.68
549.416	8586.31
549.779	8598.74
550.143	8558.52
550.507	8542.93
550.871	8635.35
551.235	8540.21
551.599	8577.95
551.962	8557.39
552.326	8565.3
552.689	8550.61
553.053	8511.06
553.417	8569.82
553.78	8624.5
554.143	8548.35
554.507	8598.06
554.87	8559.65
555.234	8629.7
555.597	8596.48
555.96	8606.65
556.323	8653.88
556.686	8620.66
557.05	8688.91
557.413	8677.61
557.776	8695.46
558.139	8734.11
558.502	8690.27
558.865	8712.86
559.228	8763.71
559.59	8741.11
559.953	8803.48
560.316	8837.83
560.679	8800.77
561.041	8810.26
561.404	8799.19
561.767	8800.77
562.129	8888
562.492	8953.54
562.854	8895.68
563.217	8871.96
563.579	8910.15
563.941	8930.26
564.304	8923.71
564.666	9000.54
565.028	9036.92
565.39	8992.86
565.753	9072.85
566.115	9119.18
566.477	9095.68
566.839	9118.5
567.201	9184.49
567.563	9160.54
567.925	9275.79
568.287	9190.14
568.648	9228.56
569.01	9266.07
569.372	9356.24
569.734	9303.58
570.095	9365.05
570.457	9362.11
570.819	9399.4
571.18	9419.06
571.542	9359.63
571.903	9400.53
572.265	9513.52
572.626	9431.94
572.987	9477.59
573.349	9543.58
573.71	9562.11
574.071	9610.92
574.432	9608.89
574.794	9659.28
575.155	9643.24
575.516	9664.93
575.877	9658.38
576.238	9700.18
576.599	9764.36
576.96	9750.35
577.32	9661.31
577.681	9799.39
578.042	9856.79
578.403	9833.74
578.763	9861.76
579.124	9897.24
579.485	9917.13
579.845	9930.69
580.206	9967.52
580.566	9964.36
580.927	9917.58
581.287	9920.74
581.648	9934.07
582.008	10021.76
582.368	9996.22
582.728	10174.52
583.089	10029.67
583.449	10025.37
583.809	10027.63
584.169	10118.48
584.529	10080.06
584.889	10144.01
585.249	10147.4
585.609	10065.37
585.969	10196.44
586.329	10169.32
586.688	10179.94
587.048	10075.77
587.408	10175.2
587.768	10172.49
588.127	10163.9
588.487	10134.07
588.846	10336.78
589.206	10159.83
589.565	10219.27
589.925	10261.98
590.284	10250.9
590.643	10268.98
591.003	10222.65
591.362	10319.38
591.721	10338.13
592.08	10227.63
592.44	10408.64
592.799	10354.63
593.158	10344.91
593.517	10327.96
593.876	10406.38
594.235	10347.85
594.593	10321.64
594.952	10340.39
595.311	10380.62
595.67	10366.38
596.029	10438.02
596.387	10519.82
596.746	10429.66
597.104	10452.93
597.463	10351.01
597.822	10573.83
598.18	10378.58
598.538	10391.92
598.897	10486.83
599.255	10398.02
599.613	10541.97
599.972	10404.12
600.33	10533.61
600.688	10440.05
601.046	10477.56
601.404	10564.79
601.762	10535.87
602.12	10577
602.478	10499.03
602.836	10551.91
603.194	10588.3
603.552	10481.86
603.91	10562.76
604.268	10538.8
604.625	10469.2
604.983	10615.19
605.341	10549.88
605.698	10621.06
606.056	10665.58
606.413	10585.13
606.771	10582.87
607.128	10680.27
607.485	10563.21
607.843	10671.23
608.2	10670.33
608.557	10738.35
608.914	10699.03
609.272	10757.1
609.629	10716.88
609.986	10832.13
610.343	10709.87
610.7	10831
611.057	10794.62
611.414	10764.79
611.771	10787.39
612.127	10784
612.484	10853.82
612.841	10826.25
613.198	10787.61
613.554	10744.45
613.911	10847.72
614.267	10870.1
614.624	10835.97
614.98	10887.04
615.337	10917.33
615.693	10785.8
616.05	10842.53
616.406	10922.3
616.762	10914.61
617.118	10882.3
617.475	10876.2
617.831	11038.9
618.187	10998.68
618.543	11025.8
618.899	10990.77
619.255	10964.78
619.611	10894.73
619.967	10969.3
620.323	10956.87
620.678	10975.86
621.034	10940.15
621.39	10958.68
621.746	11007.72
622.101	11034.39
622.457	10921.85
622.812	11009.3
623.168	11086.36
623.523	11027.83
623.879	11076.42
624.234	10932.47
624.589	10981.28
624.945	10977.21
625.3	10999.36
625.655	11003.43
626.01	11038.45
626.365	11003.43
626.72	10976.99
627.075	10995.29
627.43	11001.17
627.785	10914.61
628.14	10849.53
628.495	10985.12
628.85	10949.87
629.205	10925.69
629.559	11030.77
629.914	10954.84
630.269	11012.69
630.623	10871.23
630.978	10873.71
631.332	10899.25
631.687	10968.85
632.041	10875.29
632.396	10845.69
632.75	10798.91
633.104	10847.95
633.459	10790.1
633.813	10774.5
634.167	10798.23
634.521	10796.2
634.875	10747.39
635.229	10824.9
635.583	10743.55
635.937	10727.05
636.291	10718.01
636.645	10750.32
636.999	10633.94
637.352	10642.76
637.706	10673.49
638.06	10693.15
638.413	10666.26
638.767	10600.05
639.121	10649.08
639.474	10579.93
639.828	10604.11
640.181	10603.21
640.534	10582.19
640.888	10582.87
641.241	10662.64
641.594	10485.47
641.947	10586.26
642.301	10502.42
642.654	10520.73
643.007	10537
643.36	10551.69
643.713	10460.61
644.066	10487.96
644.419	10468.75
644.771	10416.32
645.124	10370.45
645.477	10323.67
645.83	10232.37
646.182	10116.67
646.535	10107.4
646.888	10186.95
647.24	10096.33
647.593	10142.88
647.945	10080.29
648.298	10097.23
648.65	10109.89
649.002	10006.16
649.355	10122.09
649.707	10017.01
650.059	10078.93
650.411	10226.95
650.763	10207.51
651.115	10304.69
651.467	10270.34
651.819	10179.72
652.171	10308.98
652.523	10275.76
652.875	10260.39
653.227	10188.98
653.578	10273.5
653.93	10291.35
654.282	10291.35
654.633	10223.56
654.985	10275.76
655.337	10246.16
655.688	10250
656.039	10276.66
656.391	10224.24
656.742	10184.01
657.094	10240.96
657.445	10257
657.796	10217.46
658.147	10166.39
658.498	10220.4
658.849	10230.34
659.2	10141.08
659.551	10191.47
659.902	10215.42
660.253	10164.13
660.604	10218.59
660.955	10195.54
661.306	10224.69
661.656	10218.59
662.007	10206.38
662.358	10228.53
662.708	10220.4
663.059	10150.11
663.409	10166.16
663.76	10212.49
664.11	10252.94
664.461	10291.58
664.811	10176.33
665.161	10182.43
665.511	10196.67
665.862	10198.02
666.212	10203.9
666.562	10191.02
666.912	10201.19
667.262	10133.84
667.612	10198.93
667.962	10197.57
668.312	10135.65
668.662	10260.85
669.011	10187.63
669.361	10161.87
669.711	10144.24
670.06	10180.62
670.41	10187.18
670.76	10189.66
671.109	10176.78
671.459	10175.2
671.808	10079.83
672.157	10191.02
672.507	10113.96
672.856	10065.6
673.205	10130.23
673.554	10152.83
673.904	10085.71
674.253	10133.62
674.602	10089.55
674.951	9926.84
675.3	9853.85
675.649	10059.72
675.998	10007.75
676.346	10075.54
676.695	10051.13
677.044	9936.33
677.393	9986.05
677.741	9995.77
678.09	9968.88
678.438	9966.84
678.787	9960.51
679.135	10010.23
679.484	9958.48
679.832	9919.39
680.181	9816.79
680.529	9897.24
680.877	9848.43
681.225	9846.39
681.573	9865.6
681.922	9864.25
682.27	9757.81
682.618	9843
682.966	9854.53
683.314	9788.99
683.661	9771.82
684.009	9767.53
684.357	9701.31
684.705	9689.11
685.053	9662.9
685.4	9686.17
685.748	9591.03
686.095	9645.04
686.443	9581.99
686.79	9574.99
687.138	9543.35
687.485	9591.49
687.832	9547.64
688.18	9546.51
688.527	9530.47
688.874	9457.93
689.221	9437.36
689.568	9401.21
689.915	9419.74
690.262	9361.89
690.609	9325.05
690.956	9235.79
691.303	9319.63
691.65	9222.91
691.997	9233.53
692.344	9171.16
692.69	9189.46
693.037	9184.49
693.383	9125.51
693.73	9090.48
694.077	9020.88
694.423	9062.46
694.769	9024.72
695.116	8961.9
695.462	8980.2
695.808	9006.19
696.155	8944.72
696.501	8841
696.847	8887.55
697.193	8798.74
697.539	8826.53
697.885	8751.73
698.231	8680.1
698.577	8777.04
698.923	8726.2
699.269	8665.41
699.614	8631.96
699.96	8599.65
700.306	8640.1
700.651	8551.29
700.997	8462.93
701.342	8527.11
701.688	8550.61
702.033	8466.32
702.379	8497.5
702.724	8436.94
703.069	8433.1
703.415	8363.49
703.76	8380.67
704.105	8339.54
704.45	8265.64
704.795	8267.68
705.14	8171.41
705.485	8237.62
705.83	8163.95
706.175	8160.34
706.52	8127.79
706.865	8108.36
707.209	8161.47
707.554	8028.59
707.899	8064.29
708.243	8132.77
708.588	8006.67
708.932	7966.22
709.277	7975.93
709.621	7981.81
709.966	7884.64
710.31	8003.5
710.654	7809.16
710.998	7888.25
711.342	7872.89
711.687	7822.49
712.031	7815.94
712.375	7800.35
712.719	7804.41
713.063	7775.04
713.407	7837.63
713.75	7715.6
714.094	7754.7
714.438	7683.29
714.782	7716.51
715.125	7652.33
715.469	7700.69
715.812	7636.06
716.156	7667.24
716.499	7578.43
716.843	7614.14
717.186	7579.33
717.53	7604.87
717.873	7559.45
718.216	7589.28
718.559	7526.45
718.902	7510.64
719.246	7563.74
719.589	7492.11
719.932	7547.02
720.275	7462.73
720.617	7444.42
720.96	7462.5
721.303	7474.25
721.646	7415.27
721.989	7437.64
722.331	7470.86
722.674	7447.59
723.016	7322.39
723.359	7441.03
723.701	7414.37
724.044	7356.29
724.386	7277.2
724.729	7308.38
725.071	7350.87
725.413	7372.33
725.755	7301.83
726.097	7256.41
726.439	7278.78
726.782	7237.87
727.124	7301.38
727.465	7214.82
727.807	7268.61
728.149	7198.1
728.491	7269.74
728.833	7194.03
729.175	7249.17
729.516	7239.46
729.858	7227.03
730.199	7194.49
730.541	7194.26
730.882	7185.67
731.224	7167.37
731.565	7133.24
731.906	7168.27
732.248	7170.98
732.589	7176.18
732.93	7149.29
733.271	7141.61
733.612	7205.11
733.953	7100.25
734.294	7117.2
734.635	7158.33
734.976	7161.94
735.317	7117.88
735.658	7111.78
735.999	7154.26
736.339	7090.31
736.68	7161.72
737.021	7091.21
737.361	7116.07
737.702	7188.38
738.042	7107.48
738.383	7155.62
738.723	7140.93
739.063	7142.28
739.404	7108.61
739.744	7131.89
740.084	7120.14
740.424	7178.44
740.764	7109.74
741.104	7188.84
741.444	7149.29
741.784	7153.13
742.124	7072.46
742.464	7184.54
742.804	7191.32
743.143	7218.67
743.483	7243.07
743.823	7133.24
744.162	7150.65
744.502	7162.85
744.841	7189.74
745.181	7236.74
745.52	7277.42
745.86	7247.37
746.199	7251.66
746.538	7307.25
746.877	7336.18
747.216	7373.24
747.556	7351.54
747.895	7384.31
748.234	7430.64
748.573	7465.89
748.911	7481.48
749.25	7564.42
749.589	7514.93
749.928	7611.88
750.267	7654.13
750.605	7711.99
750.944	7724.64
751.283	7766.67
751.621	7879.67
751.96	7843.96
752.298	7905.65
752.636	8010.28
752.975	8009.83
753.313	8055.93
753.651	8114.46
753.989	8216.61
754.327	8230.84
754.666	8259.99
755.004	8377.96
755.342	8457.73
755.679	8516.26
756.017	8502.25
756.355	8744.95
756.693	8758.51
757.031	8900.2
757.368	8959.41
757.706	9095.9
758.044	9088.45
758.381	9243.25
758.719	9318.95
759.056	9487.53
759.394	9490.24
759.731	9573.18
760.068	9613.18
760.405	9671.48
760.743	9848.88
761.08	9922.1
761.417	10023.34
761.754	10119.83
762.091	10260.85
762.428	10338.58
762.765	10358.02
763.102	10510.33
763.438	10535.64
763.775	10662.87
764.112	10835.75
764.449	10894.73
764.785	10975.63
765.122	10960.71
765.458	11094.5
765.795	11179.69
766.131	11297.88
766.467	11382.17
766.804	11435.73
767.14	11495.84
767.476	11595.5
767.812	11705.78
768.148	11766.8
768.485	11828.94
768.821	11863.29
769.157	11989.84
769.492	12091.98
769.828	12090.18
770.164	12171.76
770.5	12211.53
770.836	12310.96
771.171	12293.56
771.507	12422.6
771.842	12321.13
772.178	12456.95
772.513	12507.34
772.849	12522.03
773.184	12567.9
773.519	12670.73
773.855	12664.62
774.19	12660.56
774.525	12678.86
774.86	12811.29
775.195	12809.71
775.53	12786.66
775.865	12796.15
776.2	12806.99
776.535	12799.76
776.87	12807.67
777.205	12873.21
777.539	12825.52
777.874	12910.04
778.209	12923.6
778.543	12919.08
778.878	12844.28
779.212	12986.88
779.547	12778.52
779.881	12947.1
780.215	12842.25
780.55	13012.64
780.884	12901.45
781.218	12990.94
781.552	12897.61
781.886	13029.13
782.22	12886.54
782.554	12879.08
782.888	12801.57
783.222	12732.42
783.556	12838.86
783.889	12791.4
784.223	12656.04
784.557	12693.55
784.89	12845.64
785.224	12705.3
785.557	12705.3
785.891	12720.44
786.224	12673.21
786.558	12712.31
786.891	12571.29
787.224	12586.89
787.557	12572.65
787.891	12589.82
788.224	12562.71
788.557	12586.66
788.89	12576.49
789.223	12519.09
789.556	12575.36
789.888	12515.25
790.221	12427.79
790.554	12370.62
790.887	12362.49
791.219	12322.49
791.552	12330.85
791.884	12323.84
792.217	12298.76
792.549	12295.14
792.882	12171.3
793.214	12190.29
793.546	12218.31
793.879	12086.56
794.211	12053.34
794.543	12176.73
794.875	12051.99
795.207	12228.25
795.539	12046.79
795.871	12113
796.203	12007.01
796.535	11919.33
796.867	11897.87
797.198	11827.13
797.53	11904.19
797.862	11845.89
798.193	11774.48
798.525	11737.87
798.856	11777.19
799.188	11658.1
799.519	11648.15
799.85	11566.57
800.182	11638.66
800.513	11572.9
800.844	11473.02
801.175	11667.59
801.506	11548.95
801.837	11483.41
802.168	11454.71
802.499	11422.85
802.83	11434.37
803.161	11360.48
803.491	11373.81
803.822	11384.88
804.153	11265.57
804.483	11231.22
804.814	11201.16
805.145	11279.12
805.475	11256.3
805.805	11159.81
806.136	11166.58
806.466	11109.41
806.796	11143.31
807.126	11034.16
807.457	10971.34
807.787	11058.79
808.117	10931.11
808.447	10960.49
808.777	10936.53
809.107	10922.98
809.436	10845.69
809.766	10885.91
810.096	10887.04
810.426	10872.13
810.755	10902.41
811.085	10849.08
811.414	10768.86
811.744	10708.52
812.073	10669.65
812.403	10696.99
812.732	10702.64
813.061	10689.54
813.39	10608.41
813.719	10608.41
814.049	10667.39
814.378	10609.76
814.707	10532.25
815.036	10526.6
815.365	10523.89
815.693	10455.64
816.022	10417
816.351	10368.87
816.68	10349.43
817.008	10445.25
817.337	10313.05
817.665	10329.77
817.994	10342.43
818.322	10292.48
818.651	10278.25
818.979	10188.53
819.307	10226.04
819.636	10303.33
819.964	10160.51
820.292	10221.07
820.62	10176.78
820.948	10148.08
821.276	10160.51
821.604	10191.24
821.932	10239.83
822.259	10154.41
822.587	10143.33
822.915	10143.11
823.243	10162.09
823.57	10109.89
823.898	10136.56
824.225	10090.23
824.553	10105.6
824.88	10151.7
825.207	10196.89
825.535	10182.88
825.862	10151.92
826.189	10188.76
826.516	10211.13
826.843	10260.17
827.17	10177.23
827.497	10254.52
827.824	10133.84
828.151	10126.39
828.478	10194.41
828.805	10200.73
829.131	10210.68
829.458	10263.33
829.785	10140.62
830.111	10090.91
830.438	10268.98
830.764	10192.15
831.09	10167.97
831.417	10210.23
831.743	10172.49
832.069	10155.76
832.395	10170.45
832.722	10152.37
833.048	10086.61
833.374	10100.85
833.7	10117.35
834.026	10064.47
834.351	10094.75
834.677	10045.26
835.003	10057.24
835.329	10078.48
835.654	10080.06
835.98	9961.64
836.306	10028.76
836.631	9988.99
836.956	10027.18
837.282	10085.03
837.607	9970.91
837.932	9992.38
838.258	9875.55
838.583	9970.23
838.908	9850.69
839.233	9959.39
839.558	9937.24
839.883	9843.91
840.208	9887.52
840.533	9809.78
840.858	9761.65
841.182	9883
841.507	9857.01
841.832	9712.39
842.156	9791.25
842.481	9812.95
842.805	9708.54
843.13	9777.02
843.454	9727.07
843.778	9645.95
844.103	9706.74
844.427	9577.7
844.751	9649.34
845.075	9548.55
845.399	9524.82
845.723	9503.58
846.047	9460.19
846.371	9410.92
846.695	9361.43
847.019	9356.91
847.343	9337.93
847.666	9247.09
847.99	9215
848.313	9208.22
848.637	9146.98
848.96	9151.27
849.284	9160.76
849.607	9078.28
849.931	9017.71
850.254	9017.71
850.577	9002.57
850.9	8887.55
851.223	8852.75
851.546	8808.91
851.869	8778.17
852.192	8833.99
852.515	8768.91
852.838	8754.22
853.161	8694.56
853.483	8654.56
853.806	8677.84
854.129	8685.97
854.451	8665.63
854.774	8544.73
855.096	8604.84
855.419	8524.39
855.741	8511.06
856.063	8453.89
856.385	8411.4
856.708	8396.04
857.03	8379.54
857.352	8416.15
857.674	8352.87
857.996	8299.32
858.318	8311.07
858.64	8286.89
858.961	8246.44
859.283	8187
859.605	8241.69
859.926	8203.5
860.248	8233.1
860.57	8118.53
860.891	8147.91
861.212	8118.08
861.534	8083.5
861.855	8088.93
862.176	8064.52
862.498	8097.51
862.819	8060.45
863.14	8029.49
863.461	8011.41
863.782	7984.07
864.103	7999.89
864.424	7933
864.745	7948.36
865.065	7921.7
865.386	7866.11
865.707	7912.43
866.027	7893
866.348	7911.76
866.668	7893.9
866.989	7915.6
867.309	7788.14
867.63	7894.58
867.95	7807.13
868.27	7734.58
868.59	7787.92
868.91	7732.32
869.23	7722.83
869.55	7726.22
869.87	7766.45
870.19	7735.49
870.51	7723.29
870.83	7782.27
871.15	7724.19
871.469	7707.01
871.789	7645.77
872.109	7710.86
872.428	7610.07
872.748	7638.32
873.067	7593.12
873.386	7638.54
873.706	7616.4
874.025	7563.06
874.344	7547.92
874.663	7573.23
874.982	7576.62
875.301	7523.52
875.62	7431.99
875.939	7510.86
876.258	7530.07
876.577	7489.17
876.896	7509.51
877.214	7423.86
877.533	7457.98
877.852	7425.21
878.17	7492.11
878.489	7475.38
878.807	7448.26
879.125	7377.53
879.444	7409.17
879.762	7406.46
880.08	7368.04
880.398	7314.03
880.716	7311.09
881.034	7269.06
881.352	7283.07
881.67	7256.86
881.988	7288.27
882.306	7239
882.624	7236.52
882.941	7232.9
883.259	7176.86
883.577	7193.58
883.894	7232.68
884.212	7196.52
884.529	7159.01
884.846	7128.5
885.164	7051.44
885.481	7110.87
885.798	7044.21
886.115	7064.77
886.432	7025.9
886.75	7066.58
887.067	7033.36
887.383	6998.78
887.7	7009.86
888.017	6987.26
888.334	6930.54
888.651	6891.44
888.967	6919.69
889.284	6838.79
889.6	6845.34
889.917	6816.64
890.233	6850.54
890.55	6847.15
890.866	6784.1
891.182	6719.92
891.498	6738.45
891.815	6662.97
892.131	6732.35
892.447	6723.54
892.763	6608.74
893.079	6678.79
893.395	6630.66
893.71	6673.37
894.026	6599.25
894.342	6604.44
894.657	6501.62
894.973	6521.74
895.289	6537.55
895.604	6525.8
895.92	6453.26
896.235	6414.62
896.55	6432.7
896.865	6391.12
897.181	6387.5
897.496	6340.95
897.811	6351.8
898.126	6305.7
898.441	6318.12
898.756	6283.55
899.071	6245.81
899.386	6244.23
899.7	6241.97
900.015	6172.14
900.33	6139.6
900.644	6157.45
900.959	6145.7
901.273	6142.99
901.588	6049.88
901.902	6079.04
902.216	6034.06
902.531	6060.5
902.845	5999.94
903.159	5948.64
903.473	5957.68
903.787	5921.75
904.101	5931.47
904.415	5937.8
904.729	5860.06
905.042	5811.7
905.356	5829.55
905.67	5815.31
905.984	5844.46
906.297	5797.01
906.611	5774.18
906.924	5754.75
907.237	5710.68
907.551	5726.73
907.864	5627.07
908.177	5641.53
908.491	5616.9
908.804	5599.5
909.117	5543.23
909.43	5590.01
909.743	5462.33
910.056	5518.37
910.368	5497.36
910.681	5456.45
910.994	5444.25
911.307	5368.77
911.619	5380.75
911.932	5363.8
912.244	5357.25
912.557	5288.32
912.869	5304.82
913.181	5288.77
913.494	5257.59
913.806	5243.8
914.118	5299.62
914.43	5205.61
914.742	5257.81
915.054	5217.36
915.366	5186.18
915.678	5136.91
915.99	5156.12
916.302	5075.67
916.613	5132.17
916.925	5089
917.236	5040.64
917.548	5010.36
917.859	5039.29
918.171	5003.81
918.482	4967.2
918.794	4941.21
919.105	4926.07
919.416	4924.26
919.727	4893.98
920.038	4890.82
920.349	4849.46
920.66	4811.05
920.971	4808.79
921.282	4791.61
921.593	4799.29
921.903	4708
922.214	4699.41
922.525	4717.26
922.835	4671.61
923.146	4634.1
923.456	4656.7
923.767	4594.78
924.077	4666.64
924.387	4609.24
924.697	4608.11
925.008	4543.26
925.318	4475.91
925.628	4543.93
925.938	4504.16
926.248	4521.34
926.558	4495.35
926.867	4495.12
927.177	4495.8
927.487	4390.49
927.796	4397.27
928.106	4359.98
928.416	4382.58
928.725	4369.02
929.034	4311.17
929.344	4317.27
929.653	4332.19
929.962	4275.69
930.271	4243.38
930.581	4247.44
930.89	4265.07
931.199	4199.99
931.508	4211.51
931.817	4189.59
932.125	4222.59
932.434	4152.08
932.743	4155.92
933.051	4087.22
933.36	4065.53
933.669	4064.4
933.977	4080.44
934.286	4044.51
934.594	4084.96
934.902	3990.05
935.21	4016.26
935.519	3939.43
935.827	3975.36
936.135	3970.62
936.443	3895.59
936.751	3933.55
937.059	3919.09
937.367	3897.4
937.674	3883.39
937.982	3840.22
938.29	3824.18
938.597	3833.9
938.905	3824.86
939.213	3758.19
939.52	3745.54
939.827	3774.46
940.135	3756.84
940.442	3768.14
940.749	3736.72
941.056	3696.27
941.363	3684.97
941.67	3687.01
941.977	3658.76
942.284	3647.23
942.591	3636.16
942.898	3569.95
943.205	3614.24
943.511	3563.4
943.818	3545.99
944.125	3560.01
944.431	3555.49
944.738	3509.61
945.044	3493.11
945.35	3492.44
945.657	3451.08
945.963	3440.69
946.269	3423.74
946.575	3410.18
946.881	3414.02
947.187	3372.44
947.493	3407.01
947.799	3377.41
948.105	3380.12
948.41	3341.71
948.716	3327.24
949.022	3352.78
949.327	3306.23
949.633	3263.74
949.938	3292.89
950.244	3320.01
950.549	3289.73
950.854	3248.6
951.16	3212.22
951.465	3201.37
951.77	3188.49
952.075	3137.19
952.38	3210.41
952.685	3131.54
952.99	3126.12
953.294	3102.39
953.599	3089.06
953.904	3112.79
954.209	3099.45
954.513	3099
954.818	3099
955.122	3023.75
955.426	3062.84
955.731	3022.39
956.035	2987.59
956.339	3009.74
956.643	2990.75
956.948	2973.58
957.252	2979
957.556	2957.08
957.86	2926.58
958.163	2933.81
958.467	2943.07
958.771	2910.08
959.075	2925.9
959.378	2832.34
959.682	2854.71
959.985	2880.7
960.289	2852.68
960.592	2833.47
960.896	2837.54
961.199	2800.25
961.502	2772.91
961.805	2815.84
962.108	2809.74
962.411	2779.23
962.714	2745.56
963.017	2751.66
963.32	2762.74
963.623	2712.12
963.926	2697.66
964.228	2734.04
964.531	2656.07
964.833	2656.98
965.136	2698.56
965.438	2626.92
965.741	2611.1
966.043	2639.8
966.345	2639.13
966.648	2621.72
966.95	2611.78
967.252	2591.44
967.554	2569.52
967.856	2558.45
968.158	2553.48
968.46	2572.91
968.761	2568.39
969.063	2534.95
969.365	2528.39
969.666	2501.73
969.968	2494.5
970.269	2516.87
970.571	2506.25
970.872	2444.78
971.174	2430.54
971.475	2451.79
971.776	2460.15
972.077	2451.11
972.378	2429.87
972.679	2438.23
972.98	2413.37
973.281	2386.48
973.582	2402.52
973.883	2346.7
974.183	2326.82
974.484	2345.57
974.785	2334.73
975.085	2283.43
975.386	2308.51
975.686	2329.3
975.986	2323.65
976.287	2306.48
976.587	2271.23
976.887	2254.5
977.187	2265.12
977.487	2238.91
977.787	2280.49
978.087	2242.75
978.387	2229.87
978.687	2182.64
978.987	2151.45
979.286	2171.79
979.586	2199.36
979.885	2190.55
980.185	2162.98
980.484	2163.66
980.784	2170.66
981.083	2121.4
981.382	2114.85
981.682	2124.56
981.981	2117.33
982.28	2115.07
982.579	2099.7
982.878	2091.8
983.177	2067.39
983.475	2070.33
983.774	2033.04
984.073	2042.53
984.372	2028.52
984.67	2048.86
984.969	1985.81
985.267	2029.42
985.566	2007.5
985.864	1992.36
986.162	1974.06
986.461	1986.49
986.759	1962.99
987.057	1993.04
987.355	1949.2
987.653	1950.1
987.951	1931.12
988.249	1938.35
988.547	1928.86
988.844	1892.48
989.142	1893.16
989.44	1878.47
989.737	1891.12
990.035	1883.21
990.332	1883.21
990.63	1857
990.927	1843.21
991.224	1848.86
991.521	1853.61
991.819	1824.46
992.116	1840.95
992.413	1842.76
992.71	1802.09
993.006	1793.5
993.303	1771.58
993.6	1776.55
993.897	1769.54
994.193	1784.01
994.49	1732.26
994.787	1741.75
995.083	1732.26
995.379	1754.63
995.676	1710.56
995.972	1713.95
996.268	1669.43
996.565	1713.73
996.861	1693.16
997.157	1700.39
997.453	1704.01
997.749	1683.9
998.044	1651.13
998.34	1675.08
998.636	1644.35
998.932	1634.18
999.227	1629.89
999.523	1635.54
999.818	1631.24
1000.114	1632.6
1000.409	1614.29
1000.704	1622.66
1001	1586.27
1001.295	1569.78
1001.59	1604.12
1001.885	1595.54
1002.18	1574.52
1002.475	1516.9
1002.77	1539.95
1003.065	1554.63
1003.359	1518.48
1003.654	1506.5
1003.949	1505.6
1004.243	1520.51
1004.538	1506.73
1004.832	1492.26
1005.127	1483.9
1005.421	1495.2
1005.715	1493.62
1006.009	1432.38
1006.304	1461.76
1006.598	1458.82
1006.892	1418.59
1007.186	1416.78
1007.48	1415.2
1007.773	1383.11
1008.067	1381.98
1008.361	1398.03
1008.655	1374.07
1008.948	1386.05
1009.242	1401.42
1009.535	1358.03
1009.829	1353.28
1010.122	1337.24
1010.415	1339.72
1010.708	1308.54
1011.001	1316.67
1011.295	1313.06
1011.588	1341.76
1011.881	1301.31
1012.173	1303.34
1012.466	1294.3
1012.759	1291.59
1013.052	1261.76
1013.344	1261.99
1013.637	1255.66
1013.93	1252.95
1014.222	1252.95
1014.514	1270.8
1014.807	1226.51
1015.099	1227.86
1015.391	1213.4
1015.683	1217.69
1015.976	1206.39
1016.268	1206.85
1016.56	1205.26
1016.851	1188.32
1017.143	1195.77
1017.435	1169.79
1017.727	1177.24
1018.018	1176.57
1018.31	1173.18
1018.602	1153.06
1018.893	1148.77
1019.185	1107.87
1019.476	1151.93
1019.767	1138.15
1020.058	1107.87
1020.35	1111.03
1020.641	1094.99
1020.932	1111.03
1021.223	1090.24
1021.514	1089.79
1021.804	1069.22
1022.095	1094.76
1022.386	1079.39
1022.677	1085.27
1022.967	1047.3
1023.258	1034.87
1023.548	1050.01
1023.839	1029.22
1024.129	1049.56
1024.419	1027.42
1024.709	1033.29
1025	1027.87
1025.29	1020.64
1025.58	991.26
1025.87	995.78
1026.16	979.96
1026.449	996.46
1026.739	962.33
1027.029	989.9
1027.319	982.45
1027.608	949.45
1027.898	956.01
1028.187	943.35
1028.477	941.32
1028.766	951.71
1029.055	921.66
1029.344	927.76
1029.634	919.85
1029.923	906.52
1030.212	894.31
1030.501	893.18
1030.79	914.65
1031.078	896.57
1031.367	891.6
1031.656	889.34
1031.945	877.14
1032.233	890.24
1032.522	884.37
1032.81	878.72
1033.099	861.32
1033.387	850.92
1033.675	849.57
1033.963	833.98
1034.251	822.45
1034.54	821.32
1034.828	854.54
1035.116	842.56
1035.403	816.57
1035.691	804.82
1035.979	824.03
1036.267	818.61
1036.554	791.26
1036.842	791.26
1037.129	785.39
1037.417	741.55
1037.704	774.32
1037.992	786.74
1038.279	774.09
1038.566	774.54
1038.853	774.54
1039.14	774.54
