Data from hue_270_FLMS001491_00040.txt Node
Date: Tue Feb 07 15:57:07 GMT 2017
User: dcchb
Spectrometer: FLMS00149
Trigger mode: 0
Integration Time (sec): 2.000000E-2
Scans to average: 10
Electric dark correction enabled: true
Nonlinearity correction enabled: false
Boxcar width: 0
XAxis mode: Wavelengths
Number of Pixels in Spectrum: 2048
>>>>>Begin Spectral Data<<<<<
341.393	-20.41
341.776	-20.41
342.16	-20.41
342.543	-66.74
342.927	-82.1
343.31	-92.5
343.693	-67.64
344.077	-60.63
344.46	-64.7
344.843	-64.48
345.226	-58.37
345.61	-16.79
345.993	-23.12
346.376	12.81
346.759	7.61
347.142	13.26
347.525	48.97
347.908	82.87
348.291	76.31
348.674	99.59
349.057	106.82
349.44	145.69
349.823	143.43
350.206	153.37
350.588	185.46
350.971	193.6
351.354	222.97
351.737	234.05
352.119	228.17
352.502	263.65
352.884	252.35
353.267	265.69
353.65	279.24
354.032	285.57
354.414	294.84
354.797	298.45
355.179	323.99
355.562	322.41
355.944	330.77
356.326	295.29
356.709	340.49
357.091	305.91
357.473	327.6
357.855	357.21
358.238	331.22
358.62	325.8
359.002	337.1
359.384	338.45
359.766	328.96
360.148	340.03
360.53	340.03
360.912	320.37
361.294	308.4
361.676	325.34
362.057	329.19
362.439	306.14
362.821	303.88
363.203	314.27
363.584	314.95
363.966	322.63
364.348	317.44
364.729	304.33
365.111	313.14
365.493	315.4
365.874	312.01
366.256	295.97
366.637	309.07
367.019	311.79
367.4	310.66
367.781	311.33
368.163	313.14
368.544	302.52
368.925	301.62
369.306	342.07
369.688	308.17
370.069	315.18
370.45	298.45
370.831	290.54
371.212	291.67
371.593	279.7
371.974	303.88
372.355	319.24
372.736	324.89
373.117	314.27
373.498	304.1
373.879	315.63
374.26	291
374.641	303.65
375.021	299.13
375.402	328.73
375.783	319.24
376.163	314.5
376.544	309.53
376.925	334.38
377.305	316.53
377.686	345.23
378.066	316.53
378.447	333.93
378.827	333.25
379.208	336.64
379.588	316.31
379.968	327.83
380.349	333.25
380.729	321.28
381.109	328.51
381.489	332.58
381.87	331.9
382.25	329.64
382.63	357.66
383.01	323.08
383.39	351.78
383.77	319.69
384.15	324.67
384.53	348.85
384.91	351.78
385.29	356.76
385.67	355.85
386.049	343.42
386.429	336.87
386.809	344.1
387.189	356.3
387.568	360.82
387.948	363.31
388.328	324.44
388.707	338.68
389.087	350.65
389.466	365.8
389.846	356.3
390.225	370.77
390.605	359.47
390.984	336.87
391.363	350.88
391.743	375.06
392.122	363.31
392.501	368.06
392.881	377.09
393.26	365.12
393.639	380.03
394.018	370.32
394.397	381.16
394.776	379.58
395.155	361.05
395.534	382.07
395.913	362.41
396.292	386.59
396.671	364.89
397.05	403.08
397.429	380.48
397.808	383.87
398.186	377.77
398.565	405.57
398.944	379.13
399.323	374.61
399.701	374.61
400.08	393.37
400.458	401.95
400.837	398.11
401.215	383.87
401.594	390.43
401.972	420.94
402.351	398.11
402.729	430.43
403.107	428.84
403.486	412.35
403.864	435.62
404.242	420.71
404.62	438.11
404.999	431.1
405.377	441.95
405.755	438.11
406.133	445.12
406.511	449.18
406.889	461.16
407.267	444.44
407.645	457.32
408.023	455.74
408.401	468.84
408.779	481.05
409.156	464.1
409.534	472.69
409.912	508.62
410.29	495.06
410.667	510.42
411.045	501.39
411.422	519.46
411.8	508.16
412.178	522.18
412.555	521.95
412.933	519.24
413.31	521.5
413.687	558.56
414.065	557.2
414.442	564.89
414.819	574.38
415.197	568.5
415.574	584.55
415.951	580.71
416.328	604.21
416.705	582.96
417.082	600.82
417.46	594.04
417.837	611.66
418.214	613.25
418.591	623.87
418.967	621.61
419.344	632.68
419.721	651.66
420.098	661.61
420.475	641.27
420.852	662.74
421.228	687.14
421.605	659.12
421.982	696.41
422.358	695.5
422.735	702.74
423.111	715.39
423.488	731.66
423.864	748.61
424.241	752.45
424.617	755.62
424.994	765.33
425.37	787.93
425.746	804.65
426.123	792.45
426.499	787.48
426.875	828.38
427.251	850.53
427.627	813.47
428.003	863.86
428.379	851.21
428.756	844.65
429.132	870.64
429.507	883.3
429.883	883.75
430.259	909.96
430.635	916.29
431.011	918.1
431.387	915.61
431.763	945.44
432.138	955.16
432.514	981.6
432.89	979.34
433.265	959.45
433.641	997.64
434.016	1024.76
434.392	1049.39
434.767	1058.43
435.143	1053.24
435.518	1070.41
435.894	1093.91
436.269	1111.54
436.644	1167.13
437.02	1128.49
437.395	1158.77
437.77	1178.66
438.145	1157.19
438.52	1197.19
438.895	1227.47
439.271	1217.07
439.646	1254.36
440.021	1274.25
440.395	1285.32
440.77	1296.17
441.145	1283.96
441.52	1321.25
441.895	1319.44
442.27	1340.69
442.645	1331.87
443.019	1348.82
443.394	1354.92
443.769	1365.54
444.143	1381.81
444.518	1367.58
444.892	1388.82
445.267	1419.78
445.641	1449.16
446.016	1417.97
446.39	1445.09
446.764	1422.72
447.139	1458.87
447.513	1482.15
447.887	1476.73
448.262	1475.37
448.636	1495.03
449.01	1520.57
449.384	1518.76
449.758	1541.81
450.132	1537.74
450.506	1549.49
450.88	1546.78
451.254	1576.84
451.628	1568.48
452.002	1600.57
452.376	1596.72
452.75	1636.95
453.123	1632.2
453.497	1662.26
453.871	1672.88
454.244	1692.31
454.618	1707
454.992	1714.01
455.365	1725.31
455.739	1740.9
456.112	1776.38
456.486	1784.97
456.859	1784.52
457.232	1815.02
457.606	1841.69
457.979	1806.66
458.352	1859.77
458.725	1887.34
459.099	1891.86
459.472	1887.56
459.845	1927.11
460.218	1943.83
460.591	1973.21
460.964	1950.39
461.337	2015.24
461.71	2028.35
462.083	2077.39
462.456	2060.89
462.829	2041.46
463.201	2081.23
463.574	2089.82
463.947	2143.15
464.32	2177.5
464.692	2179.31
465.065	2192.64
465.438	2210.72
465.81	2235.58
466.183	2252.53
466.555	2280.55
466.928	2328.91
467.3	2301.11
467.672	2344.95
468.045	2375.01
468.417	2385.86
468.789	2401.45
469.161	2449.81
469.534	2422.46
469.906	2518.28
470.278	2497.49
470.65	2544.5
471.022	2555.34
471.394	2599.41
471.766	2633.53
472.138	2645.28
472.51	2704.94
472.882	2704.04
473.253	2758.05
473.625	2813.64
473.997	2818.61
474.369	2826.75
474.74	2847.99
475.112	2918.95
475.484	2939.29
475.855	3009.34
476.227	2951.72
476.598	3074.42
476.97	3115.78
477.341	3163.46
477.713	3194.42
478.084	3180.18
478.455	3275.1
478.827	3290.24
479.198	3316.9
479.569	3361.42
479.94	3458.82
480.311	3476.9
480.682	3534.98
481.053	3595.32
481.424	3654.75
481.795	3670.12
482.166	3697.23
482.537	3784.69
482.908	3786.95
483.279	3829.43
483.65	3843.44
484.021	3964.12
484.391	3989.65
484.762	4031.91
485.133	4049.31
485.503	4043.44
485.874	4164.11
486.244	4150.1
486.615	4235.3
486.985	4305.8
487.356	4314.17
487.726	4384.9
488.097	4423.77
488.467	4404.33
488.837	4559.81
489.207	4528.17
489.578	4654.04
489.948	4669.64
490.318	4673.03
490.688	4709.64
491.058	4786.92
491.428	4866.47
491.798	4835.51
492.168	4945.79
492.538	4962.74
492.908	4943.53
493.278	5019.23
493.648	5032.57
494.017	5127.7
494.387	5101.72
494.757	5081.6
495.126	5163.86
495.496	5193.01
495.866	5186.69
496.235	5281.15
496.605	5304.42
496.974	5343.97
497.344	5340.81
497.713	5360.47
498.082	5447.92
498.452	5482.5
498.821	5452.89
499.19	5506.9
499.559	5509.84
499.928	5586
500.298	5532.21
500.667	5574.02
501.036	5600.69
501.405	5615.83
501.774	5600.01
502.143	5669.16
502.512	5675.03
502.88	5727.01
503.249	5675.71
503.618	5720
503.987	5736.5
504.356	5738.31
504.724	5772.21
505.093	5769.72
505.462	5777.4
505.83	5819.44
506.199	5883.16
506.567	5947.57
506.936	5880.23
507.304	5937.63
507.672	5934.01
508.041	6006.78
508.409	6015.14
508.777	6023.73
509.145	6089.49
509.514	6027.34
509.882	6056.04
510.25	6093.55
510.618	6090.16
510.986	6155.7
511.354	6175.81
511.722	6159.99
512.09	6216.72
512.458	6161.35
512.826	6234.12
513.193	6207.45
513.561	6230.05
513.929	6268.01
514.297	6303.49
514.664	6308.24
515.032	6287.45
515.4	6359.76
515.767	6328.8
516.135	6351.85
516.502	6288.8
516.869	6386.43
517.237	6386.2
517.604	6356.82
517.972	6376.48
518.339	6400.67
518.706	6450.38
519.073	6399.08
519.44	6450.38
519.808	6500.78
520.175	6467.1
520.542	6503.26
520.909	6519.98
521.276	6519.76
521.643	6599.08
522.009	6576.48
522.376	6602.02
522.743	6544.84
523.11	6604.95
523.477	6661.22
523.843	6644.5
524.21	6739.41
524.577	6708.45
524.943	6765.18
525.31	6776.7
525.676	6771.05
526.043	6723.82
526.409	6787.55
526.776	6851.27
527.142	6859.86
527.508	6811.95
527.874	6867.32
528.241	6898.51
528.607	6897.83
528.973	6926.98
529.339	6975.34
529.705	6967.88
530.071	6981.89
530.437	7006.3
530.803	6977.83
531.169	7032.51
531.535	7003.59
531.901	7043.59
532.267	7044.49
532.632	7104.15
532.998	7089.91
533.364	7028.22
533.73	7067.54
534.095	7158.39
534.461	7140.98
534.826	7133.98
535.192	7118.84
535.557	7130.14
535.923	7154.77
536.288	7121.32
536.653	7150.93
537.019	7153.19
537.384	7164.49
537.749	7225.95
538.114	7167.88
538.479	7201.32
538.845	7201.55
539.21	7176.69
539.575	7150.02
539.94	7204.03
540.305	7242.9
540.67	7183.7
541.034	7211.27
541.399	7245.84
541.764	7239.51
542.129	7194.54
542.494	7231.15
542.858	7177.14
543.223	7266.86
543.587	7299.17
543.952	7225.5
544.316	7237.48
544.681	7244.48
545.045	7247.42
545.41	7328.32
545.774	7261.21
546.138	7200.87
546.503	7267.31
546.867	7263.92
547.231	7260.53
547.595	7296.23
547.959	7237.93
548.324	7255.56
548.688	7288.55
549.052	7288.78
549.416	7312.05
549.779	7287.2
550.143	7307.76
550.507	7331.94
550.871	7355.67
551.235	7286.07
551.599	7321.54
551.962	7366.52
552.326	7369.23
552.689	7291.04
553.053	7324.71
553.417	7256.69
553.78	7401.32
554.143	7368.78
554.507	7350.24
554.87	7408.1
555.234	7440.19
555.597	7394.99
555.96	7388.44
556.323	7463.69
556.686	7429.79
557.05	7472.95
557.413	7493.97
557.776	7492.16
558.139	7486.29
558.502	7478.15
558.865	7539.84
559.228	7572.61
559.59	7578.49
559.953	7578.94
560.316	7637.69
560.679	7602.22
561.041	7697.13
561.404	7662.1
561.767	7711.82
562.129	7711.59
562.492	7802.21
562.854	7723.57
563.217	7719.05
563.579	7757.92
563.941	7855.32
564.304	7810.35
564.666	7867.29
565.028	7860.06
565.39	7907.97
565.753	7914.3
566.115	7907.74
566.477	7964.92
566.839	8035.65
567.201	8009.66
567.563	8018.7
567.925	8109.32
568.287	8120.85
568.648	8116.55
569.01	8144.12
569.372	8166.04
569.734	8177.57
570.095	8188.19
570.457	8250.11
570.819	8242.88
571.18	8250.79
571.542	8313.84
571.903	8302.76
572.265	8346.38
572.626	8420.95
572.987	8375.53
573.349	8380.73
573.71	8433.61
574.071	8482.64
574.432	8500.95
574.794	8592.92
575.155	8550.44
575.516	8586.82
575.877	8582.3
576.238	8557.44
576.599	8661.62
576.96	8645.13
577.32	8696.65
577.681	8767.61
578.042	8729.42
578.403	8780.72
578.763	8794.95
579.124	8847.83
579.485	8821.84
579.845	8914.72
580.206	8904.78
580.566	8930.32
580.927	8904.1
581.287	9043.76
581.648	8984.1
582.008	9107.03
582.368	9059.13
582.728	9086.92
583.089	9115.17
583.449	9135.51
583.809	9139.8
584.169	9215.28
584.529	9197.65
584.889	9208.73
585.249	9240.36
585.609	9192.23
585.969	9297.54
586.329	9335.73
586.688	9395.61
587.048	9330.31
587.408	9368.27
587.768	9412.11
588.127	9471.77
588.487	9494.37
588.846	9544.31
589.206	9477.42
589.565	9471.32
589.925	9570.3
590.284	9521.94
590.643	9642.39
591.003	9639.9
591.362	9702.73
591.721	9643.97
592.08	9686.68
592.44	9747.24
592.799	9727.36
593.158	9756.28
593.517	9799.45
593.876	9813.23
594.235	9767.81
594.593	9826.56
594.952	9872.44
595.311	9872.66
595.67	9904.08
596.029	9956.73
596.387	9939.56
596.746	9962.38
597.104	9937.52
597.463	9995.6
597.822	10008.03
598.18	9942.94
598.538	10000.8
598.897	10062.49
599.255	9977.97
599.613	10141.36
599.972	10041.47
600.33	10063.17
600.688	10120.12
601.046	10146.1
601.404	10161.7
601.762	10131.19
602.12	10150.4
602.478	10115.82
602.836	10223.84
603.194	10200.79
603.552	10152.2
603.91	10132.77
604.268	10261.35
604.625	10241.47
604.983	10231.3
605.341	10212.99
605.698	10283.5
606.056	10340.45
606.413	10252.99
606.771	10291.86
607.128	10332.54
607.485	10274.46
607.843	10330.73
608.2	10370.96
608.557	10420.45
608.914	10369.6
609.272	10417.28
609.629	10471.29
609.986	10459.09
610.343	10424.29
610.7	10517.62
611.057	10460.45
611.414	10471.74
611.771	10480.33
612.127	10495.02
612.484	10507
612.841	10556.94
613.198	10455.7
613.554	10526.21
613.911	10633.55
614.267	10596.94
614.624	10548.13
614.98	10613.66
615.337	10600.1
615.693	10633.77
616.05	10627.45
616.406	10682.59
616.762	10634.23
617.118	10605.98
617.475	10593.78
617.831	10700.21
618.187	10699.54
618.543	10729.82
618.899	10757.61
619.255	10708.8
619.611	10753.32
619.967	10725.3
620.323	10768.46
620.678	10782.24
621.034	10685.3
621.39	10710.38
621.746	10669.25
622.101	10811.62
622.457	10778.18
622.812	10815.01
623.168	10818.63
623.523	10818.4
623.879	10785.86
624.234	10749.7
624.589	10728.69
624.945	10811.62
625.3	10790.38
625.655	10816.82
626.01	10749.03
626.365	10762.13
626.72	10712.42
627.075	10746.99
627.43	10658.18
627.785	10751.06
628.14	10787.89
628.495	10750.38
628.85	10720.33
629.205	10698.63
629.559	10815.92
629.914	10722.13
630.269	10720.1
630.623	10684.17
630.978	10660.21
631.332	10707.9
631.687	10710.38
632.041	10704.96
632.396	10666.09
632.75	10706.99
633.104	10694.79
633.459	10617.5
633.813	10651.63
634.167	10644.85
634.521	10644.17
634.875	10607.79
635.229	10598.07
635.583	10565.3
635.937	10531.4
636.291	10478.75
636.645	10548.8
636.999	10489.82
637.352	10501.35
637.706	10479.2
638.06	10495.7
638.413	10447.34
638.767	10387.45
639.121	10436.27
639.474	10395.59
639.828	10336.38
640.181	10396.27
640.534	10369.15
640.888	10430.62
641.241	10369.6
641.594	10319.88
641.947	10375.02
642.301	10319.21
642.654	10366.66
643.007	10330.73
643.36	10342.03
643.713	10274.46
644.066	10297.06
644.419	10383.61
644.771	10201.7
645.124	10143.84
645.477	10139.32
645.83	10071.53
646.182	10035.6
646.535	9971.19
646.888	9975.49
647.24	9801.93
647.593	10056.61
647.945	10011.64
648.298	9982.27
648.65	9904.08
649.002	9869.95
649.355	10011.42
649.707	9968.03
650.059	9970.06
650.411	10122.38
650.763	10142.49
651.115	10223.16
651.467	10149.72
651.819	10221.36
652.171	10195.82
652.523	10159.66
652.875	10218.42
653.227	10081.7
653.578	10196.72
653.93	10191.53
654.282	10163.73
654.633	10107.91
654.985	10198.53
655.337	10163.73
655.688	10161.47
656.039	10246.44
656.391	10119.66
656.742	10193.79
657.094	10193.33
657.445	10216.38
657.796	10128.7
658.147	10180.68
658.498	10192.2
658.849	10173.67
659.2	10148.14
659.551	10086.22
659.902	10133.22
660.253	10179.55
660.604	10214.58
660.955	10070.4
661.306	10202.15
661.656	10119.66
662.007	10158.53
662.358	10217.74
662.708	10174.8
663.059	10185.88
663.409	10097.97
663.76	10149.27
664.11	10194.69
664.461	10139.55
664.811	10168.02
665.161	10168.25
665.511	10120.34
665.862	10173.22
666.212	10211.41
666.562	10243.05
666.912	10085.54
667.262	10183.84
667.612	10139.55
667.962	10172.54
668.312	10200.79
668.662	10151.07
669.011	10144.75
669.361	10097.29
669.711	10136.16
670.06	10112.88
670.41	10120.79
670.76	10107.91
671.109	10122.15
671.459	10104.3
671.808	10115.6
672.157	10155.14
672.507	10094.81
672.856	9979.1
673.205	10096.16
673.554	10113.79
673.904	10120.57
674.253	10056.39
674.602	10079.21
674.951	9942.27
675.3	9886.22
675.649	9994.92
675.998	9935.26
676.346	10002.6
676.695	9988.59
677.044	9972.55
677.393	9963.96
677.741	9971.87
678.09	9939.56
678.438	9937.97
678.787	9923.51
679.135	9930.74
679.484	9848.26
679.832	9900.69
680.181	9861.82
680.529	9932.32
680.877	9877.41
681.225	9860.91
681.573	9844.64
681.922	9879.9
682.27	9794.7
682.618	9751.31
682.966	9781.59
683.314	9750.41
683.661	9751.31
684.009	9636.96
684.357	9694.14
684.705	9665.89
685.053	9642.39
685.4	9622.73
685.748	9601.48
686.095	9575.5
686.443	9535.95
686.79	9546.12
687.138	9509.96
687.485	9525.78
687.832	9550.19
688.18	9464.99
688.527	9384.32
688.874	9404.43
689.221	9403.52
689.568	9386.58
689.915	9365.78
690.262	9328.72
690.609	9286.69
690.956	9205.56
691.303	9287.82
691.65	9238.56
691.997	9172.8
692.344	9138.67
692.69	9074.04
693.037	9178.45
693.383	9045.34
693.73	9041.5
694.077	8980.03
694.423	8957.21
694.769	8922.18
695.116	8853.26
695.462	8897.77
695.808	8866.81
696.155	8944.78
696.501	8781.39
696.847	8787.04
697.193	8770.77
697.539	8773.71
697.885	8723.54
698.231	8690.32
698.577	8663.88
698.923	8643.09
699.269	8577.56
699.614	8492.59
699.96	8544.79
700.306	8463.44
700.651	8492.59
700.997	8429.76
701.342	8420.95
701.688	8410.56
702.033	8403.78
702.379	8404.68
702.724	8380.05
703.069	8351.12
703.415	8223.22
703.76	8272.93
704.105	8257.11
704.45	8215.08
704.795	8198.13
705.14	8187.28
705.485	8157.68
705.83	8150.22
706.175	8147.51
706.52	8100.96
706.865	8080.39
707.209	8008.76
707.554	8026.16
707.899	8015.31
708.243	7952.71
708.588	7924.92
708.932	7874.07
709.277	7887.41
709.621	7890.12
709.966	7804.02
710.31	7839.95
710.654	7775.32
710.998	7767.18
711.342	7751.59
711.687	7731.7
712.031	7735.32
712.375	7698.03
712.719	7676.34
713.063	7680.18
713.407	7650.8
713.75	7667.52
714.094	7582.33
714.438	7569.22
714.782	7694.19
715.125	7593.18
715.469	7567.64
715.812	7472.28
716.156	7514.76
716.499	7527.19
716.843	7543.91
717.186	7495.33
717.53	7509.34
717.873	7460.52
718.216	7496.23
718.559	7447.64
718.902	7345.95
719.246	7485.61
719.589	7345.05
719.932	7375.78
720.275	7369.91
720.617	7361.54
720.96	7407.87
721.303	7281.32
721.646	7318.83
721.989	7321.54
722.331	7341.66
722.674	7306.4
723.016	7277.25
723.359	7317.7
723.701	7329.68
724.044	7309.34
724.386	7223.92
724.729	7218.27
725.071	7225.28
725.413	7263.69
725.755	7272.51
726.097	7217.14
726.439	7174.66
726.782	7141.21
727.124	7157.71
727.465	7165.39
727.807	7195.22
728.149	7115.9
728.491	7086.75
728.833	7230.93
729.175	7216.24
729.516	7159.52
729.858	7154.77
730.199	7220.76
730.541	7140.08
730.882	7178.5
731.224	7187.76
731.565	7150.93
731.906	7171.04
732.248	7127.65
732.589	7114.32
732.93	7113.87
733.271	7100.76
733.612	7138.27
733.953	7107.54
734.294	7097.82
734.635	7103.25
734.976	7098.73
735.317	7063.47
735.658	7138.95
735.999	7107.54
736.339	7177.14
736.68	7122.91
737.021	7137.82
737.361	7090.59
737.702	7136.92
738.042	7136.01
738.383	7143.47
738.723	7181.66
739.063	7106.64
739.404	7183.24
739.744	7142.34
740.084	7129.23
740.424	7191.38
740.764	7162.45
741.104	7160.87
741.444	7187.54
741.784	7260.98
742.124	7193.64
742.464	7203.13
742.804	7224.15
743.143	7255.78
743.483	7280.87
743.823	7274.09
744.162	7311.6
744.502	7349.34
744.841	7338.72
745.181	7372.39
745.52	7407.19
745.86	7383.69
746.199	7488.09
746.538	7508.88
746.877	7530.13
747.216	7501.65
747.556	7618.71
747.895	7628.66
748.234	7674.08
748.573	7723.57
748.911	7719.73
749.25	7809.89
749.589	7845.82
749.928	7841.31
750.267	7958.82
750.605	8039.27
750.944	8017.8
751.283	8073.16
751.621	8209.21
751.96	8241.75
752.298	8354.96
752.636	8364.68
752.975	8476.54
753.313	8492.14
753.651	8636.09
753.989	8678.57
754.327	8796.99
754.666	8843.09
755.004	8987.26
755.342	9178.45
755.679	9213.92
756.017	9281.04
756.355	9415.95
756.693	9607.59
757.031	9698.43
757.368	9799.45
757.706	9945.66
758.044	9956.28
758.381	10204.63
758.719	10333.67
759.056	10510.84
759.394	10570.72
759.731	10732.53
760.068	10819.53
760.405	10972.07
760.743	11089.58
761.08	11298.39
761.417	11369.57
761.754	11604.37
762.091	11722.56
762.428	11864.02
762.765	11969.33
763.102	12167.52
763.438	12270.34
763.775	12469.43
764.112	12666.71
764.449	12836.43
764.785	12934.05
765.122	12961.4
765.458	13151.9
765.795	13328.62
766.131	13558.67
766.467	13566.13
766.804	13727.48
767.14	13765.67
767.476	13990.97
767.812	14051.09
768.148	14247.24
768.485	14313.9
768.821	14328.37
769.157	14600.22
769.492	14627.57
769.828	14850.16
770.164	14735.59
770.5	14934.9
770.836	15192.75
771.171	15209.7
771.507	15284.73
771.842	15370.15
772.178	15443.59
772.513	15529.46
772.849	15694.43
773.184	15701.66
773.519	15791.38
773.855	15881.77
774.19	15879.51
774.525	16065.5
774.86	16084.48
775.195	16128.77
775.53	16249.22
775.865	16156.11
776.2	16193.63
776.535	16223.68
776.87	16333.51
777.205	16319.73
777.539	16434.07
777.874	16453.28
778.209	16462.32
778.543	16556.78
778.878	16490.8
779.212	16500.51
779.547	16612.15
779.881	16644.24
780.215	16674.07
780.55	16745.7
780.884	16717.46
781.218	16752.71
781.552	16736.89
781.886	16808.3
782.22	16752.71
782.554	16694.41
782.888	16618.02
783.222	16583.67
783.556	16664.12
783.889	16678.59
784.223	16578.7
784.557	16687.85
784.89	16731.01
785.224	16631.36
785.557	16531.7
785.891	16633.84
786.224	16571.7
786.558	16631.13
786.891	16460.74
787.224	16462.55
787.557	16523.34
787.891	16533.05
788.224	16516.56
788.557	16528.31
788.89	16528.99
789.223	16644.92
789.556	16511.59
789.888	16470.91
790.221	16366.96
790.554	16227.75
790.887	16371.93
791.219	16276.56
791.552	16319.5
791.884	16204.93
792.217	16218.71
792.549	16192.72
792.882	16140.3
793.214	16116.12
793.546	16194.76
793.879	16051.94
794.211	16043.35
794.543	16098.26
794.875	16048.09
795.207	16094.87
795.539	15974.88
795.871	16035.67
796.203	15926.29
796.535	15911.83
796.867	15879.29
797.198	15820.76
797.53	15871.6
797.862	15714.77
798.193	15854.88
798.525	15713.87
798.856	15734.66
799.188	15551.84
799.519	15538.5
799.85	15556.36
800.182	15517.26
800.513	15494.66
800.844	15392.29
801.175	15403.14
801.506	15437.26
801.837	15373.31
802.168	15301.9
802.499	15317.94
802.83	15204.05
803.161	15136.48
803.491	15184.61
803.822	15184.84
804.153	15187.78
804.483	14960.67
804.814	14980.78
805.145	14987.56
805.475	14984.17
805.805	14969.93
806.136	14978.97
806.466	14978.74
806.796	14829.82
807.126	14720.22
807.457	14738.75
807.787	14811.29
808.117	14730.39
808.447	14616.72
808.777	14718.19
809.107	14618.75
809.436	14577.17
809.766	14635.48
810.096	14541.24
810.426	14495.37
810.755	14494.92
811.085	14474.35
811.414	14406.56
811.744	14331.98
812.073	14372.21
812.403	14349.83
812.732	14313.23
813.061	14310.06
813.39	14169.95
813.719	14216.96
814.049	14232.78
814.378	14110.52
814.707	14089.5
815.036	14136.96
815.365	14067.13
815.693	13985.1
816.022	13958.88
816.351	14014.93
816.68	13855.16
817.008	13873.01
817.337	13876.4
817.665	13812.9
817.994	13811.54
818.322	13871.2
818.651	13726.8
818.979	13616.52
819.307	13848.15
819.636	13707.82
819.964	13654.03
820.292	13740.36
820.62	13552.57
820.948	13608.16
821.276	13686.35
821.604	13649.06
821.932	13634.83
822.259	13624.43
822.587	13567.48
822.915	13660.14
823.243	13716.63
823.57	13668.5
823.898	13720.02
824.225	13573.81
824.553	13642.73
824.88	13607.03
825.207	13758.66
825.535	13559.12
825.862	13677.54
826.189	13586.69
826.516	13773.58
826.843	13745.56
827.17	13752.34
827.497	13742.17
827.824	13727.7
828.151	13779.23
828.478	13654.94
828.805	13747.59
829.131	13701.72
829.458	13695.39
829.785	13635.05
830.111	13642.06
830.438	13785.33
830.764	13674.82
831.09	13769.28
831.417	13590.53
831.743	13670.08
832.069	13730.19
832.395	13579.23
832.722	13671.89
833.048	13625.79
833.374	13697.87
833.7	13607.03
834.026	13533.36
834.351	13672.56
834.677	13572.23
835.003	13583.98
835.329	13517.09
835.654	13515.05
835.98	13412.91
836.306	13553.7
836.631	13421.27
836.956	13488.84
837.282	13508.73
837.607	13340.14
837.932	13379.92
838.258	13393.7
838.583	13393.02
838.908	13260.37
839.233	13294.72
839.558	13313.03
839.883	13191.9
840.208	13222.63
840.533	13263.54
840.858	13117.55
841.182	13262.63
841.507	13217.21
841.832	13088.4
842.156	13106.93
842.481	13010.21
842.805	13144.22
843.13	13012.69
843.454	12993.49
843.778	13034.84
844.103	12898.57
844.427	12897.44
844.751	12975.63
845.075	12870.1
845.399	12796.66
845.723	12797.33
846.047	12813.83
846.371	12718.24
846.695	12659.03
847.019	12555.76
847.343	12614.96
847.666	12379.94
847.99	12437.34
848.313	12400.28
848.637	12345.14
848.96	12257.46
849.284	12250.68
849.607	12127.52
849.931	12179.27
850.254	12087.52
850.577	12040.29
850.9	11968.88
851.223	11880.07
851.546	11852.5
851.869	11824.25
852.192	11874.42
852.515	11812.95
852.838	11750.81
853.161	11735.89
853.483	11644.14
853.806	11547.65
854.129	11604.14
854.451	11544.71
854.774	11530.7
855.096	11412.51
855.419	11433.75
855.741	11435.11
856.063	11260.65
856.385	11260.2
856.708	11306.52
857.03	11185.17
857.352	11211.84
857.674	11205.96
857.996	11112.63
858.318	11061.79
858.64	11109.02
858.961	10991.28
859.283	11038.06
859.605	11014.1
859.926	11017.27
860.248	10962.58
860.57	10917.38
860.891	10914.67
861.212	10836.03
861.534	10805.07
861.855	10794
862.176	10759.42
862.498	10714.45
862.819	10747.9
863.14	10757.61
863.461	10702.92
863.782	10692.3
864.103	10651.4
864.424	10647.33
864.745	10676.48
865.065	10566.21
865.386	10620.67
865.707	10529.6
866.027	10578.86
866.348	10546.32
866.668	10552.87
866.989	10483.5
867.309	10396.94
867.63	10480.11
867.95	10413.67
868.27	10365.31
868.59	10406.66
868.91	10359.88
869.23	10356.95
869.55	10340.67
869.87	10382.03
870.19	10348.13
870.51	10326.66
870.83	10274.01
871.15	10202.6
871.469	10197.63
871.789	10268.13
872.109	10292.77
872.428	10176.38
872.748	10248.25
873.067	10254.12
873.386	10193.33
873.706	10166.67
874.025	10132.09
874.344	10085.31
874.663	10085.99
874.982	10133.67
875.301	10069.72
875.62	10018.42
875.939	9994.69
876.258	10017.52
876.577	9976.62
876.896	10004.64
877.214	9944.75
877.533	9952.21
877.852	9989.27
878.17	9927.35
878.489	9935.71
878.807	9846.45
879.125	9899.56
879.444	9857.75
879.762	9832.89
880.08	9827.24
880.398	9832.21
880.716	9806
881.034	9764.64
881.352	9764.19
881.67	9656.85
881.988	9663.18
882.306	9704.76
882.624	9697.98
882.941	9615.72
883.259	9674.93
883.577	9558.77
883.894	9593.35
884.212	9503.86
884.529	9551.32
884.846	9535.95
885.164	9462.05
885.481	9420.47
885.798	9485.33
886.115	9365.78
886.432	9417.76
886.75	9388.16
887.067	9361.04
887.383	9272.23
887.7	9317.42
888.017	9241.49
888.334	9285.33
888.651	9218.22
888.967	9221.61
889.284	9186.35
889.6	9101.61
889.917	9041.5
890.233	9116.98
890.55	9005.34
890.866	9039.01
891.182	8968.06
891.498	8985.23
891.815	8947.94
892.131	8981.61
892.447	8847.83
892.763	8865.68
893.079	8848.06
893.395	8808.74
893.71	8814.16
894.026	8762.41
894.342	8810.55
894.657	8729.87
894.973	8713.6
895.289	8693.94
895.604	8691
895.92	8561.51
896.235	8533.94
896.55	8554.28
896.865	8510.67
897.181	8501.63
897.496	8518.12
897.811	8448.75
898.126	8412.14
898.441	8347.96
898.756	8338.02
899.071	8314.29
899.386	8281.75
899.7	8167.85
900.015	8160.39
900.33	8131.92
900.644	8149.77
900.959	8158.58
901.273	8080.17
901.588	8058.25
901.902	7954.07
902.216	8033.62
902.531	7918.82
902.845	7917.69
903.159	7882.21
903.473	7836.33
903.787	7841.76
904.101	7854.41
904.415	7811.7
904.729	7738.48
905.042	7653.51
905.356	7714.75
905.67	7720.86
905.984	7692.16
906.297	7605.83
906.611	7623.91
906.924	7580.07
907.237	7569.22
907.551	7476.34
907.864	7425.27
908.177	7437.7
908.491	7397.02
908.804	7327.87
909.117	7361.54
909.43	7317.48
909.743	7255.56
910.056	7267.08
910.368	7264.6
910.681	7186.18
910.994	7176.01
911.307	7085.17
911.619	7109.12
911.932	7134.43
912.244	7043.59
912.557	7029.35
912.869	6997.94
913.181	6982.8
913.494	6955
913.806	6932.63
914.118	6830.48
914.43	6876.81
914.742	6832.52
915.054	6757.27
915.366	6736.7
915.678	6699.19
915.99	6703.71
916.302	6677.72
916.613	6618.06
916.925	6639.3
917.236	6616.25
917.548	6602.92
917.859	6526.09
918.171	6533.09
918.482	6481.79
918.794	6484.28
919.105	6464.39
919.416	6398.63
919.727	6411.96
920.038	6395.92
920.349	6324.06
920.66	6327.22
920.971	6368.12
921.282	6317.5
921.593	6259.43
921.903	6225.3
922.214	6185.53
922.525	6157.51
922.835	6162.25
923.146	6055.59
923.456	6129.71
923.767	6070.05
924.077	6017.85
924.387	6060.56
924.697	5991.86
925.008	5991.64
925.318	5936.5
925.628	5928.14
925.938	5898.53
926.248	5856.5
926.558	5847.46
926.867	5853.56
927.177	5791.42
927.487	5809.27
927.796	5721.13
928.106	5732.89
928.416	5719.55
928.725	5680.68
929.034	5651.76
929.344	5717.07
929.653	5576.05
929.962	5588.26
930.271	5538.54
930.581	5564.53
930.89	5534.93
931.199	5501.25
931.508	5481.82
931.817	5468.71
932.125	5445.44
932.434	5372.9
932.743	5346.23
933.051	5321.37
933.36	5341.48
933.669	5311.2
933.977	5324.08
934.286	5261.94
934.594	5314.14
934.902	5179.23
935.21	5183.3
935.519	5178.78
935.827	5176.06
936.135	5132.22
936.443	5154.82
936.751	5107.37
937.059	5073.24
937.367	5097.87
937.674	5025.33
937.982	5077.08
938.29	5004.54
938.597	4991.21
938.905	4936.52
939.213	4903.3
939.52	4901.5
939.827	4894.49
940.135	4883.64
940.442	4836.19
940.749	4851.78
941.056	4793.48
941.363	4747.6
941.67	4741.73
941.977	4754.61
942.284	4765.23
942.591	4699.01
942.898	4695.4
943.205	4677.77
943.511	4618.11
943.818	4645.91
944.125	4599.58
944.431	4607.94
944.738	4552.8
945.044	4565.91
945.35	4501.28
945.657	4486.59
945.963	4514.16
946.269	4495.86
946.575	4469.42
946.881	4412.69
947.187	4390.1
947.493	4391.45
947.799	4394.62
948.105	4338.35
948.41	4322.75
948.716	4305.8
949.022	4290.44
949.327	4306.93
949.633	4264.68
949.938	4261.74
950.244	4223.55
950.549	4211.12
950.854	4177.9
951.16	4193.04
951.465	4140.84
951.77	4102.65
952.075	4141.74
952.38	4101.74
952.685	4074.17
952.99	4049.09
953.294	4053.61
953.599	4029.88
953.904	3997.56
954.209	4010.45
954.513	3995.76
954.818	3959.37
955.122	3950.56
955.426	3970.67
955.731	3968.64
956.035	3885.48
956.339	3888.64
956.643	3890.22
956.948	3867.17
957.252	3847.74
957.556	3832.37
957.86	3763.67
958.163	3778.14
958.467	3785.37
958.771	3783.11
959.075	3762.77
959.378	3701.53
959.682	3726.39
959.985	3690.45
960.289	3660.4
960.592	3645.48
960.896	3679.15
961.199	3608.65
961.502	3590.57
961.805	3593.28
962.108	3566.16
962.411	3558.93
962.714	3551.47
963.017	3516.9
963.32	3548.08
963.623	3484.36
963.926	3508.31
964.228	3526.16
964.531	3453.85
964.833	3481.42
965.136	3400.97
965.438	3415.88
965.741	3385.6
966.043	3392.61
966.345	3344.7
966.648	3338.6
966.95	3348.09
967.252	3334.98
967.554	3311.93
967.856	3323.01
968.158	3271.93
968.46	3318.26
968.761	3309.22
969.063	3263.12
969.365	3222.67
969.666	3223.8
969.968	3235.55
970.269	3196
970.571	3228.77
970.872	3192.39
971.174	3135.89
971.475	3142.67
971.776	3146.97
972.077	3112.16
972.378	3094.99
972.679	3097.02
972.98	3085.27
973.281	3071.49
973.582	3043.69
973.883	3043.24
974.183	3035.78
974.484	3033.3
974.785	3001.21
975.085	3007.76
975.386	2977.25
975.686	2965.95
975.986	2952.39
976.287	2921.43
976.587	2881.66
976.887	2864.94
977.187	2863.58
977.487	2874.2
977.787	2852.28
978.087	2822.23
978.387	2841.21
978.687	2819.06
978.987	2812.28
979.286	2785.62
979.586	2750.37
979.885	2737.94
980.185	2740.65
980.484	2743.81
980.784	2748.33
981.083	2710.82
981.382	2693.64
981.682	2742.46
981.981	2727.09
982.28	2697.26
982.579	2643.25
982.878	2643.25
983.177	2644.61
983.475	2621.56
983.774	2594.21
984.073	2630.59
984.372	2623.59
984.67	2613.87
984.969	2588.79
985.267	2555.12
985.566	2576.13
985.864	2509.24
986.162	2503.37
986.461	2496.36
986.759	2502.24
987.057	2480.54
987.355	2443.25
987.653	2477.15
987.951	2437.38
988.249	2462.69
988.547	2441.45
988.844	2449.58
989.142	2437.61
989.44	2413.65
989.737	2373.88
990.035	2390.83
990.332	2340.43
990.63	2348.79
990.927	2358.51
991.224	2336.82
991.521	2344.5
991.819	2356.25
992.116	2291.62
992.413	2333.88
992.71	2311.06
993.006	2273.99
993.303	2277.61
993.6	2258.63
993.897	2260.43
994.193	2253.66
994.49	2199.87
994.787	2181.57
995.083	2188.8
995.379	2198.29
995.676	2163.26
995.972	2165.97
996.268	2126.2
996.565	2115.35
996.861	2151.74
997.157	2144.28
997.453	2122.13
997.749	2124.17
998.044	2084.17
998.34	2082.59
998.636	2059.08
998.932	2048.46
999.227	2053.66
999.523	2031.97
999.818	2019.54
1000.114	2010.72
1000.409	1994.91
1000.704	2000.78
1001	1979.09
1001.295	1977.05
1001.59	1967.11
1001.885	1968.47
1002.18	1953.1
1002.475	1921.01
1002.77	1935.47
1003.065	1909.94
1003.359	1882.59
1003.654	1899.09
1003.949	1869.71
1004.243	1857.51
1004.538	1854.34
1004.832	1841.46
1005.127	1804.18
1005.421	1823.16
1005.715	1830.84
1006.009	1811.86
1006.304	1787.45
1006.598	1735.93
1006.892	1744.52
1007.186	1766.44
1007.48	1746.78
1007.773	1769.6
1008.067	1747.91
1008.361	1739.32
1008.655	1697.51
1008.948	1705.65
1009.242	1696.16
1009.535	1667.91
1009.829	1685.76
1010.122	1669.26
1010.415	1685.31
1010.708	1676.95
1011.001	1636.5
1011.295	1638.98
1011.588	1621.13
1011.881	1630.17
1012.173	1582.49
1012.466	1622.49
1012.759	1587.23
1013.052	1553.33
1013.344	1579.1
1013.637	1582.94
1013.93	1541.58
1014.222	1530.51
1014.514	1532.54
1014.807	1543.62
1015.099	1514.24
1015.391	1490.74
1015.683	1499.32
1015.976	1516.5
1016.268	1490.51
1016.56	1478.99
1016.851	1490.29
1017.143	1461.36
1017.435	1425.2
1017.727	1436.05
1018.018	1432.89
1018.31	1416.84
1018.602	1420.91
1018.893	1410.06
1019.185	1383.85
1019.476	1353.79
1019.767	1378.88
1020.058	1385.88
1020.35	1346.33
1020.641	1352.89
1020.932	1342.49
1021.223	1322.61
1021.514	1325.09
1021.804	1315.38
1022.095	1283.06
1022.386	1294.81
1022.677	1298.2
1022.967	1273.12
1023.258	1286.68
1023.548	1275.15
1023.839	1213.46
1024.129	1240.12
1024.419	1252.78
1024.709	1216.85
1025	1231.76
1025.29	1214.59
1025.58	1208.49
1025.87	1184.31
1026.16	1201.25
1026.449	1188.82
1026.739	1174.81
1027.029	1168.49
1027.319	1184.53
1027.608	1171.2
1027.898	1133.68
1028.187	1141.14
1028.477	1167.13
1028.766	1150.18
1029.055	1106.79
1029.344	1126.68
1029.634	1103.18
1029.923	1095.04
1030.212	1096.4
1030.501	1099.56
1030.79	1083.06
1031.078	1083.97
1031.367	1077.64
1031.656	1067.7
1031.945	1031.99
1032.233	1058.43
1032.522	1024.76
1032.81	1035.16
1033.099	1032.22
1033.387	1013.91
1033.675	1009.39
1033.963	997.87
1034.251	995.61
1034.54	986.12
1034.828	1003.29
1035.116	968.27
1035.403	963.52
1035.691	948.83
1035.979	965.78
1036.267	932.33
1036.554	947.7
1036.842	925.55
1037.129	961.49
1037.417	918.55
1037.704	953.35
1037.992	931.43
1038.279	920.58
1038.566	916.74
1038.853	916.74
1039.14	916.74
