Data from hue_30_FLMS001491_40.txt Node
Date: Mon Feb 06 15:05:12 GMT 2017
User: dcchb
Spectrometer: FLMS00149
Trigger mode: 0
Integration Time (sec): 2.000000E-2
Scans to average: 10
Electric dark correction enabled: true
Nonlinearity correction enabled: false
Boxcar width: 0
XAxis mode: Wavelengths
Number of Pixels in Spectrum: 2048
>>>>>Begin Spectral Data<<<<<
341.393	-19.24
341.776	-19.24
342.16	-19.24
342.543	-83.87
342.927	-64.43
343.31	-58.11
343.693	-61.27
344.077	-50.87
344.46	-64.89
344.843	-33.47
345.226	-33.93
345.61	-42.74
345.993	-18.33
346.376	-14.04
346.759	-1.16
347.142	28.9
347.525	46.3
347.908	59.86
348.291	78.61
348.674	78.16
349.057	86.98
349.44	131.72
349.823	145.96
350.206	161.78
350.588	182.34
350.971	206.97
351.354	211.49
351.737	241.77
352.119	253.07
352.502	289.68
352.884	264.82
353.267	259.17
353.65	297.14
354.032	313.64
354.414	290.81
354.797	310.47
355.179	314.54
355.562	304.82
355.944	340.08
356.326	343.92
356.709	360.19
357.091	352.28
357.473	352.05
357.855	372.17
358.238	339.4
358.62	321.09
359.002	331.26
359.384	339.85
359.766	328.55
360.148	329.68
360.53	345.27
360.912	347.08
361.294	321.77
361.676	328.32
362.057	330.58
362.439	321.32
362.821	332.62
363.203	316.57
363.584	306.86
363.966	338.49
364.348	340.98
364.729	319.96
365.111	316.57
365.493	334.43
365.874	326.29
366.256	315.22
366.637	324.26
367.019	321.09
367.4	310.25
367.781	320.87
368.163	303.92
368.544	302.11
368.925	302.79
369.306	319.96
369.688	297.14
370.069	297.59
370.45	317.93
370.831	324.03
371.212	306.63
371.593	316.8
371.974	321.77
372.355	313.18
372.736	336.23
373.117	308.66
373.498	323.81
373.879	314.31
374.26	302.34
374.641	309.12
375.021	320.64
375.402	299.85
375.783	292.39
376.163	336.46
376.544	316.8
376.925	313.18
377.305	329
377.686	312.96
378.066	303.24
378.447	325.16
378.827	345.95
379.208	328.78
379.588	326.74
379.968	322
380.349	333.52
380.729	327.87
381.109	338.04
381.489	333.52
381.87	344.14
382.25	322
382.63	342.11
383.01	331.04
383.39	357.02
383.77	331.49
384.15	352.05
384.53	346.18
384.91	334.2
385.29	354.31
385.67	347.76
386.049	354.54
386.429	364.71
386.809	347.76
387.189	342.11
387.568	361.77
387.948	344.6
388.328	349.79
388.707	334.2
389.087	354.54
389.466	363.58
389.846	331.26
390.225	353.41
390.605	353.63
390.984	379.62
391.363	364.26
391.743	351.37
392.122	355.44
392.501	391.6
392.881	387.76
393.26	371.49
393.639	360.19
394.018	367.65
394.397	355.67
394.776	370.13
395.155	379.62
395.534	370.36
395.913	372.62
396.292	374.65
396.671	391.83
397.05	383.69
397.429	380.53
397.808	386.18
398.186	388.44
398.565	388.44
398.944	380.07
399.323	390.02
399.701	400.87
400.08	387.31
400.458	413.29
400.837	382.11
401.215	400.19
401.594	387.98
401.972	390.7
402.351	396.57
402.729	402.67
403.107	398.15
403.486	399.28
403.864	406.51
404.242	393.86
404.62	404.03
404.999	402.45
405.377	411.49
405.755	424.37
406.133	422.79
406.511	424.14
406.889	384.37
407.267	424.59
407.645	428.21
408.023	421.88
408.401	423.01
408.779	415.1
409.156	414.2
409.534	418.72
409.912	427.98
410.29	440.19
410.667	435.67
411.045	409.23
411.422	437.25
411.8	448.32
412.178	448.1
412.555	449.45
412.933	451.26
413.31	451.94
413.687	441.54
414.065	457.36
414.442	460.07
414.819	445.16
415.197	491.03
415.574	483.57
415.951	464.14
416.328	474.99
416.705	451.71
417.082	464.59
417.46	460.07
417.837	474.76
418.214	485.16
418.591	469.34
418.967	498.72
419.344	500.52
419.721	491.94
420.098	493.07
420.475	541.88
420.852	513.86
421.228	509.11
421.605	513.63
421.982	514.08
422.358	517.7
422.735	521.99
423.111	535.1
423.488	522.67
423.864	517.92
424.241	528.32
424.617	533.52
424.994	555.21
425.37	527.42
425.746	534.19
426.123	525.61
426.499	572.39
426.875	559.28
427.251	546.4
427.627	558.6
428.003	556.79
428.379	572.39
428.756	561.99
429.132	565.15
429.507	573.29
429.883	547.08
430.259	591.82
430.635	599.28
431.011	587.3
431.387	602.22
431.763	609.22
432.138	623.68
432.514	624.14
432.89	630.92
433.265	630.24
433.641	612.84
434.016	618.03
434.392	647.86
434.767	645.15
435.143	641.54
435.518	665.26
435.894	642.44
436.269	648.32
436.644	675.43
437.02	675.89
437.395	670.91
437.77	679.73
438.145	657.13
438.52	682.44
438.895	678.15
439.271	703.23
439.646	687.86
440.021	718.14
440.395	681.31
440.77	704.36
441.145	713.17
441.52	706.62
441.895	727.18
442.27	727.41
442.645	713.63
443.019	739.16
443.394	722.21
443.769	752.72
444.143	749.33
444.518	765.6
444.892	764.02
445.267	726.28
445.641	752.95
446.016	747.75
446.39	756.34
446.764	773.51
447.139	750.46
447.513	762.89
447.887	785.49
448.262	754.53
448.636	798.37
449.01	776.67
449.384	819.84
449.758	807.18
450.132	789.78
450.506	803.79
450.88	816.45
451.254	811.48
451.628	804.7
452.002	833.17
452.376	836.79
452.75	843.79
453.123	862.32
453.497	851.47
453.871	841.98
454.244	859.61
454.618	880.17
454.992	890.57
455.365	918.82
455.739	921.3
456.112	909.1
456.486	919.72
456.859	913.62
457.232	905.94
457.606	931.25
457.979	953.84
458.352	960.85
458.725	959.27
459.099	978.7
459.472	997.91
459.845	967.63
460.218	1002.43
460.591	1026.39
460.964	1001.3
461.337	1005.37
461.71	1051.92
462.083	1086.95
462.456	1068.42
462.829	1076.33
463.201	1069.55
463.574	1092.37
463.947	1087.85
464.32	1091.92
464.692	1150.68
465.065	1138.02
465.438	1157.91
465.81	1150.9
466.183	1160.17
466.555	1187.96
466.928	1213.5
467.3	1212.14
467.672	1240.62
468.045	1248.98
468.417	1270.67
468.789	1283.55
469.161	1309.54
469.534	1286.04
469.906	1339.37
470.278	1332.59
470.65	1340.28
471.022	1343.21
471.394	1387.28
471.766	1421.4
472.138	1407.62
472.51	1470.44
472.882	1517.67
473.253	1501.85
473.625	1524.9
473.997	1569.42
474.369	1588.18
474.74	1591.57
475.112	1649.42
475.484	1671.79
475.855	1683.32
476.227	1751.11
476.598	1766.93
476.97	1760.83
477.341	1812.81
477.713	1850.77
478.084	1874.95
478.455	1919.92
478.827	1923.54
479.198	2010.99
479.569	2019.35
479.94	2107.26
480.311	2118.11
480.682	2161.72
481.053	2197.43
481.424	2248.73
481.795	2274.04
482.166	2309.29
482.537	2349.29
482.908	2438.55
483.279	2459.12
483.65	2470.87
484.021	2548.15
484.391	2618.66
484.762	2665.89
485.133	2662.73
485.503	2707.92
485.874	2783.85
486.244	2853
486.615	2881.25
486.985	2964.41
487.356	3001.47
487.726	3094.13
488.097	3138.19
488.467	3126.22
488.837	3240.56
489.207	3305.87
489.578	3333.67
489.948	3405.76
490.318	3521.46
490.688	3478.52
491.058	3561.46
491.428	3575.24
491.798	3669.48
492.168	3758.29
492.538	3810.04
492.908	3851.4
493.278	3898.4
493.648	3913.77
494.017	3998.51
494.387	4063.59
494.757	4091.84
495.126	4162.8
495.496	4206.64
495.866	4205.51
496.235	4263.14
496.605	4287.77
496.974	4382.23
497.344	4409.8
497.713	4454.09
498.082	4504.49
498.452	4563.47
498.821	4581.32
499.19	4587.65
499.559	4642.56
499.928	4704.25
500.298	4752.62
500.667	4802.33
501.036	4835.78
501.405	4872.16
501.774	4867.87
502.143	4934.31
502.512	4998.03
502.88	5006.39
503.249	5035.09
503.618	5092.95
503.987	5101.98
504.356	5091.82
504.724	5222.66
505.093	5230.12
505.462	5280.96
505.83	5270.79
506.199	5362.77
506.567	5403.22
506.936	5366.38
507.304	5472.37
507.672	5480.51
508.041	5555.53
508.409	5558.7
508.777	5550.79
509.145	5665.81
509.514	5642.54
509.882	5703.78
510.25	5704.68
510.618	5695.42
510.986	5750.1
511.354	5826.71
511.722	5903.55
512.09	5914.17
512.458	5949.87
512.826	5915.75
513.193	5942.64
513.561	5982.87
513.929	5970.66
514.297	6083.65
514.664	6104.9
515.032	6096.31
515.4	6101.28
515.767	6261.95
516.135	6235.06
516.502	6216.31
516.869	6255.85
517.237	6280.48
517.604	6311.44
517.972	6304.66
518.339	6342.86
518.706	6386.24
519.073	6375.17
519.44	6443.64
519.808	6517.09
520.175	6549.4
520.542	6569.52
520.909	6562.51
521.276	6544.43
521.643	6652.9
522.009	6683.41
522.376	6720.7
522.743	6779.91
523.11	6855.84
523.477	6877.98
523.843	6931.09
524.21	6979.68
524.577	6955.95
524.943	7026.91
525.31	7013.35
525.676	7060.35
526.043	7155.94
526.409	7169.95
526.776	7251.08
527.142	7235.04
527.508	7258.09
527.874	7306.22
528.241	7395.71
528.607	7383.96
528.973	7435.03
529.339	7417.18
529.705	7530.4
530.071	7562.94
530.437	7614.69
530.803	7654.91
531.169	7685.42
531.535	7677.96
531.901	7688.58
532.267	7760.22
532.632	7795.25
532.998	7787.34
533.364	7900.55
533.73	7948.24
534.095	7954.79
534.461	7973.32
534.826	8092.87
535.192	8084.28
535.557	8112.3
535.923	8069.36
536.288	8159.98
536.653	8173.99
537.019	8174.22
537.384	8211.96
537.749	8209.02
538.114	8264.16
538.479	8303.93
538.845	8390.03
539.21	8345.06
539.575	8460.31
539.94	8368.34
540.305	8468.68
540.67	8506.19
541.034	8527.43
541.399	8649.01
541.764	8602.46
542.129	8711.38
542.494	8709.35
542.858	8713.87
543.223	8711.83
543.587	8853.75
543.952	8793.86
544.316	8792.73
544.681	8853.75
545.045	8872.96
545.41	8934.88
545.774	8955.89
546.138	9024.37
546.503	8976.68
546.867	9006.51
547.231	9180.75
547.595	9124.25
547.959	9139.17
548.324	9239.73
548.688	9205.38
549.052	9243.57
549.416	9233.63
549.779	9319.95
550.143	9393.62
550.507	9404.24
550.871	9434.07
551.235	9388.65
551.599	9540.74
551.962	9533.73
552.326	9567.18
552.689	9583
553.053	9534.18
553.417	9566.5
553.78	9733.05
554.143	9670.23
554.507	9784.8
554.87	9738.47
555.234	9839.71
555.597	9719.72
555.96	9840.84
556.323	9884.68
556.686	9848.53
557.05	10003.78
557.413	9972.82
557.776	9962.87
558.139	10054.4
558.502	10036.09
558.865	10109.76
559.228	10154.73
559.59	10119.93
559.953	10121.51
560.316	10230.21
560.679	10290.55
561.041	10385.69
561.404	10422.97
561.767	10395.63
562.129	10397.44
562.492	10575.06
562.854	10509.53
563.217	10578.22
563.579	10569.64
563.941	10655.28
564.304	10634.04
564.666	10665.91
565.028	10772.34
565.39	10749.52
565.753	10799.24
566.115	10839.46
566.477	10873.81
566.839	10882.4
567.201	11011.21
567.563	10992.9
567.925	11146.35
568.287	11098.89
568.648	11038.55
569.01	11153.35
569.372	11192.67
569.734	11173.24
570.095	11340.69
570.457	11402.38
570.819	11380.46
571.18	11355.61
571.542	11442.83
571.903	11505.88
572.265	11552.44
572.626	11634.92
572.987	11636.28
573.349	11721.02
573.71	11831.07
574.071	11915.36
574.432	11897.06
574.794	12009.6
575.155	12042.59
575.516	12068.58
575.877	12166.88
576.238	12215.24
576.599	12339.08
576.96	12406.65
577.32	12516.93
577.681	12570.04
578.042	12703.59
578.403	12739.52
578.763	12826.08
579.124	12894.1
579.485	13098.16
579.845	13215.22
580.206	13255.44
580.566	13363.69
580.927	13494.53
581.287	13646.17
581.648	13757.35
582.008	13986.72
582.368	14038.25
582.728	14258.13
583.089	14388.52
583.449	14491.12
583.809	14717.32
584.169	14881.39
584.529	14989.63
584.889	15324.54
585.249	15468.27
585.609	15595.04
585.969	15769.05
586.329	15927.91
586.688	16192.77
587.048	16355.47
587.408	16581
587.768	16847.44
588.127	16979.19
588.487	17102.12
588.846	17565.16
589.206	17499.4
589.565	17813.29
589.925	18030.68
590.284	18307.96
590.643	18662.98
591.003	18874.5
591.362	19048.06
591.721	19234.72
592.08	19522.4
592.44	19793.8
592.799	20081.03
593.158	20321.02
593.517	20518.53
593.876	20752.19
594.235	20999.65
594.593	21310.37
594.952	21541.33
595.311	21804.6
595.67	22071.93
596.029	22403
596.387	22728.41
596.746	22932.7
597.104	22979.71
597.463	23278.23
597.822	23518.45
598.18	23741.72
598.538	24080.24
598.897	24411.08
599.255	24363.85
599.613	24999.54
599.972	24999.31
600.33	25387.33
600.688	25411.06
601.046	25750.26
601.404	26087.65
601.762	26245.16
602.12	26436.56
602.478	26717.01
602.836	26913.61
603.194	27048.75
603.552	27314.96
603.91	27472.47
604.268	27827.94
604.625	27940.25
604.983	28403.29
605.341	28352.45
605.698	28574.14
606.056	28935.71
606.413	28923.28
606.771	29243.5
607.128	29513.09
607.485	29554.45
607.843	29649.14
608.2	30011.16
608.557	30258.39
608.914	30304.49
609.272	30601.43
609.629	30760.97
609.986	31055.2
610.343	31052.49
610.7	31437.34
611.057	31572.25
611.414	31693.6
611.771	31841.62
612.127	32047.04
612.484	32243.87
612.841	32421.04
613.198	32463.98
613.554	32542.17
613.911	32695.61
614.267	32913.91
614.624	32989.84
614.98	33135.6
615.337	33400.9
615.693	33424.86
616.05	33537.62
616.406	33933.32
616.762	33788.01
617.118	33862.13
617.475	34081.79
617.831	34202.46
618.187	34351.16
618.543	34536.24
618.899	34682
619.255	34768.55
619.611	34770.81
619.967	34985.04
620.323	35046.96
620.678	34997.92
621.034	35056.9
621.39	35069.33
621.746	35145.04
622.101	35545.03
622.457	35465.93
622.812	35533.27
623.168	35718.58
623.523	35859.14
623.879	35831.12
624.234	35749.99
624.589	35888.07
624.945	36006.26
625.3	36062.98
625.655	36219.13
626.01	36247.61
626.365	36359.92
626.72	36306.81
627.075	36284.44
627.43	36410.31
627.785	36421.39
628.14	36496.19
628.495	36475.62
628.85	36509.75
629.205	36421.84
629.559	36802.39
629.914	36631.32
630.269	36708.84
630.623	36566.69
630.978	36539.58
631.332	36873.58
631.687	36735.73
632.041	36623.87
632.396	36787.25
632.75	36643.3
633.104	36882.84
633.459	36515.4
633.813	36593.36
634.167	36583.42
634.521	36687.82
634.875	36754.94
635.229	36700.7
635.583	36429.07
635.937	36676.3
636.291	36641.04
636.645	36654.6
636.999	36668.61
637.352	36738.44
637.706	36588.84
638.06	36750.19
638.413	36658.67
638.767	36627.71
639.121	36670.87
639.474	36385.91
639.828	36544.77
640.181	36473.59
640.534	36569.63
640.888	36540.03
641.241	36377.09
641.594	36436.3
641.947	36562.85
642.301	36468.84
642.654	36528.05
643.007	36424.55
643.36	36466.13
643.713	36384.1
644.066	36615.51
644.419	36330.32
644.771	36045.58
645.124	35784.12
645.477	35679.26
645.83	35429.32
646.182	35394.97
646.535	35157.01
646.888	35356.56
647.24	35073.17
647.593	35460.51
647.945	35231.36
648.298	35157.69
648.65	35140.52
649.002	34976.91
649.355	35158.37
649.707	35022.1
650.059	35273.17
650.411	35789.77
650.763	35838.58
651.115	36130.55
651.467	36075.18
651.819	36068.4
652.171	35904.79
652.523	35824.11
652.875	36071.11
653.227	35755.64
653.578	35982.98
653.93	35903.66
654.282	35616.89
654.633	35738.69
654.985	35735.08
655.337	35653.5
655.688	35818.24
656.039	35806.49
656.391	35478.36
656.742	35596.78
657.094	35560.84
657.445	35873.38
657.796	35604.69
658.147	35504.12
658.498	35525.59
658.849	35528.08
659.2	35554.97
659.551	35512.94
659.902	35628.64
660.253	35663.44
660.604	35566.95
660.955	35459.38
661.306	35568.98
661.656	35506.16
662.007	35578.25
662.358	35499.38
662.708	35558.36
663.059	35490.11
663.409	35329.66
663.76	35594.97
664.11	35522.88
664.461	35481.52
664.811	35566.72
665.161	35521.75
665.511	35435.2
665.862	35608.3
666.212	35578.92
666.562	35509.77
666.912	35378.25
667.262	35453.95
667.612	35479.04
667.962	35457.57
668.312	35324.47
668.662	35581.18
669.011	35354.52
669.361	35423.9
669.711	35209.44
670.06	35198.14
670.41	35308.65
670.76	35149.78
671.109	35276.56
671.459	35257.35
671.808	35210.12
672.157	35265.03
672.507	35022.1
672.856	35062.33
673.205	35114.3
673.554	35229.78
673.904	35150.01
674.253	35258.25
674.602	35077.47
674.951	34682.68
675.3	34597.03
675.649	35134.19
675.998	35098.48
676.346	34957.7
676.695	35167.41
677.044	34779.17
677.393	34911.37
677.741	35107.3
678.09	34993.85
678.438	34918.83
678.787	34850.81
679.135	34954.31
679.484	34744.14
679.832	34785.72
680.181	34590.93
680.529	34725.39
680.877	34661.43
681.225	34714.77
681.573	34714.99
681.922	34415.56
682.27	34404.94
682.618	34486.3
682.966	34348.45
683.314	34347.32
683.661	34344.83
684.009	34131.5
684.357	34024.16
684.705	34112.75
685.053	34078.4
685.4	34070.04
685.748	33830.95
686.095	33809.03
686.443	33769.25
686.79	33716.83
687.138	33883.6
687.485	33749.59
687.832	33649.26
688.18	33762.02
688.527	33508.24
688.874	33463.5
689.221	33350.06
689.568	33356.83
689.915	33168.14
690.262	33136.73
690.609	33214.24
690.956	33173.56
691.303	32990.29
691.65	32791.43
691.997	32922.04
692.344	32608.61
692.69	32552.56
693.037	32633.01
693.383	32313.02
693.73	32566.35
694.077	32198.67
694.423	32298.56
694.769	32232.8
695.116	32100.14
695.462	32061.28
695.808	32076.87
696.155	32126.58
696.501	31796.65
696.847	31753.04
697.193	31554.4
697.539	31705.13
697.885	31416.55
698.231	31336.77
698.577	31317.57
698.923	31270.11
699.269	31157.34
699.614	30997.35
699.96	31047.07
700.306	30995.99
700.651	30928.65
700.997	30683.01
701.342	30860.86
701.688	30702.89
702.033	30480.98
702.379	30709.67
702.724	30523.01
703.069	30488.66
703.415	30151.04
703.76	30102.46
704.105	30145.39
704.45	30148.11
704.795	29995.57
705.14	29807.32
705.485	29860.66
705.83	29735.01
706.175	29724.61
706.52	29651.62
706.865	29537.27
707.209	29570.04
707.554	29438.52
707.899	29457.28
708.243	29487.11
708.588	29328.69
708.932	29151.3
709.277	29054.8
709.621	29114.69
709.966	28941.36
710.31	28977.74
710.654	28779.78
710.998	28864.75
711.342	28726.22
711.687	28625.43
712.031	28510.63
712.375	28528.26
712.719	28500.01
713.063	28389.28
713.407	28457.75
713.75	28377.98
714.094	28285.1
714.438	28154.03
714.782	28172.34
715.125	28074.94
715.469	28085.56
715.812	27907.71
716.156	27785.46
716.499	27934.6
716.843	27860.71
717.186	27646.48
717.53	27830.88
717.873	27714.27
718.216	27733.48
718.559	27515.41
718.902	27414.62
719.246	27563.31
719.589	27422.3
719.932	27267.5
720.275	27333.72
720.617	27252.36
720.96	27199.26
721.303	27222.31
721.646	27139.82
721.989	27072.25
722.331	27064.12
722.674	27031.58
723.016	27071.12
723.359	27037.68
723.701	26955.42
724.044	26759.49
724.386	26675.88
724.729	26847.85
725.071	26718.59
725.413	26705.26
725.755	26769.21
726.097	26547.97
726.439	26477.92
726.782	26462.78
727.124	26526.28
727.465	26375.55
727.807	26423.23
728.149	26335.55
728.491	26330.13
728.833	26301.88
729.175	26240.19
729.516	26169.68
729.858	26086.07
730.199	26202.45
730.541	26108.44
730.882	26027.99
731.224	26144.14
731.565	25962.45
731.906	25943.02
732.248	25970.81
732.589	25786.64
732.93	25753.87
733.271	25614.21
733.612	25783.02
733.953	25820.31
734.294	25723.14
734.635	25678.84
734.976	25686.3
735.317	25397.5
735.658	25455.57
735.999	25525.85
736.339	25463.48
736.68	25458.74
737.021	25476.36
737.361	25343.26
737.702	25524.05
738.042	25416.93
738.383	25314.33
738.723	25284.73
739.063	25199.76
739.404	25260.32
739.744	25098.29
740.084	25094
740.424	25146.2
740.764	25078.18
741.104	25050.16
741.444	24902.37
741.784	24898.75
742.124	24869.6
742.464	24881.35
742.804	24875.93
743.143	24751.41
743.483	24809.71
743.823	24573.34
744.162	24640.68
744.502	24606.1
744.841	24665.09
745.181	24613.79
745.52	24487.24
745.86	24639.32
746.199	24486.79
746.538	24402.72
746.877	24544.64
747.216	24448.82
747.556	24343.29
747.895	24404.98
748.234	24355.26
748.573	24307.13
748.911	24291.08
749.25	24202.73
749.589	24223.29
749.928	24253.57
750.267	24171.77
750.605	24064.65
750.944	24009.96
751.283	24009.06
751.621	23939.23
751.96	23886.12
752.298	23842.51
752.636	23898.33
752.975	23786.01
753.313	23633.7
753.651	23671.21
753.989	23606.13
754.327	23549.41
754.666	23475.96
755.004	23560.71
755.342	23628.28
755.679	23528.39
756.017	23321.84
756.355	23432.12
756.693	23350.54
757.031	23370.43
757.368	23186.25
757.706	23257.44
758.044	23134.28
758.381	23188.97
758.719	23104.45
759.056	23031.91
759.394	23076.88
759.731	22797.34
760.068	22834.4
760.405	22794.63
760.743	22823.78
761.08	22781.07
761.417	22651.13
761.754	22460.17
762.091	22590.56
762.428	22465.14
762.765	22334.07
763.102	22480.28
763.438	22283.91
763.775	22100.18
764.112	22140.63
764.449	22146.96
764.785	21966.4
765.122	21822.22
765.458	21869
765.795	21862.9
766.131	21612.28
766.467	21671.04
766.804	21616.58
767.14	21491.61
767.476	21550.14
767.812	21331.16
768.148	21400.31
768.485	21269.47
768.821	21203.71
769.157	21196.48
769.492	20930.27
769.828	20997.61
770.164	20819.31
770.5	20738.41
770.836	20879.42
771.171	20719.65
771.507	20661.35
771.842	20572.99
772.178	20447.34
772.513	20448.47
772.849	20358.76
773.184	20258.42
773.519	20343.62
773.855	20220.01
774.19	20090.29
774.525	20075.83
774.86	20098.2
775.195	19961.71
775.53	19936.62
775.865	19763.52
776.2	19681.26
776.535	19606.69
776.87	19620.47
777.205	19480.14
777.539	19457.31
777.874	19337.54
778.209	19281.95
778.543	19199.24
778.878	19092.13
779.212	19092.35
779.547	19060.94
779.881	18987.95
780.215	18909.31
780.55	18914.73
780.884	18754.73
781.218	18742.98
781.552	18815.3
781.886	18493.27
782.22	18573.72
782.554	18367.17
782.888	18266.16
783.222	18180.51
783.556	18175.99
783.889	18084.47
784.223	18016.9
784.557	17898.71
784.89	17922.44
785.224	17797.47
785.557	17842.44
785.891	17712.5
786.224	17636.12
786.558	17625.05
786.891	17537.14
787.224	17423.47
787.557	17449
787.891	17314.54
788.224	17268.22
788.557	17298.5
788.89	17166.07
789.223	17172.18
789.556	17049.69
789.888	16954.78
790.221	16993.2
790.554	16776.93
790.887	16813.54
791.219	16794.56
791.552	16673.43
791.884	16584.17
792.217	16654.68
792.549	16563.83
792.882	16407
793.214	16266.89
793.546	16363.38
793.879	16362.03
794.211	16168.13
794.543	16186.89
794.875	16179.21
795.207	16191.41
795.539	16049.95
795.871	16068.25
796.203	15976.27
796.535	15903.06
796.867	15767.47
797.198	15720.91
797.53	15786.68
797.862	15673.46
798.193	15689.28
798.525	15512.11
798.856	15620.35
799.188	15439.79
799.519	15386.01
799.85	15310.53
800.182	15360.02
800.513	15313.92
800.844	15195.28
801.175	15242.73
801.506	15222.85
801.837	15113.47
802.168	15067.82
802.499	15066.47
802.83	14960.93
803.161	14876.19
803.491	14916.19
803.822	14855.63
804.153	14896.08
804.483	14705.12
804.814	14627.16
805.145	14613.82
805.475	14678
805.805	14610.44
806.136	14500.61
806.466	14488.18
806.796	14475.07
807.126	14441.85
807.457	14356.88
807.787	14431.46
808.117	14255.42
808.447	14205.47
808.777	14304.45
809.107	14153.72
809.436	14164.57
809.766	14157.34
810.096	14094.29
810.426	14011.35
810.755	14017.46
811.085	14045.7
811.414	13846.39
811.744	13858.59
812.073	13861.08
812.403	13816.78
812.732	13742.44
813.061	13793.51
813.39	13594.42
813.719	13581.54
814.049	13680.74
814.378	13519.16
814.707	13529.79
815.036	13565.49
815.365	13484.59
815.693	13375.44
816.022	13446.85
816.351	13308.55
816.68	13315.1
817.008	13250.02
817.337	13179.51
817.665	13187.87
817.994	13222
818.322	13199.4
818.651	13087.09
818.979	13052.51
819.307	13096.8
819.636	13003.25
819.964	12928.9
820.292	13009.12
820.62	13069.01
820.948	12936.58
821.276	12898.39
821.604	12936.81
821.932	12963.02
822.259	12975.9
822.587	13008.67
822.915	12915.11
823.243	12924.15
823.57	12960.76
823.898	12927.32
824.225	12833.76
824.553	12818.39
824.88	12885.28
825.207	12889.58
825.535	12850.26
825.862	12894.1
826.189	12843.48
826.516	12914.89
826.843	12878.96
827.17	12883.93
827.497	12873.76
827.824	12886.19
828.151	12871.05
828.478	12870.14
828.805	12885.73
829.131	12861.78
829.458	12813.42
829.785	12760.31
830.111	12741.33
830.438	12850.03
830.764	12844.83
831.09	12777.94
831.417	12819.97
831.743	12820.43
832.069	12815.91
832.395	12798.51
832.722	12712.18
833.048	12750.6
833.374	12803.7
833.7	12733.65
834.026	12747.43
834.351	12706.76
834.677	12683.03
835.003	12744.95
835.329	12721.67
835.654	12642.8
835.98	12658.17
836.306	12591.51
836.631	12535.01
836.956	12579.75
837.282	12596.02
837.607	12468.34
837.932	12461.11
838.258	12528.46
838.583	12500.21
838.908	12402.81
839.233	12410.94
839.558	12360.55
839.883	12349.7
840.208	12395.35
840.533	12390.83
840.858	12338.4
841.182	12286.2
841.507	12298.18
841.832	12233.32
842.156	12183.38
842.481	12186.32
842.805	12170.5
843.13	12104.96
843.454	12140.67
843.778	12077.62
844.103	12102.03
844.427	11988.81
844.751	11982.71
845.075	11983.16
845.399	11951.07
845.723	11857.97
846.047	11833.33
846.371	11794.46
846.695	11849.6
847.019	11718.76
847.343	11625.65
847.666	11531.87
847.99	11574.81
848.313	11538.43
848.637	11420.24
848.96	11473.34
849.284	11455.26
849.607	11283.06
849.931	11349.73
850.254	11236.06
850.577	11215.95
850.9	11155.16
851.223	11095.5
851.546	11059.57
851.869	10994.48
852.192	10984.99
852.515	10906.13
852.838	10804.21
853.161	10961.27
853.483	10766.02
853.806	10756.53
854.129	10736.64
854.451	10700.93
854.774	10628.39
855.096	10608.73
855.419	10549.3
855.741	10540.71
856.063	10492.58
856.385	10455.74
856.708	10434.27
857.03	10424.78
857.352	10394.73
857.674	10423.43
857.996	10373.26
858.318	10292.13
858.64	10258.23
858.961	10262.07
859.283	10238.12
859.605	10177.11
859.926	10203.09
860.248	10154.06
860.57	10135.75
860.891	10111.12
861.212	10049.88
861.534	9973.95
861.855	9996.77
862.176	9972.14
862.498	10076.77
862.819	10018.69
863.14	9992.48
863.461	9916.1
863.782	9904.12
864.103	9890.79
864.424	9830.67
864.745	9912.03
865.065	9784.12
865.386	9779.15
865.707	9829.54
866.027	9763.78
866.348	9834.97
866.668	9711.13
866.989	9658.25
867.309	9638.59
867.63	9662.77
867.95	9686.27
868.27	9571.92
868.59	9600.62
868.91	9635.42
869.23	9573.51
869.55	9557.46
869.87	9554.3
870.19	9573.51
870.51	9504.13
870.83	9519.5
871.15	9437.92
871.469	9507.07
871.789	9503.22
872.109	9481.3
872.428	9454.19
872.748	9464.36
873.067	9408.99
873.386	9471.59
873.706	9427.97
874.025	9353.17
874.344	9339.16
874.663	9366.96
874.982	9324.92
875.301	9344.13
875.62	9270.01
875.939	9172.39
876.258	9287.19
876.577	9245.6
876.896	9213.97
877.214	9229.56
877.533	9230.92
877.852	9158.6
878.17	9225.49
878.489	9188.66
878.807	9169.9
879.125	9189.79
879.444	9097.59
879.762	9112.95
880.08	9117.47
880.398	9050.81
880.716	9061.2
881.034	9049.9
881.352	9072.73
881.67	8943.92
881.988	8978.49
882.306	9002.67
882.624	8933.75
882.941	8907.08
883.259	8856.24
883.577	8899.62
883.894	8783.92
884.212	8752.96
884.529	8788.22
884.846	8768.33
885.164	8798.84
885.481	8762.45
885.798	8721.1
886.115	8724.26
886.432	8729.91
886.75	8657.37
887.067	8702.57
887.383	8633.19
887.7	8633.19
888.017	8563.14
888.334	8566.3
888.651	8497.15
888.967	8509.58
889.284	8494.21
889.6	8457.83
889.917	8401.11
890.233	8398.39
890.55	8341.67
890.866	8349.81
891.182	8354.78
891.498	8275.69
891.815	8293.31
892.131	8211.96
892.447	8228
892.763	8207.44
893.079	8212.19
893.395	8140.77
893.71	8119.98
894.026	8167.89
894.342	8088.8
894.657	8035.69
894.973	8089.48
895.289	8018.74
895.604	7965.86
895.92	7953.89
896.235	7903.27
896.55	7943.27
896.865	7895.36
897.181	7901.68
897.496	7869.6
897.811	7780.78
898.126	7836.83
898.441	7762.03
898.756	7725.42
899.071	7651.75
899.386	7746.89
899.7	7668.92
900.015	7630.28
900.33	7607.46
900.644	7573.78
900.959	7598.87
901.273	7572.65
901.588	7442.26
901.902	7508.7
902.216	7451.53
902.531	7428.25
902.845	7365.65
903.159	7383.05
903.473	7356.16
903.787	7271.87
904.101	7254.7
904.415	7246.79
904.729	7174.25
905.042	7189.61
905.356	7207.47
905.67	7141.7
905.984	7142.16
906.297	7107.81
906.611	7076.85
906.924	7033.69
907.237	6997.98
907.551	6976.29
907.864	6971.77
908.177	6916.85
908.491	6923.18
908.804	6858.77
909.117	6815.16
909.43	6791.21
909.743	6814.48
910.056	6777.42
910.368	6790.98
910.681	6756.63
910.994	6681.38
911.307	6642.51
911.619	6634.83
911.932	6643.86
912.244	6557.54
912.557	6539.46
912.869	6508.28
913.181	6485.9
913.494	6502.17
913.806	6452.23
914.118	6383.08
914.43	6416.75
914.742	6321.61
915.054	6334.95
915.366	6292.46
915.678	6285
915.99	6260.15
916.302	6211.33
916.613	6162.52
916.925	6155.97
917.236	6144.67
917.548	6138.12
917.859	6086.37
918.171	6061.96
918.482	6062.86
918.794	6012.47
919.105	6007.5
919.416	5942.87
919.727	5941.96
920.038	5922.75
920.349	5898.35
920.66	5883.21
920.971	5876.2
921.282	5839.82
921.593	5795.07
921.903	5769.54
922.214	5759.37
922.525	5690.22
922.835	5703.55
923.146	5694.96
923.456	5676.21
923.767	5643.44
924.077	5648.86
924.387	5582.65
924.697	5564.12
925.008	5524.8
925.318	5571.12
925.628	5507.4
925.938	5470.79
926.248	5485.25
926.558	5440.28
926.867	5421.98
927.177	5371.81
927.487	5370.68
927.796	5295.65
928.106	5331.58
928.416	5289.78
928.725	5247.29
929.034	5251.81
929.344	5229.66
929.653	5274.86
929.962	5184.24
930.271	5143.34
930.581	5108.54
930.89	5132.49
931.199	5123
931.508	5060.4
931.817	5064.92
932.125	5076.22
932.434	5093.4
932.743	5011.59
933.051	4919.62
933.36	4992.61
933.669	4916.9
933.977	4850.01
934.286	4943.57
934.594	4889.56
934.902	4841.43
935.21	4807.98
935.519	4795.78
935.827	4814.53
936.135	4770.92
936.443	4757.81
936.751	4721.43
937.059	4739.28
937.367	4682.79
937.674	4693.41
937.982	4671.94
938.29	4622.9
938.597	4676.23
938.905	4556.91
939.213	4593.3
939.52	4534.99
939.827	4562.34
940.135	4524.15
940.442	4525.73
940.749	4473.53
941.056	4461.1
941.363	4476.92
941.67	4405.28
941.977	4409.35
942.284	4354.43
942.591	4355.34
942.898	4357.82
943.205	4332.06
943.511	4324.38
943.818	4344.26
944.125	4257.49
944.431	4256.58
944.738	4252.97
945.044	4244.15
945.35	4191.05
945.657	4174.55
945.963	4151.05
946.269	4144.72
946.575	4138.17
946.881	4129.13
947.187	4096.81
947.493	4087.32
947.799	4043.48
948.105	4012.52
948.41	4029.24
948.716	4020.43
949.022	3996.7
949.327	3993.77
949.633	4001.22
949.938	3899.3
950.244	3926.42
950.549	3923.03
950.854	3880.55
951.16	3862.47
951.465	3883.26
951.77	3842.36
952.075	3818.63
952.38	3823.37
952.685	3773.88
952.99	3755.13
953.294	3726.2
953.599	3749.25
953.904	3732.75
954.209	3669.71
954.513	3701.34
954.818	3622.7
955.122	3635.36
955.426	3640.55
955.731	3650.5
956.035	3585.64
956.339	3646.2
956.643	3587.45
956.948	3549.71
957.252	3544.74
957.556	3552.65
957.86	3518.75
958.163	3504.96
958.467	3499.31
958.771	3483.27
959.075	3507.45
959.378	3455.02
959.682	3440.56
959.985	3474.68
960.289	3436.04
960.592	3375.48
960.896	3359.43
961.199	3359.43
961.502	3334.8
961.805	3327.79
962.108	3322.14
962.411	3280.11
962.714	3269.94
963.017	3295.93
963.32	3253.9
963.623	3272.88
963.926	3276.04
964.228	3227.01
964.531	3220.9
964.833	3187.23
965.136	3181.81
965.438	3164.86
965.741	3158.98
966.043	3159.21
966.345	3088.03
966.648	3120.57
966.95	3099.55
967.252	3077.86
967.554	3075.15
967.856	3072.21
968.158	3020.01
968.46	3033.11
968.761	3027.91
969.063	3002.83
969.365	2997.41
969.666	2988.37
969.968	2979.33
970.269	2960.12
970.571	2949.5
970.872	2966.45
971.174	2927.8
971.475	2909.5
971.776	2898.88
972.077	2882.16
972.378	2890.97
972.679	2861.82
972.98	2828.82
973.281	2819.33
973.582	2851.87
973.883	2826.79
974.183	2821.37
974.484	2776.17
974.785	2794.93
975.085	2764.64
975.386	2760.13
975.686	2748.83
975.986	2718.09
976.287	2706.12
976.587	2718.09
976.887	2678.09
977.187	2667.02
977.487	2672.67
977.787	2683.07
978.087	2623.41
978.387	2633.8
978.687	2638.55
978.987	2601.03
979.286	2608.72
979.586	2574.82
979.885	2591.77
980.185	2601.94
980.484	2552
980.784	2547.02
981.083	2538.89
981.382	2554.71
981.682	2523.97
981.981	2515.39
982.28	2460.92
982.579	2488.04
982.878	2478.32
983.177	2465.9
983.475	2469.29
983.774	2450.3
984.073	2410.53
984.372	2380.93
984.67	2371.66
984.969	2407.14
985.267	2381.15
985.566	2375.28
985.864	2387.93
986.162	2368.27
986.461	2344.09
986.759	2361.94
987.057	2318.78
987.355	2288.73
987.653	2324.2
987.951	2295.96
988.249	2287.82
988.547	2280.59
988.844	2255.51
989.142	2239.23
989.44	2230.42
989.737	2230.87
990.035	2209.86
990.332	2181.16
990.63	2169.18
990.927	2199.91
991.224	2163.98
991.521	2186.81
991.819	2127.15
992.116	2154.49
992.413	2142.97
992.71	2129.41
993.006	2126.47
993.303	2128.96
993.6	2114.49
993.897	2108.62
994.193	2082.85
994.49	2105.91
994.787	2064.55
995.083	2077.43
995.379	2010.99
995.676	2053.48
995.972	2039.24
996.268	1990.2
996.565	2020.26
996.861	1971.9
997.157	2010.09
997.453	1980.03
997.749	1963.76
998.044	1973.25
998.34	1946.59
998.636	1931.22
998.932	1926.25
999.227	1911.79
999.523	1919.92
999.818	1909.53
1000.114	1878.79
1000.409	1891.67
1000.704	1856.65
1001	1881.05
1001.295	1843.77
1001.59	1836.31
1001.885	1866.59
1002.18	1809.42
1002.475	1792.24
1002.77	1815.52
1003.065	1801.73
1003.359	1793.82
1003.654	1794.73
1003.949	1777.55
1004.243	1727.84
1004.538	1743.43
1004.832	1758.12
1005.127	1730.55
1005.421	1688.97
1005.715	1727.84
1006.009	1685.35
1006.304	1666.37
1006.598	1667.27
1006.892	1698.68
1007.186	1648.29
1007.48	1655.97
1007.773	1631.12
1008.067	1638.35
1008.361	1630.21
1008.655	1604.9
1008.948	1606.94
1009.242	1590.44
1009.535	1594.51
1009.829	1579.37
1010.122	1580.04
1010.415	1535.98
1010.708	1543.43
1011.001	1554.96
1011.295	1574.62
1011.588	1527.62
1011.881	1528.75
1012.173	1524.9
1012.466	1527.16
1012.759	1513.15
1013.052	1492.36
1013.344	1455.07
1013.637	1506.82
1013.93	1455.3
1014.222	1479.03
1014.514	1458.46
1014.807	1443.1
1015.099	1458.01
1015.391	1435.19
1015.683	1463.89
1015.976	1422.76
1016.268	1409.65
1016.56	1387.05
1016.851	1377.34
1017.143	1365.13
1017.435	1364.23
1017.727	1355.64
1018.018	1344.12
1018.31	1335.53
1018.602	1345.93
1018.893	1326.49
1019.185	1331.69
1019.476	1335.98
1019.767	1313.61
1020.058	1318.81
1020.35	1288.07
1020.641	1292.14
1020.932	1275.87
1021.223	1261.41
1021.514	1234.97
1021.804	1258.92
1022.095	1253.72
1022.386	1237
1022.677	1259.37
1022.967	1236.55
1023.258	1220.05
1023.548	1223.22
1023.839	1206.04
1024.129	1187.74
1024.419	1188.42
1024.709	1205.59
1025	1156.33
1025.29	1165.14
1025.58	1150
1025.87	1132.6
1026.16	1132.82
1026.449	1134.18
1026.739	1130.79
1027.029	1081.3
1027.319	1119.94
1027.608	1096.89
1027.898	1091.24
1028.187	1090.79
1028.477	1098.25
1028.766	1057.8
1029.055	1061.19
1029.344	1066.16
1029.634	1057.8
1029.923	1048.98
1030.212	1069.55
1030.501	1043.79
1030.79	1044.01
1031.078	1018.7
1031.367	1036.55
1031.656	989.55
1031.945	1012.83
1032.233	966.95
1032.522	982.77
1032.81	966.27
1033.099	989.32
1033.387	977.57
1033.675	985.93
1033.963	966.73
1034.251	958.14
1034.54	967.4
1034.828	948.65
1035.116	933.73
1035.403	904.13
1035.691	935.09
1035.979	926.5
1036.267	924.69
1036.554	926.28
1036.842	910.68
1037.129	903
1037.417	890.12
1037.704	907.07
1037.992	871.59
1038.279	877.24
1038.566	871.81
1038.853	871.81
1039.14	871.81
