Data from hue_100_FLMS001491_00016.txt Node
Date: Tue Feb 07 17:02:43 GMT 2017
User: dcchb
Spectrometer: FLMS00149
Trigger mode: 0
Integration Time (sec): 2.000000E-2
Scans to average: 10
Electric dark correction enabled: true
Nonlinearity correction enabled: false
Boxcar width: 0
XAxis mode: Wavelengths
Number of Pixels in Spectrum: 2048
>>>>>Begin Spectral Data<<<<<
341.393	-22.63
341.776	-22.63
342.16	-22.63
342.543	-76.64
342.927	-65.11
343.31	-69.63
343.693	-74.15
344.077	-70.76
344.46	-66.69
344.843	-41.38
345.226	-26.47
345.61	-53.36
345.993	-21.95
346.376	-24.43
346.759	44.04
347.142	20.31
347.525	35.23
347.908	67.77
348.291	81.78
348.674	99.86
349.057	99.86
349.44	106.18
349.823	124.49
350.206	164.26
350.588	191.61
350.971	181.66
351.354	213.07
351.737	229.34
352.119	266.63
352.502	263.02
352.884	278.38
353.267	285.16
353.65	293.07
354.032	290.13
354.414	320.64
354.797	328.55
355.179	320.87
355.562	326.74
355.944	340.53
356.326	309.57
356.709	314.77
357.091	323.81
357.473	331.04
357.855	327.87
358.238	334.88
358.62	343.01
359.002	336.46
359.384	355.22
359.766	339.17
360.148	340.75
360.53	341.43
360.912	342.56
361.294	328.1
361.676	321.09
362.057	341.21
362.439	333.75
362.821	327.19
363.203	323.13
363.584	318.83
363.966	287.87
364.348	313.18
364.729	335.56
365.111	319.51
365.493	322
365.874	330.36
366.256	325.16
366.637	327.19
367.019	321.32
367.4	332.39
367.781	321.09
368.163	297.82
368.544	320.87
368.925	316.8
369.306	329.45
369.688	301.21
370.069	324.26
370.45	307.53
370.831	320.87
371.212	316.35
371.593	319.29
371.974	308.89
372.355	325.61
372.736	332.84
373.117	317.93
373.498	326.06
373.879	323.58
374.26	334.43
374.641	313.64
375.021	336.69
375.402	329.68
375.783	327.42
376.163	329.45
376.544	348.21
376.925	331.26
377.305	323.58
377.686	335.56
378.066	332.17
378.447	338.95
378.827	342.11
379.208	355.67
379.588	319.51
379.968	330.13
380.349	343.47
380.729	335.33
381.109	333.3
381.489	331.49
381.87	346.4
382.25	340.75
382.63	345.73
383.01	361.54
383.39	347.31
383.77	366.97
384.15	330.81
384.53	365.84
384.91	370.36
385.29	348.89
385.67	343.69
386.049	361.32
386.429	359.96
386.809	340.98
387.189	393.63
387.568	360.41
387.948	346.4
388.328	363.8
388.707	360.87
389.087	355.89
389.466	353.18
389.846	389.57
390.225	376.91
390.605	375.56
390.984	360.64
391.363	390.02
391.743	361.09
392.122	380.75
392.501	376.69
392.881	367.65
393.26	370.58
393.639	382.56
394.018	379.85
394.397	412.39
394.776	405.38
395.155	394.31
395.534	388.66
395.913	391.15
396.292	382.11
396.671	395.67
397.05	395.67
397.429	396.57
397.808	404.93
398.186	401.32
398.565	398.15
398.944	395.44
399.323	408.77
399.701	399.28
400.08	389.34
400.458	413.07
400.837	440.19
401.215	419.4
401.594	428.89
401.972	410.13
402.351	398.83
402.729	453.29
403.107	423.92
403.486	445.38
403.864	444.25
404.242	415.33
404.62	426.85
404.999	453.29
405.377	448.1
405.755	431.82
406.133	432.95
406.511	443.35
406.889	430.24
407.267	457.13
407.645	435.21
408.023	460.98
408.401	462.78
408.779	452.39
409.156	452.39
409.534	468.66
409.912	485.16
410.29	453.29
410.667	458.72
411.045	466.63
411.422	484.03
411.8	499.17
412.178	501.43
412.555	500.98
412.933	515.89
413.31	497.36
413.687	497.13
414.065	505.04
414.442	510.01
414.819	529.22
415.197	524.7
415.574	517.02
415.951	522.22
416.328	536.68
416.705	534.19
417.082	541.2
417.46	525.38
417.837	533.07
418.214	559.96
418.591	567.41
418.967	562.89
419.344	546.62
419.721	592.27
420.098	575.32
420.475	564.25
420.852	576.68
421.228	585.49
421.605	583.23
421.982	576.23
422.358	588.2
422.735	592.27
423.111	584.59
423.488	627.3
423.864	596.11
424.241	611.03
424.617	614.19
424.994	603.57
425.37	611.71
425.746	624.81
426.123	647.19
426.499	629.56
426.875	601.76
427.251	637.47
427.627	630.01
428.003	650.58
428.379	652.61
428.756	649.22
429.132	675.21
429.507	678.82
429.883	659.62
430.259	694.42
430.635	676.79
431.011	692.16
431.387	698.26
431.763	702.33
432.138	724.92
432.514	712.72
432.89	714.76
433.265	729.44
433.641	724.47
434.016	757.47
434.392	761.08
434.767	753.85
435.143	752.72
435.518	773.28
435.894	773.51
436.269	806.5
436.644	799.95
437.02	824.36
437.395	803.11
437.77	801.53
438.145	813.74
438.52	819.39
438.895	846.5
439.271	864.81
439.646	830.23
440.021	848.76
440.395	878.14
440.77	854.41
441.145	857.8
441.52	874.3
441.895	884.24
442.27	905.26
442.645	874.75
443.019	888.31
443.394	892.6
443.769	935.77
444.143	922.43
444.518	925.37
444.892	890.12
445.267	949.1
445.641	965.37
446.016	972.6
446.39	943.22
446.764	957.46
447.139	951.36
447.513	970.12
447.887	986.39
448.262	978.7
448.636	985.26
449.01	985.26
449.384	1008.08
449.758	1028.65
450.132	1029.32
450.506	1039.27
450.88	1046.05
451.254	1044.69
451.628	1057.35
452.002	1053.73
452.376	1030.45
452.75	1082.43
453.123	1102.54
453.497	1097.57
453.871	1117.23
454.244	1136.67
454.618	1115.65
454.992	1155.2
455.365	1173.05
455.739	1172.37
456.112	1188.87
456.486	1195.42
456.859	1221.18
457.232	1212.6
457.606	1223.22
457.979	1246.72
458.352	1260.5
458.725	1270.67
459.099	1293.95
459.472	1314.06
459.845	1339.82
460.218	1352.03
460.591	1361.29
460.964	1382.53
461.337	1381.86
461.71	1415.53
462.083	1446.49
462.456	1448.52
462.829	1465.92
463.201	1478.12
463.574	1502.31
463.947	1524.9
464.32	1549.31
464.692	1564.68
465.065	1583.43
465.438	1631.12
465.81	1644.22
466.183	1650.55
466.555	1659.36
466.928	1719.47
467.3	1706.59
467.672	1726.03
468.045	1786.82
468.417	1803.31
468.789	1825.91
469.161	1829.98
469.534	1879.92
469.906	1923.76
470.278	1939.81
470.65	1999.02
471.022	2019.35
471.394	2086.02
471.766	2095.96
472.138	2119.69
472.51	2167.6
472.882	2249.18
473.253	2273.81
473.625	2333.24
473.997	2321.04
474.369	2400.81
474.74	2429.29
475.112	2525.1
475.484	2536.18
475.855	2628.6
476.227	2672.22
476.598	2754.93
476.97	2821.82
477.341	2918.31
477.713	2964.41
478.084	3001.47
478.455	3130.51
478.827	3203.5
479.198	3307.46
479.569	3310.17
479.94	3481.91
480.311	3550.84
480.682	3649.14
481.053	3794.9
481.424	3867.67
481.795	3923.48
482.166	4041.67
482.537	4184.04
482.908	4310.82
483.279	4403.92
483.65	4505.62
484.021	4658.61
484.391	4771.37
484.762	4844.36
485.133	4933.18
485.503	5055.66
485.874	5228.76
486.244	5381.98
486.615	5477.79
486.985	5608.64
487.356	5828.29
487.726	5881.4
488.097	6066.03
488.467	6162.52
488.837	6414.94
489.207	6532.68
489.578	6687.93
489.948	6766.57
490.318	6943.74
490.688	7129.5
491.058	7200.46
491.428	7444.3
491.798	7580.79
492.168	7795.92
492.538	7964.28
492.908	8070.72
493.278	8299.87
493.648	8323.14
494.017	8520.88
494.387	8713.19
494.757	8812.62
495.126	8990.92
495.496	9077.7
495.866	9191.37
496.235	9368.54
496.605	9558.59
496.974	9718.59
497.344	9814.85
497.713	9974.4
498.082	10031.12
498.452	10200.38
498.821	10344.33
499.19	10392.69
499.559	10578.22
499.928	10694.38
500.298	10872.45
500.667	10959.23
501.036	11012.79
501.405	11166.46
501.774	11248.72
502.143	11393.8
502.512	11432.44
502.88	11631.53
503.249	11735.48
503.618	11779.1
503.987	11867.46
504.356	11961.69
504.724	12073.1
505.093	12116.26
505.462	12239.2
505.83	12340.21
506.199	12471.06
506.567	12604.16
506.936	12675.8
507.304	12805.74
507.672	12916.47
508.041	12967.77
508.409	13054.54
508.777	13217.93
509.145	13258.83
509.514	13237.14
509.882	13398.04
510.25	13403.69
510.618	13430.58
510.986	13557.81
511.354	13722.77
511.722	13835.77
512.09	13856.56
512.458	13817.91
512.826	13949.89
513.193	14038.02
513.561	14042.31
513.929	14115.53
514.297	14243.44
514.664	14266.72
515.032	14310.1
515.4	14427.61
515.767	14547.16
516.135	14514.17
516.502	14379.71
516.869	14700.38
517.237	14692.24
517.604	14662.86
517.972	14817.66
518.339	14880.48
518.706	14803.88
519.073	14832.58
519.44	14819.24
519.808	14994.38
520.175	14940.82
520.542	15146.24
520.909	15115.05
521.276	15163.87
521.643	15256.07
522.009	15314.82
522.376	15335.16
522.743	15442.28
523.11	15440.92
523.477	15490.19
523.843	15621.26
524.21	15718.43
524.577	15707.81
524.943	15701.93
525.31	15782.38
525.676	15915.94
526.043	15915.94
526.409	15953
526.776	16020.57
527.142	15989.38
527.508	16001.81
527.874	16014.47
528.241	16056.5
528.607	16065.09
528.973	16128.14
529.339	16063.28
529.705	16218.98
530.071	16275.93
530.437	16228.92
530.803	16293.55
531.169	16253.78
531.535	16126.78
531.901	16184.18
532.267	16245.19
532.632	16265.76
532.998	16191.18
533.364	16197.51
533.73	16285.65
534.095	16318.19
534.461	16338.07
534.826	16354.8
535.192	16284.74
535.557	16407
535.923	16336.27
536.288	16203.84
536.653	16316.15
537.019	16179.89
537.384	16170.17
537.749	16236.38
538.114	16189.15
538.479	16117.51
538.845	16158.42
539.21	16039.55
539.575	16072.54
539.94	16074.35
540.305	16009.72
540.67	15947.12
541.034	15974.24
541.399	15933.56
541.764	15851.08
542.129	16004.3
542.494	15889.05
542.858	15833.45
543.223	15814.02
543.587	15848.14
543.952	15785.55
544.316	15766.11
544.681	15693.34
545.045	15814.47
545.41	15631.2
545.774	15720.69
546.138	15644.76
546.503	15675.49
546.867	15522.73
547.231	15540.58
547.595	15458.55
547.959	15556.85
548.324	15413.58
548.688	15432.33
549.052	15406.12
549.416	15378.55
549.779	15364.54
550.143	15400.7
550.507	15362.73
550.871	15252.23
551.235	15187.14
551.599	15327.48
551.962	15274.82
552.326	15195.28
552.689	15186.92
553.053	15067.37
553.417	15111.44
553.78	15263.3
554.143	15031.89
554.507	15070.54
554.87	15116.18
555.234	15139.46
555.597	15001.84
555.96	14963.19
556.323	15062.4
556.686	15042.97
557.05	15044.1
557.413	14916.64
557.776	15084.09
558.139	15022.18
558.502	15030.31
558.865	15102.4
559.228	14968.62
559.59	14925.91
559.953	15010.42
560.316	15098.56
560.679	15041.16
561.041	15061.04
561.404	15058.56
561.767	15150.08
562.129	15008.39
562.492	15164.32
562.854	15089.29
563.217	15089.52
563.579	15056.07
563.941	15039.58
564.304	15135.39
564.666	15152.79
565.028	15063.76
565.39	15148.95
565.753	15182.62
566.115	15135.39
566.477	15186.47
566.839	15275.95
567.201	15276.41
567.563	15275.73
567.925	15347.36
568.287	15306.24
568.648	15322.73
569.01	15356.63
569.372	15384.88
569.734	15419
570.095	15444.09
570.457	15433.92
570.819	15455.38
571.18	15463.07
571.542	15475.27
571.903	15551.43
572.265	15578.32
572.626	15506.68
572.987	15582.39
573.349	15551.88
573.71	15583.97
574.071	15597.3
574.432	15553.69
574.794	15666
575.155	15670.29
575.516	15515.95
575.877	15578.55
576.238	15634.59
576.599	15574.03
576.96	15630.75
577.32	15637.3
577.681	15765.21
578.042	15660.58
578.403	15662.38
578.763	15657.41
579.124	15690.18
579.485	15789.39
579.845	15827.8
580.206	15663.06
580.566	15764.08
580.927	15703.51
581.287	15789.84
581.648	15687.47
582.008	15669.39
582.368	15620.13
582.728	15707.58
583.089	15647.02
583.449	15627.13
583.809	15663.74
584.169	15642.72
584.529	15604.08
584.889	15718.43
585.249	15568.6
585.609	15590.3
585.969	15631.43
586.329	15603.63
586.688	15609.5
587.048	15587.36
587.408	15541.94
587.768	15561.82
588.127	15595.72
588.487	15496.29
588.846	15616.51
589.206	15470.3
589.565	15473.92
589.925	15567.47
590.284	15562.05
590.643	15507.36
591.003	15496.06
591.362	15556.17
591.721	15481.37
592.08	15448.61
592.44	15548.26
592.799	15472.79
593.158	15471.88
593.517	15457.19
593.876	15395.27
594.235	15373.13
594.593	15394.82
594.952	15418.32
595.311	15339.23
595.67	15386.23
596.029	15430.07
596.387	15468.27
596.746	15504.42
597.104	15432.79
597.463	15363.18
597.822	15394.82
598.18	15380.13
598.538	15414.93
598.897	15420.81
599.255	15224.2
599.613	15508.72
599.972	15338.1
600.33	15325.22
600.688	15350.3
601.046	15406.57
601.404	15376.74
601.762	15349.62
602.12	15456.29
602.478	15443.41
602.836	15433.01
603.194	15308.27
603.552	15309.63
603.91	15317.31
604.268	15333.35
604.625	15295.39
604.983	15405.89
605.341	15318.89
605.698	15457.19
606.056	15367.25
606.413	15420.13
606.771	15432.79
607.128	15518.89
607.485	15430.98
607.843	15336.74
608.2	15472.11
608.557	15426.46
608.914	15411.54
609.272	15461.94
609.629	15472.56
609.986	15527.02
610.343	15488.38
610.7	15510.52
611.057	15569.28
611.414	15517.53
611.771	15553.69
612.127	15590.07
612.484	15429.17
612.841	15665.77
613.198	15578.55
613.554	15554.59
613.911	15704.42
614.267	15696.96
614.624	15624.65
614.98	15633.01
615.337	15691.54
615.693	15676.85
616.05	15643.4
616.406	15756.17
616.762	15707.58
617.118	15674.14
617.475	15674.81
617.831	15728.37
618.187	15810.63
618.543	15772.89
618.899	15834.13
619.255	15840.91
619.611	15795.26
619.967	15896.28
620.323	15861.7
620.678	15851.08
621.034	15750.97
621.39	15772.21
621.746	15767.69
622.101	15936.5
622.457	15783.29
622.812	15784.19
623.168	15814.47
623.523	15807.92
623.879	15904.86
624.234	15791.42
624.589	15812.66
624.945	15807.24
625.3	15897.18
625.655	15828.03
626.01	15900.8
626.365	15827.58
626.72	15804.53
627.075	15814.02
627.43	15863.96
627.785	15781.25
628.14	15889.05
628.495	15831.87
628.85	15839.1
629.205	15783.74
629.559	15785.32
629.914	15757.3
630.269	15838.65
630.623	15735.15
630.978	15700.12
631.332	15736.51
631.687	15750.74
632.041	15714.13
632.396	15737.86
632.75	15630.07
633.104	15648.15
633.459	15560.92
633.813	15649.5
634.167	15483.63
634.521	15515.72
634.875	15517.08
635.229	15517.3
635.583	15437.76
635.937	15484.54
636.291	15426.68
636.645	15510.3
636.999	15422.62
637.352	15440.7
637.706	15348.95
638.06	15420.58
638.413	15453.35
638.767	15380.36
639.121	15384.65
639.474	15307.59
639.828	15298.33
640.181	15303.75
640.534	15287.93
640.888	15247.25
641.241	15164.32
641.594	15195.73
641.947	15250.87
642.301	15244.09
642.654	15209.74
643.007	15280.93
643.36	15209.06
643.713	15156.41
644.066	15245.22
644.419	15168.84
644.771	15010.42
645.124	14922.29
645.477	14820.15
645.83	14777.89
646.182	14669.19
646.535	14687.04
646.888	14796.42
647.24	14627.38
647.593	14686.14
647.945	14718
648.298	14667.16
648.65	14680.94
649.002	14611.56
649.355	14675.07
649.707	14630.77
650.059	14744.44
650.411	14834.61
650.763	14867.38
651.115	15069.41
651.467	15023.08
651.819	15030.31
652.171	14876.64
652.523	14959.35
652.875	14947.83
653.227	14899.02
653.578	15034.15
653.93	14919.58
654.282	14949.18
654.633	14873.03
654.985	14841.16
655.337	14955.74
655.688	14897.66
656.039	14958
656.391	14921.16
656.742	14933.36
657.094	14929.75
657.445	14972.91
657.796	14986.47
658.147	14906.47
658.498	14893.14
658.849	14943.99
659.2	14932.23
659.551	14858.34
659.902	15053.59
660.253	15037.54
660.604	15048.16
660.955	14919.35
661.306	15007.49
661.656	14955.96
662.007	15055.62
662.358	14981.27
662.708	14963.65
663.059	14984.89
663.409	14908.51
663.76	15021.5
664.11	15037.77
664.461	15110.31
664.811	15012.01
665.161	15051.78
665.511	15026.02
665.862	15009.75
666.212	15099.24
666.562	15119.35
666.912	15005.9
667.262	15049.29
667.612	15005.68
667.962	15042.97
668.312	14968.39
668.662	15115.28
669.011	15014.72
669.361	15008.62
669.711	14968.17
670.06	15035.28
670.41	14962.52
670.76	14979.92
671.109	14940.37
671.459	14943.53
671.808	14916.87
672.157	14974.04
672.507	14875.74
672.856	14835.51
673.205	14865.12
673.554	14976.98
673.904	14901.05
674.253	14970.88
674.602	14889.07
674.951	14696.99
675.3	14582.19
675.649	14840.94
675.998	14843.2
676.346	14776.08
676.695	14854.72
677.044	14715.29
677.393	14757.1
677.741	14765.23
678.09	14725.23
678.438	14717.55
678.787	14667.38
679.135	14710.77
679.484	14610.66
679.832	14560.49
680.181	14583.32
680.529	14562.53
680.877	14484.79
681.225	14452.7
681.573	14608.18
681.922	14425.13
682.27	14391.91
682.618	14475.52
682.966	14386.71
683.314	14381.97
683.661	14340.84
684.009	14332.48
684.357	14303.32
684.705	14266.49
685.053	14309.88
685.4	14270.56
685.748	14165.7
686.095	14127.51
686.443	14075.99
686.79	14008.87
687.138	14073.27
687.485	14099.49
687.832	13965.03
688.18	13975.2
688.527	13936.78
688.874	13903.56
689.221	13874.18
689.568	13875.54
689.915	13803.45
690.262	13728.42
690.609	13732.27
690.956	13664.92
691.303	13620.18
691.65	13614.76
691.997	13556.9
692.344	13521.88
692.69	13439.84
693.037	13456.79
693.383	13342.67
693.73	13406.62
694.077	13303.58
694.423	13276.23
694.769	13217.93
695.116	13149.68
695.462	13174.54
695.808	13086.86
696.155	13102.23
696.501	13025.39
696.847	12976.35
697.193	12848
697.539	12934.77
697.885	12665.85
698.231	12723.03
698.577	12746.3
698.923	12685.74
699.269	12710.82
699.614	12570.71
699.96	12518.06
700.306	12508.34
700.651	12400.55
700.997	12369.82
701.342	12397.84
701.688	12331.62
702.033	12264.28
702.379	12319.2
702.724	12295.24
703.069	12205.98
703.415	12119.65
703.76	12139.09
704.105	12131.4
704.45	12090.5
704.795	11957.62
705.14	11959.88
705.485	11894.12
705.83	11841.47
706.175	11848.93
706.52	11779.32
706.865	11809.15
707.209	11720.34
707.554	11725.99
707.899	11682.15
708.243	11628.59
708.588	11590.4
708.932	11508.82
709.277	11446.9
709.621	11482.61
709.966	11490.52
710.31	11407.58
710.654	11350.86
710.998	11346.11
711.342	11351.99
711.687	11359.45
712.031	11338.88
712.375	11191.54
712.719	11280.13
713.063	11218.21
713.407	11250.07
713.75	11174.37
714.094	11189.96
714.438	11112
714.782	11109.28
715.125	10993.81
715.469	11062.05
715.812	10982.06
716.156	10956.75
716.499	10993.13
716.843	10992.45
717.186	10905.45
717.53	11020.7
717.873	10890.76
718.216	10953.36
718.559	10830.42
718.902	10846.47
719.246	10868.16
719.589	10883.98
719.932	10768.73
720.275	10768.5
720.617	10776.86
720.96	10736.86
721.303	10776.41
721.646	10693.02
721.989	10696.64
722.331	10806.24
722.674	10708.62
723.016	10669.52
723.359	10666.81
723.701	10721.27
724.044	10620.26
724.386	10583.42
724.729	10673.14
725.071	10637.66
725.413	10574.38
725.755	10615.96
726.097	10504.33
726.439	10580.26
726.782	10494.16
727.124	10589.52
727.465	10495.74
727.807	10529.86
728.149	10582.07
728.491	10519.92
728.833	10524.89
729.175	10507.27
729.516	10497.55
729.858	10522.41
730.199	10528.96
730.541	10472.24
730.882	10468.4
731.224	10533.71
731.565	10422.07
731.906	10534.38
732.248	10492.8
732.589	10371.68
732.93	10396.76
733.271	10443.09
733.612	10502.97
733.953	10374.16
734.294	10398.34
734.635	10370.32
734.976	10465.01
735.317	10365.57
735.658	10491.45
735.999	10406.93
736.339	10407.16
736.68	10500.94
737.021	10427.72
737.361	10399.25
737.702	10425.69
738.042	10366.93
738.383	10438.12
738.723	10502.75
739.063	10440.15
739.404	10557.66
739.744	10510.88
740.084	10463.88
740.424	10552.91
740.764	10520.15
741.104	10555.17
741.444	10551.33
741.784	10543.2
742.124	10625.23
742.464	10589.75
742.804	10631.1
743.143	10612.35
743.483	10651.44
743.823	10633.59
744.162	10713.59
744.502	10759.69
744.841	10678.56
745.181	10745
745.52	10785.22
745.86	10915.62
746.199	10919.91
746.538	10905.67
746.877	11017.54
747.216	11053.92
747.556	11105.67
747.895	11130.53
748.234	11211.43
748.573	11281.26
748.911	11309.96
749.25	11338.2
749.589	11363.51
749.928	11468.37
750.267	11669.72
750.605	11659.78
750.944	11683.73
751.283	11753.79
751.621	11931.18
751.96	11915.59
752.298	12085.08
752.636	12109.94
752.975	12272.19
753.313	12395.13
753.651	12545.4
753.989	12525.29
754.327	12692.97
754.666	12869.69
755.004	12968.22
755.342	13169.12
755.679	13260.19
756.017	13335.21
756.355	13583.57
756.693	13660.18
757.031	13763
757.368	13968.87
757.706	14086.83
758.044	14218.81
758.381	14364.79
758.719	14513.71
759.056	14717.32
759.394	14936.75
759.731	14927.71
760.068	15213.13
760.405	15341.72
760.743	15467.36
761.08	15733.8
761.417	15846.56
761.754	15941.47
762.091	16178.53
762.428	16363.61
762.765	16415.36
763.102	16679.08
763.438	16816.48
763.775	16919.07
764.112	17201.1
764.449	17399.74
764.785	17471.15
765.122	17572.62
765.458	17684.48
765.795	17856.9
766.131	18148.2
766.467	18194.07
766.804	18300.51
767.14	18294.86
767.476	18624.34
767.812	18671.8
768.148	18962.86
768.485	18883.32
768.821	19056.42
769.157	19163.08
769.492	19322.63
769.828	19433.81
770.164	19440.82
770.5	19597.65
770.836	19696.85
771.171	19642.85
771.507	19808.49
771.842	19849.39
772.178	19916.28
772.513	20050.74
772.849	20170.06
773.184	20208.25
773.519	20353.33
773.855	20330.74
774.19	20460
774.525	20484.86
774.86	20574.12
775.195	20664.29
775.53	20606.21
775.865	20607.11
776.2	20543.39
776.535	20554.69
776.87	20568.7
777.205	20641.91
777.539	20628.13
777.874	20867.22
778.209	20738.18
778.543	20664.97
778.878	20709.03
779.212	20682.37
779.547	20658.64
779.881	20792.42
780.215	20803.94
780.55	20915.35
780.884	20793.55
781.218	20884.85
781.552	20929.36
781.886	20763.95
782.22	20688.24
782.554	20775.7
782.888	20663.84
783.222	20600.33
783.556	20767.79
783.889	20621.12
784.223	20473.78
784.557	20477.4
784.89	20649.82
785.224	20430.17
785.557	20416.84
785.891	20518.75
786.224	20412.32
786.558	20557.17
786.891	20251.42
787.224	20194.24
787.557	20329.15
787.891	20321.92
788.224	20253.9
788.557	20330.51
788.89	20269.5
789.223	20343.39
789.556	20066.56
789.888	20035.38
790.221	20051.42
790.554	19890.97
790.887	19986.79
791.219	19968.71
791.552	19894.82
791.884	19736.85
792.217	19862.05
792.549	19745.89
792.882	19676.06
793.214	19666.57
793.546	19761.71
793.879	19548.38
794.211	19570.53
794.543	19650.98
794.875	19530.76
795.207	19593.35
795.539	19506.58
795.871	19460.48
796.203	19322.18
796.535	19229.52
796.867	19260.26
797.198	19092.58
797.53	19170.77
797.862	19016.87
798.193	19092.8
798.525	18896.88
798.856	18963.99
799.188	18869.31
799.519	18792.47
799.85	18717.67
800.182	18799.48
800.513	18687.84
800.844	18609.88
801.175	18646.71
801.506	18640.39
801.837	18542.99
802.168	18490.56
802.499	18487.62
802.83	18334.4
803.161	18353.39
803.491	18346.83
803.822	18320.62
804.153	18335.99
804.483	18093.28
804.814	18013.74
805.145	18013.96
805.475	18073.62
805.805	17943.23
806.136	17936
806.466	18034.75
806.796	17876.34
807.126	17833.85
807.457	17728.77
807.787	17807.87
808.117	17650.13
808.447	17592.5
808.777	17691.94
809.107	17590.7
809.436	17469.79
809.766	17490.81
810.096	17405.62
810.426	17344.6
810.755	17396.58
811.085	17416.46
811.414	17304.83
811.744	17131.05
812.073	17183.47
812.403	17151.61
812.732	17086.98
813.061	17156.81
813.39	17029.13
813.719	17015.34
814.049	17192.06
814.378	17046.98
814.707	16995.01
815.036	16936.93
815.365	16883.6
815.693	16749.36
816.022	16799.08
816.351	16755.69
816.68	16520.22
817.008	16687.67
817.337	16472.31
817.665	16505.98
817.994	16453.32
818.322	16536.71
818.651	16446.32
818.979	16428.92
819.307	16473.66
819.636	16376.26
819.964	16322.71
820.292	16389.82
820.62	16327.9
820.948	16350.73
821.276	16251.97
821.604	16262.59
821.932	16327
822.259	16360.67
822.587	16292.88
822.915	16235.48
823.243	16317.96
823.57	16219.43
823.898	16252.88
824.225	16205.65
824.553	16178.76
824.88	16253.1
825.207	16296.94
825.535	16255.36
825.862	16362.25
826.189	16241.58
826.516	16360.22
826.843	16350.5
827.17	16322.48
827.497	16381.01
827.824	16272.76
828.151	16348.24
828.478	16307.57
828.805	16379.65
829.131	16302.37
829.458	16310.05
829.785	16255.14
830.111	16371.97
830.438	16386.43
830.764	16316.38
831.09	16347.11
831.417	16275.7
831.743	16269.6
832.069	16310.05
832.395	16127.68
832.722	16249.04
833.048	16186.66
833.374	16198.87
833.7	16196.83
834.026	16158.87
834.351	16216.72
834.677	16102.37
835.003	16137.17
835.329	16139.89
835.654	16152.77
835.98	16032.09
836.306	16123.84
836.631	16056.05
836.956	16049.72
837.282	16043.17
837.607	15979.89
837.932	15974.24
838.258	15909.84
838.583	15907.58
838.908	15779.9
839.233	15887.24
839.558	15725.21
839.883	15765.88
840.208	15676.62
840.533	15754.59
840.858	15749.16
841.182	15670.07
841.507	15692.21
841.832	15551.88
842.156	15626.91
842.481	15576.29
842.805	15492.9
843.13	15413.8
843.454	15468.04
843.778	15352.56
844.103	15353.01
844.427	15271.89
844.751	15369.51
845.075	15259.91
845.399	15227.37
845.723	15192.11
846.047	15235.5
846.371	15104.43
846.695	15079.35
847.019	14947.6
847.343	14836.42
847.666	14833.25
847.99	14746.93
848.313	14692.92
848.637	14594.16
848.96	14634.16
849.284	14558.68
849.607	14511.68
849.931	14411.34
850.254	14344.45
850.577	14268.52
850.9	14163.67
851.223	14287.05
851.546	14123.67
851.869	14010.9
852.192	14075.31
852.515	13906.05
852.838	13829.21
853.161	13885.03
853.483	13845.26
853.806	13802.55
854.129	13808.65
854.451	13701.08
854.774	13614.98
855.096	13589.44
855.419	13586.51
855.741	13513.06
856.063	13405.72
856.385	13444.36
856.708	13313.07
857.03	13316.46
857.352	13306.06
857.674	13289.79
857.996	13227.42
858.318	13165.95
858.64	13190.59
858.961	13076.92
859.283	13040.08
859.605	13056.8
859.926	13043.02
860.248	12966.64
860.57	12904.94
860.891	13000.08
861.212	12882.12
861.534	12820.2
861.855	12792.18
862.176	12817.49
862.498	12714.67
862.819	12832.18
863.14	12618.85
863.461	12695.68
863.782	12670.37
864.103	12656.81
864.424	12711.73
864.745	12546.99
865.065	12650.26
865.386	12516.03
865.707	12474.67
866.027	12467.67
866.348	12425.41
866.668	12450.94
866.989	12483.94
867.309	12363.04
867.63	12390.38
867.95	12393.54
868.27	12250.72
868.59	12346.77
868.91	12280.55
869.23	12348.8
869.55	12198.07
869.87	12327.33
870.19	12226.99
870.51	12304.06
870.83	12295.92
871.15	12138.18
871.469	12181.35
871.789	12254.79
872.109	12138.86
872.428	12091.63
872.748	12030.16
873.067	12050.05
873.386	12104.51
873.706	11994.23
874.025	11964.63
874.344	11940.67
874.663	11957.4
874.982	11847.57
875.301	11914.23
875.62	11830.17
875.939	11906.33
876.258	11888.25
876.577	11829.49
876.896	11853.22
877.214	11729.38
877.533	11723.51
877.852	11687.35
878.17	11687.35
878.489	11753.79
878.807	11693.9
879.125	11615.94
879.444	11690.06
879.762	11658.65
880.08	11557.63
880.398	11553.57
880.716	11658.87
881.034	11548.37
881.352	11540.91
881.67	11470.4
881.988	11486.9
882.306	11407.13
882.624	11428.37
882.941	11307.02
883.259	11304.99
883.577	11329.84
883.894	11226.8
884.212	11272.9
884.529	11282.84
884.846	11276.74
885.164	11257.75
885.481	11170.53
885.798	11193.35
886.115	11036.29
886.432	11067.48
886.75	11076.52
887.067	11136.63
887.383	10998.33
887.7	11022.05
888.017	10973.69
888.334	11000.13
888.651	10889.4
888.967	10872.23
889.284	10908.39
889.6	10809.41
889.917	10731.22
890.233	10723.98
890.55	10716.3
890.866	10754.04
891.182	10653.02
891.498	10665.23
891.815	10656.41
892.131	10550.65
892.447	10467.49
892.763	10488.74
893.079	10467.72
893.395	10430.66
893.71	10382.52
894.026	10355.63
894.342	10359.7
894.657	10356.31
894.973	10271.79
895.289	10266.59
895.604	10256.88
895.92	10189.99
896.235	10154.06
896.55	10152.25
896.865	10096.66
897.181	10048.3
897.496	10065.92
897.811	9978.92
898.126	9951.12
898.441	9997.22
898.756	9876.1
899.071	9827.06
899.386	9860.96
899.7	9740.51
900.015	9670.23
900.33	9644.92
900.644	9587.74
900.959	9682.2
901.273	9612.15
901.588	9486.95
901.902	9426.16
902.216	9488.76
902.531	9443.11
902.845	9467.52
903.159	9318.82
903.473	9276.11
903.787	9275.66
904.101	9256
904.415	9300.29
904.729	9184.81
905.042	9125.38
905.356	9157.47
905.67	9083.57
905.984	9079.96
906.297	9038.38
906.611	8966.74
906.924	8952.73
907.237	9015.1
907.551	8874.09
907.864	8878.83
908.177	8854.43
908.491	8809.91
908.804	8739.63
909.117	8674.77
909.43	8611.04
909.743	8656.92
910.056	8591.61
910.368	8617.15
910.681	8555.68
910.994	8471.39
911.307	8471.16
911.619	8462.8
911.932	8468.68
912.244	8357.94
912.557	8409.02
912.869	8238.4
913.181	8229.36
913.494	8232.98
913.806	8179.64
914.118	8125.41
914.43	8103.04
914.742	8083.83
915.054	8059.87
915.366	7985.07
915.678	8005.41
915.99	7958.63
916.302	7891.52
916.613	7876.15
916.925	7858.52
917.236	7795.47
917.548	7765.42
917.859	7741.46
918.171	7745.08
918.482	7729.03
918.794	7631.64
919.105	7616.04
919.416	7562.48
919.727	7568.59
920.038	7552.32
920.349	7526.1
920.66	7440
920.971	7501.92
921.282	7448.36
921.593	7369.5
921.903	7328.37
922.214	7368.59
922.525	7337.18
922.835	7265.54
923.146	7249.72
923.456	7234.81
923.767	7217.41
924.077	7152.78
924.387	7088.82
924.697	7062.61
925.008	7038.43
925.318	7030.75
925.628	6996.17
925.938	6983.29
926.248	6908.72
926.558	6910.52
926.867	6890.41
927.177	6818.78
927.487	6815.61
927.796	6799.34
928.106	6775.61
928.416	6685.22
928.725	6730.87
929.034	6682.28
929.344	6707.59
929.653	6658.55
929.962	6632.34
930.271	6526.81
930.581	6538.1
930.89	6498.78
931.199	6451.55
931.508	6467.6
931.817	6423.53
932.125	6408.84
932.434	6408.16
932.743	6366.58
933.051	6340.82
933.36	6289.98
933.669	6308.96
933.977	6206.14
934.286	6229.64
934.594	6193.71
934.902	6126.82
935.21	6163.43
935.519	6128.17
935.827	6082.98
936.135	6095.18
936.443	6005.01
936.751	6000.27
937.059	5949.42
937.367	5928.4
937.674	5879.14
937.982	5916.65
938.29	5844.11
938.597	5913.94
938.905	5824
939.213	5790.55
939.52	5765.92
939.827	5772.02
940.135	5721.86
940.442	5695.19
940.749	5672.82
941.056	5669.43
941.363	5617.68
941.67	5593.95
941.977	5595.3
942.284	5556.21
942.591	5548.98
942.898	5454.97
943.205	5498.13
943.511	5481.18
943.818	5517.57
944.125	5430.79
944.431	5403.9
944.738	5370.23
945.044	5348.98
945.35	5323.45
945.657	5286.39
945.963	5245.03
946.269	5263.11
946.575	5212.72
946.881	5211.36
947.187	5187.18
947.493	5137.01
947.799	5134.53
948.105	5105.83
948.41	5109.44
948.716	5115.09
949.022	5025.15
949.327	5027.64
949.633	5037.13
949.938	5007.75
950.244	4981.76
950.549	4912.84
950.854	4879.62
951.16	4920.75
951.465	4868.77
951.77	4882.33
952.075	4850.24
952.38	4798.04
952.685	4807.75
952.99	4735.67
953.294	4788.32
953.599	4737.93
953.904	4723.24
954.209	4713.97
954.513	4661.32
954.818	4651.37
955.122	4639.17
955.426	4635.56
955.731	4586.52
956.035	4593.98
956.339	4532.73
956.643	4555.33
956.948	4520.53
957.252	4496.8
957.556	4459.06
957.86	4413.19
958.163	4440.98
958.467	4478.72
958.771	4429.01
959.075	4419.29
959.378	4326.41
959.682	4357.37
959.985	4309.01
960.289	4318.05
960.592	4327.99
960.896	4262.01
961.199	4254.78
961.502	4230.14
961.805	4224.49
962.108	4173.65
962.411	4147.66
962.714	4172.29
963.017	4147.66
963.32	4141.11
963.623	4153.53
963.926	4089.81
964.228	4077.38
964.531	4088.45
964.833	4039.64
965.136	4001.22
965.438	4003.71
965.741	3952.18
966.043	3968.45
966.345	3954.67
966.648	3950.83
966.95	3934.33
967.252	3895.24
967.554	3846.88
967.856	3851.4
968.158	3836.71
968.46	3826.54
968.761	3828.12
969.063	3792.41
969.365	3761.68
969.666	3798.29
969.968	3730.5
970.269	3729.59
970.571	3741.12
970.872	3665.64
971.174	3659.76
971.475	3686.88
971.776	3659.08
972.077	3648.24
972.378	3680.33
972.679	3571.4
972.98	3579.99
973.281	3527.34
973.582	3596.26
973.883	3511.29
974.183	3554
974.484	3488.69
974.785	3453.44
975.085	3439.66
975.386	3488.69
975.686	3489.37
975.986	3439.88
976.287	3395.36
976.587	3397.17
976.887	3395.81
977.187	3394.68
977.487	3377.06
977.787	3349.49
978.087	3340.67
978.387	3305.2
978.687	3319.21
978.987	3258.19
979.286	3252.54
979.586	3263.39
979.885	3231.53
980.185	3222.71
980.484	3168.93
980.784	3193.79
981.083	3171.64
981.382	3134.58
981.682	3165.31
981.981	3163.96
982.28	3145.65
982.579	3090.51
982.878	3066.11
983.177	3084.86
983.475	3089.16
983.774	3038.08
984.073	3004.64
984.372	2995.15
984.67	2982.94
984.969	2986.79
985.267	2975.94
985.566	2982.49
985.864	2963.06
986.162	2953.57
986.461	2941.14
986.759	2906.79
987.057	2870.63
987.355	2913.79
987.653	2858.88
987.951	2849.39
988.249	2842.16
988.547	2828.6
988.844	2827.92
989.142	2839.22
989.44	2825.66
989.737	2792.21
990.035	2725.55
990.332	2739.11
990.63	2747.92
990.927	2726
991.224	2716.51
991.521	2716.74
991.819	2708.6
992.116	2681.26
992.413	2649.85
992.71	2661.6
993.006	2643.07
993.303	2639.9
993.6	2646.68
993.897	2607.81
994.193	2613.01
994.49	2577.31
994.787	2540.92
995.083	2545.67
995.379	2542.73
995.676	2547.25
995.972	2527.81
996.268	2526.68
996.565	2524.2
996.861	2489.85
997.157	2472
997.453	2440.36
997.749	2443.07
998.044	2396.97
998.34	2397.65
998.636	2438.1
998.932	2426.8
999.227	2384.32
999.523	2355.62
999.818	2381.15
1000.114	2328.27
1000.409	2328.27
1000.704	2320.81
1001	2291.89
1001.295	2311.1
1001.59	2237.43
1001.885	2260.25
1002.18	2264.09
1002.475	2223.19
1002.77	2231.33
1003.065	2204.89
1003.359	2217.99
1003.654	2203.98
1003.949	2186.58
1004.243	2168.05
1004.538	2152.01
1004.832	2121.95
1005.127	2138.45
1005.421	2162.85
1005.715	2135.96
1006.009	2108.84
1006.304	2071.56
1006.598	2086.02
1006.892	2079.92
1007.186	2045.57
1007.48	2020.71
1007.773	2019.58
1008.067	2003.53
1008.361	1995.17
1008.655	2013.7
1008.948	1951.11
1009.242	1974.38
1009.535	1965.8
1009.829	1955.63
1010.122	1913.59
1010.415	1909.98
1010.708	1892.8
1011.001	1882.63
1011.295	1895.29
1011.588	1882.41
1011.881	1845.57
1012.173	1858.68
1012.466	1840.83
1012.759	1816.2
1013.052	1808.74
1013.344	1796.31
1013.637	1825.01
1013.93	1790.66
1014.222	1760.83
1014.514	1771.9
1014.807	1775.74
1015.099	1715.41
1015.391	1761.51
1015.683	1738.91
1015.976	1729.87
1016.268	1700.49
1016.56	1711.11
1016.851	1715.63
1017.143	1676.99
1017.435	1669.98
1017.727	1647.39
1018.018	1617.78
1018.31	1635.86
1018.602	1608.74
1018.893	1639.02
1019.185	1595.64
1019.476	1563.32
1019.767	1573.26
1020.058	1557.44
1020.35	1543.21
1020.641	1530.33
1020.932	1540.27
1021.223	1536.43
1021.514	1513.6
1021.804	1485.36
1022.095	1461.63
1022.386	1495.75
1022.677	1455.07
1022.967	1453.04
1023.258	1472.02
1023.548	1458.24
1023.839	1455.98
1024.129	1418.92
1024.419	1403.55
1024.709	1410.56
1025	1410.56
1025.29	1392.7
1025.58	1364.23
1025.87	1393.38
1026.16	1368.07
1026.449	1369.88
1026.739	1346.83
1027.029	1350.22
1027.319	1338.47
1027.608	1334.4
1027.898	1325.36
1028.187	1302.99
1028.477	1295.3
1028.766	1280.84
1029.055	1291.92
1029.344	1264.8
1029.634	1263.67
1029.923	1253.95
1030.212	1233.39
1030.501	1232.93
1030.79	1228.19
1031.078	1201.75
1031.367	1221.18
1031.656	1211.92
1031.945	1180.96
1032.233	1166.72
1032.522	1201.3
1032.81	1165.14
1033.099	1181.18
1033.387	1158.36
1033.675	1155.2
1033.963	1133.95
1034.251	1147.74
1034.54	1109.55
1034.828	1136.67
1035.116	1133.05
1035.403	1119.49
1035.691	1084.69
1035.979	1112.03
1036.267	1103.45
1036.554	1079.27
1036.842	1084.46
1037.129	1060.96
1037.417	1034.75
1037.704	1044.69
1037.992	1043.79
1038.279	1035.2
1038.566	1025.48
1038.853	1025.48
1039.14	1025.48
