Data from hue_300_FLMS001491_00060.txt Node
Date: Tue Feb 07 15:50:56 GMT 2017
User: dcchb
Spectrometer: FLMS00149
Trigger mode: 0
Integration Time (sec): 2.000000E-2
Scans to average: 10
Electric dark correction enabled: true
Nonlinearity correction enabled: false
Boxcar width: 0
XAxis mode: Wavelengths
Number of Pixels in Spectrum: 2048
>>>>>Begin Spectral Data<<<<<
341.393	-10.42
341.776	-10.42
342.16	-10.42
342.543	-66.92
342.927	-61.95
343.31	-62.4
343.693	-57.2
344.077	-63.76
344.46	-59.24
344.843	-46.13
345.226	-62.85
345.61	-31.21
345.993	-19.46
346.376	-9.07
346.759	27.77
347.142	19.41
347.525	45.39
347.908	55.79
348.291	90.82
348.674	79.52
349.057	92.62
349.44	117.93
349.823	130.14
350.206	163.58
350.588	197.25
350.971	200.87
351.354	215.33
351.737	233.19
352.119	234.09
352.502	260.98
352.884	269.12
353.267	283.81
353.65	267.76
354.032	295.78
354.414	293.52
354.797	292.62
355.179	304.6
355.562	313.86
355.944	312.73
356.326	333.3
356.709	314.77
357.091	333.97
357.473	327.65
357.855	311.6
358.238	332.84
358.62	345.5
359.002	314.99
359.384	319.96
359.766	323.13
360.148	330.81
360.53	335.33
360.912	326.97
361.294	329.91
361.676	339.17
362.057	329.23
362.439	320.64
362.821	326.74
363.203	308.89
363.584	297.82
363.966	314.77
364.348	295.56
364.729	329.91
365.111	309.79
365.493	318.38
365.874	307.76
366.256	313.41
366.637	312.73
367.019	314.09
367.4	308.66
367.781	304.6
368.163	327.65
368.544	301.21
368.925	306.18
369.306	309.12
369.688	311.15
370.069	316.8
370.45	326.97
370.831	308.21
371.212	312.28
371.593	292.17
371.974	314.99
372.355	324.93
372.736	310.92
373.117	297.14
373.498	294.43
373.879	305.05
374.26	313.86
374.641	298.49
375.021	296.01
375.402	321.55
375.783	301.88
376.163	322.9
376.544	313.86
376.925	322.22
377.305	344.37
377.686	339.17
378.066	314.77
378.447	342.56
378.827	320.87
379.208	314.54
379.588	336.46
379.968	331.04
380.349	333.75
380.729	342.34
381.109	337.59
381.489	332.62
381.87	331.71
382.25	322.9
382.63	350.47
383.01	302.11
383.39	331.04
383.77	320.64
384.15	344.37
384.53	312.28
384.91	327.42
385.29	356.35
385.67	365.16
386.049	350.92
386.429	354.31
386.809	336.46
387.189	341.66
387.568	358.38
387.948	346.18
388.328	337.14
388.707	346.18
389.087	341.88
389.466	337.59
389.846	342.11
390.225	370.13
390.605	349.79
390.984	345.27
391.363	361.54
391.743	373.97
392.122	352.73
392.501	363.35
392.881	387.31
393.26	366.29
393.639	375.56
394.018	351.83
394.397	397.48
394.776	364.71
395.155	372.84
395.534	368.78
395.913	378.04
396.292	382.33
396.671	394.76
397.05	378.49
397.429	406.74
397.808	388.44
398.186	383.01
398.565	398.15
398.944	396.12
399.323	400.19
399.701	417.81
400.08	391.83
400.458	407.64
400.837	403.35
401.215	406.29
401.594	401.54
401.972	406.51
402.351	437.93
402.729	392.05
403.107	419.17
403.486	435.67
403.864	425.72
404.242	432.95
404.62	416.91
404.999	449.23
405.377	427.76
405.755	443.12
406.133	423.24
406.511	436.8
406.889	453.97
407.267	460.75
407.645	449.9
408.023	448.32
408.401	470.02
408.779	475.44
409.156	482.44
409.534	501.43
409.912	478.15
410.29	524.48
410.667	486.96
411.045	514.08
411.422	524.03
411.8	526.29
412.178	552.73
412.555	539.17
412.933	540.97
413.31	548.43
413.687	580.3
414.065	559.28
414.442	585.27
414.819	586.85
415.197	611.71
415.574	627.98
415.951	601.31
416.328	610.13
416.705	630.92
417.082	639.95
417.46	648.99
417.837	678.37
418.214	660.97
418.591	678.6
418.967	667.3
419.344	693.74
419.721	672.72
420.098	676.79
420.475	704.59
420.852	713.63
421.228	726.73
421.605	727.64
421.982	733.29
422.358	760.63
422.735	771.02
423.111	766.05
423.488	785.71
423.864	802.21
424.241	790.23
424.617	799.5
424.994	794.53
425.37	800.85
425.746	816.45
426.123	835.43
426.499	851.93
426.875	860.51
427.251	879.04
427.627	868.65
428.003	903.22
428.379	895.09
428.756	921.76
429.132	921.98
429.507	943.22
429.883	907.74
430.259	956.78
430.635	957.46
431.011	957.01
431.387	975.77
431.763	990.68
432.138	996.33
432.514	1010.57
432.89	1007.85
433.265	1046.5
433.641	1055.31
434.016	1049.89
434.392	1066.16
434.767	1093.95
435.143	1073.39
435.518	1075.65
435.894	1115.2
436.269	1103.22
436.644	1142.54
437.02	1164.69
437.395	1194.06
437.77	1177.34
438.145	1166.72
438.52	1189.77
438.895	1181.86
439.271	1206.95
439.646	1207.4
440.021	1224.8
440.395	1257.11
440.77	1227.28
441.145	1236.78
441.52	1253.5
441.895	1252.59
442.27	1267.96
442.645	1264.12
443.019	1273.61
443.394	1270.22
443.769	1278.36
444.143	1298.24
444.518	1319.49
444.892	1284.23
445.267	1303.89
445.641	1312.71
446.016	1340.73
446.39	1331.46
446.764	1321.52
447.139	1319.49
447.513	1320.84
447.887	1364.68
448.262	1328.52
448.636	1353.38
449.01	1351.12
449.384	1392.93
449.758	1341.18
450.132	1379.6
450.506	1411.69
450.88	1387.51
451.254	1385.25
451.628	1417.11
452.002	1439.93
452.376	1409.65
452.75	1424.34
453.123	1412.14
453.497	1446.26
453.871	1443.78
454.244	1485.36
454.618	1473.15
454.992	1491.01
455.365	1480.38
455.739	1505.47
456.112	1492.36
456.486	1517.9
456.859	1548.18
457.232	1557.22
457.606	1570.55
457.979	1587.95
458.352	1585.24
458.725	1585.47
459.099	1600.83
459.472	1647.84
459.845	1625.92
460.218	1639.48
460.591	1625.47
460.964	1637.22
461.337	1659.14
461.71	1670.66
462.083	1691.9
462.456	1711.79
462.829	1696.65
463.201	1701.62
463.574	1719.93
463.947	1713.37
464.32	1762.41
464.692	1769.19
465.065	1775.74
465.438	1850.77
465.81	1816.42
466.183	1830.21
466.555	1877.66
466.928	1860.04
467.3	1841.28
467.672	1891.9
468.045	1885.57
468.417	1897.77
468.789	1905.91
469.161	1939.13
469.534	1935.29
469.906	1954.5
470.278	2026.36
470.65	1969.64
471.022	2049.64
471.394	2031.56
471.766	2060.71
472.138	2084.21
472.51	2085.34
472.882	2136.19
473.253	2114.49
473.625	2141.84
473.997	2186.13
474.369	2179.8
474.74	2191.1
475.112	2195.17
475.484	2253.02
475.855	2263.87
476.227	2292.34
476.598	2325.56
476.97	2325.56
477.341	2363.3
477.713	2429.96
478.084	2383.64
478.455	2429.06
478.827	2474.71
479.198	2512
479.569	2494.82
479.94	2521.04
480.311	2570.3
480.682	2603.07
481.053	2614.82
481.424	2664.53
481.795	2637.87
482.166	2713.57
482.537	2719.9
482.908	2749.05
483.279	2746.34
483.65	2826.79
484.021	2832.67
484.391	2873.79
484.762	2903.85
485.133	2880.35
485.503	2877.41
485.874	2942.49
486.244	2944.53
486.615	3017.75
486.985	3049.16
487.356	3088.93
487.726	3081.47
488.097	3071.98
488.467	3103.39
488.837	3163.73
489.207	3236.95
489.578	3256.84
489.948	3247.57
490.318	3308.36
490.688	3294.35
491.058	3309.04
491.428	3321.01
491.798	3353.56
492.168	3407.57
492.538	3398.98
492.908	3441.69
493.278	3461.58
493.648	3427.45
494.017	3482.82
494.387	3489.82
494.757	3524.85
495.126	3570.27
495.496	3567.34
495.866	3583.83
496.235	3593.55
496.605	3607.33
496.974	3600.1
497.344	3668.8
497.713	3658.18
498.082	3705.64
498.452	3712.19
498.821	3728.46
499.19	3750.16
499.559	3762.81
499.928	3727.56
500.298	3815.24
500.667	3805.07
501.036	3812.07
501.405	3832.19
501.774	3827.89
502.143	3834.67
502.512	3826.76
502.88	3843.03
503.249	3895.46
503.618	3887.33
503.987	3917.16
504.356	3929.81
504.724	3932.07
505.093	3916.48
505.462	3958.74
505.83	3928.46
506.199	4002.13
506.567	3982.47
506.936	4030.6
507.304	4084.84
507.672	4067.89
508.041	4064.27
508.409	4052.52
508.777	4054.55
509.145	4118.06
509.514	4093.42
509.882	4143.59
510.25	4080.09
510.618	4148.79
510.986	4146.3
511.354	4179.3
511.722	4162.8
512.09	4264.04
512.458	4193.08
512.826	4246.87
513.193	4226.3
513.561	4211.61
513.929	4241.89
514.297	4289.12
514.664	4267.43
515.032	4259.07
515.4	4302.01
515.767	4344.04
516.135	4327.99
516.502	4295.9
516.869	4316.69
517.237	4361.21
517.604	4357.82
517.972	4382.46
518.339	4416.8
518.706	4351.04
519.073	4372.51
519.44	4402.57
519.808	4391.95
520.175	4432.4
520.542	4447.31
520.909	4457.48
521.276	4440.98
521.643	4532.51
522.009	4480.08
522.376	4557.82
522.743	4499.74
523.11	4527.99
523.477	4591.04
523.843	4593.3
524.21	4626.29
524.577	4675.1
524.943	4711.71
525.31	4679.62
525.676	4671.26
526.043	4733.41
526.409	4753.52
526.776	4779.28
527.142	4770.24
527.508	4786.29
527.874	4846.4
528.241	4844.59
528.607	4871.93
528.973	4920.29
529.339	4909
529.705	4951.71
530.071	4956.9
530.437	4979.28
530.803	5019.05
531.169	5069.44
531.535	5004.13
531.901	5042.33
532.267	5048.88
532.632	5085.71
532.998	5119.61
533.364	5136.33
533.73	5152.38
534.095	5220.4
534.461	5149.21
534.826	5210
535.192	5246.39
535.557	5260.4
535.923	5323.22
536.288	5295.2
536.653	5386.04
537.019	5308.31
537.384	5330.45
537.749	5386.95
538.114	5399.83
538.479	5433.95
538.845	5460.85
539.21	5449.09
539.575	5478.02
539.94	5507.17
540.305	5535.19
540.67	5524.8
541.034	5562.99
541.399	5541.97
541.764	5620.61
542.129	5611.35
542.494	5611.12
542.858	5665.36
543.223	5697
543.587	5734.28
543.952	5742.19
544.316	5788.07
544.681	5751.01
545.045	5784
545.41	5814.28
545.774	5815.64
546.138	5893.6
546.503	5908.74
546.867	5856.54
547.231	5990.55
547.595	5923.43
547.959	5970.44
548.324	5964.56
548.688	5956.88
549.052	6045.91
549.416	6065.57
549.779	6051.56
550.143	6108.51
550.507	6110.32
550.871	6150.09
551.235	6099.25
551.599	6175.63
551.962	6201.62
552.326	6248.85
552.689	6182.18
553.053	6208.17
553.417	6234.16
553.78	6260.82
554.143	6273.25
554.507	6315.51
554.87	6308.51
555.234	6427.83
555.597	6323.87
555.96	6363.42
556.323	6428.73
556.686	6365.23
557.05	6453.81
557.413	6493.36
557.776	6505.11
558.139	6523.64
558.502	6478.67
558.865	6536.52
559.228	6514.15
559.59	6554.83
559.953	6581.72
560.316	6643.19
560.679	6623.07
561.041	6726.57
561.404	6669.63
561.767	6698.78
562.129	6711.89
562.492	6742.17
562.854	6742.39
563.217	6727.7
563.579	6739.23
563.941	6840.02
564.304	6839.79
564.666	6859.45
565.028	6848.38
565.39	6900.81
565.753	6980.58
566.115	7018.09
566.477	6983.29
566.839	7004.53
567.201	7038.2
567.563	7028.49
567.925	7073.46
568.287	7059.22
568.648	7086.57
569.01	7147.35
569.372	7177.64
569.734	7182.61
570.095	7233.68
570.457	7247.69
570.819	7359.78
571.18	7286.79
571.542	7410.85
571.903	7434.58
572.265	7494.24
572.626	7514.12
572.987	7528.36
573.349	7563.84
573.71	7648.36
574.071	7682.93
574.432	7790.5
574.794	7775.36
575.155	7844.74
575.516	7886.54
575.877	8020.1
576.238	8053.55
576.599	8029.59
576.96	8136.25
577.32	8234.56
577.681	8331.5
578.042	8373.31
578.403	8436.13
578.763	8563.59
579.124	8655.56
579.485	8755.22
579.845	8877.93
580.206	8975.33
580.566	9045.61
580.927	9152.27
581.287	9378.03
581.648	9494.19
582.008	9647.85
582.368	9739.38
582.728	9905.47
583.089	10022.99
583.449	10301.62
583.809	10398.34
584.169	10574.38
584.529	10805.11
584.889	11006.91
585.249	11159.9
585.609	11332.78
585.969	11576.62
586.329	11806.89
586.688	12076.49
587.048	12247.79
587.408	12502.92
587.768	12696.14
588.127	12951.5
588.487	13173.86
588.846	13513.06
589.206	13726.39
589.565	13915.09
589.925	14287.96
590.284	14521.62
590.643	14854.04
591.003	15016.3
591.362	15426.23
591.721	15659.22
592.08	15910.29
592.44	16198.19
592.799	16621
593.158	16862.35
593.517	17182.34
593.876	17465.73
594.235	17745.95
594.593	18031.14
594.952	18377.12
595.311	18663.66
595.67	19008.96
596.029	19352.91
596.387	19696.63
596.746	19943.85
597.104	20235.82
597.463	20452.54
597.822	20921.91
598.18	21111.28
598.538	21421.78
598.897	21829.91
599.255	21934.76
599.613	22567.06
599.972	22632.37
600.33	23016.99
600.688	23234.84
601.046	23647.26
601.404	24005.22
601.762	24203.4
602.12	24554.13
602.478	24748.93
602.836	25126.09
603.194	25131.97
603.552	25603.37
603.91	25726.98
604.268	26037.71
604.625	26267.76
604.983	26656.9
605.341	26733.28
605.698	27198.58
606.056	27391.12
606.413	27589.3
606.771	27939.8
607.128	28194.71
607.485	28230.42
607.843	28471.54
608.2	28851.64
608.557	29135.93
608.914	29291.4
609.272	29577.05
609.629	29778.85
609.986	30099.97
610.343	30159.63
610.7	30545.61
611.057	30671.26
611.414	30947.86
611.771	31062.66
612.127	31306.95
612.484	31495.87
612.841	31812.47
613.198	31901.28
613.554	32119.35
613.911	32287.03
614.267	32513.24
614.624	32607.25
614.98	32810.63
615.337	33072.55
615.693	33222.6
616.05	33298.53
616.406	33647.9
616.762	33709.59
617.118	33774.68
617.475	33835.47
617.831	34171.95
618.187	34295.79
618.543	34449.24
618.899	34698.49
619.255	34618.04
619.611	34841.32
619.967	35036.34
620.323	35259.61
620.678	35195.66
621.034	35288.31
621.39	35443.11
621.746	35479.94
622.101	35892.14
622.457	35744.57
622.812	35830.89
623.168	35955.18
623.523	36091.68
623.879	36276.98
624.234	36133.48
624.589	36460.48
624.945	36326.25
625.3	36606.24
625.655	36675.39
626.01	36718.33
626.365	36689.4
626.72	36827.7
627.075	36859.34
627.43	37054.82
627.785	36877.65
628.14	37209.84
628.495	37191.99
628.85	37092.78
629.205	37077.19
629.559	37365.54
629.914	37213.23
630.269	37327.13
630.623	37360.35
630.978	37208.48
631.332	37397.63
631.687	37448.7
632.041	37335.04
632.396	37646.67
632.75	37439.21
633.104	37544.07
633.459	37422.72
633.813	37532.09
634.167	37470.4
634.521	37617.74
634.875	37657.06
635.229	37563.73
635.583	37452.09
635.937	37530.74
636.291	37497.74
636.645	37587.01
636.999	37450.29
637.352	37586.1
637.706	37414.13
638.06	37696.83
638.413	37584.52
638.767	37334.58
639.121	37650.73
639.474	37344.53
639.828	37634.91
640.181	37632.2
640.534	37565.31
640.888	37595.37
641.241	37356.28
641.594	37423.62
641.947	37535.93
642.301	37536.61
642.654	37583.16
643.007	37397.41
643.36	37482.83
643.713	37326.45
644.066	37494.35
644.419	37288.93
644.771	37256.62
645.124	36824.31
645.477	36832
645.83	36568.95
646.182	36454.61
646.535	36355.4
646.888	36421.84
647.24	36286.7
647.593	36521.95
647.945	36413.7
648.298	36332.58
648.65	36226.36
649.002	36172.13
649.355	36341.16
649.707	36276.98
650.059	36614.38
650.411	36821.38
650.763	36948.6
651.115	37342.04
651.467	37083.06
651.819	37201.71
652.171	37198.32
652.523	37063.86
652.875	36975.72
653.227	36943.41
653.578	37123.52
653.93	37143.63
654.282	36966.68
654.633	36868.61
654.985	36914.26
655.337	36957.19
655.688	37054.14
656.039	37136.17
656.391	36726.92
656.742	36833.35
657.094	36805.56
657.445	37041.48
657.796	36883.07
658.147	37024.53
658.498	36957.42
658.849	37036.06
659.2	36885.56
659.551	36740.93
659.902	36848.95
660.253	36822.96
660.604	36871.54
660.955	36862.96
661.306	36928.04
661.656	36911.54
662.007	37040.35
662.358	36781.15
662.708	36753.81
663.059	36864.31
663.409	36609.18
663.76	36964.65
664.11	36787.25
664.461	36892.11
664.811	36835.61
665.161	36683.08
665.511	36686.24
665.862	36800.36
666.212	36938.89
666.562	36865.44
666.912	36690.98
667.262	36622.06
667.612	36691.21
667.962	36801.72
668.312	36653.7
668.662	36862.51
669.011	36643.98
669.361	36655.73
669.711	36700.48
670.06	36670.87
670.41	36549.29
670.76	36610.99
671.109	36721.27
671.459	36554.04
671.808	36534.6
672.157	36596.3
672.507	36372.35
672.856	36430.2
673.205	36557.65
673.554	36532.57
673.904	36495.96
674.253	36619.12
674.602	36520.37
674.951	35941.4
675.3	35832.25
675.649	36367.6
675.998	36357.21
676.346	36482.85
676.695	36396.53
677.044	36331.22
677.393	36288.74
677.741	36549.07
678.09	36342.97
678.438	36220.26
678.787	36319.02
679.135	36295.51
679.484	35982.98
679.832	36208.74
680.181	35968.07
680.529	36017.78
680.877	36001.29
681.225	35936.65
681.573	36148.63
681.922	35803.55
682.27	35767.39
682.618	35835.64
682.966	35771.01
683.314	35825.7
683.661	35667.96
684.009	35505.03
684.357	35609.2
684.705	35414.18
685.053	35573.73
685.4	35400.17
685.748	35272.04
686.095	35231.59
686.443	35137.8
686.79	35126.96
687.138	35139.61
687.485	35140.97
687.832	35002.44
688.18	34988.2
688.527	34824.14
688.874	34849.22
689.221	34756.12
689.568	34649
689.915	34679.74
690.262	34617.37
690.609	34459.4
690.956	34333.31
691.303	34257.38
691.65	34217.83
691.997	34230.26
692.344	34001.34
692.69	34030.49
693.037	34090.83
693.383	33745.53
693.73	33890.83
694.077	33832.75
694.423	33696.03
694.769	33578.75
695.116	33571.29
695.462	33569.71
695.808	33245.88
696.155	33390.96
696.501	33184.86
696.847	33131.76
697.193	32896.73
697.539	33018.09
697.885	32874.81
698.231	32800.92
698.577	32764.31
698.923	32564.54
699.269	32537.87
699.614	32300.82
699.96	32275.73
700.306	32300.59
700.651	32102.18
700.997	32122.74
701.342	31989.41
701.688	31927.04
702.033	31921.84
702.379	31842.75
702.724	31719.82
703.069	31909.64
703.415	31445.47
703.76	31424.91
704.105	31432.37
704.45	31432.37
704.795	31271.47
705.14	31056.1
705.485	31182.88
705.83	31028.08
706.175	31122.77
706.52	30907.18
706.865	30883
707.209	30804.13
707.554	30711.25
707.899	30875.32
708.243	30712.38
708.588	30570.92
708.932	30428.55
709.277	30358.5
709.621	30515.78
709.966	30285.28
710.31	30238.27
710.654	30059.07
710.998	30034.66
711.342	30148.33
711.687	29894.1
712.031	29841.22
712.375	29715.8
712.719	29629.48
713.063	29688.46
713.407	29793.09
713.75	29568.46
714.094	29523.04
714.438	29344.51
714.782	29564.62
715.125	29258.41
715.469	29457.05
715.812	29096.38
716.156	29066.33
716.499	29130.05
716.843	29147
717.186	28980.23
717.53	29129.83
717.873	29020.45
718.216	28910.4
718.559	28850.74
718.902	28629.5
719.246	28685.09
719.589	28750.18
719.932	28578.88
720.275	28555.61
720.617	28540.92
720.96	28414.37
721.303	28501.14
721.646	28373.69
721.989	28249.62
722.331	28371.2
722.674	28284.43
723.016	28270.19
723.359	28084.43
723.701	28317.65
724.044	28014.15
724.386	27973.7
724.729	28098.67
725.071	27921.5
725.413	27804.66
725.755	27868.62
726.097	27755.17
726.439	27673.59
726.782	27643.99
727.124	27789.52
727.465	27654.61
727.807	27564.44
728.149	27506.37
728.491	27452.13
728.833	27571.68
729.175	27386.6
729.516	27343.43
729.858	27388.63
730.199	27275.19
730.541	27392.25
730.882	27233.61
731.224	27319.48
731.565	27145.47
731.906	27119.94
732.248	27160.39
732.589	27072.48
732.93	26981.18
733.271	27013.27
733.612	26894.86
733.953	26962.65
734.294	26879.04
734.635	26919.72
734.976	26913.39
735.317	26705.03
735.658	26849.89
735.999	26811.24
736.339	26588.43
736.68	26695.99
737.021	26592.27
737.361	26456.9
737.702	26683.56
738.042	26479.5
738.383	26498.03
738.723	26598.37
739.063	26364.25
739.404	26450.8
739.744	26307.75
740.084	26297.13
740.424	26357.92
740.764	26336
741.104	26360.63
741.444	26160.41
741.784	26112.51
742.124	26134.65
742.464	26149.57
742.804	26055.11
743.143	26018.27
743.483	26038.84
743.823	25829.58
744.162	25894.88
744.502	25928.78
744.841	25821.44
745.181	25857.82
745.52	25785.96
745.86	25848.11
746.199	25762.91
746.538	25731.05
746.877	25824.83
747.216	25621.67
747.556	25601.11
747.895	25544.61
748.234	25541.9
748.573	25547.32
748.911	25489.7
749.25	25491.28
749.589	25452.18
749.928	25444.05
750.267	25491.05
750.605	25411.73
750.944	25340.55
751.283	25230.27
751.621	25269.59
751.96	25127.45
752.298	25134.45
752.636	25124.06
752.975	25070.27
753.313	25043.16
753.651	25136.26
753.989	24957.06
754.327	25032.99
754.666	24786.21
755.004	24841.35
755.342	24891.75
755.679	24780.34
756.017	24649.49
756.355	24682.71
756.693	24633.67
757.031	24685.42
757.368	24504.86
757.706	24550.29
758.044	24388.93
758.381	24508.03
758.719	24367.92
759.056	24482.49
759.394	24244.76
759.731	24137.42
760.068	24205.66
760.405	24060.36
760.743	24045.67
761.08	24017.19
761.417	23945.56
761.754	23977.65
762.091	23790.53
762.428	23727.48
762.765	23600.26
763.102	23741.04
763.438	23562.74
763.775	23374.72
764.112	23562.74
764.449	23536.98
764.785	23284.33
765.122	23259.02
765.458	23238
765.795	23170.21
766.131	23130.66
766.467	23157.1
766.804	22944.45
767.14	22777.45
767.476	22835.98
767.812	22687.51
768.148	22803.21
768.485	22598.93
768.821	22497.69
769.157	22405.71
769.492	22409.33
769.828	22459.04
770.164	22189.9
770.5	22160.29
770.836	22135.89
771.171	21950.81
771.507	22064.02
771.842	21859.51
772.178	21839.62
772.513	21778.61
772.849	21829.91
773.184	21626.97
773.519	21606.86
773.855	21456.36
774.19	21402.35
774.525	21337.26
774.86	21424.49
775.195	21261.33
775.53	21212.3
775.865	20960.78
776.2	20866.09
776.535	20732.08
776.87	20724.4
777.205	20725.75
777.539	20633.1
777.874	20669.48
778.209	20551.07
778.543	20462.94
778.878	20286.67
779.212	20323.05
779.547	20130.74
779.881	20241.25
780.215	20032.89
780.55	20155.37
780.884	19994.7
781.218	19894.59
781.552	19862.73
781.886	19760.36
782.22	19650.98
782.554	19615.05
782.888	19443.08
783.222	19424.77
783.556	19298.45
783.889	19302.52
784.223	19103.88
784.557	19147.49
784.89	19143.65
785.224	19017.78
785.557	18900.27
785.891	18882.19
786.224	18753.6
786.558	18826.6
786.891	18633.38
787.224	18502.08
787.557	18601.74
787.891	18432.93
788.224	18499.37
788.557	18426.38
788.89	18417.57
789.223	18312.26
789.556	18202.66
789.888	18202.66
790.221	18094.19
790.554	18002.66
790.887	17943.91
791.219	17830.69
791.552	17857.81
791.884	17769.22
792.217	17697.59
792.549	17642.45
792.882	17553.18
793.214	17451.72
793.546	17437.25
793.879	17318.16
794.211	17119.97
794.543	17318.84
794.875	17189.12
795.207	17240.65
795.539	17111.61
795.871	17181.67
796.203	17085.4
796.535	16920.43
796.867	16849.92
797.198	16817.16
797.53	16846.53
797.862	16800.43
798.193	16762.92
798.525	16551.63
798.856	16714.11
799.188	16531.51
799.519	16399.09
799.85	16306.89
800.182	16251.97
800.513	16288.13
800.844	16210.39
801.175	16234.8
801.506	16224.86
801.837	16108.25
802.168	16110.28
802.499	16064.41
802.83	15954.35
803.161	15890.63
803.491	15874.36
803.822	15830.29
804.153	15795.04
804.483	15737.41
804.814	15659.22
805.145	15576.06
805.475	15591.65
805.805	15529.05
806.136	15529.28
806.466	15495.84
806.796	15490.64
807.126	15304.65
807.457	15296.74
807.787	15261.49
808.117	15219.46
808.447	15150.99
808.777	15186.69
809.107	14981.95
809.436	15044.1
809.766	15082.74
810.096	15020.59
810.426	14863.54
810.755	15003.42
811.085	14926.13
811.414	14839.36
811.744	14746.93
812.073	14747.15
812.403	14780.15
812.732	14668.96
813.061	14686.37
813.39	14589.42
813.719	14494.28
814.049	14575.18
814.378	14522.75
814.707	14407.28
815.036	14441.85
815.365	14273.04
815.693	14212.03
816.022	14320.5
816.351	14217.9
816.68	14117.57
817.008	14216.77
817.337	14053.84
817.665	14038.47
817.994	14076.89
818.322	14028.3
818.651	13962.99
818.979	13868.53
819.307	13959.6
819.636	13894.52
819.964	13817.91
820.292	13871.25
820.62	13844.81
820.948	13805.26
821.276	13832.6
821.604	13804.35
821.932	13859.49
822.259	13832.15
822.587	13728.42
822.915	13796.9
823.243	13759.61
823.57	13780.17
823.898	13775.65
824.225	13679.61
824.553	13703.34
824.88	13710.12
825.207	13795.32
825.535	13652.49
825.862	13667.63
826.189	13750.34
826.516	13677.13
826.843	13705.37
827.17	13729.55
827.497	13730.68
827.824	13740.4
828.151	13815.88
828.478	13736.56
828.805	13780.4
829.131	13640.07
829.458	13607.52
829.785	13583.57
830.111	13641.19
830.438	13684.58
830.764	13671.93
831.09	13649.56
831.417	13588.99
831.743	13675.32
832.069	13657.69
832.395	13583.12
832.722	13685.49
833.048	13570.91
833.374	13564.81
833.7	13450.92
834.026	13595.55
834.351	13642.32
834.677	13534.08
835.003	13621.76
835.329	13452.5
835.654	13553.74
835.98	13374.08
836.306	13423.57
836.631	13386.74
836.956	13398.04
837.282	13403.01
837.607	13363.69
837.932	13368.21
838.258	13367.76
838.583	13346.51
838.908	13210.47
839.233	13277.14
839.558	13267.65
839.883	13260.64
840.208	13130.25
840.533	13097.93
840.858	13184.94
841.182	13186.07
841.507	13170.25
841.832	12996.92
842.156	12983.81
842.481	13082.79
842.805	12997.6
843.13	12953.08
843.454	12959.41
843.778	12872.85
844.103	12832.4
844.427	12802.8
844.751	12850.48
845.075	12742.91
845.399	12675.57
845.723	12609.58
846.047	12706.76
846.371	12519.87
846.695	12612.07
847.019	12579.75
847.343	12441.45
847.666	12304.28
847.99	12332.75
848.313	12219.76
848.637	12188.35
848.96	12257.5
849.284	12077.85
849.607	12052.54
849.931	12028.58
850.254	11987.23
850.577	11929.83
850.9	11771.19
851.223	11817.29
851.546	11719.44
851.869	11717.18
852.192	11730.51
852.515	11596.95
852.838	11594.92
853.161	11563.28
853.483	11527.35
853.806	11474.92
854.129	11359.9
854.451	11321.71
854.774	11251.88
855.096	11316.74
855.419	11248.94
855.741	11203.29
856.063	11149.51
856.385	11178.21
856.708	11097.53
857.03	11078.1
857.352	11031.55
857.674	11092.11
857.996	11086.23
858.318	10964.88
858.64	10953.36
858.961	10923.07
859.283	10894.83
859.605	10872.23
859.926	10890.08
860.248	10788.61
860.57	10711.33
860.891	10768.05
861.212	10757.88
861.534	10755.17
861.855	10661.39
862.176	10642.4
862.498	10615.51
862.819	10627.94
863.14	10601.05
863.461	10603.53
863.782	10594.72
864.103	10577.09
864.424	10492.35
864.745	10561.73
865.065	10443.76
865.386	10421.39
865.707	10414.84
866.027	10375.52
866.348	10433.37
866.668	10446.7
866.989	10403.09
867.309	10275.63
867.63	10329.42
867.95	10311.34
868.27	10199.7
868.59	10261.17
868.91	10269.76
869.23	10203.09
869.55	10170.78
869.87	10158.57
870.19	10184.56
870.51	10202.64
870.83	10208.06
871.15	10061.85
871.469	10121.06
871.789	10109.76
872.109	10087.16
872.428	10069.99
872.748	10083.1
873.067	10070.89
873.386	10070.22
873.706	10084.23
874.025	9995.42
874.344	9957.9
874.663	9946.83
874.982	9877
875.301	9934.85
875.62	9842.2
875.939	9848.53
876.258	9918.81
876.577	9854.4
876.896	9877.45
877.214	9794.29
877.533	9775.08
877.852	9803.56
878.17	9797.68
878.489	9769.66
878.807	9698.7
879.125	9795.65
879.444	9671.81
879.762	9633.84
880.08	9672.71
880.398	9607.85
880.716	9686.04
881.034	9633.84
881.352	9600.62
881.67	9550.23
881.988	9532.6
882.306	9500.06
882.624	9461.87
882.941	9505.94
883.259	9438.82
883.577	9464.36
883.894	9443.57
884.212	9398.59
884.529	9389.56
884.846	9418.03
885.164	9313.63
885.481	9281.31
885.798	9323.79
886.115	9249.45
886.432	9225.49
886.75	9269.78
887.067	9241.08
887.383	9179.39
887.7	9221.42
888.017	9145.27
888.334	9187.3
888.651	9145.95
888.967	9110.01
889.284	8981.88
889.6	8992.73
889.917	8938.72
890.233	9026.63
890.55	8913.64
890.866	8926.97
891.182	8906.18
891.498	8841.32
891.815	8848.1
892.131	8799.06
892.447	8794.77
892.763	8717.93
893.079	8734.43
893.395	8693.08
893.71	8704.38
894.026	8636.58
894.342	8642.23
894.657	8551.39
894.973	8563.14
895.289	8650.14
895.604	8524.27
895.92	8457.38
896.235	8447.21
896.55	8436.13
896.865	8349.36
897.181	8418.96
897.496	8387.32
897.811	8368.79
898.126	8286.76
898.441	8245.86
898.756	8206.31
899.071	8263.94
899.386	8158.18
899.7	8194.33
900.015	8093.54
900.33	8022.59
900.644	8022.59
900.959	8081.12
901.273	8017.39
901.588	7971.29
901.902	7912.98
902.216	7834.34
902.531	7905.98
902.845	7897.39
903.159	7809.71
903.473	7795.7
903.787	7813.78
904.101	7713.22
904.415	7743.72
904.729	7724.74
905.042	7603.39
905.356	7639.77
905.67	7564.97
905.984	7529.27
906.297	7557.06
906.611	7542.82
906.924	7454.01
907.237	7465.76
907.551	7484.75
907.864	7437.97
908.177	7403.17
908.491	7352.55
908.804	7321.14
909.117	7247.92
909.43	7236.84
909.743	7270.29
910.056	7257.63
910.368	7199.1
910.681	7120.91
910.994	7081.82
911.307	7098.32
911.619	7063.06
911.932	7033.23
912.244	6982.61
912.557	6993.69
912.869	6978.09
913.181	6886.34
913.494	6923.41
913.806	6849.96
914.118	6795.5
914.43	6763.18
914.742	6737.87
915.054	6729.29
915.366	6685.9
915.678	6655.62
915.99	6660.14
916.302	6640.48
916.613	6590.98
916.925	6588.27
917.236	6515.96
917.548	6527.26
917.859	6521.16
918.171	6450.65
918.482	6403.65
918.794	6399.8
919.105	6359.8
919.416	6335.17
919.727	6324.55
920.038	6320.48
920.349	6234.84
920.66	6250.65
920.971	6235.51
921.282	6160.71
921.593	6155.52
921.903	6065.8
922.214	6154.61
922.525	6108.51
922.835	6042.07
923.146	5987.61
923.456	5976.09
923.767	5970.21
924.077	5921.17
924.387	5902.42
924.697	5936.09
925.008	5874.62
925.318	5836.65
925.628	5823.1
925.938	5860.83
926.248	5767.05
926.558	5748.07
926.867	5709.43
927.177	5736.09
927.487	5621.07
927.796	5674.62
928.106	5653.38
928.416	5626.49
928.725	5572.25
929.034	5542.42
929.344	5539.04
929.653	5471.47
929.962	5481.41
930.271	5474.86
930.581	5441.41
930.89	5398.02
931.199	5367.74
931.508	5391.47
931.817	5382.2
932.125	5339.49
932.434	5321.64
932.743	5284.8
933.051	5266.95
933.36	5263.34
933.669	5211.36
933.977	5182.66
934.286	5159.84
934.594	5157.58
934.902	5139.95
935.21	5083
935.519	5093.17
935.827	5071.02
936.135	5028.99
936.443	5008.43
936.751	4984.02
937.059	4985.83
937.367	4956.68
937.674	4944.02
937.982	4915.77
938.29	4934.98
938.597	4869.22
938.905	4859.96
939.213	4792.61
939.52	4797.13
939.827	4806.63
940.135	4785.61
940.442	4761.88
940.749	4755.55
941.056	4760.3
941.363	4691.15
941.67	4642.56
941.977	4682.56
942.284	4623.13
942.591	4651.6
942.898	4601.88
943.205	4549
943.511	4540.87
943.818	4574.31
944.125	4523.69
944.431	4438.27
944.738	4482.34
945.044	4481.89
945.35	4436.92
945.657	4385.39
945.963	4390.59
946.269	4406.18
946.575	4345.85
946.881	4356.47
947.187	4302.91
947.493	4282.57
947.799	4276.7
948.105	4270.14
948.41	4250.03
948.716	4209.35
949.022	4208.22
949.327	4230.59
949.633	4136.81
949.938	4123.93
950.244	4155.12
950.549	4110.37
950.854	4099.98
951.16	4089.58
951.465	4058.62
951.77	4023.82
952.075	4064.72
952.38	3980.43
952.685	4015.46
952.99	3977.49
953.294	3968.68
953.599	3934.33
953.904	3872.86
954.209	3921.45
954.513	3909.02
954.818	3849.81
955.122	3818.85
955.426	3817.95
955.731	3804.39
956.035	3783.15
956.339	3796.03
956.643	3804.17
956.948	3766.88
957.252	3738.63
957.556	3701.8
957.86	3712.64
958.163	3655.92
958.467	3680.78
958.771	3634.45
959.075	3655.24
959.378	3617.05
959.682	3614.57
959.985	3581.12
960.289	3527.56
960.592	3540.22
960.896	3535.25
961.199	3555.81
961.502	3513.33
961.805	3467.68
962.108	3510.39
962.411	3468.81
962.714	3431.97
963.017	3481.46
963.32	3444.85
963.623	3478.52
963.926	3423.84
964.228	3365.76
964.531	3376.83
964.833	3341.13
965.136	3320.56
965.438	3297.29
965.741	3356.27
966.043	3245.31
966.345	3289.6
966.648	3295.03
966.95	3218.64
967.252	3260
967.554	3232.43
967.856	3203.5
968.158	3197.18
968.46	3184.97
968.761	3164.63
969.063	3140.23
969.365	3126.44
969.666	3169.83
969.968	3093
970.269	3093.9
970.571	3101.36
970.872	3080.79
971.174	3023.4
971.475	3036.95
971.776	3041.02
972.077	2993.57
972.378	3015.94
972.679	2981.14
972.98	2983.17
973.281	2944.98
973.582	2983.62
973.883	2951.76
974.183	2926.9
974.484	2939.56
974.785	2873.34
975.085	2910.4
975.386	2878.77
975.686	2846.68
975.986	2859.56
976.287	2847.81
976.587	2829.28
976.887	2827.24
977.187	2804.42
977.487	2785.66
977.787	2783.85
978.087	2772.33
978.387	2752.67
978.687	2768.94
978.987	2761.93
979.286	2706.34
979.586	2672.67
979.885	2681.71
980.185	2680.13
980.484	2693.23
980.784	2679.45
981.083	2624.54
981.382	2614.14
981.682	2622.28
981.981	2617.76
982.28	2618.89
982.579	2615.95
982.878	2597.87
983.177	2581.6
983.475	2548.61
983.774	2537.53
984.073	2499.34
984.372	2534.37
984.67	2528.49
984.969	2490.53
985.267	2482.84
985.566	2485.56
985.864	2474.03
986.162	2459.79
986.461	2429.74
986.759	2451.66
987.057	2444.2
987.355	2440.36
987.653	2398.78
987.951	2389.74
988.249	2386.8
988.547	2365.33
988.844	2370.53
989.142	2344.99
989.44	2326.92
989.737	2318.55
990.035	2316.97
990.332	2347.93
990.63	2318.33
990.927	2281.04
991.224	2281.72
991.521	2267.93
991.819	2265.45
992.116	2283.98
992.413	2254.83
992.71	2222.51
993.006	2211.89
993.303	2181.61
993.6	2173.02
993.897	2207.82
994.193	2169.63
994.49	2174.38
994.787	2148.62
995.083	2153.36
995.379	2110.65
995.676	2138.67
995.972	2095.96
996.268	2099.58
996.565	2089.18
996.861	2101.61
997.157	2078.56
997.453	2055.06
997.749	2068.17
998.044	2041.05
998.34	2023.42
998.636	2008.73
998.932	1982.52
999.227	1990.65
999.523	1982.74
999.818	1930.54
1000.114	1998.56
1000.409	1975.29
1000.704	1933.93
1001	1912.01
1001.295	1929.19
1001.59	1919.7
1001.885	1881.73
1002.18	1878.11
1002.475	1877.21
1002.77	1881.05
1003.065	1850.32
1003.359	1859.36
1003.654	1836.76
1003.949	1819.58
1004.243	1809.87
1004.538	1809.42
1004.832	1815.74
1005.127	1801.05
1005.421	1766.7
1005.715	1782.98
1006.009	1739.59
1006.304	1762.41
1006.598	1740.04
1006.892	1712.47
1007.186	1752.69
1007.48	1721.96
1007.773	1720.38
1008.067	1690.77
1008.361	1669.31
1008.655	1695.97
1008.948	1651.23
1009.242	1651
1009.535	1655.07
1009.829	1612.13
1010.122	1640.38
1010.415	1644
1010.708	1609.42
1011.001	1589.99
1011.295	1585.01
1011.588	1616.65
1011.881	1592.7
1012.173	1573.26
1012.466	1552.25
1012.759	1555.19
1013.052	1582.98
1013.344	1557.67
1013.637	1510.89
1013.93	1521.97
1014.222	1504.11
1014.514	1481.74
1014.807	1507.28
1015.099	1464.11
1015.391	1443.1
1015.683	1447.62
1015.976	1449.43
1016.268	1429.09
1016.56	1422.76
1016.851	1405.13
1017.143	1415.75
1017.435	1406.49
1017.727	1402.42
1018.018	1389.09
1018.31	1390.44
1018.602	1369.2
1018.893	1384.34
1019.185	1349.77
1019.476	1350.9
1019.767	1348.86
1020.058	1335.76
1020.35	1316.32
1020.641	1307.51
1020.932	1305.25
1021.223	1295.76
1021.514	1269.09
1021.804	1296.66
1022.095	1299.15
1022.386	1241.97
1022.677	1281.52
1022.967	1274.74
1023.258	1228.19
1023.548	1240.62
1023.839	1216.44
1024.129	1215.08
1024.419	1206.49
1024.709	1213.5
1025	1212.6
1025.29	1214.86
1025.58	1207.85
1025.87	1148.87
1026.16	1155.65
1026.449	1142.31
1026.739	1148.42
1027.029	1123.56
1027.319	1127.17
1027.608	1115.42
1027.898	1123.78
1028.187	1106.16
1028.477	1097.8
1028.766	1101.64
1029.055	1064.8
1029.344	1104.35
1029.634	1074.29
1029.923	1062.54
1030.212	1047.85
1030.501	1060.96
1030.79	1050.34
1031.078	1058.93
1031.367	1034.52
1031.656	1026.39
1031.945	1037.23
1032.233	1026.16
1032.522	1008.08
1032.81	1002.21
1033.099	999.04
1033.387	1008.98
1033.675	992.94
1033.963	978.7
1034.251	983.9
1034.54	983.45
1034.828	972.83
1035.116	939.83
1035.403	954.07
1035.691	958.59
1035.979	950.46
1036.267	920.85
1036.554	922.21
1036.842	950.91
1037.129	913.62
1037.417	918.82
1037.704	920.63
1037.992	880.17
1038.279	895.54
1038.566	889.44
1038.853	889.44
1039.14	889.44
