Data from hue_350_FLMS001491_96.txt Node
Date: Mon Feb 06 15:38:47 GMT 2017
User: dcchb
Spectrometer: FLMS00149
Trigger mode: 0
Integration Time (sec): 2.000000E-2
Scans to average: 10
Electric dark correction enabled: true
Nonlinearity correction enabled: false
Boxcar width: 0
XAxis mode: Wavelengths
Number of Pixels in Spectrum: 2048
>>>>>Begin Spectral Data<<<<<
341.393	-8.04
341.776	-8.04
342.16	-8.04
342.543	-42.16
342.927	-56.85
343.31	-78.32
343.693	-67.24
344.077	-58.66
344.46	-71.76
344.843	-52.33
345.226	-55.04
345.61	-29.5
345.993	-24.99
346.376	3.26
346.759	33.32
347.142	21.12
347.525	48.69
347.908	48.23
348.291	75.8
348.674	89.59
349.057	117.84
349.44	118.06
349.823	149.02
350.206	155.8
350.588	214.33
350.971	187.66
351.354	206.42
351.737	245.74
352.119	270.37
352.502	264.72
352.884	280.77
353.267	301.33
353.65	288.68
354.032	315.57
354.414	332.75
354.797	313.99
355.179	316.7
355.562	329.81
355.944	336.36
356.326	352.86
356.709	353.76
357.091	335.01
357.473	346.98
357.855	344.5
358.238	334.1
358.62	350.15
359.002	337.94
359.384	348.56
359.766	329.36
360.148	343.14
360.53	343.82
360.912	322.12
361.294	318.28
361.676	335.91
362.057	338.85
362.439	339.3
362.821	320.99
363.203	331.16
363.584	330.94
363.966	332.75
364.348	329.13
364.729	346.53
365.111	301.33
365.493	322.58
365.874	317.15
366.256	319.64
366.637	320.77
367.019	307.66
367.4	311.05
367.781	317.6
368.163	330.71
368.544	312.86
368.925	308.79
369.306	321.67
369.688	324.84
370.069	319.64
370.45	319.86
370.831	312.86
371.212	327.55
371.593	326.19
371.974	329.58
372.355	309.47
372.736	323.25
373.117	330.94
373.498	315.57
373.879	305.63
374.26	303.59
374.641	323.25
375.021	299.53
375.402	311.28
375.783	318.96
376.163	334.78
376.544	337.04
376.925	328
377.305	344.04
377.686	341.11
378.066	329.13
378.447	346.08
378.827	332.97
379.208	315.12
379.588	312.41
379.968	331.62
380.349	344.27
380.729	337.04
381.109	348.11
381.489	348.34
381.87	339.07
382.25	327.1
382.63	332.75
383.01	325.74
383.39	340.43
383.77	330.71
384.15	329.13
384.53	331.62
384.91	351.95
385.29	334.33
385.67	363.03
386.049	357.83
386.429	361.67
386.809	342.24
387.189	344.27
387.568	351.5
387.948	348.11
388.328	347.43
388.707	346.3
389.087	353.99
389.466	364.38
389.846	346.98
390.225	350.82
390.605	355.34
390.984	352.63
391.363	385.63
391.743	347.66
392.122	359.41
392.501	359.86
392.881	375.23
393.26	363.25
393.639	382.01
394.018	383.82
394.397	374.55
394.776	382.46
395.155	385.4
395.534	372.74
395.913	399.64
396.292	368.68
396.671	384.04
397.05	380.2
397.429	388.11
397.808	384.27
398.186	378.85
398.565	384.95
398.944	370.03
399.323	394.21
399.701	385.85
400.08	394.44
400.458	393.53
400.837	398.96
401.215	422.01
401.594	394.21
401.972	423.36
402.351	403.48
402.729	412.52
403.107	410.26
403.486	391.05
403.864	405.74
404.242	404.38
404.62	403.48
404.999	403.03
405.377	416.13
405.755	407.55
406.133	419.07
406.511	422.46
406.889	418.84
407.267	422.23
407.645	430.14
408.023	445.96
408.401	420.65
408.779	434.44
409.156	429.69
409.534	441.9
409.912	432.18
410.29	447.32
410.667	452.29
411.045	446.64
411.422	460.88
411.8	437.15
412.178	440.54
412.555	422.01
412.933	457.94
413.31	450.48
413.687	462.69
414.065	463.14
414.442	479.63
414.819	498.84
415.197	488
415.574	492.06
415.951	498.39
416.328	517.37
416.705	501.78
417.082	485.51
417.46	534.55
417.837	506.07
418.214	504.72
418.591	488.45
418.967	520.99
419.344	497.03
419.721	519.18
420.098	513.98
420.475	525.73
420.852	519.18
421.228	526.86
421.605	528.22
421.982	529.12
422.358	542.46
422.735	537.03
423.111	537.71
423.488	559.86
423.864	542.46
424.241	582
424.617	583.36
424.994	560.99
425.37	574.1
425.746	575.22
426.123	563.25
426.499	591.72
426.875	588.78
427.251	565.73
427.627	578.84
428.003	593.76
428.379	602.57
428.756	603.92
429.132	585.17
429.507	636.01
429.883	612.06
430.259	642.12
430.635	630.14
431.011	612.51
431.387	629.01
431.763	664.94
432.138	632.62
432.514	629.46
432.89	632.62
433.265	676.92
433.641	682.11
434.016	652.06
434.392	674.21
434.767	687.31
435.143	687.76
435.518	713.75
435.894	703.36
436.269	705.39
436.644	697.93
437.02	690.7
437.395	727.99
437.77	715.33
438.145	722.11
438.52	733.41
438.895	741.1
439.271	753.3
439.646	749.68
440.021	753.3
440.395	745.39
440.77	747.42
441.145	766.63
441.52	775.45
441.895	784.71
442.27	790.36
442.645	769.57
443.019	809.12
443.394	788.55
443.769	798.72
444.143	779.29
444.518	799.85
444.892	796.24
445.267	808.89
445.641	812.96
446.016	810.02
446.39	819.06
446.764	807.99
447.139	803.92
447.513	840.53
447.887	825.16
448.262	838.72
448.636	860.19
449.01	824.26
449.384	850.7
449.758	858.83
450.132	850.7
450.506	856.12
450.88	871.26
451.254	843.69
451.628	880.3
452.002	890.92
452.376	872.62
452.75	889.34
453.123	927.98
453.497	924.82
453.871	917.81
454.244	921.2
454.618	951.49
454.992	938.61
455.365	948.77
455.739	969.56
456.112	976.57
456.486	950.81
456.859	968.21
457.232	977.93
457.606	994.42
457.979	1001.43
458.352	1031.03
458.725	1033.52
459.099	1031.48
459.472	1052.27
459.845	1040.98
460.218	1075.32
460.591	1052.5
460.964	1063.8
461.337	1104.02
461.71	1110.58
462.083	1113.97
462.456	1126.62
462.829	1108.09
463.201	1149.22
463.574	1166.4
463.947	1119.84
464.32	1151.03
464.692	1196.9
465.065	1201.65
465.438	1177.7
465.81	1205.94
466.183	1213.17
466.555	1224.93
466.928	1250.24
467.3	1255.21
467.672	1273.06
468.045	1316.67
468.417	1300.18
468.789	1321.19
469.161	1342.44
469.534	1361.42
469.906	1384.02
470.278	1367.52
470.65	1381.98
471.022	1415.2
471.394	1428.08
471.766	1454.75
472.138	1483.22
472.51	1504.92
472.882	1532.26
473.253	1534.3
473.625	1540.62
473.997	1587.18
474.369	1582.43
474.74	1598.7
475.112	1621.53
475.484	1638.7
475.855	1678.25
476.227	1743.56
476.598	1780.39
476.97	1782.2
477.341	1827.62
477.713	1817.45
478.084	1857
478.455	1901.07
478.827	1892.03
479.198	1966.83
479.569	1945.13
479.94	2000.72
480.311	2045.69
480.682	2090.67
481.053	2104.9
481.424	2174.28
481.795	2182.87
482.166	2222.41
482.537	2260.38
482.908	2269.87
483.279	2310.77
483.65	2339.47
484.021	2408.4
484.391	2418.79
484.762	2460.15
485.133	2473.48
485.503	2551.22
485.874	2580.6
486.244	2602.06
486.615	2614.27
486.985	2651.55
487.356	2729.29
487.726	2726.35
488.097	2793.25
488.467	2791.89
488.837	2856.29
489.207	2906.69
489.578	2957.76
489.948	3000.02
490.318	3014.93
490.688	3016.06
491.058	3075.72
491.428	3120.92
491.798	3141.03
492.168	3161.6
492.538	3195.72
492.908	3296.96
493.278	3301.03
493.648	3281.14
494.017	3314.81
494.387	3372.67
494.757	3383.51
495.126	3438.43
495.496	3463.06
495.866	3446.56
496.235	3546.67
496.605	3527.69
496.974	3576.95
497.344	3574.47
497.713	3616.95
498.082	3668.48
498.452	3713.9
498.821	3731.75
499.19	3722.49
499.559	3755.03
499.928	3760.9
500.298	3795.48
500.667	3822.82
501.036	3836.61
501.405	3872.99
501.774	3873.22
502.143	3951.63
502.512	3872.09
502.88	3982.82
503.249	3965.64
503.618	3971.29
503.987	3984.17
504.356	4011.74
504.724	4028.24
505.093	4056.94
505.462	4111.63
505.83	4122.48
506.199	4153.66
506.567	4156.83
506.936	4159.76
507.304	4218.75
507.672	4234.79
508.041	4234.11
508.409	4239.54
508.777	4294
509.145	4312.3
509.514	4326.76
509.882	4334
510.25	4368.35
510.618	4343.71
510.986	4411.28
511.354	4387.55
511.722	4444.73
512.09	4477.5
512.458	4453.99
512.826	4469.36
513.193	4523.6
513.561	4522.69
513.929	4558.62
514.297	4595.91
514.664	4610.83
515.032	4605.18
515.4	4628.9
515.767	4626.42
516.135	4663.03
516.502	4646.98
516.869	4728.34
517.237	4711.61
517.604	4708.9
517.972	4770.59
518.339	4750.03
518.706	4827.99
519.073	4792.52
519.44	4779.63
519.808	4813.08
520.175	4833.42
520.542	4888.33
520.909	4921.55
521.276	4878.39
521.643	4879.74
522.009	4960.42
522.376	4992.28
522.743	5004.94
523.11	5050.14
523.477	5045.62
523.843	5086.52
524.21	5106.63
524.577	5083.13
524.943	5126.29
525.31	5179.62
525.676	5203.8
526.043	5235.67
526.409	5225.5
526.776	5322.44
527.142	5302.56
527.508	5304.37
527.874	5359.73
528.241	5432.72
528.607	5422.78
528.973	5457.81
529.339	5472.95
529.705	5443.8
530.071	5576.22
530.437	5543.23
530.803	5582.1
531.169	5590.01
531.535	5618.71
531.901	5614.41
532.267	5677.01
532.632	5745.26
532.998	5771.47
533.364	5789.78
533.73	5770.12
534.095	5826.16
534.461	5831.81
534.826	5856.67
535.192	5896.67
535.557	5951.58
535.923	5910
536.288	5924.69
536.653	5992.48
537.019	5976.66
537.384	5965.37
537.749	6042.88
538.114	6058.02
538.479	6051.01
538.845	6089.2
539.21	6059.6
539.575	6095.53
539.94	6166.26
540.305	6254.4
540.67	6211.23
541.034	6199.71
541.399	6243.55
541.764	6285.36
542.129	6279.03
542.494	6318.35
542.858	6340.27
543.223	6346.37
543.587	6411
543.952	6454.84
544.316	6438.57
544.681	6485.8
545.045	6479.02
545.41	6592.24
545.774	6546.82
546.138	6554.28
546.503	6519.25
546.867	6581.62
547.231	6626.82
547.595	6702.75
547.959	6679.7
548.324	6721.05
548.688	6715.18
549.052	6745.01
549.416	6787.49
549.779	6750.88
550.143	6783.65
550.507	6881.73
550.871	6909.3
551.235	6909.52
551.599	6913.14
551.962	6927.37
552.326	7032.46
552.689	6972.12
553.053	6973.47
553.417	6996.3
553.78	7033.36
554.143	7070.2
554.507	7077.88
554.87	7054.6
555.234	7198.1
555.597	7110.19
555.96	7192.45
556.323	7163.3
556.686	7222.96
557.05	7295.73
557.413	7288.27
557.776	7316.74
558.139	7272.68
558.502	7364.43
558.865	7334.14
559.228	7409.17
559.59	7469.73
559.953	7493.91
560.316	7556.28
560.679	7534.82
561.041	7542.73
561.404	7624.98
561.767	7605.32
562.129	7613.68
562.492	7694.36
562.854	7684.64
563.217	7695.49
563.579	7749.05
563.941	7712.21
564.304	7739.78
564.666	7784.3
565.028	7852.55
565.39	7873.34
565.753	7840.8
566.115	7930.51
566.477	7932.09
566.839	8039.66
567.201	8040.79
567.563	8006.44
567.925	8073.56
568.287	8097.06
568.648	8127.57
569.01	8120.79
569.372	8170.51
569.734	8179.54
570.095	8254.57
570.457	8302.71
570.819	8281.92
571.18	8330.05
571.542	8367.11
571.903	8391.06
572.265	8575.92
572.626	8479.2
572.987	8531.4
573.349	8630.83
573.71	8674.45
574.071	8718.97
574.432	8692.07
574.794	8765.29
575.155	8813.65
575.516	8851.39
575.877	8942.01
576.238	9015.91
576.599	9070.37
576.96	9130.71
577.32	9191.72
577.681	9236.69
578.042	9384.48
578.403	9376.12
578.763	9556.01
579.124	9598.72
579.485	9699.28
579.845	9761.65
580.206	9831.48
580.566	9993.73
580.927	10089.78
581.287	10223.56
581.648	10269.89
582.008	10499.03
582.368	10528.64
582.728	10743.09
583.089	10802.07
583.449	10917.33
583.809	11138.56
584.169	11312.34
584.529	11466.01
584.889	11661.26
585.249	11724.31
585.609	11914.59
585.969	12142.6
586.329	12273.45
586.688	12581.91
587.048	12740.33
587.408	12830.72
587.768	13124.5
588.127	13269.58
588.487	13452.4
588.846	13858.04
589.206	13934.2
589.565	14181.19
589.925	14491.47
590.284	14683.78
590.643	14936.88
591.003	15218.68
591.362	15559.24
591.721	15683.08
592.08	15984.09
592.44	16296.39
592.799	16528.48
593.158	16767.57
593.517	17113.77
593.876	17308.34
594.235	17634.66
594.593	17963.02
594.952	18213.41
595.311	18363.68
595.67	18816.78
596.029	19037.56
596.387	19372.24
596.746	19740.82
597.104	19915.51
597.463	20133.35
597.822	20497.19
598.18	20695.6
598.538	20938.08
598.897	21389.59
599.255	21421.68
599.613	22083.36
599.972	22096.69
600.33	22508.21
600.688	22622.33
601.046	22979.83
601.404	23457.11
601.762	23653.26
602.12	24008.51
602.478	24331.89
602.836	24417.54
603.194	24735.04
603.552	24894.13
603.91	25105.43
604.268	25575.02
604.625	25693.89
604.983	26100.2
605.341	26073.31
605.698	26559.85
606.056	26795.55
606.413	27061.99
606.771	27401.41
607.128	27537
607.485	27613.16
607.843	27825.36
608.2	28326.36
608.557	28626.69
608.914	28574.49
609.272	29056.96
609.629	29226.22
609.986	29541.69
610.343	29686.1
610.7	29961.12
611.057	30165.63
611.414	30284.73
611.771	30537.83
612.127	30869.34
612.484	30893.75
612.841	31211.71
613.198	31326.28
613.554	31330.12
613.911	31763.33
614.267	31840.62
614.624	31942.54
614.98	32270.89
615.337	32514.05
615.693	32642.63
616.05	32711.56
616.406	33069.06
616.762	33017.08
617.118	33191.99
617.475	33373.68
617.831	33608.03
618.187	33693.45
618.543	33776.16
618.899	34059.77
619.255	34295.24
619.611	34259.76
619.967	34433.32
620.323	34570.94
620.678	34505.18
621.034	34612.75
621.39	34628.34
621.746	34810.93
622.101	35249.57
622.457	35165.95
622.812	35440.75
623.168	35446.17
623.523	35497.7
623.879	35829.44
624.234	35635.55
624.589	35799.38
624.945	36040.96
625.3	36073.95
625.655	36018.13
626.01	36183.1
626.365	36172.71
626.72	36294.29
627.075	36330.44
627.43	36448.18
627.785	36318.69
628.14	36505.58
628.495	36585.13
628.85	36731.56
629.205	36571.11
629.559	36845.23
629.914	36756.87
630.269	36810.88
630.623	36562.3
630.978	36746.03
631.332	36968.39
631.687	37066.02
632.041	36868.51
632.396	36952.35
632.75	36847.72
633.104	36953.48
633.459	36824.67
633.813	36871.45
634.167	36900.37
634.521	36920.03
634.875	37135.17
635.229	37034.61
635.583	36916.87
635.937	36899.47
636.291	36936.75
636.645	36932.01
636.999	36933.14
637.352	37030.54
637.706	36965.68
638.06	37187.37
638.413	37044.32
638.767	37009.97
639.121	37095.62
639.474	36998.45
639.828	36978.79
640.181	36992.12
640.534	37043.87
640.888	37105.34
641.241	36734.5
641.594	36903.99
641.947	37043.19
642.301	36923.2
642.654	36946.02
643.007	36893.37
643.36	36887.49
643.713	36876.42
644.066	37128.61
644.419	36856.08
644.771	36567.72
645.124	36287.51
645.477	36235.08
645.83	35995.54
646.182	35938.14
646.535	35866.5
646.888	35848.42
647.24	35711.25
647.593	35850.23
647.945	35790.57
648.298	35720.29
648.65	35611.59
649.002	35496.34
649.355	35727.07
649.707	35554.87
650.059	35835.09
650.411	36255.64
650.763	36337.67
651.115	36625.8
651.467	36526.37
651.819	36448.86
652.171	36417.67
652.523	36464.45
652.875	36399.37
653.227	36417.45
653.578	36643.88
653.93	36605.01
654.282	36271.69
654.633	36172.26
654.985	36315.3
655.337	36285.47
655.688	36334.28
656.039	36434.62
656.391	36084.8
656.742	36205.93
657.094	36129.54
657.445	36253.16
657.796	36232.37
658.147	36226.04
658.498	36149.43
658.849	36194.85
659.2	36202.76
659.551	36145.82
659.902	36390.55
660.253	36157.11
660.604	36275.76
660.955	36099.94
661.306	36199.15
661.656	35987.18
662.007	36071.47
662.358	36007.29
662.708	35934.3
663.059	35937.69
663.409	35845.94
663.76	36108.75
664.11	35967.29
664.461	36125.48
664.811	36238.02
665.161	36073.27
665.511	36065.14
665.862	36101.75
666.212	36124.8
666.562	36078.92
666.912	35989.21
667.262	35946.05
667.612	36116.89
667.962	36101.97
668.312	36032.15
668.662	36270.11
669.011	36110.56
669.361	35959.83
669.711	35966.84
670.06	35990.11
670.41	35883.22
670.76	35763.45
671.109	35950.57
671.459	35979.04
671.808	35920.51
672.157	35937.23
672.507	35771.14
672.856	35679.61
673.205	35800.74
673.554	35809.78
673.904	35780.63
674.253	35984.69
674.602	35773.85
674.951	35283.24
675.3	35017.26
675.649	35743.79
675.998	35666.51
676.346	35674.42
676.695	35663.12
677.044	35513.06
677.393	35617.47
677.741	35633.96
678.09	35460.41
678.438	35554.64
678.787	35493.4
679.135	35480.52
679.484	35190.59
679.832	35417.02
680.181	35173.19
680.529	35436.68
680.877	35193.98
681.225	35183.35
681.573	35349.68
681.922	35080.98
682.27	35040.08
682.618	35110.14
682.966	34980.42
683.314	34968.67
683.661	35064.71
684.009	34842.35
684.357	34753.54
684.705	34682.12
685.053	34793.53
685.4	34732.29
685.748	34518.06
686.095	34449.59
686.443	34307.67
686.79	34316.48
687.138	34294.79
687.485	34312.64
687.832	34168.01
688.18	34196.26
688.527	34081.01
688.874	34077.39
689.221	34026.32
689.568	33926.21
689.915	33935.25
690.262	33798.31
690.609	33688.7
690.956	33680.34
691.303	33532.32
691.65	33384.98
691.997	33443.97
692.344	33229.51
692.69	33212.11
693.037	33307.02
693.383	33149.28
693.73	33180.47
694.077	32978.67
694.423	32932.79
694.769	32878.78
695.116	32731.22
695.462	32833.59
695.808	32599.24
696.155	32601.73
696.501	32431.79
696.847	32408.96
697.193	32276.76
697.539	32321.51
697.885	32065.7
698.231	32020.05
698.577	31964.68
698.923	31827.96
699.269	31786.61
699.614	31567.4
699.96	31601.3
700.306	31508.42
700.651	31475.2
700.997	31182.56
701.342	31404.7
701.688	31359.27
702.033	31164.25
702.379	31153.63
702.724	31103.01
703.069	31106.63
703.415	30775.33
703.76	30766.3
704.105	30844.26
704.45	30776.92
704.795	30510.71
705.14	30516.58
705.485	30417.83
705.83	30302.35
706.175	30262.35
706.52	30222.81
706.865	30121.79
707.209	30108.91
707.554	30099.19
707.899	29948.69
708.243	29814.23
708.588	29822.59
708.932	29614.24
709.277	29691.52
709.621	29598.87
709.966	29428.48
710.31	29600.45
710.654	29439.32
710.998	29402.04
711.342	29332.89
711.687	29277.52
712.031	29137.86
712.375	29023.97
712.719	29115.04
713.063	29015.38
713.407	29046.34
713.75	28912.78
714.094	28897.42
714.438	28775.39
714.782	28792.11
715.125	28685.45
715.469	28635.5
715.812	28577.65
716.156	28370.2
716.499	28478.22
716.843	28460.37
717.186	28374.72
717.53	28303.31
717.873	28321.61
718.216	28238.23
718.559	28160.71
718.902	27959.82
719.246	28057.44
719.589	27881.4
719.932	27828.97
720.275	27916.65
720.617	27850.44
720.96	27749.43
721.303	27768.41
721.646	27758.24
721.989	27484.57
722.331	27768.18
722.674	27611.8
723.016	27614.74
723.359	27469.66
723.701	27568.19
724.044	27395.76
724.386	27170.91
724.729	27265.14
725.071	27256.56
725.413	27161.19
725.755	27280.96
726.097	27071.03
726.439	26927.75
726.782	27045.04
727.124	27043.68
727.465	26928.2
727.807	26845.04
728.149	26817.47
728.491	26890.47
728.833	26847.53
729.175	26751.26
729.516	26740.86
729.858	26558.5
730.199	26631.94
730.541	26677.14
730.882	26512.85
731.224	26615.9
731.565	26562.56
731.906	26433.98
732.248	26478.95
732.589	26292.97
732.93	26299.52
733.271	26332.29
733.612	26348.33
733.953	26282.35
734.294	26152.41
734.635	26049.58
734.976	26280.31
735.317	26045.97
735.658	26044.16
735.999	26037.83
736.339	25981.34
736.68	26017.04
737.021	25940.43
737.361	25802.81
737.702	25895.24
738.042	25851.4
738.383	25781.79
738.723	25838.52
739.063	25660.89
739.404	25731.4
739.744	25666.54
740.084	25483.27
740.424	25549.71
740.764	25583.16
741.104	25518.98
741.444	25521.01
741.784	25361.01
742.124	25421.13
742.464	25342.71
742.804	25332.77
743.143	25157.63
743.483	25128.93
743.823	25124.64
744.162	25165.31
744.502	25158.31
744.841	25045.09
745.181	25232.88
745.52	25043.73
745.86	25035.82
746.199	24961.25
746.538	24950.86
746.877	24918.31
747.216	24846.45
747.556	24832.21
747.895	24851.65
748.234	24694.59
748.573	24722.84
748.911	24662.05
749.25	24667.02
749.589	24557.65
749.928	24641.71
750.267	24583.86
750.605	24555.16
750.944	24349.97
751.283	24337.09
751.621	24462.96
751.96	24357.65
752.298	24231.55
752.636	24287.37
752.975	24221.83
753.313	24130.54
753.651	24105.45
753.989	24069.52
754.327	24051.67
754.666	23931
755.004	23919.92
755.342	23914.95
755.679	23903.88
756.017	23769.19
756.355	23884.22
756.693	23629.99
757.031	23712.92
757.368	23552.25
757.706	23513.38
758.044	23511.35
758.381	23520.84
758.719	23391.35
759.056	23365.59
759.394	23407.62
759.731	23227.06
760.068	23125.37
760.405	23182.31
760.743	23032.71
761.08	23058.48
761.417	22892.38
761.754	22993.84
762.091	22849.44
762.428	22812.38
762.765	22584.82
763.102	22752.72
763.438	22439.73
763.775	22419.17
764.112	22537.59
764.449	22521.99
764.785	22406.74
765.122	22181.44
765.458	22150.25
765.795	22185.28
766.131	22045.85
766.467	22053.3
766.804	21984.61
767.14	21856.7
767.476	21855.34
767.812	21651.96
768.148	21689.25
768.485	21653.54
768.821	21546.65
769.157	21467.33
769.492	21398.86
769.828	21352.98
770.164	21096.27
770.5	21134.68
770.836	21145.31
771.171	21103.72
771.507	21024.86
771.842	20809.72
772.178	20790.06
772.513	20753.68
772.849	20687.46
773.184	20515.94
773.519	20539.9
773.855	20489.5
774.19	20303.97
774.525	20321.82
774.86	20282.28
775.195	20203.64
775.53	20178.1
775.865	20028.05
776.2	19892.68
776.535	19776.08
776.87	19829.18
777.205	19790.31
777.539	19662.18
777.874	19751.9
778.209	19462.64
778.543	19487.04
778.878	19398.68
779.212	19345.58
779.547	19302.42
779.881	19247.73
780.215	19064
780.55	19102.87
780.884	19022.2
781.218	18924.12
781.552	18987.85
781.886	18876.89
782.22	18679.83
782.554	18613.17
782.888	18482.1
783.222	18460.18
783.556	18393.06
783.889	18306.06
784.223	18160.75
784.557	18217.47
784.89	18152.62
785.224	18111.94
785.557	17950.14
785.891	17998.27
786.224	17940.87
786.558	17948.78
786.891	17761.44
787.224	17698.39
787.557	17597.15
787.891	17587.89
788.224	17635.57
788.557	17582.01
788.89	17559.86
789.223	17401.22
789.556	17288.23
789.888	17327.78
790.221	17256.14
790.554	17111.29
790.887	17116.26
791.219	17018.41
791.552	16965.98
791.884	16871.97
792.217	16839.88
792.549	16907.45
792.882	16681.69
793.214	16538.87
793.546	16621.58
793.879	16555.37
794.211	16410.29
794.543	16452.55
794.875	16470.4
795.207	16438.76
795.539	16328.94
795.871	16343.62
796.203	16196.96
796.535	16121.26
796.867	16111.54
797.198	15904.31
797.53	15993.12
797.862	16013.69
798.193	15920.36
798.525	15823.19
798.856	15804.88
799.188	15701.83
799.519	15679.91
799.85	15559.01
800.182	15520.37
800.513	15530.31
800.844	15430.2
801.175	15469.52
801.506	15465.91
801.837	15399.24
802.168	15343.2
802.499	15295.29
802.83	15166.71
803.161	15178
803.491	15102.3
803.822	15133.71
804.153	14991.34
804.483	14906.83
804.814	14826.38
805.145	14827.28
805.475	14711.58
805.805	14743.44
806.136	14733.5
806.466	14797
806.796	14708.19
807.126	14564.01
807.457	14547.06
807.787	14591.13
808.117	14471.36
808.447	14391.58
808.777	14455.76
809.107	14356.78
809.436	14270.91
809.766	14321.08
810.096	14233.4
810.426	14208.99
810.755	14191.14
811.085	14168.09
811.414	14140.07
811.744	13997.92
812.073	14035.21
812.403	13945.72
812.732	13913.18
813.061	13953.18
813.39	13823.01
813.719	13793.41
814.049	13877.02
814.378	13843.58
814.707	13746.86
815.036	13699.4
815.365	13655.11
815.693	13633.41
816.022	13566.3
816.351	13498.05
816.68	13484.72
817.008	13431.38
817.337	13355.91
817.665	13338.28
817.994	13348.45
818.322	13329.92
818.651	13271.16
818.979	13257.15
819.307	13369.46
819.636	13225.74
819.964	13066.87
820.292	13264.83
820.62	13118.4
820.948	13089.7
821.276	13133.76
821.604	13087.66
821.932	13149.36
822.259	13157.94
822.587	13149.36
822.915	13170.15
823.243	13135.12
823.57	13075.46
823.898	13075.24
824.225	13059.64
824.553	13026.65
824.88	13048.57
825.207	13079.08
825.535	13009.02
825.862	13093.99
826.189	13068.46
826.516	13140.09
826.843	13147.32
827.17	13139.41
827.497	13139.19
827.824	13021.68
828.151	13192.97
828.478	12962.24
828.805	13125.4
829.131	12943.71
829.458	12997.72
829.785	12981
830.111	13098.29
830.438	13009.47
830.764	13040.21
831.09	12952.75
831.417	12959.08
831.743	13043.6
832.069	12988.46
832.395	12880.89
832.722	12941.91
833.048	12951.62
833.374	12904.17
833.7	12870.95
834.026	12896.71
834.351	12954.56
834.677	12910.27
835.003	12908.91
835.329	12876.14
835.654	12785.75
835.98	12805.64
836.306	12809.25
836.631	12721.12
836.956	12774.45
837.282	12782.81
837.607	12687.9
837.932	12719.99
838.258	12718.18
838.583	12617.62
838.908	12616.26
839.233	12574.46
839.558	12599.77
839.883	12515.7
840.208	12421.92
840.533	12547.57
840.858	12465.99
841.182	12535.81
841.507	12464.86
841.832	12380.11
842.156	12405.87
842.481	12385.76
842.805	12405.2
843.13	12373.56
843.454	12293.33
843.778	12237.29
844.103	12201.59
844.427	12125.88
844.751	12219.44
845.075	12155.26
845.399	12131.53
845.723	12045.43
846.047	12103.28
846.371	11994.59
846.695	11903.51
847.019	11775.16
847.343	11870.07
847.666	11700.13
847.99	11719.79
848.313	11674.59
848.637	11589.17
848.96	11675.05
849.284	11602.96
849.607	11520.47
849.931	11535.16
850.254	11405.45
850.577	11429.4
850.9	11283.87
851.223	11293.81
851.546	11203.87
851.869	11158.22
852.192	11220.59
852.515	11077.32
852.838	11071.22
853.161	11012.01
853.483	10984.89
853.806	10921.17
854.129	10918
854.451	10908.74
854.774	10834.39
855.096	10747.84
855.419	10766.82
855.741	10670.1
856.063	10637.79
856.385	10662.42
856.708	10611.57
857.03	10543.55
857.352	10585.36
857.674	10591.91
857.996	10484.57
858.318	10403.67
858.64	10402.31
858.961	10404.12
859.283	10339.49
859.605	10292.94
859.926	10301.3
860.248	10268.76
860.57	10294.07
860.891	10264.46
861.212	10225.59
861.534	10242.09
861.855	10171.81
862.176	10191.47
862.498	10176.78
862.819	10130.91
863.14	10063.11
863.461	10072.83
863.782	10003.45
864.103	10002.55
864.424	9994.86
864.745	10036.9
865.065	9887.3
865.386	9942.21
865.707	9947.86
866.027	9917.35
866.348	9885.26
866.668	9840.97
866.989	9827.64
867.309	9780.63
867.63	9863.79
867.95	9742.67
868.27	9751.25
868.59	9784.93
868.91	9714.87
869.23	9764.36
869.55	9707.41
869.87	9742.22
870.19	9738.83
870.51	9724.36
870.83	9713.52
871.15	9605.95
871.469	9664.48
871.789	9717.58
872.109	9584.25
872.428	9578.15
872.748	9542.67
873.067	9560.53
873.386	9641.65
873.706	9492.73
874.025	9473.75
874.344	9459.74
874.663	9501.77
874.982	9458.61
875.301	9393.98
875.62	9424.48
875.939	9418.16
876.258	9402.56
876.577	9333.64
876.896	9325.05
877.214	9361.66
877.533	9302.91
877.852	9316.46
878.17	9320.31
878.489	9363.02
878.807	9253.87
879.125	9222.23
879.444	9209.12
879.762	9211.38
880.08	9188.11
880.398	9133.42
880.716	9157.37
881.034	9085.28
881.352	9139.75
881.67	9153.53
881.988	9063.36
882.306	9071.5
882.624	9087.54
882.941	9014.1
883.259	9027.43
883.577	8950.15
883.894	8933.42
884.212	8935.91
884.529	8893.65
884.846	8908.11
885.164	8856.82
885.481	8933.42
885.798	8922.8
886.115	8828.12
886.432	8865.85
886.75	8788.79
887.067	8718.51
887.383	8737.04
887.7	8756.48
888.017	8669.7
888.334	8683.03
888.651	8601.91
888.967	8662.47
889.284	8595.81
889.6	8610.27
889.917	8485.53
890.233	8551.29
890.55	8540.67
890.866	8529.14
891.182	8421.12
891.498	8476.94
891.815	8419.99
892.131	8377.96
892.447	8401.46
892.763	8376.83
893.079	8266.55
893.395	8272.42
893.71	8284.63
894.026	8215.02
894.342	8256.38
894.657	8186.55
894.973	8145.65
895.289	8153.56
895.604	8130.28
895.92	8081.92
896.235	8010.96
896.55	8042.83
896.865	8063.62
897.181	7991.75
897.496	7985.2
897.811	7945.65
898.126	7908.37
898.441	7919.21
898.756	7865.65
899.071	7821.36
899.386	7847.35
899.7	7751.76
900.015	7734.13
900.33	7691.2
900.644	7641.25
900.959	7671.08
901.273	7591.31
901.588	7538.21
901.902	7564.19
902.216	7558.32
902.531	7557.41
902.845	7519.22
903.159	7434.93
903.473	7386.12
903.787	7401.94
904.101	7406.91
904.415	7371.2
904.729	7316.29
905.042	7267.7
905.356	7260.7
905.67	7193.36
905.984	7258.21
906.297	7240.36
906.611	7135.96
906.924	7160.36
907.237	7104.09
907.551	7105
907.864	7043.98
908.177	7061.83
908.491	7024.77
908.804	6988.84
909.117	6911.78
909.43	6958.11
909.743	6910.2
910.056	6857.09
910.368	6815.51
910.681	6807.6
910.994	6751.79
911.307	6742.75
911.619	6740.26
911.932	6699.36
912.244	6665.69
912.557	6668.62
912.869	6601.73
913.181	6648.29
913.494	6622.07
913.806	6521.51
914.118	6570.77
914.43	6474.05
914.742	6471.34
915.054	6452.36
915.366	6416.65
915.678	6412.81
915.99	6347.28
916.302	6292.36
916.613	6314.28
916.925	6320.61
917.236	6244.91
917.548	6277.22
917.859	6237.45
918.171	6236.55
918.482	6152.03
918.794	6152.48
919.105	6079.04
919.416	6031.58
919.727	6029.09
920.038	6026.61
920.349	6001.07
920.66	5936.67
920.971	5922.66
921.282	5962.43
921.593	5883.11
921.903	5867.29
922.214	5865.93
922.525	5821.41
922.835	5827.74
923.146	5738.48
923.456	5822.54
923.767	5751.59
924.077	5745.26
924.387	5693.73
924.697	5706.84
925.008	5616.67
925.318	5634.53
925.628	5616
925.938	5558.82
926.248	5576.45
926.558	5531.48
926.867	5531.93
927.177	5473.85
927.487	5464.81
927.796	5414.42
928.106	5393.4
928.416	5359.05
928.725	5363.12
929.034	5376.68
929.344	5365.83
929.653	5312.5
929.962	5290.58
930.271	5270.92
930.581	5237.93
930.89	5190.7
931.199	5173.52
931.508	5165.84
931.817	5142.11
932.125	5103.47
932.434	5126.97
932.743	5040.19
933.051	5054.88
933.36	5038.84
933.669	5041.77
933.977	4978.73
934.286	4983.47
934.594	4973.3
934.902	4920.87
935.21	4933.08
935.519	4908.44
935.827	4893.3
936.135	4850.82
936.443	4839.97
936.751	4789.58
937.059	4785.28
937.367	4764.95
937.674	4746.41
937.982	4758.39
938.29	4738.51
938.597	4709.58
938.905	4674.1
939.213	4645.63
939.52	4625.06
939.827	4629.58
940.135	4660.99
940.442	4572.18
940.749	4586.19
941.056	4518.4
941.363	4461.45
941.67	4476.14
941.977	4422.13
942.284	4428.01
942.591	4432.75
942.898	4425.97
943.205	4388.68
943.511	4388.68
943.818	4377.61
944.125	4330.15
944.431	4302.81
944.738	4303.26
945.044	4310.95
945.35	4255.81
945.657	4262.13
945.963	4238.18
946.269	4204.51
946.575	4151.85
946.881	4222.59
947.187	4161.12
947.493	4137.17
947.799	4115.7
948.105	4115.02
948.41	4094.45
948.716	4068.47
949.022	4041.35
949.327	4014.23
949.633	3982.82
949.938	4016.49
950.244	4016.72
950.549	3964.51
950.854	3952.54
951.16	3913.44
951.465	3903.27
951.77	3882.48
952.075	3891.75
952.38	3864.63
952.685	3842.48
952.99	3804.74
953.294	3831.18
953.599	3792.09
953.904	3788.7
954.209	3757.74
954.513	3734.69
954.818	3741.24
955.122	3704.86
955.426	3730.17
955.731	3720
956.035	3673.22
956.339	3684.07
956.643	3615.6
956.948	3623.96
957.252	3609.5
957.556	3583.73
957.86	3585.09
958.163	3571.08
958.467	3508.48
958.771	3517.97
959.075	3570.17
959.378	3514.58
959.682	3578.76
959.985	3472.32
960.289	3473.91
960.592	3415.6
960.896	3432.33
961.199	3405.43
961.502	3381.48
961.805	3391.42
962.108	3373.34
962.411	3332.67
962.714	3326.34
963.017	3343.51
963.32	3349.39
963.623	3314.59
963.926	3296.96
964.228	3278.66
964.531	3255.83
964.833	3221.94
965.136	3177.42
965.438	3231.2
965.741	3208.38
966.043	3183.29
966.345	3182.39
966.648	3202.73
966.95	3148.72
967.252	3137.87
967.554	3123.63
967.856	3127.7
968.158	3079.79
968.46	3066.23
968.761	3080.92
969.063	3065.55
969.365	3069.17
969.666	3081.37
969.968	2995.5
970.269	3005.44
970.571	2998.66
970.872	2975.39
971.174	2989.17
971.475	2937.65
971.776	2967.93
972.077	2896.75
972.378	2926.35
972.679	2935.39
972.98	2883.41
973.281	2868.72
973.582	2840.25
973.883	2824.88
974.183	2844.54
974.484	2811.78
974.785	2840.7
975.085	2843.64
975.386	2789.63
975.686	2791.89
975.986	2744.89
976.287	2785.34
976.587	2701.72
976.887	2734.72
977.187	2706.24
977.487	2755.73
977.787	2676.86
978.087	2686.36
978.387	2684.77
978.687	2657.2
978.987	2627.15
979.286	2618.11
979.586	2623.31
979.885	2616.08
980.185	2622.4
980.484	2602.97
980.784	2598.45
981.083	2570.2
981.382	2527.72
981.682	2534.5
981.981	2529.52
982.28	2512.35
982.579	2542.4
982.878	2495.4
983.177	2502.63
983.475	2490.43
983.774	2462.63
984.073	2450.66
984.372	2449.07
984.67	2444.1
984.969	2433.71
985.267	2408.17
985.566	2378.57
985.864	2413.14
986.162	2389.87
986.461	2390.54
986.759	2361.17
987.057	2313.48
987.355	2366.82
987.653	2374.27
987.951	2313.26
988.249	2316.42
988.547	2315.74
988.844	2310.77
989.142	2294.73
989.44	2260.83
989.737	2283.88
990.035	2228.97
990.332	2204.33
990.63	2193.71
990.927	2212.47
991.224	2186.93
991.521	2202.98
991.819	2181.74
992.116	2195.52
992.413	2183.09
992.71	2179.93
993.006	2169.53
993.303	2158.01
993.6	2146.71
993.897	2128.86
994.193	2119.59
994.49	2139.25
994.787	2103.09
995.083	2103.55
995.379	2073.72
995.676	2063.1
995.972	2072.81
996.268	2047.95
996.565	2047.5
996.861	2012.02
997.157	2028.97
997.453	2024.9
997.749	1964.34
998.044	1936.32
998.34	1964.57
998.636	1988.52
998.932	1935.64
999.227	1948.3
999.523	1927.28
999.818	1924.12
1000.114	1898.81
1000.409	1907.17
1000.704	1874.17
1001	1904.68
1001.295	1899.48
1001.59	1875.3
1001.885	1878.69
1002.18	1850.9
1002.475	1861.07
1002.77	1810.9
1003.065	1816.1
1003.359	1824.23
1003.654	1795.53
1003.949	1819.49
1004.243	1793.95
1004.538	1800.96
1004.832	1787.17
1005.127	1747.85
1005.421	1741.97
1005.715	1734.06
1006.009	1720.28
1006.304	1726.61
1006.598	1715.31
1006.892	1703.56
1007.186	1707.62
1007.48	1720.51
1007.773	1668.08
1008.067	1669.66
1008.361	1664.69
1008.655	1642.09
1008.948	1618.14
1009.242	1632.37
1009.535	1617.01
1009.829	1620.4
1010.122	1607.06
1010.415	1599.6
1010.708	1589.89
1011.001	1569.1
1011.295	1557.12
1011.588	1566.84
1011.881	1550.34
1012.173	1526.84
1012.466	1549.66
1012.759	1518.03
1013.052	1518.7
1013.344	1526.16
1013.637	1475.09
1013.93	1470.79
1014.222	1488.42
1014.514	1467.4
1014.807	1464.92
1015.099	1451.81
1015.391	1457.91
1015.683	1430.12
1015.976	1452.72
1016.268	1434.86
1016.56	1426.73
1016.851	1420.17
1017.143	1422.43
1017.435	1418.14
1017.727	1413.17
1018.018	1379.27
1018.31	1380.85
1018.602	1356.22
1018.893	1369.33
1019.185	1342.89
1019.476	1348.99
1019.767	1318.71
1020.058	1334.98
1020.35	1322.32
1020.641	1319.84
1020.932	1316.9
1021.223	1300.18
1021.514	1290.23
1021.804	1254.98
1022.095	1260.86
1022.386	1295.66
1022.677	1271.25
1022.967	1216.34
1023.258	1212.04
1023.548	1213.17
1023.839	1205.26
1024.129	1200.97
1024.419	1170.69
1024.709	1200.52
1025	1190.35
1025.29	1178.6
1025.58	1170.01
1025.87	1167.75
1026.16	1150.58
1026.449	1140.41
1026.739	1136.11
1027.029	1132.72
1027.319	1121.65
1027.608	1100.41
1027.898	1126.4
1028.187	1116.68
1028.477	1102.67
1028.766	1075.55
1029.055	1109
1029.344	1088.88
1029.634	1037.13
1029.923	1052.73
1030.212	1072.61
1030.501	1037.81
1030.79	1016.34
1031.078	1040.52
1031.367	1048.21
1031.656	1045.95
1031.945	1016.12
1032.233	1015.44
1032.522	1015.44
1032.81	1008.89
1033.099	1000.98
1033.387	977.7
1033.675	965.5
1033.963	989.68
1034.251	982.9
1034.54	961.66
1034.828	968.89
1035.116	971.37
1035.403	956.68
1035.691	953.75
1035.979	953.52
1036.267	938.83
1036.554	918.27
1036.842	932.05
1037.129	915.78
1037.417	921.88
1037.704	889.79
1037.992	896.35
1038.279	900.64
1038.566	883.69
1038.853	883.69
1039.14	883.69
