Data from hue_10_FLMS001491_44.txt Node
Date: Mon Feb 06 15:31:58 GMT 2017
User: dcchb
Spectrometer: FLMS00149
Trigger mode: 0
Integration Time (sec): 2.000000E-2
Scans to average: 10
Electric dark correction enabled: true
Nonlinearity correction enabled: false
Boxcar width: 0
XAxis mode: Wavelengths
Number of Pixels in Spectrum: 2048
>>>>>Begin Spectral Data<<<<<
341.393	-17.67
341.776	-17.67
342.16	-17.67
342.543	-40.95
342.927	-63.77
343.31	-56.99
343.693	-64.45
344.077	-76.65
344.46	-71
344.843	-71.45
345.226	-26.26
345.61	-41.62
345.993	-19.93
346.376	-16.09
346.759	23.23
347.142	50.13
347.525	38.15
347.908	57.13
348.291	77.92
348.674	80.63
349.057	117.24
349.44	115.21
349.823	126.06
350.206	152.27
350.588	189.78
350.971	219.84
351.354	220.74
351.737	238.6
352.119	268.88
352.502	260.97
352.884	277.92
353.267	274.98
353.65	275.88
354.032	294.64
354.414	307.75
354.797	309.78
355.179	307.52
355.562	319.5
355.944	329.44
356.326	330.8
356.709	313.85
357.091	348.42
357.473	343
357.855	354.98
358.238	351.36
358.62	342.32
359.002	330.34
359.384	303.45
359.766	329.67
360.148	324.02
360.53	363.56
360.912	343.45
361.294	331.7
361.676	328.76
362.057	343
362.439	333.51
362.821	333.28
363.203	343
363.584	335.99
363.966	338.93
364.348	312.49
364.729	325.6
365.111	302.55
365.493	322.21
365.874	335.77
366.256	309.55
366.637	317.01
367.019	298.03
367.4	326.95
367.781	315.88
368.163	320.85
368.544	316.79
368.925	328.54
369.306	319.72
369.688	322.21
370.069	308.65
370.45	314.53
370.831	297.8
371.212	311.81
371.593	317.69
371.974	325.6
372.355	329.67
372.736	302.55
373.117	323.56
373.498	311.59
373.879	322.44
374.26	325.15
374.641	303
375.021	320.18
375.402	311.14
375.783	319.27
376.163	313.4
376.544	324.24
376.925	346.84
377.305	307.75
377.686	327.86
378.066	343.9
378.447	331.25
378.827	300.74
379.208	356.11
379.588	317.69
379.968	334.86
380.349	326.5
380.729	344.58
381.109	319.27
381.489	336.9
381.87	328.99
382.25	324.47
382.63	353.62
383.01	326.73
383.39	343.9
383.77	328.54
384.15	338.03
384.53	351.59
384.91	348.88
385.29	354.75
385.67	340.06
386.049	338.03
386.429	350.91
386.809	361.98
387.189	331.7
387.568	333.96
387.948	345.26
388.328	345.49
388.707	347.75
389.087	340.51
389.466	363.11
389.846	369.21
390.225	352.26
390.605	364.92
390.984	364.69
391.363	366.5
391.743	347.97
392.122	346.39
392.501	363.34
392.881	373.28
393.26	365.15
393.639	350.23
394.018	364.02
394.397	361.98
394.776	348.65
395.155	360.4
395.534	371.47
395.913	368.08
396.292	372.83
396.671	382.55
397.05	350.91
397.429	375.31
397.808	376.9
398.186	372.15
398.565	374.64
398.944	397.69
399.323	372.38
399.701	370.34
400.08	390.23
400.458	359.95
400.837	391.36
401.215	395.88
401.594	393.85
401.972	405.82
402.351	391.59
402.729	390
403.107	374.86
403.486	380.06
403.864	419.83
404.242	403.56
404.62	398.82
404.999	387.07
405.377	402.21
405.755	400.17
406.133	399.27
406.511	405.37
406.889	428.19
407.267	406.73
407.645	411.02
408.023	411.02
408.401	381.64
408.779	430.91
409.156	432.26
409.534	418.7
409.912	424.35
410.29	419.38
410.667	432.71
411.045	407.86
411.422	404.24
411.8	432.26
412.178	442.43
412.555	444.92
412.933	436.33
413.31	444.92
413.687	455.09
414.065	454.63
414.442	454.63
414.819	447.86
415.197	460.51
415.574	447.18
415.951	462.09
416.328	461.87
416.705	466.61
417.082	466.39
417.46	473.17
417.837	469.55
418.214	449.44
418.591	465.26
418.967	477.23
419.344	490.11
419.721	474.3
420.098	470.45
420.475	497.35
420.852	501.64
421.228	494.86
421.605	495.54
421.982	494.18
422.358	493.73
422.735	499.15
423.111	478.14
423.488	522.88
423.864	531.7
424.241	516.78
424.617	499.83
424.994	526.95
425.37	513.16
425.746	518.36
426.123	526.72
426.499	527.63
426.875	511.36
427.251	510.23
427.627	562.65
428.003	542.77
428.379	573.95
428.756	537.34
429.132	544.35
429.507	568.53
429.883	568.98
430.259	575.08
430.635	549.77
431.011	574.41
431.387	586.38
431.763	609.89
432.138	593.39
432.514	600.85
432.89	603.33
433.265	604.91
433.641	591.13
434.016	592.94
434.392	632.03
434.767	623.22
435.143	610.34
435.518	625.25
435.894	651.01
436.269	613.05
436.644	654.86
437.02	644.01
437.395	636.55
437.77	647.62
438.145	646.72
438.52	659.83
438.895	665.48
439.271	647.17
439.646	688.3
440.021	679.71
440.395	677
440.77	682.88
441.145	679.49
441.52	725.59
441.895	681.75
442.27	708.64
442.645	713.61
443.019	718.58
443.394	718.36
443.769	706.83
444.143	689.43
444.518	735.76
444.892	709.77
445.267	714.29
445.641	742.09
446.016	735.76
446.39	724.91
446.764	708.87
447.139	745.93
447.513	743.89
447.887	736.21
448.262	736.89
448.636	754.74
449.01	758.81
449.384	742.76
449.758	752.71
450.132	786.15
450.506	768.07
450.88	790.67
451.254	788.41
451.628	772.59
452.002	773.27
452.376	768.98
452.75	782.54
453.123	811.91
453.497	810.33
453.871	810.78
454.244	827.28
454.618	832.7
454.992	840.84
455.365	820.5
455.739	838.35
456.112	870.67
456.486	853.72
456.859	865.47
457.232	884.45
457.606	904.34
457.979	897.34
458.352	900.5
458.725	918.8
459.099	906.6
459.472	907.96
459.845	912.02
460.218	959.71
460.591	907.5
460.964	941.4
461.337	971.46
461.71	959.71
462.083	1008.52
462.456	1003.77
462.829	994.96
463.201	994.96
463.574	1018.69
463.947	1040.61
464.32	1048.97
464.692	1046.48
465.065	1049.87
465.438	1054.17
465.81	1080.16
466.183	1078.12
466.555	1069.99
466.928	1109.98
467.3	1104.79
467.672	1143.66
468.045	1147.05
468.417	1162.19
468.789	1166.48
469.161	1178.23
469.534	1202.64
469.906	1242.64
470.278	1246.7
470.65	1250.77
471.022	1236.08
471.394	1277.21
471.766	1301.17
472.138	1303.43
472.51	1347.49
472.882	1349.75
473.253	1355.18
473.625	1375.97
473.997	1400.37
474.369	1436.53
474.74	1431.78
475.112	1473.37
475.484	1497.77
475.855	1512.69
476.227	1536.64
476.598	1588.16
476.97	1592.46
477.341	1657.32
477.713	1657.09
478.084	1654.83
478.455	1723.98
478.827	1740.7
479.198	1765.11
479.569	1796.29
479.94	1840.14
480.311	1848.95
480.682	1859.12
481.053	1949.06
481.424	1966.69
481.795	1970.53
482.166	2018.44
482.537	2062.73
482.908	2112.67
483.279	2117.19
483.65	2189.5
484.021	2185.21
484.391	2239.9
484.762	2267.47
485.133	2279.9
485.503	2382.72
485.874	2366.68
486.244	2438.76
486.615	2495.49
486.985	2505.2
487.356	2599.66
487.726	2592.88
488.097	2686.89
488.467	2687.57
488.837	2711.3
489.207	2761.47
489.578	2854.8
489.948	2841.24
490.318	2879.66
490.688	2885.08
491.058	2939.32
491.428	2994
491.798	3021.57
492.168	3100.67
492.538	3080.78
492.908	3140.89
493.278	3178.41
493.648	3206.65
494.017	3287.78
494.387	3290.94
494.757	3310.83
495.126	3400.32
495.496	3422.24
495.866	3376.37
496.235	3433.99
496.605	3496.59
496.974	3490.04
497.344	3576.81
497.713	3560.09
498.082	3631.73
498.452	3661.56
498.821	3644.16
499.19	3674.44
499.559	3715.11
499.928	3717.37
500.298	3766.64
500.667	3785.62
501.036	3817.26
501.405	3852.51
501.774	3837.82
502.143	3842.12
502.512	3904.04
502.88	3931.83
503.249	3914.88
503.618	4006.41
503.987	3983.58
504.356	4006.41
504.724	4033.07
505.093	4043.02
505.462	4057.25
505.83	4096.35
506.199	4131.6
506.567	4171.37
506.936	4135.89
507.304	4193.52
507.672	4193.52
508.041	4240.75
508.409	4237.13
508.777	4275.1
509.145	4328.88
509.514	4310.35
509.882	4369.33
510.25	4320.3
510.618	4403.46
510.986	4360.52
511.354	4431.93
511.722	4406.4
512.09	4399.62
512.458	4432.61
512.826	4469.9
513.193	4476.45
513.561	4469.22
513.929	4529.56
514.297	4568.43
514.664	4528.43
515.032	4559.61
515.4	4567.97
515.767	4588.31
516.135	4629.44
516.502	4652.26
516.869	4674.86
517.237	4675.54
517.604	4668.76
517.972	4703.34
518.339	4702.66
518.706	4708.08
519.073	4745.37
519.44	4782.66
519.808	4792.37
520.175	4749.89
520.542	4843.9
520.909	4864.69
521.276	4821.53
521.643	4853.62
522.009	4914.63
522.376	4925.25
522.743	4925.93
523.11	4945.59
523.477	4963.89
523.843	5022.88
524.21	5076.21
524.577	5107.39
524.943	5081.63
525.31	5149.65
525.676	5129.09
526.043	5157.34
526.409	5160.95
526.776	5245.92
527.142	5232.36
527.508	5278.91
527.874	5280.04
528.241	5319.14
528.607	5339.7
528.973	5411.79
529.339	5375.41
529.705	5423.77
530.071	5480.72
530.437	5470.77
530.803	5500.38
531.169	5513.26
531.535	5484.79
531.901	5580.15
532.267	5579.02
532.632	5588.74
532.998	5609.3
533.364	5647.49
533.73	5668.51
534.095	5650.2
534.461	5734.04
534.826	5746.02
535.192	5790.09
535.557	5858.33
535.923	5844.1
536.288	5817.21
536.653	5840.03
537.019	5876.19
537.384	5885.68
537.749	5961.38
538.114	5964.77
538.479	5958.22
538.845	5990.08
539.21	5981.72
539.575	5965.9
539.94	6016.3
540.305	6075.5
540.67	6084.32
541.034	6094.94
541.399	6136.97
541.764	6124.77
542.129	6164.54
542.494	6220.13
542.858	6264.43
543.223	6279.79
543.587	6326.57
543.952	6239.79
544.316	6304.42
544.681	6363.86
545.045	6389.85
545.41	6414.48
545.774	6447.47
546.138	6489.28
546.503	6518.88
546.867	6512.55
547.231	6548.26
547.595	6578.32
547.959	6637.07
548.324	6603.4
548.688	6623.96
549.052	6680.46
549.416	6688.14
549.779	6697.86
550.143	6680.01
550.507	6840
550.871	6795.26
551.235	6754.13
551.599	6815.37
551.962	6837.97
552.326	6908.02
552.689	6862.38
553.053	6885.65
553.417	6883.62
553.78	6970.17
554.143	6933.56
554.507	6992.32
554.87	7028.02
555.234	7086.1
555.597	7020.56
555.96	7086.1
556.323	7089.04
556.686	7064.63
557.05	7121.58
557.413	7226.21
557.776	7162.48
558.139	7227.34
558.502	7184.4
558.865	7237.96
559.228	7230.05
559.59	7289.94
559.953	7279.99
560.316	7392.53
560.679	7323.61
561.041	7383.04
561.404	7394.57
561.767	7467.11
562.129	7435.24
562.492	7495.58
562.854	7541.91
563.217	7515.92
563.579	7590.94
563.941	7609.02
564.304	7617.16
564.666	7679.98
565.028	7709.81
565.39	7679.53
565.753	7738.74
566.115	7827.1
566.477	7787.55
566.839	7834.33
567.201	7864.61
567.563	7871.62
567.925	7912.07
568.287	7938.96
568.648	7926.75
569.01	7984.38
569.372	8027.54
569.734	8012.18
570.095	8119.74
570.457	8134.21
570.819	8187.99
571.18	8201.55
571.542	8213.98
571.903	8277.93
572.265	8295.33
572.626	8345.05
572.987	8438.61
573.349	8479.73
573.71	8533.07
574.071	8544.14
574.432	8610.8
574.794	8694.19
575.155	8717.92
575.516	8719.28
575.877	8798.37
576.238	8888.09
576.599	8879.72
576.96	8995.43
577.32	9082.66
577.681	9139.15
578.042	9248.3
578.403	9281.07
578.763	9431.12
579.124	9526.94
579.485	9624.34
579.845	9724.45
580.206	9836.76
580.566	9944.55
580.927	10049.64
581.287	10191.33
581.648	10237.88
582.008	10519.23
582.368	10608.49
582.728	10744.76
583.089	10896.62
583.449	11016.17
583.809	11224.3
584.169	11465.64
584.529	11583.38
584.889	11802.59
585.249	11957.84
585.609	12136.59
585.969	12442.34
586.329	12569.57
586.688	12875.1
587.048	12997.36
587.408	13279.38
587.768	13498.36
588.127	13718.69
588.487	13920.72
588.846	14395.74
589.206	14444.1
589.565	14730.42
589.925	15157.98
590.284	15340.57
590.643	15678.87
591.003	15929.48
591.362	16297.38
591.721	16634.1
592.08	16875.9
592.44	17283.57
592.799	17575.31
593.158	17811.01
593.517	18128.29
593.876	18456.65
594.235	18755.4
594.593	19089.17
594.952	19512.66
595.311	19733.45
595.67	20139.09
596.029	20586.08
596.387	20856.36
596.746	21224.48
597.104	21463.8
597.463	21746.05
597.822	22254.51
598.18	22559.59
598.538	22753.48
598.897	23271.66
599.255	23474.14
599.613	24061.47
599.972	24270.51
600.33	24596.83
600.688	24811.73
601.046	25238.62
601.404	25694.65
601.762	25851.93
602.12	26314.52
602.478	26773.94
602.836	27001.51
603.194	27098.91
603.552	27574.83
603.91	27655.73
604.268	28232.66
604.625	28416.16
604.983	28706.1
605.341	28844.17
605.698	29249.36
606.056	29709.68
606.413	29735.22
606.771	30218.15
607.128	30577.91
607.485	30762.09
607.843	30932.93
608.2	31360.94
608.557	31712.57
608.914	31847.71
609.272	32238.66
609.629	32500.12
609.986	32818.76
610.343	32976.27
610.7	33478.17
611.057	33555.91
611.414	33850.37
611.771	33980.76
612.127	34368.55
612.484	34434.98
612.841	34837.91
613.198	34927.85
613.554	35189.77
613.911	35314.06
614.267	35588.4
614.624	35722.18
614.98	36050.54
615.337	36432.45
615.693	36486
616.05	36430.86
616.406	36944.52
616.762	36954.47
617.118	37169.15
617.475	37282.82
617.831	37551.29
618.187	37734.11
618.543	37829.02
618.899	38288.22
619.255	38181.1
619.611	38358.72
619.967	38728.88
620.323	38852.95
620.678	38743.57
621.034	38813.17
621.39	38943.57
621.746	39068.08
622.101	39691.8
622.457	39427.62
622.812	39649.31
623.168	39866.71
623.523	39849.76
623.879	39998.23
624.234	39977.21
624.589	40074.61
624.945	40140.6
625.3	40433.02
625.655	40441.15
626.01	40444.09
626.365	40784.2
626.72	40679.79
627.075	40695.38
627.43	40789.85
627.785	40882.05
628.14	41018.77
628.495	41006.56
628.85	41118.65
629.205	41016.05
629.559	41246.33
629.914	41213.79
630.269	41220.57
630.623	41192.55
630.978	41142.83
631.332	41508.47
631.687	41510.73
632.041	41523.16
632.396	41573.78
632.75	41319.55
633.104	41561.12
633.459	41311.41
633.813	41591.86
634.167	41405.87
634.521	41592.99
634.875	41529.26
635.229	41621.69
635.583	41437.29
635.937	41431.41
636.291	41429.6
636.645	41531.29
636.999	41490.84
637.352	41610.84
637.706	41542.59
638.06	41693.55
638.413	41545.98
638.767	41522.03
639.121	41692.87
639.474	41478.19
639.828	41360.45
640.181	41665.53
640.534	41584.85
640.888	41475.48
641.241	41392.99
641.594	41381.24
641.947	41686.77
642.301	41539.2
642.654	41623.04
643.007	41553.44
643.36	41588.24
643.713	41483.39
644.066	41621.01
644.419	41322.26
644.771	41273.67
645.124	40902.38
645.477	40595.95
645.83	40471.89
646.182	40308.28
646.535	40357.09
646.888	40486.8
647.24	40127.26
647.593	40311.44
647.945	40299.69
648.298	40096.08
648.65	40219.24
649.002	40101.05
649.355	40322.74
649.707	40026.25
650.059	40339.91
650.411	40929.95
650.763	40758.21
651.115	41270.96
651.467	41075.94
651.819	40998.43
652.171	41083.4
652.523	40970.18
652.875	41027.13
653.227	40863.97
653.578	41126.56
653.93	41031.42
654.282	40846.57
654.633	40831.88
654.985	40860.58
655.337	40891.99
655.688	40729.73
656.039	40853.57
656.391	40647.02
656.742	40644.54
657.094	40767.93
657.445	40730.19
657.796	40814.93
658.147	40480.93
658.498	40640.47
658.849	40801.14
659.2	40798.88
659.551	40644.09
659.902	40762.73
660.253	40674.14
660.604	40859.67
660.955	40606.12
661.306	40741.03
661.656	40555.05
662.007	40689.28
662.358	40583.3
662.708	40585.56
663.059	40589.85
663.409	40405.67
663.76	40601.6
664.11	40653.8
664.461	40729.96
664.811	40637.31
665.161	40640.7
665.511	40570.64
665.862	40631.21
666.212	40623.75
666.562	40769.28
666.912	40682.96
667.262	40568.83
667.612	40558.44
667.962	40557.99
668.312	40574.71
668.662	40693.35
669.011	40532.23
669.361	40484.32
669.711	40485.22
670.06	40394.38
670.41	40366.58
670.76	40115.96
671.109	40578.33
671.459	40414.94
671.808	40460.14
672.157	40494.03
672.507	40052.24
672.856	40362.74
673.205	40216.08
673.554	40409.06
673.904	40180.37
674.253	40571.77
674.602	40376.98
674.951	39753.26
675.3	39534.06
675.649	40262.18
675.998	40260.14
676.346	40140.15
676.695	40272.35
677.044	40089.3
677.393	40059.24
677.741	40175.17
678.09	40005.91
678.438	40079.36
678.787	40106.47
679.135	40085.23
679.484	39751.45
679.832	39885.69
680.181	39658.35
680.529	39787.61
680.877	39627.84
681.225	39616.77
681.573	39841.4
681.922	39526.6
682.27	39560.05
682.618	39626.49
682.966	39444.8
683.314	39414.97
683.661	39398.02
684.009	39203.45
684.357	39174.29
684.705	38978.82
685.053	39169.1
685.4	39105.82
685.748	38901.76
686.095	38821.76
686.443	38677.36
686.79	38689.79
687.138	38761.65
687.485	38810.91
687.832	38523.92
688.18	38581.54
688.527	38527.08
688.874	38374.54
689.221	38438.72
689.568	38329.8
689.915	38183.13
690.262	38196.69
690.609	38157.6
690.956	37963.25
691.303	37902.46
691.65	37714.22
691.997	37878.96
692.344	37524.62
692.69	37539.31
693.037	37463.15
693.383	37028.36
693.73	37354.23
694.077	37139.77
694.423	37188.13
694.769	36924.64
695.116	36875.15
695.462	36902.04
695.808	36788.37
696.155	36827.92
696.501	36467.93
696.847	36513.35
697.193	36303.41
697.539	36413.69
697.885	36113.13
698.231	36101.61
698.577	36075.62
698.923	35901.39
699.269	35909.07
699.614	35729.41
699.96	35673.14
700.306	35665.01
700.651	35476.09
700.997	35438.57
701.342	35286.04
701.688	35408.07
702.033	35204.68
702.379	35061.86
702.724	35085.81
703.069	35093.27
703.415	34746.84
703.76	34737.35
704.105	34756.33
704.45	34641.53
704.795	34394.31
705.14	34358.38
705.485	34284.03
705.83	34231.6
706.175	34264.82
706.52	34094.2
706.865	34021.66
707.209	33973.3
707.554	33957.48
707.899	33897.37
708.243	33715.46
708.588	33676.36
708.932	33432.98
709.277	33409.93
709.621	33464.61
709.966	33249.7
710.31	33364.96
710.654	32993.21
710.998	33189.59
711.342	33051.74
711.687	32941.69
712.031	32890.39
712.375	32764.75
712.719	32769.04
713.063	32701.02
713.407	32746.22
713.75	32605.65
714.094	32620.12
714.438	32410.18
714.782	32647.23
715.125	32328.83
715.469	32466.45
715.812	32202.27
716.156	32054.71
716.499	32109.62
716.843	32109.85
717.186	31869.18
717.53	32070.3
717.873	32043.18
718.216	31931.32
718.559	31883.41
718.902	31609.97
719.246	31781.72
719.589	31705.34
719.932	31507.83
720.275	31440.03
720.617	31509.19
720.96	31419.7
721.303	31419.92
721.646	31322.52
721.989	31317.78
722.331	31226.26
722.674	31178.12
723.016	31165.47
723.359	31104.45
723.701	31007.73
724.044	30815.19
724.386	30741.97
724.729	30889.31
725.071	30791.01
725.413	30833.72
725.755	30694.52
726.097	30563
726.439	30448.65
726.782	30383.79
727.124	30507.18
727.465	30407.29
727.807	30350.8
728.149	30243.23
728.491	30240.07
728.833	30277.81
729.175	30073.74
729.516	30138.15
729.858	30123.69
730.199	30179.28
730.541	30077.36
730.882	30026.96
731.224	29971.15
731.565	29868.55
731.906	29896.12
732.248	29901.09
732.589	29699.29
732.93	29718.05
733.271	29655.68
733.612	29702
733.953	29659.29
734.294	29574.1
734.635	29489.58
734.976	29546.53
735.317	29369.58
735.658	29345.17
735.999	29381.33
736.339	29370.71
736.68	29398.51
737.021	29198.51
737.361	29132.75
737.702	29349.92
738.042	29169.59
738.383	29142.69
738.723	29135.69
739.063	28966.88
739.404	29010.95
739.744	28896.37
740.084	28916.49
740.424	28906.77
740.764	28725.08
741.104	28907.22
741.444	28738.19
741.784	28694.57
742.124	28722.82
742.464	28564.4
742.804	28513.78
743.143	28441.92
743.483	28348.82
743.823	28341.13
744.162	28406.89
744.502	28229.05
744.841	28299.55
745.181	28412.54
745.52	28173.23
745.86	28317.41
746.199	28184.98
746.538	28272.89
746.877	28242.15
747.216	28099.33
747.556	28148.6
747.895	28016.62
748.234	27933.23
748.573	27874.7
748.911	27909.73
749.25	27915.38
749.589	27708.61
749.928	27756.74
750.267	27878.09
750.605	27613.92
750.944	27651.66
751.283	27618.21
751.621	27627.93
751.96	27452.34
752.298	27451.44
752.636	27424.1
752.975	27298
753.313	27239.69
753.651	27363.98
753.989	27223.42
754.327	27194.95
754.666	27039.02
755.004	27066.82
755.342	27178
755.679	26973.03
756.017	26833.6
756.355	26856.88
756.693	26843.77
757.031	26875.41
757.368	26701.85
757.706	26714.06
758.044	26611.46
758.381	26707.28
758.719	26434.06
759.056	26472.93
759.394	26472.48
759.731	26254.18
760.068	26204.92
760.405	26091.25
760.743	26031.14
761.08	26124.92
761.417	26018.26
761.754	25880.86
762.091	25911.14
762.428	25661.88
762.765	25629.79
763.102	25605.16
763.438	25552.28
763.775	25438.61
764.112	25408.1
764.449	25377.14
764.785	25315.45
765.122	25170.82
765.458	25103.03
765.795	25040.66
766.131	25043.59
766.467	24902.58
766.804	24824.39
767.14	24567
767.476	24767.22
767.812	24520.22
768.148	24551.4
768.485	24426.43
768.821	24268.92
769.157	24282.48
769.492	24267.34
769.828	24161.36
770.164	23933.57
770.5	23856.05
770.836	23901.93
771.171	23695.61
771.507	23755.27
771.842	23593.69
772.178	23513.69
772.513	23433.47
772.849	23496.97
773.184	23428.49
773.519	23337.42
773.855	23272.79
774.19	23148.05
774.525	22997.55
774.86	23088.84
775.195	23022.18
775.53	22902.63
775.865	22770.88
776.2	22640.27
776.535	22417
776.87	22537.67
777.205	22367.28
777.539	22277.79
777.874	22275.98
778.209	22070.34
778.543	22068.76
778.878	21800.06
779.212	21989.44
779.547	21878.03
779.881	21781.53
780.215	21562.78
780.55	21615.89
780.884	21432.39
781.218	21467.87
781.552	21544.48
781.886	21293.86
782.22	21196.69
782.554	21209.12
782.888	20990.59
783.222	20996.69
783.556	20847.32
783.889	20855.68
784.223	20666.98
784.557	20673.31
784.89	20676.93
785.224	20521.45
785.557	20397.61
785.891	20368.46
786.224	20378.18
786.558	20261.57
786.891	20071.29
787.224	20149.94
787.557	19987.68
787.891	19926.21
788.224	19918.3
788.557	19836.27
788.89	19759.44
789.223	19837.85
789.556	19658.2
789.888	19606.22
790.221	19442.16
790.554	19354.7
790.887	19356.06
791.219	19342.05
791.552	19213.24
791.884	19092.34
792.217	19129.62
792.549	19017.31
792.882	18902.96
793.214	18754.04
793.546	18918.78
793.879	18792.23
794.211	18552.46
794.543	18613.25
794.875	18530.09
795.207	18624.55
795.539	18517.21
795.871	18453.71
796.203	18449.19
796.535	18234.05
796.867	18204.22
797.198	18011.69
797.53	18155.19
797.862	18038.58
798.193	18069.31
798.525	17922.42
798.856	17926.27
799.188	17707.74
799.519	17678.14
799.85	17556.78
800.182	17633.39
800.513	17557.46
800.844	17469.33
801.175	17552.04
801.506	17496.45
801.837	17399.27
802.168	17340.07
802.499	17309.11
802.83	17176.23
803.161	17097.81
803.491	17054.42
803.822	17152.73
804.153	17025.5
804.483	16875.9
804.814	16833.64
805.145	16767.2
805.475	16854.43
805.805	16710.48
806.136	16631.16
806.466	16629.58
806.796	16560.65
807.126	16404.72
807.457	16411.05
807.787	16417.61
808.117	16407.44
808.447	16308.68
808.777	16403.14
809.107	16256.71
809.436	16242.69
809.766	16321.56
810.096	16134.9
810.426	16085.41
810.755	16106.43
811.085	16114.34
811.414	15892.87
811.744	15864.4
812.073	15860.33
812.403	15824.4
812.732	15836.15
813.061	15737.62
813.39	15677.29
813.719	15646.33
814.049	15647.23
814.378	15627.12
814.707	15525.65
815.036	15521.58
815.365	15452.21
815.693	15286.56
816.022	15331.98
816.351	15236.39
816.68	15227.13
817.008	15268.03
817.337	15078.66
817.665	15059.45
817.994	15128.6
818.322	15075.49
818.651	15037.3
818.979	14928.6
819.307	14984.87
819.636	14941.71
819.964	14871.21
820.292	14991.88
820.62	14913.69
820.948	14821.71
821.276	14909.4
821.604	14845.22
821.932	14917.98
822.259	14828.95
822.587	14815.84
822.915	14798.66
823.243	14889.28
823.57	14758.21
823.898	14811.09
824.225	14739.23
824.553	14733.13
824.88	14771.55
825.207	14819.68
825.535	14734.03
825.862	14769.74
826.189	14736.07
826.516	14796.18
826.843	14752.79
827.17	14765.22
827.497	14815.61
827.824	14776.97
828.151	14701.27
828.478	14774.94
828.805	14753.24
829.131	14732.23
829.458	14634.15
829.785	14671.66
830.111	14611.1
830.438	14826.91
830.764	14703.98
831.09	14718.89
831.417	14671.66
831.743	14711.21
832.069	14769.51
832.395	14633.25
832.722	14645.9
833.048	14551.44
833.374	14558.67
833.7	14552.12
834.026	14588.27
834.351	14634.38
834.677	14528.39
835.003	14535.85
835.329	14554.83
835.654	14513.47
835.98	14438.22
836.306	14510.08
836.631	14384.89
836.956	14510.54
837.282	14410.43
837.607	14270.54
837.932	14369.98
838.258	14380.37
838.583	14301.73
838.908	14228.28
839.233	14275.74
839.558	14253.14
839.883	14177.89
840.208	14159.36
840.533	14130.21
840.858	14115.52
841.182	14125.46
841.507	14031.91
841.832	14028.29
842.156	14052.47
842.481	14016.31
842.805	13888.86
843.13	13855.41
843.454	13900.16
843.778	13822.65
844.103	13892.93
844.427	13767.51
844.751	13773.61
845.075	13770.44
845.399	13660.84
845.723	13630.79
846.047	13648.19
846.371	13561.86
846.695	13485.93
847.019	13384.24
847.343	13350.79
847.666	13298.59
847.99	13266.95
848.313	13215.88
848.637	13081.42
848.96	13129.1
849.284	13101.31
849.607	12963.91
849.931	12946.74
850.254	12837.59
850.577	12805.04
850.9	12707.65
851.223	12636.91
851.546	12623.58
851.869	12572.51
852.192	12617.93
852.515	12453.42
852.838	12485.51
853.161	12491.61
853.483	12397.37
853.806	12337.49
854.129	12347.2
854.451	12344.04
854.774	12176.13
855.096	12118.28
855.419	12101.56
855.741	12102.92
856.063	12121.67
856.385	12050.49
856.708	11977.5
857.03	11951.06
857.352	11940.66
857.674	11858.4
857.996	11872.19
858.318	11814.34
858.64	11791.51
858.961	11723.49
859.283	11735.69
859.605	11604.4
859.926	11711.51
860.248	11633.78
860.57	11598.3
860.891	11607.56
861.212	11521.69
861.534	11522.37
861.855	11477.62
862.176	11456.61
862.498	11462.48
862.819	11511.52
863.14	11394.23
863.461	11411.63
863.782	11332.77
864.103	11238.76
864.424	11259.32
864.745	11345.42
865.065	11259.55
865.386	11147.91
865.707	11221.36
866.027	11179.78
866.348	11174.35
866.668	11160.79
866.989	11133
867.309	11121.25
867.63	11103.17
867.95	11008.93
868.27	11035.6
868.59	11017.07
868.91	10976.62
869.23	10973.23
869.55	10976.62
869.87	10923.96
870.19	10871.54
870.51	10888.48
870.83	10957.64
871.15	10826.79
871.469	10822.72
871.789	10881.48
872.109	10887.81
872.428	10895.72
872.748	10830.18
873.067	10740.24
873.386	10757.87
873.706	10738.21
874.025	10714.03
874.344	10698.66
874.663	10736.17
874.982	10610.98
875.301	10647.14
875.62	10609.17
875.939	10543.64
876.258	10568.72
876.577	10553.13
876.896	10556.29
877.214	10550.64
877.533	10513.13
877.852	10509.74
878.17	10510.87
878.489	10427.93
878.807	10464.54
879.125	10385.67
879.444	10427.93
879.762	10497.08
880.08	10374.6
880.398	10351.78
880.716	10412.11
881.034	10320.14
881.352	10288.05
881.67	10266.58
881.988	10230.2
882.306	10265.45
882.624	10279.46
882.941	10187.26
883.259	10168.05
883.577	10097.32
883.894	10094.61
884.212	10100.48
884.529	10049.64
884.846	10055.74
885.164	10052.12
885.481	10016.19
885.798	9955.85
886.115	9978.9
886.432	9955.4
886.75	9975.29
887.067	9947.49
887.383	9868.4
887.7	9878.57
888.017	9831.79
888.334	9811.68
888.651	9732.58
888.967	9701.4
889.284	9648.52
889.6	9650.1
889.917	9633.15
890.233	9524.45
890.55	9571.68
890.866	9654.39
891.182	9551.12
891.498	9545.7
891.815	9525.58
892.131	9484.91
892.447	9373.72
892.763	9460.95
893.079	9327.17
893.395	9310.22
893.71	9344.34
894.026	9293.5
894.342	9336.44
894.657	9219.15
894.973	9185.25
895.289	9221.18
895.604	9187.96
895.92	9079.27
896.235	9044.69
896.55	9061.19
896.865	8996.33
897.181	9033.17
897.496	9004.24
897.811	8985.48
898.126	8889.22
898.441	8872.72
898.756	8801.53
899.071	8794.98
899.386	8773.29
899.7	8803.34
900.015	8710.69
900.33	8649.9
900.644	8652.84
900.959	8666.62
901.273	8651.03
901.588	8517.7
901.902	8507.53
902.216	8507.3
902.531	8511.37
902.845	8491.71
903.159	8423.01
903.473	8396.35
903.787	8328.55
904.101	8285.62
904.415	8328.33
904.729	8314.77
905.042	8215.56
905.356	8163.81
905.67	8186.41
905.984	8197.93
906.297	8170.14
906.611	8050.82
906.924	8076.36
907.237	8010.59
907.551	8009.24
907.864	7946.64
908.177	7981.44
908.491	7925.17
908.804	7838.4
909.117	7845.63
909.43	7773.76
909.743	7644.05
910.056	7744.61
910.368	7718.4
910.681	7696.48
910.994	7665.29
911.307	7628.91
911.619	7513.21
911.932	7585.75
912.244	7515.69
912.557	7464.62
912.869	7437.05
913.181	7435.24
913.494	7450.16
913.806	7354.34
914.118	7339.43
914.43	7265.3
914.742	7263.95
915.054	7278.64
915.366	7235.93
915.678	7212.2
915.99	7156.61
916.302	7132.88
916.613	7062.82
916.925	7046.78
917.236	7016.95
917.548	6978.76
917.859	7025.08
918.171	6954.35
918.482	6868.7
918.794	6846.78
919.105	6827.57
919.416	6814.02
919.727	6833.22
920.038	6793.45
920.349	6730.18
920.66	6691.76
920.971	6706.67
921.282	6631.2
921.593	6604.08
921.903	6578.99
922.214	6568.82
922.525	6538.32
922.835	6515.04
923.146	6469.84
923.456	6490.86
923.767	6416.51
924.077	6452.44
924.387	6419.22
924.697	6314.82
925.008	6326.34
925.318	6327.7
925.628	6286.57
925.938	6267.14
926.248	6181.49
926.558	6216.29
926.867	6129.29
927.177	6108.5
927.487	6081.61
927.796	6073.92
928.106	6084.77
928.416	6062.17
928.725	6045.22
929.034	5998.44
929.344	6023.08
929.653	5919.58
929.962	5879.13
930.271	5890.42
930.581	5842.52
930.89	5805.68
931.199	5870.31
931.508	5805
931.817	5774.27
932.125	5741.95
932.434	5717.1
932.743	5632.8
933.051	5692.24
933.36	5680.03
933.669	5602.97
933.977	5579.25
934.286	5534.73
934.594	5589.64
934.902	5492.02
935.21	5483.2
935.519	5482.53
935.827	5463.77
936.135	5412.92
936.443	5392.81
936.751	5366.14
937.059	5395.3
937.367	5346.94
937.674	5338.8
937.982	5243.44
938.29	5278.01
938.597	5256.54
938.905	5216.54
939.213	5209.09
939.52	5155.08
939.827	5161.86
940.135	5146.49
940.442	5100.39
940.749	5113.95
941.056	5075.76
941.363	5016.1
941.67	5077.79
941.977	5009.09
942.284	4972.93
942.591	5012.48
942.898	4908.08
943.205	4907.63
943.511	4894.74
943.818	4865.37
944.125	4855.2
944.431	4800.96
944.738	4774.52
945.044	4802.77
945.35	4793.96
945.657	4768.87
945.963	4736.33
946.269	4692.49
946.575	4728.87
946.881	4649.1
947.187	4652.49
947.493	4640.29
947.799	4631.02
948.105	4573.17
948.41	4580.18
948.716	4519.84
949.022	4522.55
949.327	4532.04
949.633	4494.08
949.938	4473.74
950.244	4465.6
950.549	4421.31
950.854	4369.11
951.16	4377.47
951.465	4362.33
951.77	4363.23
952.075	4343.12
952.38	4290.69
952.685	4314.87
952.99	4221.54
953.294	4257.7
953.599	4259.28
953.904	4198.94
954.209	4167.98
954.513	4166.63
954.818	4162.79
955.122	4203.69
955.426	4163.92
955.731	4158.94
956.035	4087.31
956.339	4086.63
956.643	4065.84
956.948	4036.91
957.252	3985.39
957.556	4025.84
957.86	4013.86
958.163	4023.13
958.467	3942.45
958.771	3954.2
959.075	3898.84
959.378	3897.71
959.682	3904.49
959.985	3852.51
960.289	3812.74
960.592	3871.49
960.896	3762.8
961.199	3847.54
961.502	3780.2
961.805	3753.53
962.108	3791.95
962.411	3733.87
962.714	3713.98
963.017	3744.04
963.32	3692.52
963.623	3715.34
963.926	3681.67
964.228	3645.29
964.531	3602.57
964.833	3685.51
965.136	3579.3
965.438	3597.6
965.741	3617.04
966.043	3566.87
966.345	3540.2
966.648	3524.16
966.95	3506.76
967.252	3519.87
967.554	3470.37
967.856	3453.88
968.158	3433.54
968.46	3434.22
968.761	3424.5
969.063	3404.84
969.365	3335.24
969.666	3344.05
969.968	3327.1
970.269	3328.68
970.571	3352.19
970.872	3314.45
971.174	3250.27
971.475	3252.08
971.776	3276.26
972.077	3241.45
972.378	3220.89
972.679	3188.8
972.98	3238.29
973.281	3214.56
973.582	3210.72
973.883	3152.42
974.183	3172.76
974.484	3130.27
974.785	3130.72
975.085	3134.79
975.386	3108.12
975.686	3082.14
975.986	3102.25
976.287	3067.9
976.587	3027.22
976.887	3045.98
977.187	3051.18
977.487	3029.03
977.787	2942.03
978.087	2986.32
978.387	2968.24
978.687	2932.08
978.987	2933.67
979.286	2939.77
979.586	2929.6
979.885	2902.93
980.185	2880.56
980.484	2849.15
980.784	2848.02
981.083	2827.45
981.382	2827.45
981.682	2848.24
981.981	2841.01
982.28	2792.88
982.579	2798.53
982.878	2813.89
983.177	2753.56
983.475	2744.07
983.774	2739.32
984.073	2728.93
984.372	2709.04
984.67	2704.29
984.969	2690.28
985.267	2673.79
985.566	2663.62
985.864	2658.87
986.162	2662.71
986.461	2611.41
986.759	2601.02
987.057	2632.2
987.355	2565.09
987.653	2603.05
987.951	2558.08
988.249	2569.61
988.547	2511.98
988.844	2563.73
989.142	2532.32
989.44	2495.26
989.737	2479.89
990.035	2485.09
990.332	2477.63
990.63	2452.1
990.927	2442.61
991.224	2457.52
991.521	2415.49
991.819	2425.66
992.116	2370.97
992.413	2385.66
992.71	2401.93
993.006	2397.86
993.303	2355.6
993.6	2381.14
993.897	2336.85
994.193	2318.31
994.49	2348.37
994.787	2279.22
995.083	2286.68
995.379	2264.98
995.676	2272.67
995.972	2248.49
996.268	2246.45
996.565	2263.17
996.861	2210.97
997.157	2227.92
997.453	2178.88
997.749	2214.81
998.044	2188.83
998.34	2207.13
998.636	2185.44
998.932	2169.84
999.227	2151.09
999.523	2148.38
999.818	2137.53
1000.114	2096.63
1000.409	2113.8
1000.704	2091.43
1001	2076.51
1001.295	2071.54
1001.59	2043.29
1001.885	2062.05
1002.18	2024.09
1002.475	2038.1
1002.77	1998.1
1003.065	2035.16
1003.359	1982.28
1003.654	1998.1
1003.949	1971.21
1004.243	1958.55
1004.538	1969.85
1004.832	1925.56
1005.127	1919
1005.421	1931.66
1005.715	1924.43
1006.009	1890.53
1006.304	1896.18
1006.598	1882.17
1006.892	1903.86
1007.186	1825.45
1007.48	1855.5
1007.773	1863.19
1008.067	1825.67
1008.361	1842.62
1008.655	1815.05
1008.948	1789.97
1009.242	1765.56
1009.535	1780.48
1009.829	1734.38
1010.122	1737.77
1010.415	1752
1010.708	1741.61
1011.001	1732.57
1011.295	1736.41
1011.588	1715.39
1011.881	1697.31
1012.173	1675.62
1012.466	1661.38
1012.759	1694.15
1013.052	1655.28
1013.344	1671.55
1013.637	1639.91
1013.93	1646.47
1014.222	1620.71
1014.514	1601.5
1014.807	1616.41
1015.099	1604.66
1015.391	1583.64
1015.683	1571.67
1015.976	1574.83
1016.268	1584.1
1016.56	1530.99
1016.851	1561.5
1017.143	1523.53
1017.435	1526.47
1017.727	1503.87
1018.018	1509.52
1018.31	1486.92
1018.602	1493.48
1018.893	1473.59
1019.185	1472.46
1019.476	1462.07
1019.767	1439.24
1020.058	1447.15
1020.35	1425.23
1020.641	1429.3
1020.932	1446.7
1021.223	1416.64
1021.514	1389.98
1021.804	1407.6
1022.095	1370.32
1022.386	1395.18
1022.677	1377.1
1022.967	1348.17
1023.258	1347.04
1023.548	1314.73
1023.839	1323.76
1024.129	1315.4
1024.419	1302.07
1024.709	1280.15
1025	1289.87
1025.29	1267.49
1025.58	1292.13
1025.87	1270.21
1026.16	1281.28
1026.449	1267.72
1026.739	1227.27
1027.029	1218.46
1027.319	1208.97
1027.608	1249.64
1027.898	1197.21
1028.187	1203.32
1028.477	1183.43
1028.766	1195.18
1029.055	1185.69
1029.344	1163.32
1029.634	1167.61
1029.923	1173.71
1030.212	1161.51
1030.501	1143.43
1030.79	1129.87
1031.078	1134.17
1031.367	1115.18
1031.656	1111.11
1031.945	1114.73
1032.233	1086.26
1032.522	1054.62
1032.81	1095.52
1033.099	1090.1
1033.387	1054.85
1033.675	1074.28
1033.963	1060.95
1034.251	1058.91
1034.54	1019.82
1034.828	1014.85
1035.116	1028.86
1035.403	1003.32
1035.691	988.18
1035.979	1034.05
1036.267	995.86
1036.554	956.77
1036.842	992.7
1037.129	943.66
1037.417	969.2
1037.704	989.54
1037.992	946.15
1038.279	958.12
1038.566	932.81
1038.853	932.81
1039.14	932.81
