Data from hue_220_FLMS001491_00082.txt Node
Date: Tue Feb 07 16:40:03 GMT 2017
User: dcchb
Spectrometer: FLMS00149
Trigger mode: 0
Integration Time (sec): 2.000000E-2
Scans to average: 10
Electric dark correction enabled: true
Nonlinearity correction enabled: false
Boxcar width: 0
XAxis mode: Wavelengths
Number of Pixels in Spectrum: 2048
>>>>>Begin Spectral Data<<<<<
341.393	-6.96
341.776	-6.96
342.16	-6.96
342.543	-45.61
342.927	-48.09
343.31	-62.55
343.693	-79.05
344.077	-51.03
344.46	-60.75
344.843	-53.06
345.226	-52.16
345.61	-44.25
345.993	-6.29
346.376	-5.83
346.759	-5.16
347.142	18.57
347.525	57.22
347.908	67.84
348.291	75.97
348.674	98.8
349.057	101.73
349.44	136.31
349.823	166.82
350.206	154.61
350.588	178.79
350.971	196.42
351.354	219.47
351.737	223.09
352.119	249.98
352.502	252.47
352.884	271.22
353.267	269.64
353.65	286.36
354.032	302.18
354.414	314.84
354.797	298.57
355.179	331.56
355.562	352.12
355.944	334.72
356.326	336.98
356.709	340.82
357.091	337.66
357.473	347.15
357.855	343.31
358.238	326.14
358.62	361.16
359.002	318.68
359.384	331.56
359.766	339.24
360.148	328.17
360.53	338.34
360.912	333.59
361.294	333.37
361.676	321.16
362.057	313.71
362.439	324.33
362.821	323.2
363.203	318.23
363.584	322.29
363.966	307.15
364.348	316.42
364.729	334.95
365.111	318.23
365.493	308.51
365.874	286.81
366.256	334.72
366.637	330.66
367.019	289.75
367.4	319.36
367.781	293.82
368.163	304.89
368.544	287.94
368.925	307.38
369.306	331.56
369.688	320.71
370.069	328.17
370.45	308.73
370.831	306.93
371.212	315.29
371.593	329.98
371.974	318.45
372.355	299.47
372.736	292.01
373.117	303.31
373.498	325.68
373.879	324.33
374.26	305.8
374.641	303.09
375.021	309.64
375.402	313.93
375.783	314.61
376.163	307.6
376.544	329.75
376.925	309.41
377.305	316.42
377.686	315.97
378.066	336.53
378.447	322.75
378.827	335.17
379.208	323.42
379.588	341.05
379.968	313.25
380.349	322.07
380.729	303.76
381.109	314.61
381.489	333.37
381.87	314.61
382.25	328.4
382.63	353.25
383.01	325.46
383.39	333.37
383.77	330.43
384.15	337.89
384.53	349.64
384.91	334.04
385.29	327.04
385.67	333.37
386.049	339.24
386.429	332.69
386.809	339.92
387.189	342.41
387.568	326.36
387.948	344.21
388.328	365.46
388.707	333.59
389.087	365.46
389.466	348.51
389.846	334.95
390.225	371.11
390.605	350.09
390.984	375.17
391.363	367.94
391.743	372.01
392.122	367.26
392.501	373.59
392.881	356.19
393.26	367.94
393.639	370.2
394.018	362.52
394.397	364.55
394.776	374.04
395.155	364.1
395.534	381.95
395.913	346.7
396.292	379.47
396.671	385.12
397.05	380.15
397.429	380.15
397.808	395.74
398.186	401.39
398.565	407.94
398.944	393.48
399.323	398.68
399.701	396.87
400.08	401.61
400.458	403.42
400.837	416.98
401.215	409.98
401.594	416.98
401.972	398.9
402.351	426.25
402.729	421.05
403.107	416.98
403.486	414.72
403.864	437.32
404.242	437.32
404.62	439.8
404.999	442.52
405.377	439.35
405.755	467.6
406.133	465.34
406.511	452.46
406.889	448.62
407.267	457.88
407.645	464.66
408.023	462.18
408.401	478.22
408.779	480.71
409.156	488.39
409.534	506.02
409.912	508.96
410.29	510.76
410.667	503.98
411.045	523.42
411.422	535.17
411.8	548.95
412.178	565.9
412.555	525.23
412.933	540.37
413.31	576.07
413.687	586.47
414.065	576.07
414.442	585.56
414.819	608.84
415.197	618.33
415.574	625.34
415.951	620.59
416.328	634.15
416.705	635.51
417.082	646.13
417.46	657.2
417.837	671.89
418.214	666.01
418.591	674.6
418.967	684.54
419.344	715.5
419.721	725
420.098	726.58
420.475	729.97
420.852	731.32
421.228	744.43
421.605	756.41
421.982	750.53
422.358	757.54
422.735	772.45
423.111	808.38
423.488	848.61
423.864	823.07
424.241	846.12
424.617	838.44
424.994	877.99
425.37	883.86
425.746	871.43
426.123	889.28
426.499	894.48
426.875	915.5
427.251	922.5
427.627	935.39
428.003	988.72
428.379	988.49
428.756	974.48
429.132	988.04
429.507	992.78
429.883	1018.55
430.259	1028.49
430.635	1032.78
431.011	1067.36
431.387	1064.87
431.763	1071.88
432.138	1095.15
432.514	1107.58
432.89	1116.62
433.265	1144.19
433.641	1178.09
434.016	1185.1
434.392	1195.49
434.767	1241.37
435.143	1226
435.518	1258.54
435.894	1297.41
436.269	1312.1
436.644	1331.53
437.02	1351.65
437.395	1381.47
437.77	1395.49
438.145	1407.69
438.52	1419.44
438.895	1464.64
439.271	1472.09
439.646	1492.66
440.021	1498.53
440.395	1535.14
440.77	1536.5
441.145	1558.87
441.52	1599.32
441.895	1599.55
442.27	1620.56
442.645	1626.89
443.019	1644.74
443.394	1659.43
443.769	1687
444.143	1667.34
444.518	1704.63
444.892	1722.71
445.267	1755.02
445.641	1743.95
446.016	1740.34
446.39	1759.09
446.764	1773.56
447.139	1794.8
447.513	1839.77
447.887	1807
448.262	1819.2
448.636	1834.34
449.01	1855.36
449.384	1890.84
449.758	1868.47
450.132	1917.51
450.506	1933.32
450.88	1937.62
451.254	1954.34
451.628	2004.06
452.002	2001.35
452.376	2019.42
452.75	2009.03
453.123	2043.83
453.497	2072.76
453.871	2049.71
454.244	2123.38
454.618	2151.85
454.992	2163.38
455.365	2164.28
455.739	2189.59
456.112	2225.52
456.486	2236.82
456.859	2264.39
457.232	2312.75
457.606	2296.71
457.979	2320.66
458.352	2420.54
458.725	2381.45
459.099	2407.66
459.472	2452.18
459.845	2474.78
460.218	2485.85
460.591	2533.31
460.964	2508
461.337	2569.47
461.71	2630.48
462.083	2653.08
462.456	2642.68
462.829	2679.29
463.201	2705.28
463.574	2704.83
463.947	2749.12
464.32	2801.55
464.692	2820.08
465.065	2850.36
465.438	2872.28
465.81	2946.63
466.183	2933.07
466.555	2986.4
466.928	3014.43
467.3	3018.49
467.672	3063.92
468.045	3102.11
468.417	3116.8
468.789	3107.08
469.161	3164.03
469.534	3218.49
469.906	3244.25
470.278	3318.37
470.65	3339.62
471.022	3390.69
471.394	3437.92
471.766	3473.17
472.138	3505.26
472.51	3598.59
472.882	3591.81
473.253	3679.04
473.625	3650.34
473.997	3768.08
474.369	3820.51
474.74	3812.15
475.112	3914.52
475.484	3874.74
475.855	4012.37
476.227	4041.52
476.598	4123.1
476.97	4140.72
477.341	4199.71
477.713	4275.18
478.084	4285.35
478.455	4417.33
478.827	4446.48
479.198	4573.93
479.569	4563.76
479.94	4631.11
480.311	4684.44
480.682	4704.78
481.053	4849.86
481.424	4948.39
481.795	4910.87
482.166	4962.62
482.537	5059.34
482.908	5149.29
483.279	5169.62
483.65	5264.54
484.021	5360.81
484.391	5342.73
484.762	5453.23
485.133	5418.2
485.503	5541.14
485.874	5659.33
486.244	5686.67
486.615	5816.16
486.985	5851.64
487.356	5901.58
487.726	5957.85
488.097	6061.58
488.467	6055.25
488.837	6144.97
489.207	6243.04
489.578	6339.31
489.948	6361.46
490.318	6420.44
490.688	6412.3
491.058	6504.96
491.428	6508.8
491.798	6561.23
492.168	6738.4
492.538	6775.46
492.908	6791.95
493.278	6897.49
493.648	6960.76
494.017	6913.76
494.387	7019.97
494.757	7112.4
495.126	7147.65
495.496	7162.57
495.866	7201.89
496.235	7200.53
496.605	7306.97
496.974	7313.75
497.344	7365.05
497.713	7385.84
498.082	7392.39
498.452	7502.9
498.821	7506.51
499.19	7489.79
499.559	7592.84
499.928	7610.92
500.298	7682.33
500.667	7632.84
501.036	7708.54
501.405	7726.84
501.774	7752.61
502.143	7760.06
502.512	7774.75
502.88	7816.11
503.249	7805.26
503.618	7849.55
503.987	7871.47
504.356	7862.89
504.724	7917.8
505.093	7971.13
505.462	7977.23
505.83	7984.69
506.199	8072.15
506.567	8163.44
506.936	8120.96
507.304	8167.29
507.672	8170.67
508.041	8165.7
508.409	8169.77
508.777	8226.49
509.145	8259.71
509.514	8235.98
509.882	8289.99
510.25	8271.92
510.618	8251.58
510.986	8278.92
511.354	8318.92
511.722	8365.7
512.09	8412.7
512.458	8435.75
512.826	8430.56
513.193	8490.44
513.561	8429.2
513.929	8498.35
514.297	8523.89
514.664	8569.76
515.032	8551
515.4	8590.32
515.767	8522.3
516.135	8591.45
516.502	8508.07
516.869	8649.08
517.237	8652.47
517.604	8568.63
517.972	8708.74
518.339	8614.96
518.706	8640.04
519.073	8611.12
519.44	8633.49
519.808	8723.2
520.175	8614.96
520.542	8723.65
520.909	8753.03
521.276	8650.66
521.643	8739.02
522.009	8779.02
522.376	8790.32
522.743	8775.4
523.11	8835.29
523.477	8823.31
523.843	8816.99
524.21	8843.43
524.577	8870.32
524.943	8903.99
525.31	8928.62
525.676	8977.43
526.043	8891.56
526.409	8939.02
526.776	8986.02
527.142	8927.72
527.508	8901.05
527.874	8928.17
528.241	8993.03
528.607	8913.03
528.973	8960.71
529.339	8930.88
529.705	8958
530.071	8955.51
530.437	8949.86
530.803	8977.21
531.169	9020.6
531.535	8967.49
531.901	8926.81
532.267	8900.15
532.632	8951.67
532.998	8932.46
533.364	8957.77
533.73	8920.94
534.095	8957.32
534.461	8945.34
534.826	8976.08
535.192	8929.53
535.557	8968.39
535.923	8882.07
536.288	8844.78
536.653	8869.19
537.019	8784.9
537.384	8758
537.749	8844.78
538.114	8783.31
538.479	8763.65
538.845	8775.18
539.21	8749.19
539.575	8758.23
539.94	8742.19
540.305	8699.7
540.67	8638.01
541.034	8710.55
541.399	8649.53
541.764	8613.6
542.129	8588.29
542.494	8556.43
542.858	8539.93
543.223	8537.45
543.587	8583.77
543.952	8483.44
544.316	8484.57
544.681	8448.86
545.045	8466.26
545.41	8406.6
545.774	8408.41
546.138	8417.67
546.503	8401.86
546.867	8363.66
547.231	8398.69
547.595	8337.9
547.959	8350.11
548.324	8313.72
548.688	8237.11
549.052	8205.93
549.416	8217.68
549.779	8203.22
550.143	8192.14
550.507	8216.32
550.871	8179.26
551.235	8066.04
551.599	8136.55
551.962	8127.29
552.326	8092.94
552.689	8071.02
553.053	8039.15
553.417	7972.49
553.78	8044.35
554.143	8040.28
554.507	8056.1
554.87	8011.58
555.234	7995.76
555.597	8035.76
555.96	7928.87
556.323	7992.15
556.686	7884.13
557.05	7924.35
557.413	7925.03
557.776	7936.56
558.139	8000.06
558.502	7909.89
558.865	7863.79
559.228	7956.9
559.59	7899.27
559.953	7889.1
560.316	7946.73
560.679	7944.69
561.041	7935.2
561.404	7860.4
561.767	7965.03
562.129	7926.39
562.492	7979.49
562.854	7930
563.217	7906.95
563.579	7922.09
563.941	7958.25
564.304	7932.94
564.666	7937.23
565.028	8012.94
565.39	7977.01
565.753	8051.81
566.115	7989.66
566.477	8033.05
566.839	7995.76
567.201	8079.15
567.563	8004.58
567.925	8043.67
568.287	8094.52
568.648	8081.41
569.01	8097.46
569.372	8153.05
569.734	8122.31
570.095	8077.34
570.457	8136.1
570.819	8137
571.18	8110.11
571.542	8156.66
571.903	8217
572.265	8178.58
572.626	8155.99
572.987	8182.43
573.349	8190.34
573.71	8235.53
574.071	8174.06
574.432	8247.06
574.794	8294.51
575.155	8293.16
575.516	8300.84
575.877	8353.27
576.238	8369.09
576.599	8408.86
576.96	8372.7
577.32	8364.79
577.681	8424
578.042	8372.93
578.403	8472.81
578.763	8453.83
579.124	8457
579.485	8528.86
579.845	8548.07
580.206	8513.94
580.566	8532.02
580.927	8603.88
581.287	8531.8
581.648	8558.91
582.008	8635.07
582.368	8591.68
582.728	8644.11
583.089	8602.08
583.449	8574.73
583.809	8637.56
584.169	8583.32
584.529	8626.71
584.889	8719.36
585.249	8710.1
585.609	8627.39
585.969	8794.16
586.329	8692.24
586.688	8718.01
587.048	8708.06
587.408	8755.97
587.768	8741.73
588.127	8746.48
588.487	8770.43
588.846	8834.84
589.206	8800.04
589.565	8795.97
589.925	8854.05
590.284	8839.81
590.643	8931.11
591.003	8880.26
591.362	8918.9
591.721	8849.3
592.08	8872.8
592.44	8915.06
592.799	8967.04
593.158	8909.86
593.517	8979.92
593.876	8953.71
594.235	8959.13
594.593	8969.07
594.952	8956.87
595.311	8943.99
595.67	9019.24
596.029	9066.02
596.387	9070.09
596.746	9035.29
597.104	8988.51
597.463	8999.35
597.822	9033.25
598.18	9023.08
598.538	9070.54
598.897	9099.01
599.255	9025.79
599.613	9108.96
599.972	9058.56
600.33	9139.92
600.688	9056.3
601.046	9061.95
601.404	9130.42
601.762	9062.18
602.12	9202.51
602.478	9160.03
602.836	9167.71
603.194	9150.31
603.552	9171.78
603.91	9102.4
604.268	9128.84
604.625	9146.69
604.983	9144.43
605.341	9134.04
605.698	9194.15
606.056	9168.84
606.413	9204.55
606.771	9196.86
607.128	9183.98
607.485	9246.35
607.843	9190.99
608.2	9231.66
608.557	9275.5
608.914	9198.22
609.272	9289.74
609.629	9204.77
609.986	9329.97
610.343	9186.02
610.7	9277.76
611.057	9272.34
611.414	9302.85
611.771	9281.83
612.127	9326.12
612.484	9344.66
612.841	9357.08
613.198	9332.9
613.554	9342.62
613.911	9358.89
614.267	9384.65
614.624	9334.03
614.98	9388.04
615.337	9433.69
615.693	9455.61
616.05	9393.92
616.406	9497.42
616.762	9409.96
617.118	9430.53
617.475	9403.86
617.831	9460.36
618.187	9474.37
618.543	9527.25
618.899	9471.66
619.255	9450.42
619.611	9431.66
619.967	9509.4
620.323	9557.98
620.678	9539.45
621.034	9493.58
621.39	9475.27
621.746	9411.77
622.101	9586.01
622.457	9466.46
622.812	9449.51
623.168	9564.31
623.523	9533.8
623.879	9476.4
624.234	9498.1
624.589	9572.22
624.945	9511.66
625.3	9548.72
625.655	9579.23
626.01	9529.74
626.365	9454.26
626.72	9481.37
627.075	9507.14
627.43	9503.75
627.785	9446.8
628.14	9482.28
628.495	9494.71
628.85	9496.74
629.205	9461.49
629.559	9497.87
629.914	9453.58
630.269	9487.93
630.623	9421.04
630.978	9440.25
631.332	9442.51
631.687	9406.57
632.041	9407.48
632.396	9452.9
632.75	9408.16
633.104	9400.02
633.459	9319.35
633.813	9348.05
634.167	9282.51
634.521	9336.97
634.875	9329.97
635.229	9259.23
635.583	9246.58
635.937	9257.2
636.291	9271.21
636.645	9292.23
636.999	9299.68
637.352	9277.54
637.706	9209.52
638.06	9219.01
638.413	9190.76
638.767	9233.92
639.121	9199.57
639.474	9213.81
639.828	9172.46
640.181	9216.07
640.534	9193.7
640.888	9185.56
641.241	9142.63
641.594	9136.53
641.947	9163.19
642.301	9094.49
642.654	9189.86
643.007	9129.52
643.36	9090.88
643.713	9085.45
644.066	9110.09
644.419	9119.8
644.771	9038
645.124	8944.89
645.477	8931.78
645.83	8905.8
646.182	8833.26
646.535	8772.24
646.888	8866.25
647.24	8737.44
647.593	8845.91
647.945	8839.36
648.298	8684.79
648.65	8760.49
649.002	8688.4
649.355	8755.29
649.707	8792.81
650.059	8845.69
650.411	8904.67
650.763	8908.96
651.115	9031.67
651.467	8868.96
651.819	9003.65
652.171	8938.11
652.523	8966.59
652.875	8943.31
653.227	8853.14
653.578	9051.78
653.93	8978.79
654.282	8931.78
654.633	8933.37
654.985	8962.07
655.337	8918.23
655.688	8946.93
656.039	8989.41
656.391	8940.82
656.742	8977.43
657.094	9016.3
657.445	8983.99
657.796	8946.7
658.147	8933.82
658.498	8949.86
658.849	8944.21
659.2	8937.66
659.551	8965.91
659.902	9079.58
660.253	8981.5
660.604	8994.38
660.955	8962.97
661.306	8998.9
661.656	8987.6
662.007	9033.03
662.358	9106.24
662.708	9032.57
663.059	9003.65
663.409	8978.79
663.76	8982.63
664.11	9061.5
664.461	9057.21
664.811	9058.11
665.161	9058.11
665.511	9011.33
665.862	9042.29
666.212	9046.36
666.562	9053.14
666.912	8961.39
667.262	9035.51
667.612	9023.76
667.962	9080.03
668.312	8992.8
668.662	9070.09
669.011	9036.87
669.361	8996.42
669.711	9013.59
670.06	9029.18
670.41	9031.9
670.76	8975.63
671.109	8945.8
671.459	8961.84
671.808	8983.76
672.157	8972.69
672.507	8876.65
672.856	8919.36
673.205	8986.7
673.554	9019.01
673.904	8867.61
674.253	8969.07
674.602	8925.01
674.951	8852.69
675.3	8705.8
675.649	8906.7
675.998	8870.09
676.346	8922.07
676.695	8944.21
677.044	8881.16
677.393	8888.85
677.741	8839.58
678.09	8846.14
678.438	8854.95
678.787	8847.95
679.135	8855.85
679.484	8770.89
679.832	8795.07
680.181	8762.07
680.529	8713.26
680.877	8725.24
681.225	8725.69
681.573	8754.84
681.922	8687.72
682.27	8762.3
682.618	8662.87
682.966	8630.1
683.314	8616.09
683.661	8584.45
684.009	8592.13
684.357	8556.2
684.705	8518.46
685.053	8521.63
685.4	8587.61
685.748	8499.03
686.095	8511.91
686.443	8428.07
686.79	8494.51
687.138	8433.72
687.485	8466.71
687.832	8401.86
688.18	8410.89
688.527	8395.53
688.874	8307.39
689.221	8403.89
689.568	8327.51
689.915	8284.12
690.262	8229.66
690.609	8265.81
690.956	8203.44
691.303	8210.22
691.65	8144.46
691.997	8172.71
692.344	8098.36
692.69	8077.12
693.037	8060.62
693.383	7973.62
693.73	8014.97
694.077	7947.86
694.423	7913.51
694.769	7929.33
695.116	7881.64
695.462	7847.52
695.808	7857.24
696.155	7822.44
696.501	7828.99
696.847	7802.1
697.193	7747.86
697.539	7720.74
697.885	7656.56
698.231	7688.65
698.577	7588.32
698.923	7622.44
699.269	7537.7
699.614	7549.22
699.96	7449.11
700.306	7466.06
700.651	7453.41
700.997	7431.71
701.342	7385.84
701.688	7427.87
702.033	7372.96
702.379	7370.02
702.724	7376.35
703.069	7295.22
703.415	7242.11
703.76	7252.28
704.105	7190.36
704.45	7177.25
704.795	7119.4
705.14	7097.93
705.485	7152.85
705.83	7107.65
706.175	7061.1
706.52	7052.29
706.865	7025.39
707.209	7017.03
707.554	6955.57
707.899	6959.63
708.243	6930.93
708.588	6911.27
708.932	6876.47
709.277	6889.58
709.621	6835.12
709.966	6839.18
710.31	6801.22
710.654	6795.8
710.998	6818.85
711.342	6735.91
711.687	6776.36
712.031	6732.29
712.375	6730.71
712.719	6707.89
713.063	6692.3
713.407	6682.8
713.75	6663.14
714.094	6680.77
714.438	6632.18
714.782	6672.64
715.125	6591.06
715.469	6629.25
715.812	6577.27
716.156	6559.42
716.499	6574.78
716.843	6568.23
717.186	6509.93
717.53	6586.76
717.873	6587.67
718.216	6529.59
718.559	6493.88
718.902	6445.3
719.246	6519.64
719.589	6462.47
719.932	6478.74
720.275	6461.57
720.617	6490.04
720.96	6402.59
721.303	6437.84
721.646	6398.74
721.989	6391.29
722.331	6377.73
722.674	6368.01
723.016	6446.2
723.359	6387.67
723.701	6412.98
724.044	6320.1
724.386	6300.89
724.729	6318.75
725.071	6344.06
725.413	6287.33
725.755	6377.95
726.097	6315.58
726.439	6261.12
726.782	6304.96
727.124	6332.31
727.465	6263.38
727.807	6253.21
728.149	6294.57
728.491	6268.58
728.833	6283.49
729.175	6284.17
729.516	6243.04
729.858	6253.44
730.199	6273.78
730.541	6276.26
730.882	6293.66
731.224	6283.94
731.565	6279.2
731.906	6267
732.248	6292.08
732.589	6210.5
732.93	6236.71
733.271	6207.79
733.612	6228.58
733.953	6268.8
734.294	6266.77
734.635	6213.21
734.976	6276.94
735.317	6289.37
735.658	6283.04
735.999	6255.92
736.339	6276.04
736.68	6268.35
737.021	6272.65
737.361	6267.67
737.702	6285.53
738.042	6294.79
738.383	6325.75
738.723	6318.29
739.063	6348.12
739.404	6399.42
739.744	6350.16
740.084	6367.33
740.424	6394
740.764	6372.98
741.104	6388.12
741.444	6410.27
741.784	6409.14
742.124	6424.73
742.464	6425.18
742.804	6474.45
743.143	6471.06
743.483	6511.28
743.823	6514.45
744.162	6515.35
744.502	6570.27
744.841	6618.85
745.181	6660.21
745.52	6633.09
745.86	6660.43
746.199	6674.44
746.538	6700.43
746.877	6805.29
747.216	6860.65
747.556	6828.56
747.895	6963.48
748.234	6941.55
748.573	7024.94
748.911	6980.2
749.25	7109.91
749.589	7085.96
749.928	7197.59
750.267	7235.78
750.605	7347.87
750.944	7442.33
751.283	7456.8
751.621	7582.67
751.96	7552.61
752.298	7674.42
752.636	7846.84
752.975	7882.77
753.313	8003
753.651	8112.15
753.989	8091.13
754.327	8249.99
754.666	8315.76
755.004	8442.98
755.342	8583.77
755.679	8732.47
756.017	8830.77
756.355	8977.89
756.693	9036.87
757.031	9208.39
757.368	9327.71
757.706	9544.88
758.044	9656.96
758.381	9833.23
758.719	9907.13
759.056	10095.82
759.394	10223.05
759.731	10407.68
760.068	10531.06
760.405	10637.28
760.743	10874.78
761.08	11009.02
761.417	11129.24
761.754	11358.61
762.091	11476.12
762.428	11664.14
762.765	11788.88
763.102	12035.43
763.438	12125.37
763.775	12275.88
764.112	12542.76
764.449	12741.63
764.785	12851.23
765.122	12933.04
765.458	13094.16
765.795	13260.03
766.131	13506.81
766.467	13592
766.804	13733.24
767.14	13881.03
767.476	14103.63
767.812	14119.67
768.148	14299.55
768.485	14411.64
768.821	14518.3
769.157	14637.17
769.492	14854.12
769.828	14965.75
770.164	15003.49
770.5	15111.28
770.836	15286.65
771.171	15342.69
771.507	15513.53
771.842	15442.12
772.178	15692.74
772.513	15759.85
772.849	15895.22
773.184	15928.89
773.519	16037.36
773.855	16100.64
774.19	16215.66
774.525	16278.03
774.86	16389.67
775.195	16487.29
775.53	16506.28
775.865	16525.03
776.2	16536.56
776.535	16572.26
776.87	16687.06
777.205	16706.04
777.539	16765.93
777.874	16885.47
778.209	16810
778.543	16796.66
778.878	16852.48
779.212	16929.31
779.547	16956.21
779.881	17106.49
780.215	16991.46
780.55	17082.76
780.884	17057.67
781.218	17122.08
781.552	17141.51
781.886	17096.32
782.22	17094.51
782.554	17139.03
782.888	17083.43
783.222	17084.11
783.556	16958.69
783.889	16986.26
784.223	17036.66
784.557	17080.27
784.89	17165.47
785.224	17063.55
785.557	16968.18
785.891	17052.7
786.224	17035.07
786.558	17052.7
786.891	16895.42
787.224	16935.19
787.557	17016.77
787.891	16977.68
788.224	16986.71
788.557	16970.44
788.89	17003.89
789.223	16975.19
789.556	16846.15
789.888	16887.06
790.221	16888.41
790.554	16791.92
790.887	16852.48
791.219	16753.5
791.552	16808.19
791.884	16735.87
792.217	16648.87
792.549	16694.07
792.882	16538.36
793.214	16515.09
793.546	16626.05
793.879	16455.2
794.211	16460.17
794.543	16590.34
794.875	16506.05
795.207	16538.36
795.539	16387.41
795.871	16485.71
796.203	16320.97
796.535	16271.93
796.867	16238.71
797.198	16232.16
797.53	16209.79
797.862	16170.92
798.193	16195.1
798.525	16103.8
798.856	16147.87
799.188	15996.46
799.519	15965.05
799.85	15915.78
800.182	15955.33
800.513	15925.5
800.844	15870.59
801.175	15913.3
801.506	15885.5
801.837	15767.76
802.168	15830.81
802.499	15730.7
802.83	15543.14
803.161	15622.68
803.491	15641.21
803.822	15613.42
804.153	15568.67
804.483	15499.52
804.814	15478.73
805.145	15507.43
805.475	15396.7
805.805	15330.94
806.136	15349.24
806.466	15380.2
806.796	15277.83
807.126	15186.31
807.457	15110.61
807.787	15140.21
808.117	15097.05
808.447	15028.8
808.777	15094.11
809.107	15062.92
809.436	15014.11
809.766	15013.66
810.096	14879.65
810.426	14909.71
810.755	14933.89
811.085	14856.37
811.414	14827.45
811.744	14754.23
812.073	14805.98
812.403	14710.39
812.732	14620.9
813.061	14656.83
813.39	14650.5
813.719	14631.75
814.049	14699.54
814.378	14608.25
814.707	14559.89
815.036	14507.46
815.365	14454.13
815.693	14324.64
816.022	14382.04
816.351	14346.56
816.68	14355.6
817.008	14387.91
817.337	14238.99
817.665	14158.77
817.994	14191.99
818.322	14235.37
818.651	14188.6
818.979	14154.92
819.307	14220.91
819.636	14110.86
819.964	14109.95
820.292	14129.39
820.62	14149.5
820.948	14040.35
821.276	14115.6
821.604	14055.04
821.932	14113.12
822.259	14093.23
822.587	14107.69
822.915	14066.79
823.243	14071.31
823.57	14048.49
823.898	14089.39
824.225	14029.05
824.553	14077.41
824.88	14049.62
825.207	14121.03
825.535	14083.29
825.862	14061.14
826.189	13982.95
826.516	14171.42
826.843	14069.28
827.17	14104.3
827.497	14112.89
827.824	14021.59
828.151	14180.46
828.478	14141.82
828.805	14150.63
829.131	14079.22
829.458	14093.46
829.785	14064.98
830.111	13987.25
830.438	14080.35
830.764	14100.01
831.09	14152.89
831.417	14016.17
831.743	14134.81
832.069	14094.14
832.395	14062.72
832.722	14076.96
833.048	14038.77
833.374	14066.34
833.7	13922.84
834.026	14066.11
834.351	13999.45
834.677	14041.48
835.003	14006.68
835.329	13842.16
835.654	13955.83
835.98	13910.41
836.306	13946.34
836.631	13834.25
836.956	13956.51
837.282	13823.63
837.607	13843.29
837.932	13811.88
838.258	13821.83
838.583	13816.18
838.908	13695.5
839.233	13813.46
839.558	13690.08
839.883	13694.15
840.208	13620.7
840.533	13582.96
840.858	13625.9
841.182	13634.26
841.507	13636.75
841.832	13470.65
842.156	13513.59
842.481	13498.44
842.805	13534.83
843.13	13472.23
843.454	13419.58
843.778	13329.86
844.103	13292.35
844.427	13299.81
844.751	13293.7
845.075	13259.81
845.399	13225.91
845.723	13234.04
846.047	13172.35
846.371	13008.29
846.695	13084.9
847.019	12966.93
847.343	12850.1
847.666	12867.95
847.99	12789.76
848.313	12803.77
848.637	12664.57
848.96	12794.06
849.284	12694.85
849.607	12557.45
849.931	12487.4
850.254	12487.62
850.577	12334.86
850.9	12325.37
851.223	12326.95
851.546	12231.13
851.869	12192.72
852.192	12195.43
852.515	12134.64
852.838	12083.34
853.161	12043.79
853.483	12023.46
853.806	11948.65
854.129	11913.63
854.451	11889.9
854.774	11896.23
855.096	11793.63
855.419	11711.6
855.741	11682
856.063	11652.39
856.385	11607.42
856.708	11634.54
857.03	11565.61
857.352	11504.6
857.674	11523.58
857.996	11482
858.318	11413.3
858.64	11338.28
858.961	11418.27
859.283	11367.43
859.605	11282.68
859.926	11310.93
860.248	11324.72
860.57	11271.61
860.891	11211.05
861.212	11189.35
861.534	11098.28
861.855	11069.58
862.176	11206.75
862.498	11076.14
862.819	11146.87
863.14	11022.35
863.461	11028.68
863.782	10981.9
864.103	10996.36
864.424	10956.36
864.745	10997.49
865.065	10881.11
865.386	10875.69
865.707	10851.73
866.027	10906.87
866.348	10822.13
866.668	10840.89
866.989	10789.59
867.309	10740.78
867.63	10744.84
867.95	10774.45
868.27	10663.04
868.59	10757.5
868.91	10711.17
869.23	10680.67
869.55	10643.38
869.87	10667.78
870.19	10664.62
870.51	10695.35
870.83	10624.85
871.15	10575.36
871.469	10579.2
871.789	10590.27
872.109	10574.68
872.428	10489.03
872.748	10516.15
873.067	10508.24
873.386	10494.91
873.706	10485.19
874.025	10405.87
874.344	10392.99
874.663	10340.34
874.982	10422.59
875.301	10362.26
875.62	10347.34
875.939	10337.85
876.258	10239.77
876.577	10275.25
876.896	10352.76
877.214	10262.6
877.533	10265.08
877.852	10292.2
878.17	10226.44
878.489	10242.48
878.807	10199.77
879.125	10164.97
879.444	10196.61
879.762	10151.64
880.08	10133.56
880.398	10039.1
880.716	10111.64
881.034	10051.98
881.352	10053.34
881.67	10056.05
881.988	10004.75
882.306	10030.51
882.624	9908.26
882.941	9881.59
883.259	9847.47
883.577	9904.19
883.894	9866
884.212	9830.07
884.529	9771.31
884.846	9894.92
885.164	9832.1
885.481	9710.07
885.798	9771.76
886.115	9679.34
886.432	9616.29
886.75	9688.6
887.067	9690.86
887.383	9614.93
887.7	9622.16
888.017	9596.85
888.334	9546.68
888.651	9575.84
888.967	9520.92
889.284	9441.38
889.6	9453.35
889.917	9450.42
890.233	9378.78
890.55	9329.06
890.866	9330.64
891.182	9308.95
891.498	9227.37
891.815	9208.84
892.131	9197.77
892.447	9168.84
892.763	9115.96
893.079	9197.54
893.395	9080.71
893.71	9088.16
894.026	9069.41
894.342	9052.91
894.657	8945.8
894.973	8958.45
895.289	9024.44
895.604	8973.59
895.92	8901.96
896.235	8849.08
896.55	8813.82
896.865	8762.75
897.181	8786.48
897.496	8728.4
897.811	8703.09
898.126	8690.66
898.441	8638.46
898.756	8626.48
899.071	8579.7
899.386	8523.89
899.7	8430.78
900.015	8399.14
900.33	8411.12
900.644	8381.97
900.959	8421.29
901.273	8400.5
901.588	8385.81
901.902	8283.44
902.216	8275.53
902.531	8254.06
902.845	8193.73
903.159	8181.52
903.473	8165.03
903.787	8095.65
904.101	8032.15
904.415	8058.59
904.729	8022.43
905.042	8013.39
905.356	7967.29
905.67	7941.75
905.984	7934.07
906.297	7986.05
906.611	7833.51
906.924	7845.94
907.237	7808.42
907.551	7745.38
907.864	7775.21
908.177	7662.89
908.491	7686.39
908.804	7565.95
909.117	7513.74
909.43	7502.9
909.743	7486.63
910.056	7491.37
910.368	7432.62
910.681	7419.06
910.994	7358.72
911.307	7358.27
911.619	7273.07
911.932	7322.56
912.244	7268.55
912.557	7267.42
912.869	7214.99
913.181	7158.95
913.494	7162.57
913.806	7131.15
914.118	7023.13
914.43	7103.58
914.742	7046.86
915.054	7022.23
915.366	6987.2
915.678	6941.33
915.99	6929.13
916.302	6912.85
916.613	6888.22
916.925	6809.13
917.236	6845.29
917.548	6792.41
917.859	6825.85
918.171	6733.65
918.482	6660.66
918.794	6707.21
919.105	6608
919.416	6621.56
919.727	6581.56
920.038	6601.68
920.349	6514.67
920.66	6536.14
920.971	6561.45
921.282	6410.5
921.593	6453.43
921.903	6380.44
922.214	6327.79
922.525	6366.65
922.835	6333.44
923.146	6294.79
923.456	6260.89
923.767	6294.34
924.077	6233.32
924.387	6213.21
924.697	6132.31
925.008	6143.61
925.318	6095.02
925.628	6146.1
925.938	6084.85
926.248	6069.26
926.558	6088.02
926.867	6018.42
927.177	5940
927.487	5927.8
927.796	5867.91
928.106	5905.2
928.416	5879.21
928.725	5899.32
929.034	5809.61
929.344	5856.61
929.653	5815.93
929.962	5764.86
930.271	5740.91
930.581	5723.96
930.89	5661.36
931.199	5657.52
931.508	5623.17
931.817	5635.83
932.125	5624.08
932.434	5589.27
932.743	5536.62
933.051	5512.21
933.36	5533.68
933.669	5473.8
933.977	5455.72
934.286	5504.3
934.594	5434.02
934.902	5359.9
935.21	5367.36
935.519	5365.55
935.827	5348.38
936.135	5359.45
936.443	5223.63
936.751	5250.53
937.059	5304.31
937.367	5253.46
937.674	5258.21
937.982	5183.41
938.29	5186.8
938.597	5167.59
938.905	5135.73
939.213	5075.62
939.52	5047.82
939.827	5080.81
940.135	5010.98
940.442	5060.25
940.749	5013.24
941.056	4972.12
941.363	4969.86
941.67	4945.9
941.977	4926.92
942.284	4871.55
942.591	4850.76
942.898	4829.97
943.205	4868.61
943.511	4851.67
943.818	4789.97
944.125	4742.97
944.431	4750.65
944.738	4697.55
945.044	4702.07
945.35	4683.08
945.657	4675.85
945.963	4646.7
946.269	4679.24
946.575	4585.01
946.881	4586.14
947.187	4602.63
947.493	4549.75
947.799	4554.5
948.105	4525.12
948.41	4508.85
948.716	4491.68
949.022	4442.64
949.327	4438.57
949.633	4385.69
949.938	4353.6
950.244	4371.9
950.549	4367.16
950.854	4332.13
951.16	4334.17
951.465	4289.42
951.77	4327.84
952.075	4278.57
952.38	4270.66
952.685	4269.08
952.99	4221.17
953.294	4215.07
953.599	4192.93
953.904	4168.29
954.209	4113.38
954.513	4154.96
954.818	4093.27
955.122	4053.95
955.426	4063.21
955.731	4049.43
956.035	4056.21
956.339	4007.39
956.643	3993.16
956.948	4020.95
957.252	3945.25
957.556	3938.24
957.86	3933.27
958.163	3939.83
958.467	3905.25
958.771	3886.95
959.075	3859.15
959.378	3800.17
959.682	3845.82
959.985	3819.6
960.289	3801.75
960.592	3767.63
960.896	3777.57
961.199	3729.66
961.502	3767.63
961.805	3759.72
962.108	3702.54
962.411	3720.17
962.714	3682.21
963.017	3667.97
963.32	3649.89
963.623	3615.31
963.926	3609.66
964.228	3621.87
964.531	3556.56
964.833	3595.88
965.136	3597.24
965.438	3517.01
965.741	3494.87
966.043	3509.78
966.345	3502.32
966.648	3450.57
966.95	3436.11
967.252	3420.97
967.554	3411.03
967.856	3412.16
968.158	3402.89
968.46	3371.48
968.761	3374.42
969.063	3341.88
969.365	3356.11
969.666	3376.9
969.968	3293.74
970.269	3304.81
970.571	3296.68
970.872	3249.67
971.174	3230.69
971.475	3206.06
971.776	3226.85
972.077	3210.13
972.378	3212.84
972.679	3182.11
972.98	3163.58
973.281	3147.53
973.582	3122.67
973.883	3155.21
974.183	3120.64
974.484	3124.93
974.785	3081.54
975.085	3084.03
975.386	3077.25
975.686	3047.65
975.986	3043.58
976.287	3029.79
976.587	3020.75
976.887	2976.01
977.187	2964.26
977.487	2982.34
977.787	2989.34
978.087	2945.73
978.387	2912.73
978.687	2941.21
978.987	2867.31
979.286	2922
979.586	2894.88
979.885	2830.02
980.185	2853.53
980.484	2865.73
980.784	2864.37
981.083	2839.29
981.382	2835.22
981.682	2807.65
981.981	2796.58
982.28	2802.23
982.579	2763.59
982.878	2755.22
983.177	2723.81
983.475	2712.51
983.774	2691.5
984.073	2635.91
984.372	2671.38
984.67	2688.79
984.969	2683.81
985.267	2654.21
985.566	2618.5
985.864	2618.05
986.162	2604.04
986.461	2564.27
986.759	2575.12
987.057	2558.85
987.355	2546.87
987.653	2561.1
987.951	2538.51
988.249	2515.46
988.547	2521.33
988.844	2520.65
989.142	2457.15
989.44	2486.53
989.737	2458.51
990.035	2434.33
990.332	2461.45
990.63	2437.72
990.927	2437.94
991.224	2410.83
991.521	2395.91
991.819	2394.1
992.116	2352.75
992.413	2365.86
992.71	2331.73
993.006	2342.13
993.303	2339.42
993.6	2329.02
993.897	2325.63
994.193	2329.47
994.49	2317.27
994.787	2275.46
995.083	2278.4
995.379	2247.44
995.676	2253.09
995.972	2248.12
996.268	2235.24
996.565	2219.42
996.861	2209.48
997.157	2218.74
997.453	2171.74
997.749	2191.17
998.044	2168.8
998.34	2156.37
998.636	2159.76
998.932	2103.72
999.227	2093.55
999.523	2091.96
999.818	2083.38
1000.114	2072.76
1000.409	2037.28
1000.704	2050.61
1001	2057.39
1001.295	2056.03
1001.59	2023.04
1001.885	2005.19
1002.18	2010.61
1002.475	2008.13
1002.77	1999.99
1003.065	1966.32
1003.359	1955.92
1003.654	1965.41
1003.949	1936.04
1004.243	1937.84
1004.538	1940.1
1004.832	1923.16
1005.127	1924.29
1005.421	1899.2
1005.715	1900.11
1006.009	1882.93
1006.304	1858.98
1006.598	1841.35
1006.892	1821.46
1007.186	1795.02
1007.48	1872.08
1007.773	1837.06
1008.067	1813.78
1008.361	1780.56
1008.655	1757.06
1008.948	1756.83
1009.242	1756.61
1009.535	1757.28
1009.829	1753.89
1010.122	1734.01
1010.415	1730.62
1010.708	1736.04
1011.001	1704.86
1011.295	1696.04
1011.588	1680.45
1011.881	1690.62
1012.173	1680.45
1012.466	1673.44
1012.759	1636.16
1013.052	1610.4
1013.344	1600.9
1013.637	1640.45
1013.93	1582.83
1014.222	1592.99
1014.514	1593.45
1014.807	1571.75
1015.099	1560.68
1015.391	1576.05
1015.683	1565.65
1015.976	1545.99
1016.268	1548.25
1016.56	1514.13
1016.851	1479.33
1017.143	1517.97
1017.435	1477.29
1017.727	1459.21
1018.018	1477.97
1018.31	1461.47
1018.602	1477.74
1018.893	1445.65
1019.185	1444.3
1019.476	1427.35
1019.767	1409.5
1020.058	1396.84
1020.35	1384.86
1020.641	1381.02
1020.932	1384.86
1021.223	1375.6
1021.514	1376.5
1021.804	1345.32
1022.095	1353.45
1022.386	1325.88
1022.677	1328.6
1022.967	1322.04
1023.258	1308.71
1023.548	1306.22
1023.839	1310.52
1024.129	1290.18
1024.419	1277.52
1024.709	1284.08
1025	1285.88
1025.29	1226.9
1025.58	1256.96
1025.87	1240.91
1026.16	1218.54
1026.449	1218.54
1026.739	1201.82
1027.029	1192.33
1027.319	1201.59
1027.608	1201.59
1027.898	1196.85
1028.187	1201.59
1028.477	1167.92
1028.766	1173.8
1029.055	1176.51
1029.344	1151.88
1029.634	1143.06
1029.923	1124.31
1030.212	1127.92
1030.501	1103.29
1030.79	1121.14
1031.078	1126.11
1031.367	1116.62
1031.656	1096.96
1031.945	1106.91
1032.233	1064.65
1032.522	1069.62
1032.81	1091.99
1033.099	1036.63
1033.387	1055.83
1033.675	1026.23
1033.963	1030.3
1034.251	1031.43
1034.54	1047.7
1034.828	1020.81
1035.116	1006.57
1035.403	990.07
1035.691	1004.99
1035.979	1002.05
1036.267	966.12
1036.554	971.77
1036.842	957.31
1037.129	997.08
1037.417	952.79
1037.704	938.1
1037.992	953.46
1038.279	954.82
1038.566	940.13
1038.853	940.13
1039.14	940.13
