Data from hue_260_FLMS001491_00049.txt Node
Date: Tue Feb 07 15:59:04 GMT 2017
User: dcchb
Spectrometer: FLMS00149
Trigger mode: 0
Integration Time (sec): 2.000000E-2
Scans to average: 10
Electric dark correction enabled: true
Nonlinearity correction enabled: false
Boxcar width: 0
XAxis mode: Wavelengths
Number of Pixels in Spectrum: 2048
>>>>>Begin Spectral Data<<<<<
341.393	-16.88
341.776	-16.88
342.16	-16.88
342.543	-43.09
342.927	-71.34
343.31	-65.24
343.693	-64.56
344.077	-57.78
344.46	-41.96
344.843	-60.27
345.226	-50.32
345.61	-32.02
345.993	9.56
346.376	-4
346.759	6.17
347.142	27.87
347.525	43.69
347.908	49.56
348.291	79.84
348.674	64.02
349.057	95.44
349.44	114.87
349.823	127.3
350.206	173.85
350.588	166.85
350.971	201.65
351.354	193.96
351.737	217.69
352.119	242.1
352.502	254.08
352.884	243.91
353.267	264.7
353.65	269.67
354.032	272.15
354.414	286.84
354.797	304.02
355.179	301.76
355.562	297.24
355.944	315.77
356.326	318.25
356.709	320.06
357.091	321.87
357.473	311.25
357.855	323
358.238	330.46
358.62	308.99
359.002	298.82
359.384	305.83
359.766	319.84
360.148	323.45
360.53	326.62
360.912	321.87
361.294	343.56
361.676	315.99
362.057	330.23
362.439	313.96
362.821	330.91
363.203	325.03
363.584	325.26
363.966	299.27
364.348	320.06
364.729	312.15
365.111	318.03
365.493	306.73
365.874	319.38
366.256	304.47
366.637	296.11
367.019	304.7
367.4	302.21
367.781	287.75
368.163	308.76
368.544	289.55
368.925	306.05
369.306	306.73
369.688	299.05
370.069	313.96
370.45	295.43
370.831	293.62
371.212	302.44
371.593	307.63
371.974	306.05
372.355	307.86
372.736	319.61
373.117	313.73
373.498	304.47
373.879	302.21
374.26	311.93
374.641	306.5
375.021	308.54
375.402	288.65
375.783	322.32
376.163	305.83
376.544	315.54
376.925	344.02
377.305	308.99
377.686	321.19
378.066	314.64
378.447	325.71
378.827	320.97
379.208	325.03
379.588	331.14
379.968	320.06
380.349	319.38
380.729	330.91
381.109	327.52
381.489	301.98
381.87	345.6
382.25	321.64
382.63	337.24
383.01	341.98
383.39	357.12
383.77	334.3
384.15	348.08
384.53	353.96
384.91	342.89
385.29	364.35
385.67	310.12
386.049	343.34
386.429	326.84
386.809	344.92
387.189	346.5
387.568	337.69
387.948	345.37
388.328	364.81
388.707	336.11
389.087	342.89
389.466	343.79
389.846	351.47
390.225	356.45
390.605	361.19
390.984	370.68
391.363	346.73
391.743	348.76
392.122	353.73
392.501	353.73
392.881	372.94
393.26	377.01
393.639	370.68
394.018	400.06
394.397	362.09
394.776	376.11
395.155	370.23
395.534	378.82
395.913	382.43
396.292	387.41
396.671	380.85
397.05	376.33
397.429	388.99
397.808	365.48
398.186	390.12
398.565	395.99
398.944	370.46
399.323	388.53
399.701	417.01
400.08	410.23
400.458	408.42
400.837	401.64
401.215	418.36
401.594	389.44
401.972	417.01
402.351	392.83
402.729	400.06
403.107	424.01
403.486	430.79
403.864	425.82
404.242	433.51
404.62	452.94
404.999	444.58
405.377	440.96
405.755	450.91
406.133	462.43
406.511	450
406.889	455.43
407.267	460.17
407.645	458.14
408.023	473.5
408.401	460.62
408.779	474.63
409.156	490.91
409.534	472.83
409.912	480.06
410.29	503.56
410.667	501.98
411.045	517.8
411.422	511.92
411.8	504.46
412.178	525.25
412.555	549.66
412.933	546.5
413.31	552.15
413.687	578.81
414.065	546.72
414.442	569.77
414.819	571.81
415.197	572.26
415.574	585.37
415.951	597.57
416.328	593.05
416.705	595.76
417.082	603.22
417.46	643.44
417.837	636.89
418.214	629.66
418.591	636.89
418.967	649.32
419.344	625.36
419.721	661.07
420.098	666.95
420.475	663.33
420.852	690.45
421.228	704.68
421.605	704.91
421.982	690.9
422.358	731.58
422.735	715.98
423.111	746.04
423.488	744.23
423.864	739.26
424.241	771.12
424.617	781.52
424.994	793.27
425.37	780.39
425.746	794.85
426.123	809.09
426.499	838.24
426.875	852.7
427.251	864.45
427.627	870.33
428.003	859.94
428.379	884.57
428.756	906.26
429.132	907.62
429.507	926.37
429.883	898.58
430.259	920.72
430.635	955.3
431.011	971.57
431.387	976.77
431.763	960.95
432.138	1005.02
432.514	1006.82
432.89	1011.34
433.265	1018.57
433.641	1038.91
434.016	1069.2
434.392	1085.69
434.767	1115.52
435.143	1110.1
435.518	1111.23
435.894	1148.06
436.269	1165.69
436.644	1169.08
437.02	1197.55
437.395	1229.64
437.77	1221.51
438.145	1218.57
438.52	1236.2
438.895	1249.76
439.271	1260.83
439.646	1307.61
440.021	1315.06
440.395	1348.74
440.77	1360.71
441.145	1353.03
441.52	1379.92
441.895	1385.34
442.27	1415.17
442.645	1400.03
443.019	1428.06
443.394	1431.67
443.769	1433.93
444.143	1442.74
444.518	1470.31
444.892	1480.71
445.267	1447.04
445.641	1508.96
446.016	1514.16
446.39	1529.75
446.764	1523.42
447.139	1556.41
447.513	1551.89
447.887	1547.15
448.262	1584.89
448.636	1618.33
449.01	1588.5
449.384	1615.85
449.758	1626.69
450.132	1660.82
450.506	1639.12
450.88	1665.34
451.254	1677.54
451.628	1698.78
452.002	1706.24
452.376	1710.08
452.75	1718.67
453.123	1751.66
453.497	1787.82
453.871	1763.87
454.244	1818.78
454.618	1805.67
454.992	1844.09
455.365	1840.25
455.739	1882.06
456.112	1901.26
456.486	1883.41
456.859	1924.54
457.232	1983.07
457.606	1933.35
457.979	1977.19
458.352	2012.22
458.725	2029.62
459.099	2046.8
459.472	2036.63
459.845	2061.03
460.218	2095.16
460.591	2111.2
460.964	2164.08
461.337	2171.54
461.71	2189.84
462.083	2225.1
462.456	2204.98
462.829	2224.87
463.201	2249.73
463.574	2272.78
463.947	2320.91
464.32	2350.52
464.692	2400.69
465.065	2418.09
465.438	2430.74
465.81	2471.19
466.183	2510.51
466.555	2510.97
466.928	2504.41
467.3	2515.26
467.672	2560.46
468.045	2601.81
468.417	2591.19
468.789	2635.93
469.161	2678.42
469.534	2688.36
469.906	2739.89
470.278	2784.63
470.65	2821.24
471.022	2813.33
471.394	2908.69
471.766	2902.14
472.138	2931.74
472.51	2997.51
472.882	3018.3
473.253	3062.59
473.625	3092.19
473.997	3146.2
474.369	3193.88
474.74	3193.43
475.112	3318.63
475.484	3282.92
475.855	3338.51
476.227	3391.39
476.598	3430.49
476.97	3470.26
477.341	3544.16
477.713	3556.59
478.084	3577.83
478.455	3680.43
478.827	3703.48
479.198	3782.8
479.569	3741.22
479.94	3869.35
480.311	3949.35
480.682	3975.33
481.053	4072.28
481.424	4150.7
481.795	4139.4
482.166	4194.31
482.537	4241.54
482.908	4335.32
483.279	4337.81
483.65	4371.93
484.021	4509.33
484.391	4536.45
484.762	4580.06
485.133	4628.88
485.503	4696.9
485.874	4705.03
486.244	4759.27
486.615	4849.89
486.985	4879.94
487.356	4952.48
487.726	4975.08
488.097	5125.36
488.467	5075.87
488.837	5163.78
489.207	5231.12
489.578	5315.86
489.948	5324.22
490.318	5404.67
490.688	5371.23
491.058	5444.67
491.428	5480.38
491.798	5596.53
492.168	5624.33
492.538	5645.8
492.908	5719.47
493.278	5780.03
493.648	5773.48
494.017	5860.93
494.387	5878.11
494.757	5924.66
495.126	6007.6
495.496	5959.46
495.866	6014.83
496.235	6063.19
496.605	6121.94
496.974	6087.37
497.344	6205.11
497.713	6215.05
498.082	6287.36
498.452	6298.66
498.821	6288.04
499.19	6307.02
499.559	6383.41
499.928	6400.58
500.298	6420.47
500.667	6479.45
501.036	6373.24
501.405	6510.41
501.774	6508.15
502.143	6528.71
502.512	6552.21
502.88	6593.12
503.249	6567.81
503.618	6636.28
503.987	6656.39
504.356	6662.95
504.724	6709.27
505.093	6725.54
505.462	6767.8
505.83	6778.2
506.199	6769.38
506.567	6891.19
506.936	6836.73
507.304	6937.97
507.672	6898.19
508.041	6896.16
508.409	7002.82
508.777	6955.14
509.145	7011.19
509.514	7011.41
509.882	7028.81
510.25	7038.08
510.618	7093.9
510.986	7114.91
511.354	7161.24
511.722	7154.23
512.09	7179.54
512.458	7144.97
512.826	7227.23
513.193	7235.59
513.561	7223.84
513.929	7279.65
514.297	7328.69
514.664	7289.82
515.032	7281.01
515.4	7315.13
515.767	7430.16
516.135	7394.45
516.502	7352.42
516.869	7413.21
517.237	7394.45
517.604	7331.86
517.972	7454.34
518.339	7454.56
518.706	7471.29
519.073	7482.59
519.44	7519.19
519.808	7539.99
520.175	7520.78
520.542	7565.97
520.909	7559.87
521.276	7595.35
521.643	7599.64
522.009	7592.19
522.376	7691.62
522.743	7744.05
523.11	7719.19
523.477	7769.36
523.843	7717.61
524.21	7766.65
524.577	7755.12
524.943	7761.45
525.31	7842.58
525.676	7863.59
526.043	7871.5
526.409	7895
526.776	7908.34
527.142	7911.5
527.508	7915.79
527.874	7927.09
528.241	7998.73
528.607	7938.62
528.973	7970.03
529.339	7953.76
529.705	8030.37
530.071	8030.37
530.437	8010.71
530.803	8031.72
531.169	8048.67
531.535	8012.52
531.901	8009.58
532.267	7962.8
532.632	8095
532.998	8020.2
533.364	8081.67
533.73	8067.66
534.095	8089.58
534.461	8095.68
534.826	8080.76
535.192	8079.18
535.557	8037.83
535.923	8071.95
536.288	8073.98
536.653	8090.48
537.019	8006.19
537.384	8006.87
537.749	8046.41
538.114	8026.75
538.479	7998.96
538.845	8057.26
539.21	8001.44
539.575	7954.66
539.94	7925.74
540.305	7985.4
540.67	8023.14
541.034	7987.43
541.399	7994.89
541.764	8005.96
542.129	7939.97
542.494	7976.81
542.858	8003.48
543.223	7941.56
543.587	7982.23
543.952	7884.84
544.316	7909.24
544.681	7963.93
545.045	7884.38
545.41	7906.53
545.774	7934.55
546.138	7902.46
546.503	7862.69
546.867	7882.8
547.231	7903.14
547.595	7863.82
547.959	7791.05
548.324	7874.89
548.688	7816.59
549.052	7829.24
549.416	7798.28
549.779	7751.73
550.143	7761.67
550.507	7827.21
550.871	7793.99
551.235	7783.59
551.599	7809.58
551.962	7786.31
552.326	7742.92
552.689	7784.5
553.053	7788.79
553.417	7709.25
553.78	7795.12
554.143	7739.53
554.507	7740.43
554.87	7756.02
555.234	7763.71
555.597	7749.7
555.96	7761.67
556.323	7770.49
556.686	7773.2
557.05	7809.81
557.413	7752.41
557.776	7740.21
558.139	7781.79
558.502	7748.57
558.865	7779.08
559.228	7796.25
559.59	7767.1
559.953	7819.07
560.316	7845.74
560.679	7778.17
561.041	7849.58
561.404	7898.85
561.767	7924.61
562.129	7821.79
562.492	7906.76
562.854	7897.94
563.217	7814.33
563.579	7901.56
563.941	7913.31
564.304	7937.49
564.666	7995.79
565.028	7973.87
565.39	7994.89
565.753	7998.5
566.115	8011.61
566.477	8062.46
566.839	8068.56
567.201	8103.36
567.563	8118.73
567.925	8148.33
568.287	8089.58
568.648	8145.62
569.01	8158.73
569.372	8189.01
569.734	8186.52
570.095	8219.29
570.457	8269.46
570.819	8229.01
571.18	8206.63
571.542	8252.73
571.903	8239.85
572.265	8320.08
572.626	8288.44
572.987	8350.59
573.349	8346.97
573.71	8420.64
574.071	8384.26
574.432	8417.25
574.794	8426.52
575.155	8459.51
575.516	8358.49
575.877	8401.43
576.238	8450.24
576.599	8566.85
576.96	8498.83
577.32	8568.43
577.681	8642.78
578.042	8573.86
578.403	8627.19
578.763	8645.72
579.124	8647.07
579.485	8704.47
579.845	8703.12
580.206	8680.07
580.566	8693.18
580.927	8679.16
581.287	8763.46
581.648	8734.53
582.008	8790.57
582.368	8856.56
582.728	8821.99
583.089	8769.78
583.449	8824.7
583.809	8829.44
584.169	8863.34
584.529	8841.87
584.889	8907.18
585.249	8918.48
585.609	8961.19
585.969	8915.54
586.329	8930.01
586.688	8934.3
587.048	8950.34
587.408	8993.28
587.768	8915.99
588.127	9000.06
588.487	8980.17
588.846	9066.05
589.206	8974.52
589.565	9033.73
589.925	9107.85
590.284	9093.16
590.643	9130
591.003	9140.17
591.362	9153.05
591.721	9098.81
592.08	9160.96
592.44	9155.08
592.799	9189.43
593.158	9191.24
593.517	9217.46
593.876	9217.23
594.235	9190.56
594.593	9259.71
594.952	9285.25
595.311	9218.36
595.67	9234.4
596.029	9289.77
596.387	9273.05
596.746	9198.47
597.104	9267.4
597.463	9309.43
597.822	9306.72
598.18	9276.89
598.538	9269.43
598.897	9351.01
599.255	9281.86
599.613	9428.52
599.972	9358.02
600.33	9379.03
600.688	9322.54
601.046	9316.89
601.404	9383.33
601.762	9339.26
602.12	9381.29
602.478	9421.07
602.836	9425.59
603.194	9363.67
603.552	9377.45
603.91	9367.06
604.268	9403.21
604.625	9395.3
604.983	9390.78
605.341	9394.4
605.698	9415.19
606.056	9485.02
606.413	9365.93
606.771	9458.8
607.128	9451.12
607.485	9477.79
607.843	9459.93
608.2	9545.13
608.557	9591.91
608.914	9509.43
609.272	9575.19
609.629	9545.58
609.986	9580.16
610.343	9503.32
610.7	9627.39
611.057	9574.51
611.414	9572.02
611.771	9610.44
612.127	9623.09
612.484	9584.68
612.841	9644.34
613.198	9640.27
613.554	9577.22
613.911	9631.23
614.267	9612.02
614.624	9617.22
614.98	9703.32
615.337	9684.56
615.693	9691.34
616.05	9724.56
616.406	9679.14
616.762	9678.23
617.118	9713.04
617.475	9736.09
617.831	9715.3
618.187	9714.17
618.543	9797.33
618.899	9792.13
619.255	9814.05
619.611	9763.66
619.967	9807.04
620.323	9745.8
620.678	9769.31
621.034	9759.81
621.39	9804.33
621.746	9808.17
622.101	9807.95
622.457	9765.01
622.812	9790.77
623.168	9794.84
623.523	9786.03
623.879	9840.72
624.234	9763.88
624.589	9800.94
624.945	9834.61
625.3	9805.91
625.655	9734.96
626.01	9779.47
626.365	9826.03
626.72	9772.47
627.075	9800.04
627.43	9767.27
627.785	9731.34
628.14	9729.08
628.495	9793.49
628.85	9788.97
629.205	9707.61
629.559	9755.29
629.914	9746.48
630.269	9748.51
630.623	9730.66
630.978	9687.95
631.332	9786.71
631.687	9740.61
632.041	9715.3
632.396	9622.87
632.75	9738.8
633.104	9678.91
633.459	9636.43
633.813	9676.2
634.167	9637.56
634.521	9631.91
634.875	9617.67
635.229	9642.3
635.583	9565.47
635.937	9607.5
636.291	9620.61
636.645	9610.89
636.999	9541.29
637.352	9538.58
637.706	9548.75
638.06	9465.36
638.413	9463.55
638.767	9476.66
639.121	9532.7
639.474	9444.34
639.828	9461.74
640.181	9458.58
640.534	9487.73
640.888	9457.22
641.241	9392.82
641.594	9410.67
641.947	9431.01
642.301	9408.18
642.654	9323.44
643.007	9439.14
643.36	9357.11
643.713	9290
644.066	9377.9
644.419	9334.29
644.771	9258.36
645.124	9200.96
645.477	9136.78
645.83	9086.39
646.182	9128.42
646.535	9142.66
646.888	9072.83
647.24	9002.09
647.593	9133.84
647.945	9080.06
648.298	9061.08
648.65	9005.48
649.002	8975.43
649.355	9057.23
649.707	8959.38
650.059	9113.5
650.411	9132.94
650.763	9126.61
651.115	9249.54
651.467	9237.79
651.819	9226.72
652.171	9208.19
652.523	9256.32
652.875	9194.63
653.227	9198.92
653.578	9290.45
653.93	9256.1
654.282	9157.34
654.633	9162.77
654.985	9275.08
655.337	9173.84
655.688	9245.93
656.039	9216.78
656.391	9117.12
656.742	9221.3
657.094	9153.95
657.445	9244.12
657.796	9210.9
658.147	9203.22
658.498	9161.41
658.849	9260.84
659.2	9208.87
659.551	9232.6
659.902	9235.31
660.253	9228.75
660.604	9257.23
660.955	9214.97
661.306	9202.77
661.656	9179.04
662.007	9222.88
662.358	9188.3
662.708	9267.62
663.059	9273.73
663.409	9122.09
663.76	9285.7
664.11	9281.41
664.461	9215.42
664.811	9227.85
665.161	9195.76
665.511	9198.02
665.862	9233.27
666.212	9298.36
666.562	9293.16
666.912	9207.29
667.262	9222.2
667.612	9228.08
667.962	9307.4
668.312	9192.82
668.662	9297
669.011	9246.61
669.361	9221.07
669.711	9144.91
670.06	9176.33
670.41	9226.04
670.76	9214.97
671.109	9261.07
671.459	9196.66
671.808	9213.84
672.157	9191.02
672.507	9117.57
672.856	9148.98
673.205	9144.01
673.554	9187.63
673.904	9122.99
674.253	9199.15
674.602	9192.37
674.951	9026.95
675.3	9008.65
675.649	9122.77
675.998	9090
676.346	9050
676.695	9115.54
677.044	9021.53
677.393	9041.41
677.741	9133.16
678.09	9034.41
678.438	9091.36
678.787	9052.71
679.135	9036.22
679.484	8986.28
679.832	9025.37
680.181	8962.09
680.529	8952.38
680.877	8920.97
681.225	8909.67
681.573	8922.55
681.922	8864.02
682.27	8889.1
682.618	8843.45
682.966	8841.65
683.314	8831.48
683.661	8874.19
684.009	8809.56
684.357	8800.74
684.705	8795.55
685.053	8779.95
685.4	8759.16
685.748	8752.61
686.095	8730.46
686.443	8679.16
686.79	8664.25
687.138	8661.31
687.485	8572.73
687.832	8655.66
688.18	8625.38
688.527	8552.61
688.874	8509.23
689.221	8474.88
689.568	8506.51
689.915	8441.2
690.262	8495.21
690.609	8443.01
690.956	8444.37
691.303	8420.19
691.65	8327.08
691.997	8329.8
692.344	8239.4
692.69	8368.44
693.037	8241.21
693.383	8207.76
693.73	8196.69
694.077	8191.49
694.423	8139.74
694.769	8074.89
695.116	8050.71
695.462	8099.29
695.808	8098.16
696.155	8034.89
696.501	8019.75
696.847	7981.33
697.193	7904.5
697.539	7900.65
697.885	7920.77
698.231	7817.49
698.577	7791.05
698.923	7827.66
699.269	7745.18
699.614	7731.17
699.96	7697.95
700.306	7712.64
700.651	7641
700.997	7637.84
701.342	7626.54
701.688	7607.1
702.033	7565.75
702.379	7542.7
702.724	7575.24
703.069	7544.05
703.415	7439.2
703.76	7437.62
704.105	7457.05
704.45	7393.55
704.795	7377.73
705.14	7318.52
705.485	7355.36
705.83	7291.4
706.175	7277.85
706.52	7250.05
706.865	7284.85
707.209	7227.23
707.554	7273.1
707.899	7189.03
708.243	7166.21
708.588	7141.58
708.932	7096.16
709.277	7097.74
709.621	7066.33
709.966	7105.19
710.31	7055.48
710.654	7016.38
710.998	6983.84
711.342	6994.91
711.687	6983.62
712.031	7000.56
712.375	6927.12
712.719	6961.02
713.063	6899.55
713.407	6955.37
713.75	6861.36
714.094	6877.18
714.438	6863.39
714.782	6907.01
715.125	6823.39
715.469	6842.83
715.812	6807.58
716.156	6804.41
716.499	6782.04
716.843	6771.19
717.186	6796.95
717.53	6810.74
717.873	6851.64
718.216	6766.22
718.559	6701.14
718.902	6675.15
719.246	6656.84
719.589	6671.99
719.932	6642.61
720.275	6610.07
720.617	6630.63
720.96	6693.45
721.303	6620.24
721.646	6627.92
721.989	6611.65
722.331	6641.25
722.674	6646.68
723.016	6613.46
723.359	6587.47
723.701	6633.12
724.044	6534.36
724.386	6593.57
724.729	6623.4
725.071	6615.72
725.413	6565.77
725.755	6522.38
726.097	6497.75
726.439	6512.22
726.782	6544.08
727.124	6587.24
727.465	6548.15
727.807	6551.99
728.149	6526.68
728.491	6464.76
728.833	6524.87
729.175	6582.04
729.516	6477.64
729.858	6510.86
730.199	6541.59
730.541	6520.13
730.882	6461.37
731.224	6503.85
731.565	6464.53
731.906	6403.74
732.248	6504.53
732.589	6440.13
732.93	6455.27
733.271	6397.42
733.612	6449.17
733.953	6464.31
734.294	6459.56
734.635	6400.81
734.976	6456.62
735.317	6495.04
735.658	6449.62
735.999	6415.95
736.339	6464.08
736.68	6523.97
737.021	6414.14
737.361	6459.56
737.702	6485.55
738.042	6443.74
738.383	6493.69
738.723	6470.63
739.063	6496.17
739.404	6513.57
739.744	6524.42
740.084	6455.49
740.424	6477.64
740.764	6455.49
741.104	6549.95
741.444	6521.03
741.784	6498.66
742.124	6536.85
742.464	6519.22
742.804	6552.89
743.143	6559.9
743.483	6585.21
743.823	6523.97
744.162	6582.27
744.502	6691.87
744.841	6676.51
745.181	6754.7
745.52	6687.13
745.86	6747.69
746.199	6706.33
746.538	6786.33
746.877	6813.45
747.216	6821.59
747.556	6909.27
747.895	6857.97
748.234	6900
748.573	6926.89
748.911	7042.6
749.25	7051.86
749.589	7100
749.928	7149.26
750.267	7240.56
750.605	7227.9
750.944	7345.41
751.283	7281.24
751.621	7438.75
751.96	7477.84
752.298	7575.24
752.636	7624.05
752.975	7649.81
753.313	7735.69
753.651	7843.48
753.989	7874.44
754.327	7984.27
754.666	8061.78
755.004	8172.51
755.342	8266.29
755.679	8385.61
756.017	8383.13
756.355	8596.23
756.693	8580.64
757.031	8821.99
757.368	8859.05
757.706	8919.84
758.044	9047.52
758.381	9210.68
758.719	9316.89
759.056	9425.13
759.394	9462.42
759.731	9657.44
760.068	9773.37
760.405	9893.82
760.743	10017.43
761.08	10129.3
761.417	10257.88
761.754	10337.88
762.091	10481.15
762.428	10536.97
762.765	10688.15
763.102	10889.05
763.438	11013.11
763.775	11106.67
764.112	11212.66
764.449	11352.99
764.785	11438.64
765.122	11496.04
765.458	11569.03
765.795	11766.99
766.131	11874.79
766.467	11952.07
766.804	12092.86
767.14	12105.74
767.476	12219.64
767.812	12364.27
768.148	12507.54
768.485	12526.07
768.821	12574.88
769.157	12716.12
769.492	12766.06
769.828	12874.53
770.164	12836.34
770.5	12945.94
770.836	13139.84
771.171	13099.39
771.507	13267.07
771.842	13197.92
772.178	13324.24
772.513	13422.54
772.849	13451.02
773.184	13487.4
773.519	13630.9
773.855	13546.61
774.19	13582.09
774.525	13642.2
774.86	13742.99
775.195	13843.55
775.53	13770.56
775.865	13905.69
776.2	13882.64
776.535	13787.05
776.87	13835.19
777.205	13847.39
777.539	13881.74
777.874	14022.75
778.209	13960.38
778.543	13981.17
778.878	13940.72
779.212	14001.28
779.547	13977.33
779.881	14098.68
780.215	13914.28
780.55	14078.8
780.884	14022.75
781.218	14027.5
781.552	14101.62
781.886	13945.92
782.22	13981.4
782.554	13950.66
782.888	13925.13
783.222	13897.11
783.556	13919.93
783.889	14014.84
784.223	13838.8
784.557	13846.03
784.89	13918.12
785.224	13907.95
785.557	13807.62
785.891	13778.24
786.224	13818.24
786.558	13773.04
786.891	13784.79
787.224	13682.65
787.557	13748.64
787.891	13719.71
788.224	13747.05
788.557	13766.71
788.89	13697.56
789.223	13686.04
789.556	13592.48
789.888	13614.63
790.221	13513.84
790.554	13462.99
790.887	13540.96
791.219	13471.13
791.552	13428.42
791.884	13476.55
792.217	13378.7
792.549	13487.17
792.882	13309.1
793.214	13406.5
793.546	13375.76
793.879	13201.76
794.211	13147.07
794.543	13277.01
794.875	13217.8
795.207	13260.29
795.539	13139.39
795.871	13189.33
796.203	13088.09
796.535	13101.2
796.867	13034.98
797.198	12985.72
797.53	13013.06
797.862	12961.76
798.193	12925.83
798.525	12912.05
798.856	12919.73
799.188	12870.01
799.519	12809.45
799.85	12717.02
800.182	12766.51
800.513	12706.86
800.844	12662.56
801.175	12669.79
801.506	12655.56
801.837	12668.44
802.168	12525.17
802.499	12546.86
802.83	12438.39
803.161	12516.8
803.491	12381.21
803.822	12429.8
804.153	12419.86
804.483	12372.4
804.814	12261.44
805.145	12216.25
805.475	12226.42
805.805	12282.01
806.136	12313.42
806.466	12240.43
806.796	12204.5
807.126	12144.16
807.457	12107.32
807.787	12072.97
808.117	12011.73
808.447	11967.67
808.777	12079.98
809.107	12004.27
809.436	12027.78
809.766	11921.79
810.096	11936.48
810.426	11865.75
810.755	11880.21
811.085	11872.3
811.414	11839.53
811.744	11732.87
812.073	11723.83
812.403	11741.46
812.732	11674.79
813.061	11665.07
813.39	11719.08
813.719	11614.68
814.049	11629.37
814.378	11517.28
814.707	11535.36
815.036	11545.08
815.365	11568.58
815.693	11389.6
816.022	11439.54
816.351	11429.6
816.68	11376.49
817.008	11388.25
817.337	11286.1
817.665	11282.26
817.994	11304.63
818.322	11293.78
818.651	11277.06
818.979	11268.02
819.307	11263.28
819.636	11296.04
819.964	11270.51
820.292	11206.1
820.62	11153.45
820.948	11213.79
821.276	11179.89
821.604	11153.9
821.932	11157.52
822.259	11155.26
822.587	11129.95
822.915	11141.25
823.243	11213.56
823.57	11101.47
823.898	11156.84
824.225	11047.69
824.553	11136.73
824.88	11182.83
825.207	11144.64
825.535	11185.77
825.862	11224.86
826.189	11178.08
826.516	11204.52
826.843	11216.5
827.17	11228.02
827.497	11173.79
827.824	11186.44
828.151	11142.6
828.478	11172.66
828.805	11224.18
829.131	11209.49
829.458	11221.24
829.785	11188.48
830.111	11122.94
830.438	11199.78
830.764	11239.55
831.09	11187.8
831.417	11173.56
831.743	11223.73
832.069	11104.64
832.395	11077.97
832.722	11080.23
833.048	11150.51
833.374	11160
833.7	11049.5
834.026	11113.68
834.351	11082.94
834.677	11056.05
835.003	11127.24
835.329	11061.93
835.654	11011.53
835.98	10968.14
836.306	11040.23
836.631	10943.74
836.956	11014.92
837.282	11007.92
837.607	10949.16
837.932	10948.03
838.258	10903.96
838.583	10954.81
838.908	10865.77
839.233	10919.11
839.558	10896.28
839.883	10777.41
840.208	10809.5
840.533	10762.05
840.858	10811.54
841.182	10718.66
841.507	10734.48
841.832	10709.17
842.156	10692.67
842.481	10724.08
842.805	10558.21
843.13	10573.35
843.454	10692.22
843.778	10618.55
844.103	10564.99
844.427	10551.43
844.751	10500.13
845.075	10473.47
845.399	10461.26
845.723	10374.71
846.047	10405.67
846.371	10282.51
846.695	10343.53
847.019	10190.76
847.343	10199.35
847.666	10101.5
847.99	10070.99
848.313	10139.47
848.637	10025.57
848.96	10045.68
849.284	10031.22
849.607	9930.2
849.931	9839.81
850.254	9813.6
850.577	9830.55
850.9	9814.73
851.223	9825.12
851.546	9670.55
851.869	9689.76
852.192	9698.57
852.515	9567.05
852.838	9636.65
853.161	9560.5
853.483	9535.41
853.806	9488.18
854.129	9492.48
854.451	9401.86
854.774	9375.42
855.096	9361.63
855.419	9351.46
855.741	9353.95
856.063	9301.07
856.385	9280.5
856.708	9242.31
857.03	9172.48
857.352	9181.52
857.674	9144.91
857.996	9157.57
858.318	9034.18
858.64	9043.45
858.961	9095.65
859.283	8965.26
859.605	8930.01
859.926	8977.69
860.248	8980.85
860.57	8935.43
860.891	8973.17
861.212	8892.27
861.534	8819.5
861.855	8795.55
862.176	8865.15
862.498	8808.2
862.819	8869.22
863.14	8787.64
863.461	8767.75
863.782	8740.63
864.103	8784.25
864.424	8697.24
864.745	8767.52
865.065	8687.75
865.386	8709.45
865.707	8630.58
866.027	8634.42
866.348	8603.91
866.668	8653.4
866.989	8586.96
867.309	8517.59
867.63	8603.23
867.95	8598.26
868.27	8502.45
868.59	8486.85
868.91	8464.93
869.23	8520.07
869.55	8458.61
869.87	8539.51
870.19	8493.63
870.51	8410.02
870.83	8483.24
871.15	8413.63
871.469	8413.41
871.789	8373.41
872.109	8396.91
872.428	8359.62
872.748	8438.27
873.067	8244.83
873.386	8375.67
873.706	8327.31
874.025	8277.82
874.344	8308.55
874.663	8319.85
874.982	8321.66
875.301	8309.23
875.62	8214.32
875.939	8236.69
876.258	8188.78
876.577	8206.18
876.896	8194.21
877.214	8188.56
877.533	8203.47
877.852	8160.08
878.17	8158.95
878.489	8119.86
878.807	8101.55
879.125	8083.02
879.444	8136.81
879.762	8062.91
880.08	8073.3
880.398	8049.35
880.716	8032.63
881.034	8029.24
881.352	7953.53
881.67	7939.52
881.988	8012.97
882.306	7936.36
882.624	7910.6
882.941	7940.2
883.259	7883.48
883.577	7880.09
883.894	7887.32
884.212	7833.76
884.529	7850.71
884.846	7835.12
885.164	7805.74
885.481	7768
885.798	7761.9
886.115	7661.79
886.432	7675.12
886.75	7660.21
887.067	7701.79
887.383	7608.68
887.7	7717.83
888.017	7649.36
888.334	7602.13
888.651	7564.62
888.967	7570.94
889.284	7523.49
889.6	7547.89
889.917	7461.57
890.233	7528.91
890.55	7468.57
890.866	7442.59
891.182	7417.73
891.498	7408.69
891.815	7360.56
892.131	7347.22
892.447	7337.73
892.763	7324.62
893.079	7245.3
893.395	7309.93
893.71	7217.06
894.026	7222.25
894.342	7170.5
894.657	7135.48
894.973	7146.1
895.289	7147.68
895.604	7069.72
895.92	7040.11
896.235	7014.58
896.55	7072.43
896.865	6985.2
897.181	6940
897.496	6941.58
897.811	6928.25
898.126	6874.92
898.441	6870.62
898.756	6858.42
899.071	6765.54
899.386	6830.17
899.7	6766.22
900.015	6792.43
900.33	6636.96
900.644	6751.08
900.959	6742.94
901.273	6632.44
901.588	6661.36
901.902	6629.73
902.216	6546.57
902.531	6577.3
902.845	6489.62
903.159	6468.83
903.473	6551.76
903.787	6414.14
904.101	6448.71
904.415	6407.36
904.729	6394.93
905.042	6381.82
905.356	6323.97
905.67	6367.59
905.984	6374.14
906.297	6315.16
906.611	6271.09
906.924	6264.54
907.237	6219.34
907.551	6252.79
907.864	6183.18
908.177	6165.78
908.491	6123.07
908.804	6094.15
909.117	6085.79
909.43	6032
909.743	6018.9
910.056	6045.11
910.368	5979.35
910.681	5916.75
910.994	5928.28
911.307	5919.24
911.619	5880.82
911.932	5870.2
912.244	5798.56
912.557	5826.58
912.869	5794.72
913.181	5795.85
913.494	5736.64
913.806	5690.09
914.118	5718.79
914.43	5629.53
914.742	5716.53
915.054	5648.96
915.366	5633.82
915.678	5592.69
915.99	5604.44
916.302	5558.57
916.613	5535.07
916.925	5463.43
917.236	5478.12
917.548	5436.31
917.859	5403.09
918.171	5417.33
918.482	5359.25
918.794	5333.04
919.105	5342.75
919.416	5305.24
919.727	5300.72
920.038	5272.7
920.349	5226.15
920.66	5246.71
920.971	5228.18
921.282	5177.34
921.593	5191.57
921.903	5140.95
922.214	5172.14
922.525	5105.02
922.835	5126.49
923.146	5088.98
923.456	5055.08
923.767	5010.11
924.077	5033.61
924.387	4957.91
924.697	4992.26
925.008	4973.73
925.318	4927.17
925.628	4950
925.938	4860.96
926.248	4878.36
926.558	4854.41
926.867	4838.81
927.177	4814.86
927.487	4824.12
927.796	4801.07
928.106	4758.36
928.416	4728.53
928.725	4726.73
929.034	4673.62
929.344	4685.82
929.653	4666.61
929.962	4639.95
930.271	4619.38
930.581	4623.45
930.89	4582.32
931.199	4616.9
931.508	4552.49
931.817	4546.17
932.125	4513.85
932.434	4481.53
932.743	4502.78
933.051	4410.8
933.36	4467.98
933.669	4402.67
933.977	4374.87
934.286	4332.61
934.594	4397.02
934.902	4335.78
935.21	4342.33
935.519	4339.17
935.827	4296.23
936.135	4298.49
936.443	4233.63
936.751	4281.77
937.059	4243.57
937.367	4218.04
937.674	4192.73
937.982	4161.54
938.29	4178.94
938.597	4162.22
938.905	4110.25
939.213	4141.43
939.52	4108.44
939.827	4074.09
940.135	4089.91
940.442	4064.82
940.749	4032.73
941.056	4013.3
941.363	4012.39
941.67	3978.95
941.977	3944.6
942.284	3926.3
942.591	3919.74
942.898	3943.02
943.205	3905.28
943.511	3852.17
943.818	3872.29
944.125	3831.61
944.431	3832.74
944.738	3790.93
945.044	3804.49
945.35	3797.26
945.657	3766.07
945.963	3717.49
946.269	3746.86
946.575	3713.87
946.881	3689.47
947.187	3688.34
947.493	3666.64
947.799	3685.62
948.105	3627.55
948.41	3601.33
948.716	3662.8
949.022	3578.06
949.327	3644.27
949.633	3550.49
949.938	3526.53
950.244	3521.11
950.549	3550.03
950.854	3499.19
951.16	3469.81
951.465	3453.09
951.77	3456.7
952.075	3429.36
952.38	3433.2
952.685	3416.25
952.99	3389.59
953.294	3373.77
953.599	3372.64
953.904	3338.97
954.209	3310.94
954.513	3345.75
954.818	3315.92
955.122	3283.83
955.426	3287.44
955.731	3273.43
956.035	3261.45
956.339	3261.23
956.643	3242.92
956.948	3231.85
957.252	3204.96
957.556	3184.39
957.86	3186.2
958.163	3175.81
958.467	3141.68
958.771	3142.36
959.075	3123.6
959.378	3097.62
959.682	3132.64
959.985	3124.73
960.289	3092.19
960.592	3094.68
960.896	3045.87
961.199	3031.18
961.502	2995.25
961.805	3017.39
962.108	3011.97
962.411	3035.92
962.714	2990.05
963.017	3002.48
963.32	2970.61
963.623	2955.25
963.926	2946.21
964.228	2895.59
964.531	2914.8
964.833	2895.59
965.136	2867.11
965.438	2851.07
965.741	2869.37
966.043	2855.81
966.345	2837.74
966.648	2812.43
966.95	2814.46
967.252	2742.15
967.554	2778.98
967.856	2755.25
968.158	2733.56
968.46	2770.17
968.761	2753.67
969.063	2715.03
969.365	2713.45
969.666	2663.05
969.968	2713.45
970.269	2666.22
970.571	2682.71
970.872	2607.01
971.174	2604.07
971.475	2646.78
971.776	2601.58
972.077	2589.38
972.378	2595.26
972.679	2601.13
972.98	2567.46
973.281	2537.86
973.582	2574.69
973.883	2581.02
974.183	2553.68
974.484	2510.74
974.785	2529.27
975.085	2522.72
975.386	2535.82
975.686	2472.32
975.986	2450.85
976.287	2482.94
976.587	2452.66
976.887	2420.12
977.187	2435.03
977.487	2444.53
977.787	2404.3
978.087	2380.8
978.387	2407.24
978.687	2380.35
978.987	2353.91
979.286	2372.89
979.586	2369.05
979.885	2335.38
980.185	2330.18
980.484	2310.97
980.784	2279.78
981.083	2305.77
981.382	2296.73
981.682	2280.91
981.981	2294.02
982.28	2266.23
982.579	2239.11
982.878	2237.3
983.177	2244.31
983.475	2223.29
983.774	2226.45
984.073	2205.21
984.372	2214.25
984.67	2207.02
984.969	2178.77
985.267	2185.32
985.566	2164.31
985.864	2125.66
986.162	2171.31
986.461	2119.34
986.759	2114.14
987.057	2074.82
987.355	2083.18
987.653	2091.32
987.951	2083.86
988.249	2079.79
988.547	2071.43
988.844	2020.58
989.142	2063.52
989.44	2032.33
989.737	2030.07
990.035	1980.58
990.332	2025.78
990.63	2003.41
990.927	1978.32
991.224	1980.13
991.521	1992.11
991.819	1949.4
992.116	1937.87
992.413	1951.88
992.71	1949.4
993.006	1924.31
993.303	1925.22
993.6	1909.4
993.897	1859.91
994.193	1873.69
994.49	1877.54
994.787	1849.74
995.083	1877.08
995.379	1880.7
995.676	1832.34
995.972	1851.1
996.268	1828.27
996.565	1823.07
996.861	1792.34
997.157	1818.78
997.453	1828.27
997.749	1805.67
998.044	1784.43
998.34	1755.5
998.636	1773.81
998.932	1755.96
999.227	1719.35
999.523	1745.56
999.818	1731.55
1000.114	1724.09
1000.409	1698.33
1000.704	1706.24
1001	1701.04
1001.295	1696.52
1001.59	1675.73
1001.885	1653.81
1002.18	1636.86
1002.475	1634.6
1002.77	1630.76
1003.065	1613.36
1003.359	1619.92
1003.654	1609.07
1003.949	1651.33
1004.243	1642.29
1004.538	1595.06
1004.832	1578.33
1005.127	1600.71
1005.421	1570.2
1005.715	1563.87
1006.009	1556.41
1006.304	1552.57
1006.598	1548.28
1006.892	1521.16
1007.186	1484.33
1007.48	1510.54
1007.773	1493.82
1008.067	1516.64
1008.361	1464.21
1008.655	1491.56
1008.948	1473.48
1009.242	1460.82
1009.535	1436.87
1009.829	1431.22
1010.122	1439.13
1010.415	1437.32
1010.708	1399.13
1011.001	1397.1
1011.295	1377.44
1011.588	1381.28
1011.881	1407.94
1012.173	1396.19
1012.466	1364.1
1012.759	1370.43
1013.052	1381.05
1013.344	1346.93
1013.637	1307.61
1013.93	1330.43
1014.222	1348.51
1014.514	1311.9
1014.807	1307.83
1015.099	1281.84
1015.391	1300.6
1015.683	1295.18
1015.976	1292.69
1016.268	1261.73
1016.56	1267.38
1016.851	1259.7
1017.143	1257.89
1017.435	1211.79
1017.727	1243.65
1018.018	1234.16
1018.31	1227.61
1018.602	1229.19
1018.893	1211.79
1019.185	1212.24
1019.476	1190.32
1019.767	1171.11
1020.058	1175.63
1020.35	1150.32
1020.641	1160.04
1020.932	1137.44
1021.223	1165.69
1021.514	1147.39
1021.804	1144.45
1022.095	1152.58
1022.386	1136.31
1022.677	1119.59
1022.967	1101.74
1023.258	1118.69
1023.548	1095.41
1023.839	1078.46
1024.129	1113.94
1024.419	1109.87
1024.709	1090.21
1025	1079.36
1025.29	1084.11
1025.58	1070.32
1025.87	1046.82
1026.16	1053.15
1026.449	1045.92
1026.739	1005.02
1027.029	1029.87
1027.319	1021.74
1027.608	1019.25
1027.898	1018.35
1028.187	1000.5
1028.477	1030.1
1028.766	981.06
1029.055	972.25
1029.344	978.8
1029.634	978.58
1029.923	960.27
1030.212	953.49
1030.501	954.4
1030.79	932.48
1031.078	954.17
1031.367	959.82
1031.656	926.15
1031.945	927.96
1032.233	913.04
1032.522	898.8
1032.81	888.63
1033.099	905.58
1033.387	880.27
1033.675	901.06
1033.963	879.82
1034.251	889.31
1034.54	868.75
1034.828	865.58
1035.116	863.1
1035.403	870.33
1035.691	849.99
1035.979	866.26
1036.267	869.43
1036.554	819.03
1036.842	839.14
1037.129	838.69
1037.417	806.6
1037.704	814.06
1037.992	802.76
1038.279	824.46
1038.566	805.7
1038.853	805.7
1039.14	805.7
