Data from hue_150_FLMS001491_00040.txt Node
Date: Tue Feb 07 16:53:58 GMT 2017
User: dcchb
Spectrometer: FLMS00149
Trigger mode: 0
Integration Time (sec): 2.000000E-2
Scans to average: 10
Electric dark correction enabled: true
Nonlinearity correction enabled: false
Boxcar width: 0
XAxis mode: Wavelengths
Number of Pixels in Spectrum: 2048
>>>>>Begin Spectral Data<<<<<
341.393	-19.56
341.776	-19.56
342.16	-19.56
342.543	-41.71
342.927	-62.05
343.31	-65.21
343.693	-66.57
344.077	-87.13
344.46	-52.78
344.843	-47.58
345.226	-43.97
345.61	-26.12
345.993	-30.86
346.376	-8.71
346.759	-1.48
347.142	28.57
347.525	35.8
347.908	49.36
348.291	97.05
348.674	105.86
349.057	113.77
349.44	124.84
349.823	144.95
350.206	157.83
350.588	180.21
350.971	198.51
351.354	228.79
351.737	237.15
352.119	229.7
352.502	269.24
352.884	261.56
353.267	284.84
353.65	274.22
354.032	297.94
354.414	299.3
354.797	337.72
355.179	329.36
355.562	319.41
355.944	321.22
356.326	345.17
356.709	345.17
357.091	335.01
357.473	335.68
357.855	338.85
358.238	355.12
358.62	358.73
359.002	346.98
359.384	335.68
359.766	319.64
360.148	341.33
360.53	357.15
360.912	326.64
361.294	339.07
361.676	351.73
362.057	356.25
362.439	341.11
362.821	330.94
363.203	315.34
363.584	313.54
363.966	338.85
364.348	328.9
364.729	328.68
365.111	309.7
365.493	320.77
365.874	335.91
366.256	300.2
366.637	319.86
367.019	317.38
367.4	303.82
367.781	311.96
368.163	321.67
368.544	321.67
368.925	344.72
369.306	310.83
369.688	310.15
370.069	316.93
370.45	315.34
370.831	304.5
371.212	325.97
371.593	343.82
371.974	325.51
372.355	335.23
372.736	321.45
373.117	314.89
373.498	335.23
373.879	328.68
374.26	318.28
374.641	322.35
375.021	319.64
375.402	299.75
375.783	328.68
376.163	331.16
376.544	337.49
376.925	341.11
377.305	330.71
377.686	331.39
378.066	333.42
378.447	345.17
378.827	334.1
379.208	335.23
379.588	340.43
379.968	343.59
380.349	332.52
380.729	328.9
381.109	338.85
381.489	344.72
381.87	343.14
382.25	355.8
382.63	356.93
383.01	341.11
383.39	345.85
383.77	349.47
384.15	353.99
384.53	344.72
384.91	346.98
385.29	344.27
385.67	365.29
386.049	354.67
386.429	356.25
386.809	362.12
387.189	360.32
387.568	369.35
387.948	342.46
388.328	357.15
388.707	374.33
389.087	372.74
389.466	364.61
389.846	386.08
390.225	364.61
390.605	384.95
390.984	371.61
391.363	371.84
391.743	387.43
392.122	371.39
392.501	390.82
392.881	394.89
393.26	384.95
393.639	361.45
394.018	386.3
394.397	377.04
394.776	393.99
395.155	381.11
395.534	383.14
395.913	398.73
396.292	390.37
396.671	368.9
397.05	391.05
397.429	389.69
397.808	401.22
398.186	409.13
398.565	372.97
398.944	402.8
399.323	401.9
399.701	400.09
400.08	384.04
400.458	403.03
400.837	386.08
401.215	395.34
401.594	397.83
401.972	437.15
402.351	430.82
402.729	419.75
403.107	428.11
403.486	414.78
403.864	422.46
404.242	415.23
404.62	429.24
404.999	440.09
405.377	440.77
405.755	430.6
406.133	434.66
406.511	438.05
406.889	452.52
407.267	455.45
407.645	451.61
408.023	422.69
408.401	447.32
408.779	453.65
409.156	465.62
409.534	459.3
409.912	465.4
410.29	480.09
410.667	470.37
411.045	465.85
411.422	485.96
411.8	461.78
412.178	488.67
412.555	493.42
412.933	508.11
413.31	496.36
413.687	491.61
414.065	509.46
414.442	506.3
414.819	521.22
415.197	511.05
415.574	520.76
415.951	504.94
416.328	514.44
416.705	523.02
417.082	536.36
417.46	514.44
417.837	538.62
418.214	529.8
418.591	532.06
418.967	541.78
419.344	545.17
419.721	557.37
420.098	553.3
420.475	551.72
420.852	560.31
421.228	542.23
421.605	577.26
421.982	575.9
422.358	582.68
422.735	579.07
423.111	591.95
423.488	586.98
423.864	602.12
424.241	579.97
424.617	620.42
424.994	592.17
425.37	607.31
425.746	604.83
426.123	619.97
426.499	615.45
426.875	594.89
427.251	622.46
427.627	637.37
428.003	668.1
428.379	638.5
428.756	648.44
429.132	676.92
429.507	646.18
429.883	658.39
430.259	668.78
430.635	685.5
431.011	691.61
431.387	691.38
431.763	697.71
432.138	697.93
432.514	712.62
432.89	714.66
433.265	719.63
433.641	723.02
434.016	742.45
434.392	750.14
434.767	758.05
435.143	733.64
435.518	744.26
435.894	755.56
436.269	743.13
436.644	762.79
437.02	765.5
437.395	783.13
437.77	817.7
438.145	804.6
438.52	825.39
438.895	822.22
439.271	809.34
439.646	830.81
440.021	827.2
440.395	841.21
440.77	840.3
441.145	833.75
441.52	860.19
441.895	857.48
442.27	866.29
442.645	868.1
443.019	906.97
443.394	885.73
443.769	896.8
444.143	921.88
444.518	913.07
444.892	915.78
445.267	905.84
445.641	902.45
446.016	936.35
446.39	952.16
446.764	938.15
447.139	953.29
447.513	941.77
447.887	952.84
448.262	956.01
448.636	964.37
449.01	977.7
449.384	975.21
449.758	989.9
450.132	1019.28
450.506	993.07
450.88	1004.14
451.254	993.29
451.628	1029.22
452.002	1048.43
452.376	1034.65
452.75	1032.16
453.123	1083.91
453.497	1042.56
453.871	1096.34
454.244	1099.5
454.618	1098.6
454.992	1125.49
455.365	1132.5
455.739	1164.81
456.112	1157.81
456.486	1181.99
456.859	1188.77
457.232	1200.07
457.606	1236.9
457.979	1217.02
458.352	1220.41
458.725	1256.79
459.099	1236.9
459.472	1278.48
459.845	1261.53
460.218	1314.41
460.591	1319.16
460.964	1328.65
461.337	1356.67
461.71	1378.82
462.083	1400.74
462.456	1404.13
462.829	1412.04
463.201	1441.19
463.574	1435.99
463.947	1455.65
464.32	1481.42
464.692	1514.41
465.065	1518.25
465.438	1547.4
465.81	1582.66
466.183	1584.46
466.555	1642.54
466.928	1630.79
467.3	1642.09
467.672	1692.94
468.045	1728.19
468.417	1777.45
468.789	1784.01
469.161	1784.23
469.534	1812.25
469.906	1867.62
470.278	1883.67
470.65	1928.18
471.022	1951.91
471.394	1974.96
471.766	2015.19
472.138	2057.22
472.51	2085.92
472.882	2146.26
473.253	2184.67
473.625	2235.97
473.997	2293.82
474.369	2331.56
474.74	2374.95
475.112	2409.3
475.484	2492.91
475.855	2525
476.227	2568.84
476.598	2659.69
476.97	2720.25
477.341	2781.95
477.713	2846.58
478.084	2899.91
478.455	2995.73
478.827	3067.81
479.198	3205.21
479.569	3221.26
479.94	3261.71
480.311	3368.6
480.682	3453.34
481.053	3586.9
481.424	3688.14
481.795	3773.11
482.166	3858.75
482.537	3953.89
482.908	4054
483.279	4193.21
483.65	4289.7
484.021	4368.35
484.391	4476.82
484.762	4581.67
485.133	4667.09
485.503	4741.9
485.874	4933.08
486.244	5011.72
486.615	5186.4
486.985	5249.45
487.356	5366.51
487.726	5538.48
488.097	5675.88
488.467	5783.22
488.837	5914.75
489.207	6115.87
489.578	6248.97
489.948	6348.18
490.318	6488.29
490.688	6574.39
491.058	6765.34
491.428	6876.75
491.798	7020.03
492.168	7172.57
492.538	7296.86
492.908	7447.13
493.278	7625.66
493.648	7704.08
494.017	7870.4
494.387	8001.02
494.757	8114.46
495.126	8217.28
495.496	8377.73
495.866	8420.67
496.235	8627.89
496.605	8758.29
496.974	8864.72
497.344	8992.18
497.713	9076.7
498.082	9147.43
498.452	9272.17
498.821	9405.5
499.19	9515.33
499.559	9645.72
499.928	9726.4
500.298	9779.73
500.667	9949.89
501.036	9968.65
501.405	10140.62
501.774	10183.79
502.143	10278.47
502.512	10351.69
502.88	10516.88
503.249	10557.34
503.618	10673.04
503.987	10679.37
504.356	10791.45
504.724	10939.47
505.093	10916.2
505.462	11028.06
505.83	11060.82
506.199	11223.53
506.567	11407.03
506.936	11353.7
507.304	11530.64
507.672	11459.46
508.041	11580.81
508.409	11634.14
508.777	11793.24
509.145	11787.81
509.514	11844.53
509.882	11956.17
510.25	11983.29
510.618	12050.4
510.986	12103.74
511.354	12218.99
511.722	12233.9
512.09	12315.93
512.458	12354.12
512.826	12421.69
513.193	12511.41
513.561	12555.93
513.929	12590.28
514.297	12558.41
514.664	12686.09
515.032	12734.23
515.4	12847.9
515.767	12756.83
516.135	12884.96
516.502	12774.9
516.869	12943.71
517.237	13062.81
517.604	12957.27
517.972	13021.9
518.339	13160.66
518.706	13167.44
519.073	13093.77
519.44	13212.63
519.808	13345.74
520.175	13228
520.542	13418.96
520.909	13362.69
521.276	13387.54
521.643	13535.34
522.009	13468.22
522.376	13545.51
522.743	13562.23
523.11	13649.23
523.477	13691.26
523.843	13789.79
524.21	13817.36
524.577	13882.9
524.943	13851.26
525.31	13849.9
525.676	14031.14
526.043	14012.39
526.409	13980.52
526.776	14129.44
527.142	14024.59
527.508	14082.44
527.874	14108.43
528.241	14141.65
528.607	14122.89
528.973	14260.29
529.339	14194.53
529.705	14223.23
530.071	14287.41
530.437	14278.37
530.803	14290.57
531.169	14296.9
531.535	14223.68
531.901	14235.88
532.267	14191.82
532.632	14315.65
532.998	14161.53
533.364	14294.41
533.73	14190.91
534.095	14246.28
534.461	14250.57
534.826	14225.04
535.192	14307.97
535.557	14270.68
535.923	14229.56
536.288	14135.32
536.653	14190.69
537.019	14151.59
537.384	14138.03
537.749	14190.01
538.114	14162.89
538.479	14024.81
538.845	14112.72
539.21	14035.44
539.575	14011.48
539.94	14020.52
540.305	13951.14
540.67	13882.9
541.034	13872.95
541.399	13950.47
541.764	13841.54
542.129	13844.48
542.494	13881.77
542.858	13771.26
543.223	13800.19
543.587	13773.97
543.952	13729
544.316	13676.58
544.681	13648.55
545.045	13543.47
545.41	13641.32
545.774	13607.65
546.138	13526.07
546.503	13479.74
546.867	13492.17
547.231	13557.26
547.595	13435.45
547.959	13435.23
548.324	13336.47
548.688	13357.26
549.052	13314.33
549.416	13319.3
549.779	13248.34
550.143	13249.92
550.507	13187.55
550.871	13234.78
551.235	13075.91
551.599	13138.06
551.962	13168.79
552.326	13179.19
552.689	13157.49
553.053	13020.1
553.417	13020.77
553.78	13136.25
554.143	13024.16
554.507	13003.37
554.87	13006.54
555.234	13068.68
555.597	12963.37
555.96	12955.24
556.323	13019.19
556.686	12850.83
557.05	12878.18
557.413	12881.57
557.776	12886.54
558.139	12979.42
558.502	12829.82
558.865	12914.56
559.228	12898.74
559.59	12902.13
559.953	12861.23
560.316	12925.18
560.679	12865.75
561.041	12960.21
561.404	12962.24
561.767	13035.69
562.129	12985.97
562.492	12948.23
562.854	13022.58
563.217	12897.61
563.579	12961.79
563.941	13053.54
564.304	13002.92
564.666	13062.35
565.028	13032.75
565.39	13066.2
565.753	13108
566.115	13078.63
566.477	13039.08
566.839	13111.17
567.201	13220.77
567.563	13132.86
567.925	13146.87
568.287	13120.43
568.648	13163.37
569.01	13245.4
569.372	13237.26
569.734	13143.71
570.095	13228.23
570.457	13300.54
570.819	13316.81
571.18	13228.9
571.542	13304.61
571.903	13267.77
572.265	13336.25
572.626	13367.66
572.987	13295.57
573.349	13326.3
573.71	13241.33
574.071	13369.92
574.432	13385.51
574.794	13553.64
575.155	13431.84
575.516	13408.79
575.877	13337.6
576.238	13423.02
576.599	13467.09
576.96	13426.19
577.32	13470.25
577.681	13466.19
578.042	13479.52
578.403	13459.63
578.763	13433.42
579.124	13439.97
579.485	13493.08
579.845	13542.12
580.206	13376.7
580.566	13414.21
580.927	13492.85
581.287	13503.47
581.648	13541.66
582.008	13540.31
582.368	13477.26
582.728	13497.15
583.089	13437.49
583.449	13484.26
583.809	13451.04
584.169	13450.82
584.529	13419.41
584.889	13480.87
585.249	13429.58
585.609	13385.06
585.969	13443.81
586.329	13390.71
586.688	13405.17
587.048	13366.3
587.408	13339.41
587.768	13366.75
588.127	13306.42
588.487	13307.09
588.846	13321.78
589.206	13324.72
589.565	13371.5
589.925	13281.56
590.284	13312.29
590.643	13264.16
591.003	13261.45
591.362	13389.8
591.721	13293.31
592.08	13340.99
592.44	13254.67
592.799	13395.9
593.158	13298.28
593.517	13237.26
593.876	13246.3
594.235	13281.56
594.593	13356.81
594.952	13270.48
595.311	13205.85
595.67	13262.12
596.029	13310.26
596.387	13298.51
596.746	13225.29
597.104	13267.32
597.463	13137.15
597.822	13292.86
598.18	13212.63
598.538	13208.11
598.897	13228.45
599.255	13060.32
599.613	13328.34
599.972	13258.51
600.33	13232.75
600.688	13164.95
601.046	13248.79
601.404	13241.56
601.762	13191.16
602.12	13242.24
602.478	13273.2
602.836	13294.44
603.194	13201.79
603.552	13153.88
603.91	13146.87
604.268	13184.38
604.625	13185.97
604.983	13242.24
605.341	13193.42
605.698	13282.24
606.056	13206.08
606.413	13277.04
606.771	13251.5
607.128	13239.98
607.485	13272.52
607.843	13238.39
608.2	13291.73
608.557	13377.6
608.914	13279.98
609.272	13315.23
609.629	13380.99
609.986	13404.27
610.343	13303.25
610.7	13393.42
611.057	13431.84
611.414	13355.68
611.771	13291.27
612.127	13486.52
612.484	13322.23
612.841	13446.52
613.198	13441.55
613.554	13431.16
613.911	13501.21
614.267	13429.35
614.624	13424.38
614.98	13454.21
615.337	13478.61
615.693	13528.78
616.05	13500.53
616.406	13641.55
616.762	13521.55
617.118	13508.9
617.475	13584.15
617.831	13639.97
618.187	13552.96
618.543	13550.25
618.899	13599.74
619.255	13619.18
619.611	13566.75
619.967	13577.14
620.323	13648.1
620.678	13599.06
621.034	13592.28
621.39	13630.47
621.746	13561.32
622.101	13677.93
622.457	13589.8
622.812	13622.79
623.168	13707.76
623.523	13571.27
623.879	13678.61
624.234	13590.48
624.589	13623.7
624.945	13678.61
625.3	13620.98
625.655	13658.5
626.01	13675.45
626.365	13559.06
626.72	13660.3
627.075	13606.29
627.43	13533.53
627.785	13590.7
628.14	13637.25
628.495	13637.93
628.85	13567.88
629.205	13582.11
629.559	13595.9
629.914	13498.73
630.269	13503.92
630.623	13500.76
630.978	13512.06
631.332	13554.09
631.687	13551.15
632.041	13533.53
632.396	13508.9
632.75	13479.07
633.104	13448.11
633.459	13437.49
633.813	13354.78
634.167	13368.33
634.521	13451.04
634.875	13411.27
635.229	13352.74
635.583	13300.99
635.937	13328.79
636.291	13324.95
636.645	13314.78
636.999	13230.94
637.352	13244.04
637.706	13224.61
638.06	13310.48
638.413	13169.7
638.767	13264.61
639.121	13238.62
639.474	13119.08
639.828	13166.98
640.181	13141
640.534	13260.99
640.888	13082.69
641.241	13090.83
641.594	13085.4
641.947	13113.65
642.301	13001.79
642.654	13007.21
643.007	13111.39
643.36	13098.96
643.713	13047.21
644.066	13045.41
644.419	13043.6
644.771	12947.78
645.124	12849.48
645.477	12923.37
645.83	12695.36
646.182	12719.99
646.535	12651.29
646.888	12698.07
647.24	12571.97
647.593	12633.89
647.945	12517.74
648.298	12547.57
648.65	12569.49
649.002	12590.5
649.355	12586.21
649.707	12583.5
650.059	12581.91
650.411	12772.19
650.763	12820.55
651.115	12948.46
651.467	12862.81
651.819	12950.27
652.171	12851.06
652.523	12918.18
652.875	12856.94
653.227	12813.77
653.578	12869.14
653.93	12882.7
654.282	12810.61
654.633	12831.4
654.985	12801.34
655.337	12818.07
655.688	12797.5
656.039	12828.24
656.391	12790.95
656.742	12757.28
657.094	12769.25
657.445	12933.09
657.796	12918.63
658.147	12785.98
658.498	12862.36
658.849	12847.67
659.2	12850.16
659.551	12813.32
659.902	12969.02
660.253	12839.31
660.604	12905.3
660.955	12821.23
661.306	12785.07
661.656	12886.54
662.007	12853.09
662.358	12923.37
662.708	12897.84
663.059	12875.47
663.409	12849.03
663.76	12921.57
664.11	12903.71
664.461	12883.38
664.811	12914.79
665.161	12862.81
665.511	12841.34
665.862	12863.49
666.212	12874.11
666.562	12905.52
666.912	12823.26
667.262	12861.91
667.612	12895.35
667.962	12978.29
668.312	12889.93
668.662	12866.2
669.011	12865.3
669.361	12806.77
669.711	12851.96
670.06	12854.9
670.41	12816.49
670.76	12854.68
671.109	12818.07
671.459	12807.22
671.808	12813.55
672.157	12863.94
672.507	12759.09
672.856	12781.01
673.205	12709.82
673.554	12763.83
673.904	12696.26
674.253	12835.47
674.602	12867.56
674.951	12595.02
675.3	12445.65
675.649	12709.82
675.998	12702.59
676.346	12641.8
676.695	12669.14
677.044	12609.94
677.393	12614.23
677.741	12663.72
678.09	12595.7
678.438	12569.71
678.787	12616.94
679.135	12610.16
679.484	12491.52
679.832	12578.07
680.181	12545.98
680.529	12551.18
680.877	12524.06
681.225	12471.41
681.573	12447
681.922	12415.59
682.27	12407.68
682.618	12421.47
682.966	12352.99
683.314	12310.28
683.661	12383.5
684.009	12255.14
684.357	12247.46
684.705	12207.69
685.053	12210.4
685.4	12224.86
685.748	12169.5
686.095	12129.72
686.443	12071.42
686.79	12082.49
687.138	12122.27
687.485	12114.58
687.832	12050.4
688.18	12069.39
688.527	11984.19
688.874	11969.05
689.221	11940.35
689.568	11890.86
689.915	11817.64
690.262	11838.21
690.609	11713.01
690.956	11723.41
691.303	11654.03
691.65	11637.98
691.997	11682.96
692.344	11593.47
692.69	11597.53
693.037	11491.77
693.383	11396.18
693.73	11506.46
694.077	11386.69
694.423	11388.95
694.769	11293.14
695.116	11277.32
695.462	11245
695.808	11245.45
696.155	11272.34
696.501	11206.58
696.847	11141.27
697.193	11100.15
697.539	11099.47
697.885	11042.97
698.231	11007.95
698.577	10955.07
698.923	10889.53
699.269	10948.51
699.614	10781.06
699.96	10785.35
700.306	10753.04
700.651	10668.74
700.997	10729.08
701.342	10633.72
701.688	10625.58
702.033	10561.18
702.379	10503.78
702.724	10527.73
703.069	10530.67
703.415	10471.91
703.76	10420.62
704.105	10352.37
704.45	10346.72
704.795	10286.83
705.14	10352.37
705.485	10248.19
705.83	10220.4
706.175	10209.32
706.52	10179.94
706.865	10115.77
707.209	10082.55
707.554	10010.91
707.899	10126.61
708.243	10076.44
708.588	10004.13
708.932	9972.27
709.277	9859.95
709.621	9892.04
709.966	9848.65
710.31	9887.97
710.654	9752.84
710.998	9793.06
711.342	9768.43
711.687	9730.69
712.031	9730.46
712.375	9709.22
712.719	9614.31
713.063	9645.95
713.407	9707.87
713.75	9640.75
714.094	9636
714.438	9633.52
714.782	9535.89
715.125	9535.22
715.469	9555.55
715.812	9560.3
716.156	9457.03
716.499	9423.35
716.843	9468.78
717.186	9447.08
717.53	9515.55
717.873	9459.74
718.216	9415.9
718.559	9362.11
718.902	9354.66
719.246	9386.07
719.589	9309.01
719.932	9340.87
720.275	9319.85
720.617	9294.32
720.96	9278.05
721.303	9285.96
721.646	9301.1
721.989	9245.28
722.331	9252.28
722.674	9207.09
723.016	9267.43
723.359	9221.1
723.701	9230.59
724.044	9081.22
724.386	9111.05
724.729	9197.6
725.071	9150.59
725.413	9180.42
725.755	9161.89
726.097	9110.59
726.439	9072.18
726.782	9120.76
727.124	9113.31
727.465	9047.32
727.807	9025.17
728.149	9024.27
728.491	9029.01
728.833	9044.83
729.175	9087.32
729.516	8993.99
729.858	9026.08
730.199	9064.72
730.541	9085.96
730.882	8951.73
731.224	9007.32
731.565	8954.44
731.906	8968.68
732.248	9052.52
732.589	8929.36
732.93	8993.08
733.271	8937.72
733.612	8969.58
733.953	9016.58
734.294	8963.48
734.635	8988.34
734.976	8941.33
735.317	8882.35
735.658	8877.61
735.999	8972.74
736.339	8924.84
736.68	8981.33
737.021	8941.11
737.361	8993.99
737.702	9003.7
738.042	8966.42
738.383	8982.24
738.723	9002.35
739.063	9049.8
739.404	9040.99
739.744	8996.47
740.084	8989.02
740.424	9030.82
740.764	9001.44
741.104	9130.71
741.444	9052.52
741.784	9010.03
742.124	9052.74
742.464	9052.74
742.804	9170.71
743.143	9171.84
743.483	9196.92
743.823	9118.5
744.162	9204.15
744.502	9255.9
744.841	9152.85
745.181	9311.27
745.52	9292.06
745.86	9295.22
746.199	9393.3
746.538	9427.87
746.877	9451.6
747.216	9458.83
747.556	9562.56
747.895	9596
748.234	9636
748.573	9661.54
748.911	9687.08
749.25	9735.44
749.589	9788.99
749.928	9953.51
750.267	9906.05
750.605	10009.55
750.944	10112.38
751.283	10112.15
751.621	10231.47
751.96	10283.44
752.298	10345.59
752.636	10477.11
752.975	10549.43
753.313	10598.24
753.651	10713.72
753.989	10745.81
754.327	10888.4
754.666	10969.75
755.004	11131.56
755.342	11233.48
755.679	11344.89
756.017	11435.28
756.355	11647.93
756.693	11679.79
757.031	11871.88
757.368	11971.99
757.706	12178.54
758.044	12235.71
758.381	12457.4
758.719	12598.64
759.056	12734.23
759.394	12891.74
759.731	13034.11
760.068	13106.42
760.405	13257.38
760.743	13423.02
761.08	13607.2
761.417	13650.59
761.754	13948.66
762.091	14006.28
762.428	14197.47
762.765	14262.1
763.102	14547.51
763.438	14752.25
763.775	14786.15
764.112	14987.73
764.449	15195.63
764.785	15354.72
765.122	15357.21
765.458	15581.16
765.795	15647.6
766.131	15837.2
766.467	16104.99
766.804	16090.98
767.14	16245.32
767.476	16365.54
767.812	16424.98
768.148	16685.99
768.485	16728.7
768.821	16869.71
769.157	16924.4
769.492	17019.31
769.828	17267.89
770.164	17253.66
770.5	17358.06
770.836	17452.07
771.171	17518.06
771.507	17686.87
771.842	17641.22
772.178	17715.79
772.513	17857.48
772.849	17892.51
773.184	17969.8
773.519	18059.29
773.855	18145.16
774.19	18079.62
774.525	18220.64
774.86	18358.71
775.195	18421.31
775.53	18468.77
775.865	18403.91
776.2	18407.75
776.535	18439.61
776.87	18488.65
777.205	18524.36
777.539	18528.2
777.874	18732.94
778.209	18631.25
778.543	18653.62
778.878	18610.46
779.212	18684.13
779.547	18635.32
779.881	18755.09
780.215	18723.67
780.55	18758.02
780.884	18690.45
781.218	18780.62
781.552	18842.09
781.886	18722.77
782.22	18692.71
782.554	18706.95
782.888	18632.38
783.222	18650
783.556	18586.73
783.889	18565.71
784.223	18549.44
784.557	18629.67
784.89	18706.95
785.224	18661.98
785.557	18482.55
785.891	18513.28
786.224	18512.15
786.558	18537.46
786.891	18474.42
787.224	18431.7
787.557	18405.72
787.891	18522.78
788.224	18461.08
788.557	18459.27
788.89	18409.11
789.223	18363.23
789.556	18299.05
789.888	18318.26
790.221	18255.89
790.554	18096.12
790.887	18130.7
791.219	18122.79
791.552	18139.96
791.884	18018.16
792.217	18015.22
792.549	17974.32
792.882	17981.32
793.214	17829.46
793.546	17963.69
793.879	17820.87
794.211	17771.83
794.543	17780.87
794.875	17751.72
795.207	17823.81
795.539	17712.63
795.871	17771.16
796.203	17592.18
796.535	17471.96
796.867	17493.65
797.198	17469.92
797.53	17405.06
797.862	17266.99
798.193	17363.71
798.525	17288.91
798.856	17341.11
799.188	17198.29
799.519	17191.96
799.85	16997.39
800.182	17096.37
800.513	17129.14
800.844	16939.09
801.175	17107.45
801.506	16963.95
801.837	16877.17
802.168	16914.91
802.499	16852.54
802.83	16718.76
803.161	16800.11
803.491	16697.29
803.822	16787.68
804.153	16596.72
804.483	16607.8
804.814	16565.54
805.145	16497.52
805.475	16428.59
805.805	16467.46
806.136	16410.06
806.466	16406.45
806.796	16425.66
807.126	16302.27
807.457	16298.65
807.787	16250.07
808.117	16202.61
808.447	16129.17
808.777	16182.05
809.107	16057.08
809.436	16002.39
809.766	16038.77
810.096	15997.64
810.426	15990.19
810.755	16019.79
811.085	15856.18
811.414	15799.46
811.744	15768.27
812.073	15767.59
812.403	15721.04
812.732	15701.15
813.061	15665.68
813.39	15662.74
813.719	15611.89
814.049	15695.28
814.378	15558.79
814.707	15580.93
815.036	15495.96
815.365	15424.1
815.693	15359.7
816.022	15313.82
816.351	15327.61
816.68	15229.75
817.008	15327.15
817.337	15131.68
817.665	15074.96
817.994	15154.05
818.322	15114.73
818.651	15038.8
818.979	15014.17
819.307	15127.38
819.636	15076.99
819.964	14910.22
820.292	15053.94
820.62	14940.27
820.948	14956.32
821.276	15001.51
821.604	14939.37
821.932	15001.06
822.259	14959.25
822.587	14984.56
822.915	14911.57
823.243	14990.89
823.57	14943.21
823.898	14899.37
824.225	14824.34
824.553	14847.84
824.88	14916.54
825.207	14999.93
825.535	14822.99
825.862	14961.06
826.189	14827.51
826.516	14977.78
826.843	14945.92
827.17	15044.22
827.497	14997.9
827.824	14926.49
828.151	15044.68
828.478	14996.77
828.805	15041.51
829.131	14958.35
829.458	14977.56
829.785	14853.49
830.111	14913.61
830.438	15066.82
830.764	14910.22
831.09	14918.12
831.417	14862.76
831.743	14938.01
832.069	14980.5
832.395	14928.75
832.722	14968.29
833.048	14858.69
833.374	14871.8
833.7	14794.96
834.026	14854.17
834.351	14886.71
834.677	14820.73
835.003	14886.94
835.329	14817.79
835.654	14827.51
835.98	14800.39
836.306	14783.89
836.631	14661.63
836.956	14682.2
837.282	14760.39
837.607	14702.76
837.932	14640.39
838.258	14680.84
838.583	14602.43
838.908	14590.22
839.233	14630.67
839.558	14570.56
839.883	14502.32
840.208	14404.01
840.533	14421.41
840.858	14377.35
841.182	14404.24
841.507	14389.78
841.832	14354.07
842.156	14334.86
842.481	14373.28
842.805	14266.84
843.13	14281.08
843.454	14263.68
843.778	14155.21
844.103	14196.56
844.427	14042.22
844.751	14068.43
845.075	14032.05
845.399	14010.13
845.723	13965.38
846.047	13945.49
846.371	13811.71
846.695	13860.75
847.019	13705.73
847.343	13704.37
847.666	13570.82
847.99	13597.26
848.313	13620.76
848.637	13402.23
848.96	13371.72
849.284	13435.9
849.607	13322.91
849.931	13313.2
850.254	13221.45
850.577	13132.63
850.9	13062.35
851.223	13053.31
851.546	12976.03
851.869	12898.29
852.192	13003.6
852.515	12800.21
852.838	12873.88
853.161	12776.49
853.483	12728.8
853.806	12709.6
854.129	12668.92
854.451	12566.77
854.774	12577.62
855.096	12475.7
855.419	12452.2
855.741	12434.57
856.063	12451.75
856.385	12313.9
856.708	12364.75
857.03	12251.3
857.352	12305.09
857.674	12297.18
857.996	12226.67
858.318	12164.3
858.64	12089.5
858.961	12115.49
859.283	12012.89
859.605	11994.81
859.926	12024.19
860.248	11915.94
860.57	11891.31
860.891	11917.75
861.212	11828.04
861.534	11819.22
861.855	11814.48
862.176	11804.31
862.498	11828.71
862.819	11757.3
863.14	11710.98
863.461	11654.03
863.782	11682.73
864.103	11667.36
864.424	11687.25
864.745	11600.92
865.065	11556.63
865.386	11560.25
865.707	11554.37
866.027	11498.1
866.348	11483.64
866.668	11453.58
866.989	11379.69
867.309	11381.27
867.63	11292.01
867.95	11338.78
868.27	11346.47
868.59	11310.76
868.91	11310.31
869.23	11274.15
869.55	11307.82
869.87	11290.42
870.19	11214.49
870.51	11223.98
870.83	11213.82
871.15	11163.42
871.469	11176.53
871.789	11165.91
872.109	11222.85
872.428	11135.63
872.748	11157.32
873.067	11100.6
873.386	11123.65
873.706	11116.64
874.025	11007.27
874.344	10971.79
874.663	10960.04
874.982	10899.93
875.301	10937.21
875.62	10919.36
875.939	10911.45
876.258	10929.53
876.577	10887.27
876.896	10906.48
877.214	10898.8
877.533	10846.59
877.852	10814.05
878.17	10819.7
878.489	10788.06
878.807	10760.95
879.125	10744.9
879.444	10766.14
879.762	10733.38
880.08	10720.95
880.398	10673.04
880.716	10629.42
881.034	10629.65
881.352	10680.5
881.67	10648.18
881.988	10645.47
882.306	10573.61
882.624	10562.08
882.941	10470.11
883.259	10478.92
883.577	10460.39
883.894	10391.24
884.212	10399.83
884.529	10382.65
884.846	10419.49
885.164	10377.23
885.481	10279.38
885.798	10299.26
886.115	10243.22
886.432	10291.58
886.75	10200.96
887.067	10206.38
887.383	10117.35
887.7	10210
888.017	10125.48
888.334	10138.36
888.651	10049.33
888.967	10082.09
889.284	10028.99
889.6	10026.28
889.917	9992.15
890.233	9902.89
890.55	9899.95
890.866	9888.88
891.182	9871.93
891.498	9801.88
891.815	9791.71
892.131	9758.49
892.447	9721.65
892.763	9616.57
893.079	9664.7
893.395	9599.85
893.71	9622.67
894.026	9583.8
894.342	9605.95
894.657	9463.8
894.973	9522.56
895.289	9498.38
895.604	9436.91
895.92	9393.75
896.235	9322.79
896.55	9275.34
896.865	9330.93
897.181	9260.42
897.496	9215
897.811	9138.16
898.126	9226.3
898.441	9117.6
898.756	9122.12
899.071	9063.82
899.386	9045.51
899.7	9007.55
900.015	8892.29
900.33	8843.48
900.644	8882.35
900.959	8906.08
901.273	8893.65
901.588	8777.04
901.902	8763.48
902.216	8722.58
902.531	8725.97
902.845	8658.4
903.159	8680.77
903.473	8587.22
903.787	8561.68
904.101	8495.24
904.415	8499.99
904.729	8495.47
905.042	8410.5
905.356	8383.38
905.67	8423.15
905.984	8369.37
906.297	8314.23
906.611	8267.23
906.924	8294.34
907.237	8260.22
907.551	8196.49
907.864	8210.28
908.177	8147.68
908.491	8105.65
908.804	8057.51
909.117	8021.36
909.43	7924.41
909.743	7963.51
910.056	7982.04
910.368	7905.88
910.681	7880.12
910.994	7896.16
911.307	7789.27
911.619	7720.8
911.932	7755.6
912.244	7691.65
912.557	7657.75
912.869	7623.85
913.181	7615.72
913.494	7667.24
913.806	7512.22
914.118	7464.99
914.43	7426.12
914.742	7473.8
915.054	7433.12
915.366	7408.72
915.678	7365.33
915.99	7253.47
916.302	7297.99
916.613	7292.56
916.925	7256.86
917.236	7246.91
917.548	7169.85
917.859	7236.52
918.171	7097.31
918.482	7103.87
918.794	7100.03
919.105	7034.94
919.416	7011.67
919.727	7008.5
920.038	7034.04
920.349	6980.25
920.66	6950.88
920.971	6930.76
921.282	6919.92
921.593	6884.89
921.903	6752.69
922.214	6762.18
922.525	6760.15
922.835	6709.3
923.146	6668.4
923.456	6697.32
923.767	6667.72
924.077	6691.45
924.387	6586.82
924.697	6572.58
925.008	6507.5
925.318	6499.81
925.628	6483.09
925.938	6452.36
926.248	6338.92
926.558	6363.55
926.867	6360.16
927.177	6387.5
927.487	6341.85
927.796	6275.87
928.106	6264.11
928.416	6193.38
928.725	6178.02
929.034	6185.25
929.344	6192.93
929.653	6109.77
929.962	6088.3
930.271	6052.37
930.581	6033.39
930.89	6038.36
931.199	5982.09
931.508	5972.15
931.817	6027.96
932.125	5936.89
932.434	5905.48
932.743	5885.14
933.051	5843.56
933.36	5819.83
933.669	5806.05
933.977	5757.01
934.286	5765.82
934.594	5686.05
934.902	5714.75
935.21	5683.79
935.519	5669.33
935.827	5630.01
936.135	5642.89
936.443	5571.93
936.751	5546.85
937.059	5545.72
937.367	5499.16
937.674	5527.41
937.982	5473.18
938.29	5461.88
938.597	5419.62
938.905	5391.14
939.213	5291.49
939.52	5342.33
939.827	5332.16
940.135	5360.18
940.442	5237.02
940.749	5249.45
941.056	5285.16
941.363	5203.35
941.67	5247.64
941.977	5141.43
942.284	5127.65
942.591	5159.06
942.898	5101.66
943.205	5100.76
943.511	5062.56
943.818	5067.54
944.125	5051.72
944.431	4991.15
944.738	5005.84
945.044	4972.85
945.35	4970.14
945.657	4930.36
945.963	4883.13
946.269	4827.54
946.575	4858.05
946.881	4817.6
947.187	4790.03
947.493	4771.05
947.799	4762.01
948.105	4788.9
948.41	4727.21
948.716	4720.43
949.022	4709.81
949.327	4686.53
949.633	4596.14
949.938	4658.73
950.244	4636.59
950.549	4616.7
950.854	4569.7
951.16	4542.8
951.465	4524.05
951.77	4516.36
952.075	4506.87
952.38	4481.34
952.685	4460.77
952.99	4417.84
953.294	4396.37
953.599	4427.55
953.904	4389.59
954.209	4340.1
954.513	4326.76
954.818	4323.83
955.122	4319.53
955.426	4305.52
955.731	4254.9
956.035	4213.77
956.339	4237.73
956.643	4215.13
956.948	4205.86
957.252	4143.49
957.556	4187.56
957.86	4155.7
958.163	4085.42
958.467	4113.89
958.771	4102.82
959.075	4069.37
959.378	4084.96
959.682	4042.93
959.985	4011.74
960.289	4021.91
960.592	4013.78
960.896	3982.14
961.199	4014
961.502	3913.44
961.805	3927
962.108	3874.8
962.411	3874.57
962.714	3882.48
963.017	3856.72
963.32	3825.54
963.623	3833.44
963.926	3818.98
964.228	3774.91
964.531	3736.5
964.833	3755.25
965.136	3754.58
965.438	3721.58
965.741	3722.71
966.043	3690.85
966.345	3655.82
966.648	3654.47
966.95	3660.34
967.252	3637.29
967.554	3656.73
967.856	3593.9
968.158	3575.6
968.46	3567.01
968.761	3561.59
969.063	3571.08
969.365	3530.63
969.666	3491.08
969.968	3468.26
970.269	3486.79
970.571	3438.43
970.872	3420.57
971.174	3402.27
971.475	3406.56
971.776	3375.83
972.077	3370.86
972.378	3392.1
972.679	3305.77
972.98	3317.3
973.281	3346
973.582	3307.36
973.883	3273.23
974.183	3298.54
974.484	3263.74
974.785	3233.23
975.085	3267.58
975.386	3247.7
975.686	3184.65
975.986	3212.9
976.287	3204.99
976.587	3147.36
976.887	3151.2
977.187	3192.11
977.487	3155.5
977.787	3122.28
978.087	3145.1
978.387	3082.05
978.687	3072.79
978.987	3048.15
979.286	3046.8
979.586	3053.8
979.885	2990.3
980.185	2997.76
980.484	3009.06
980.784	2983.07
981.083	2945.33
981.382	2990.53
981.682	2974.26
981.981	2939
982.28	2904.66
982.579	2925.22
982.878	2894.71
983.177	2906.46
983.475	2902.4
983.774	2849.06
984.073	2844.77
984.372	2844.77
984.67	2817.2
984.969	2768.16
985.267	2779.01
985.566	2739.69
985.864	2755.73
986.162	2752.57
986.461	2702.85
986.759	2718.45
987.057	2698.78
987.355	2665.79
987.653	2695.62
987.951	2678.9
988.249	2659.69
988.547	2626.47
988.844	2659.01
989.142	2609.97
989.44	2599.35
989.737	2575.85
990.035	2567.49
990.332	2590.77
990.63	2577.43
990.927	2543.99
991.224	2544.89
991.521	2534.5
991.819	2501.95
992.116	2520.94
992.413	2450.88
992.71	2465.8
993.006	2466.25
993.303	2461.28
993.6	2451.56
993.897	2447.04
994.193	2431.45
994.49	2401.84
994.787	2383.09
995.083	2363.43
995.379	2367.49
995.676	2362.97
995.972	2362.97
996.268	2377.44
996.565	2337.21
996.861	2318.68
997.157	2312.13
997.453	2279.36
997.749	2266.93
998.044	2273.03
998.34	2275.29
998.636	2234.16
998.932	2239.59
999.227	2231
999.523	2218.35
999.818	2172.25
1000.114	2187.84
1000.409	2157.56
1000.704	2196.2
1001	2164.56
1001.295	2149.87
1001.59	2135.41
1001.885	2117.11
1002.18	2113.72
1002.475	2099.93
1002.77	2089.08
1003.065	2064.23
1003.359	2072.36
1003.654	2042.76
1003.949	2038.92
1004.243	2046.82
1004.538	2030.55
1004.832	2033.94
1005.127	2006.6
1005.421	1991.46
1005.715	1981.06
1006.009	1969.31
1006.304	1947.62
1006.598	1931.57
1006.892	1950.56
1007.186	1952.59
1007.48	1902.65
1007.773	1898.35
1008.067	1872.37
1008.361	1893.38
1008.655	1856.32
1008.948	1842.99
1009.242	1878.02
1009.535	1842.54
1009.829	1821.52
1010.122	1807.73
1010.415	1797.57
1010.708	1797.79
1011.001	1764.57
1011.295	1801.18
1011.588	1765.02
1011.881	1748.53
1012.173	1761.41
1012.466	1725.93
1012.759	1715.76
1013.052	1723.67
1013.344	1712.37
1013.637	1681.41
1013.93	1706.27
1014.222	1677.12
1014.514	1673.5
1014.807	1657.68
1015.099	1652.94
1015.391	1649.77
1015.683	1622.2
1015.976	1655.42
1016.268	1593.5
1016.56	1577.68
1016.851	1572.71
1017.143	1572.71
1017.435	1565.03
1017.727	1568.87
1018.018	1546.05
1018.31	1558.25
1018.602	1530.91
1018.893	1520.74
1019.185	1509.44
1019.476	1513.05
1019.767	1497.91
1020.058	1500.17
1020.35	1471.92
1020.641	1462.66
1020.932	1453.85
1021.223	1443.9
1021.514	1404.13
1021.804	1437.12
1022.095	1401.87
1022.386	1421.76
1022.677	1403.68
1022.967	1396.45
1023.258	1357.35
1023.548	1354.19
1023.839	1379.5
1024.129	1347.63
1024.419	1336.11
1024.709	1362.77
1025	1325.26
1025.29	1309.89
1025.58	1339.72
1025.87	1300.63
1026.16	1290.69
1026.449	1292.95
1026.739	1246.62
1027.029	1266.05
1027.319	1259.5
1027.608	1221.31
1027.898	1237.35
1028.187	1236.22
1028.477	1224.02
1028.766	1224.02
1029.055	1193.74
1029.344	1205.49
1029.634	1221.54
1029.923	1192.61
1030.212	1185.38
1030.501	1196.23
1030.79	1182.44
1031.078	1135.89
1031.367	1132.5
1031.656	1130.92
1031.945	1111.93
1032.233	1137.92
1032.522	1146.06
1032.81	1104.93
1033.099	1097.7
1033.387	1096.34
1033.675	1073.07
1033.963	1099.28
1034.251	1072.39
1034.54	1085.95
1034.828	1065.83
1035.116	1054.76
1035.403	1054.53
1035.691	1022.44
1035.979	1035.33
1036.267	1045.27
1036.554	1019.51
1036.842	1011.15
1037.129	1018.15
1037.417	1006.4
1037.704	996.23
1037.992	985.38
1038.279	1003.91
1038.566	974.54
1038.853	974.54
1039.14	974.54
