Data from hue_200_FLMS001491_00008.txt Node
Date: Tue Feb 07 16:42:45 GMT 2017
User: dcchb
Spectrometer: FLMS00149
Trigger mode: 0
Integration Time (sec): 2.000000E-2
Scans to average: 10
Electric dark correction enabled: true
Nonlinearity correction enabled: false
Boxcar width: 0
XAxis mode: Wavelengths
Number of Pixels in Spectrum: 2048
>>>>>Begin Spectral Data<<<<<
341.393	-14
341.776	-14
342.16	-14
342.543	-57.39
342.927	-72.3
343.31	-66.88
343.693	-86.09
344.077	-65.52
344.46	-71.17
344.843	-56.03
345.226	-43.83
345.61	-34.34
345.993	-19.65
346.376	-6.09
346.759	38.43
347.142	24.87
347.525	54.48
347.908	52.44
348.291	71.42
348.674	91.09
349.057	116.85
349.44	145.1
349.823	134.02
350.206	164.76
350.588	213.12
350.971	212.21
351.354	200.01
351.737	226
352.119	244.98
352.502	253.79
352.884	261.7
353.267	288.37
353.65	302.61
354.032	287.92
354.414	301.93
354.797	325.88
355.179	316.62
355.562	324.07
355.944	325.2
356.326	337.41
356.709	310.29
357.091	318.88
357.473	334.47
357.855	317.97
358.238	321.59
358.62	321.14
359.002	319.55
359.384	339.67
359.766	335.15
360.148	344.86
360.53	350.29
360.912	324.75
361.294	319.33
361.676	341.93
362.057	308.48
362.439	313.9
362.821	306.67
363.203	314.13
363.584	334.02
363.966	314.81
364.348	313.68
364.729	317.97
365.111	316.84
365.493	295.37
365.874	340.34
366.256	309.84
366.637	293.11
367.019	319.55
367.4	315.94
367.781	297.18
368.163	308.03
368.544	319.78
368.925	305.54
369.306	319.78
369.688	313.23
370.069	295.15
370.45	304.41
370.831	310.74
371.212	289.05
371.593	302.38
371.974	322.27
372.355	312.55
372.736	309.84
373.117	312.77
373.498	306.9
373.879	301.02
374.26	328.14
374.641	317.29
375.021	299.89
375.402	305.77
375.783	310.97
376.163	317.52
376.544	338.99
376.925	332.21
377.305	324.98
377.686	319.33
378.066	330.4
378.447	315.26
378.827	323.4
379.208	343.96
379.588	359.78
379.968	346.22
380.349	338.54
380.729	326.11
381.109	336.73
381.489	358.65
381.87	348.48
382.25	360.23
382.63	359.55
383.01	359.1
383.39	343.96
383.77	343.06
384.15	350.51
384.53	371.76
384.91	331.3
385.29	352.32
385.67	345.77
386.049	356.61
386.429	375.82
386.809	363.39
387.189	363.62
387.568	369.95
387.948	366.56
388.328	350.29
388.707	348.25
389.087	374.24
389.466	379.89
389.846	366.11
390.225	364.3
390.605	378.08
390.984	368.14
391.363	352.1
391.743	377.63
392.122	384.64
392.501	382.6
392.881	385.54
393.26	403.39
393.639	382.6
394.018	371.98
394.397	386.22
394.776	399.33
395.155	395.26
395.534	417.63
395.913	396.16
396.292	397.97
396.671	403.17
397.05	404.3
397.429	423.73
397.808	397.29
398.186	428.03
398.565	422.83
398.944	430.51
399.323	414.01
399.701	425.09
400.08	417.4
400.458	413.11
400.837	423.96
401.215	434.35
401.594	426.67
401.972	429.16
402.351	447.23
402.729	441.81
403.107	436.39
403.486	452.88
403.864	433.45
404.242	477.52
404.62	474.35
404.999	475.26
405.377	482.49
405.755	474.35
406.133	487.46
406.511	489.94
406.889	537.63
407.267	502.15
407.645	489.72
408.023	515.03
408.401	494.24
408.779	548.02
409.156	535.14
409.534	535.14
409.912	555.71
410.29	576.27
410.667	575.82
411.045	586.21
411.422	589.15
411.8	599.77
412.178	609.26
412.555	618.98
412.933	622.37
413.31	646.32
413.687	661.01
414.065	650.17
414.442	667.34
414.819	698.3
415.197	685.42
415.574	705.98
415.951	724.97
416.328	710.73
416.705	715.48
417.082	750.05
417.46	721.35
417.837	768.36
418.214	757.28
418.591	765.87
418.967	761.8
419.344	783.72
419.721	784.17
420.098	789.37
420.475	847.22
420.852	851.74
421.228	844.51
421.605	863.95
421.982	914.11
422.358	896.26
422.735	914.34
423.111	943.27
423.488	942.14
423.864	965.86
424.241	1000.89
424.617	995.02
424.994	1004.96
425.37	1023.26
425.746	1040.44
426.123	1075.92
426.499	1081.34
426.875	1082.92
427.251	1126.31
427.627	1110.04
428.003	1160.21
428.379	1172.64
428.756	1160.66
429.132	1182.36
429.507	1195.69
429.883	1212.86
430.259	1235.46
430.635	1255.57
431.011	1270.04
431.387	1255.57
431.763	1327.89
432.138	1309.13
432.514	1343.26
432.89	1349.81
433.265	1398.85
433.641	1425.97
434.016	1426.42
434.392	1449.69
434.767	1478.85
435.143	1516.58
435.518	1524.04
435.894	1576.47
436.269	1625.96
436.644	1640.65
437.02	1680.65
437.395	1673.87
437.77	1707.31
438.145	1748.67
438.52	1773.98
438.895	1797.03
439.271	1847.65
439.646	1867.08
440.021	1911.6
440.395	1925.39
440.77	1889.91
441.145	1971.94
441.52	1966.06
441.895	2008.32
442.27	2033.86
442.645	2068.21
443.019	2103.24
443.394	2096.23
443.769	2140.97
444.143	2135.33
444.518	2147.98
444.892	2159.73
445.267	2221.42
445.641	2234.31
446.016	2294.64
446.39	2293.29
446.764	2266.62
447.139	2287.86
447.513	2349.56
447.887	2337.81
448.262	2332.61
448.636	2371.25
449.01	2437.01
449.384	2408.99
449.758	2461.64
450.132	2488.31
450.506	2472.94
450.88	2532.15
451.254	2511.36
451.628	2548.87
452.002	2586.39
452.376	2607.63
452.75	2673.84
453.123	2670.68
453.497	2671.58
453.871	2716.1
454.244	2762.43
454.618	2800.17
454.992	2872.71
455.365	2850.33
455.739	2921.52
456.112	2937.79
456.486	2949.32
456.859	2953.83
457.232	3044
457.606	3038.8
457.979	3100.72
458.352	3137.11
458.725	3210.33
459.099	3211
459.472	3237.67
459.845	3276.54
460.218	3280.15
460.591	3357.89
460.964	3378.91
461.337	3452.58
461.71	3497.78
462.083	3533.03
462.456	3514.27
462.829	3576.42
463.201	3599.02
463.574	3619.35
463.947	3707.94
464.32	3765.11
464.692	3845.11
465.065	3848.5
465.438	3868.61
465.81	3956.29
466.183	3966.24
466.555	4069.29
466.928	4108.38
467.3	4053.92
467.672	4156.74
468.045	4275.61
468.417	4253.69
468.789	4294.82
469.161	4382.27
469.534	4414.36
469.906	4563.96
470.278	4500.46
470.65	4578.88
471.022	4647.35
471.394	4758.53
471.766	4806.67
472.138	4806.89
472.51	4930.51
472.882	4998.3
473.253	5115.59
473.625	5142.25
473.997	5264.28
474.369	5259.54
474.74	5284.62
475.112	5407.78
475.484	5501.11
475.855	5578.17
476.227	5629.92
476.598	5735.23
476.97	5798.28
477.341	5902.91
477.713	5965.06
478.084	6072.17
478.455	6137.71
478.827	6220.19
479.198	6399.39
479.569	6382.45
479.94	6569.56
480.311	6611.14
480.682	6745.15
481.053	6851.13
481.424	7002.54
481.795	7038.47
482.166	7115.31
482.537	7151.92
482.908	7324.79
483.279	7400.95
483.65	7546.93
484.021	7630.55
484.391	7736.31
484.762	7763.2
485.133	7940.37
485.503	8013.14
485.874	8181.95
486.244	8142.85
486.615	8368.16
486.985	8424.2
487.356	8583.97
487.726	8627.58
488.097	8763.4
488.467	8728.37
488.837	8923.62
489.207	9099.66
489.578	9211.75
489.948	9194.12
490.318	9419.88
490.688	9333.55
491.058	9494.91
491.428	9562.93
491.798	9659.2
492.168	9848.79
492.538	9933.09
492.908	9923.82
493.278	10010.6
493.648	10074.78
494.017	10190.03
494.387	10278.84
494.757	10340.53
495.126	10347.09
495.496	10471.38
495.866	10474.99
496.235	10625.27
496.605	10612.16
496.974	10724.48
497.344	10813.52
497.713	10795.66
498.082	10803.8
498.452	10889.67
498.821	11013.06
499.19	10940.29
499.559	11027.52
499.928	11143.22
500.298	11171.02
500.667	11276.33
501.036	11150.91
501.405	11305.71
501.774	11296.89
502.143	11434.52
502.512	11381.86
502.88	11537.56
503.249	11475.87
503.618	11552.03
503.987	11558.58
504.356	11606.04
504.724	11692.81
505.093	11720.16
505.462	11713.6
505.83	11772.13
506.199	11863.66
506.567	11973.94
506.936	11918.12
507.304	12032.47
507.672	11948.4
508.041	12076.76
508.409	12076.08
508.777	12300.26
509.145	12261.16
509.514	12151.33
509.882	12165.12
510.25	12232.46
510.618	12270.88
510.986	12283.53
511.354	12307.94
511.722	12451.21
512.09	12413.25
512.458	12397.65
512.826	12464.77
513.193	12442.62
513.561	12429.74
513.929	12552
514.297	12629.74
514.664	12647.59
515.032	12666.12
515.4	12664.09
515.767	12674.48
516.135	12698.21
516.502	12573.69
516.869	12755.84
517.237	12785.89
517.604	12720.58
517.972	12770.07
518.339	12809.62
518.706	12821.82
519.073	12809.39
519.44	12888.94
519.808	12943.18
520.175	12852.33
520.542	12914.48
520.909	13001.48
521.276	12950.86
521.643	13031.31
522.009	13006.45
522.376	13044.42
522.743	13146.11
523.11	13076.28
523.477	13123.51
523.843	13143.17
524.21	13254.13
524.577	13236.5
524.943	13211.19
525.31	13215.71
525.676	13394.69
526.043	13321.25
526.409	13326.22
526.776	13438.98
527.142	13319.21
527.508	13331.19
527.874	13388.59
528.241	13438.08
528.607	13346.1
528.973	13500.45
529.339	13388.36
529.705	13428.81
530.071	13335.93
530.437	13367.12
530.803	13514.91
531.169	13376.39
531.535	13298.87
531.901	13362.37
532.267	13389.49
532.632	13362.15
532.998	13353.34
533.364	13321.02
533.73	13289.38
534.095	13291.87
534.461	13250.29
534.826	13277.18
535.192	13234.47
535.557	13254.13
535.923	13107.92
536.288	13109.95
536.653	13052.55
537.019	13008.49
537.384	13048.48
537.749	13058.43
538.114	13031.31
538.479	12928.26
538.845	12940.69
539.21	12862.5
539.575	12881.71
539.94	12756.29
540.305	12798.55
540.67	12666.57
541.034	12649.85
541.399	12746.35
541.764	12656.18
542.129	12610.08
542.494	12573.69
542.858	12502.96
543.223	12450.99
543.587	12495.05
543.952	12365.79
544.316	12430.42
544.681	12327.15
545.045	12375.51
545.41	12348.39
545.774	12252.57
546.138	12191.33
546.503	12182.07
546.867	12086.02
547.231	12096.42
547.595	12046.48
547.959	12008.96
548.324	11935.07
548.688	11932.13
549.052	11898.46
549.416	11823.43
549.779	11769.42
550.143	11762.64
550.507	11772.13
550.871	11763.09
551.235	11664.57
551.599	11616.66
551.962	11636.77
552.326	11581.63
552.689	11565.81
553.053	11504.8
553.417	11465.48
553.78	11528.98
554.143	11458.24
554.507	11430.45
554.87	11461.41
555.234	11417.34
555.597	11322.43
555.96	11387.29
556.323	11221.64
556.686	11269.1
557.05	11279.72
557.413	11269.1
557.776	11221.19
558.139	11262.54
558.502	11210.57
558.865	11212.6
559.228	11172.83
559.59	11160.62
559.953	11174.41
560.316	11246.72
560.679	11157.23
561.041	11181.42
561.404	11181.42
561.767	11191.13
562.129	11112.26
562.492	11176.22
562.854	11133.28
563.217	11123.34
563.579	11113.17
563.941	11191.36
564.304	11168.31
564.666	11132.15
565.028	11168.76
565.39	11109.1
565.753	11225.71
566.115	11169.21
566.477	11138.7
566.839	11156.1
567.201	11196.1
567.563	11202.43
567.925	11219.15
568.287	11117.01
568.648	11169.89
569.01	11201.08
569.372	11293.73
569.734	11170.57
570.095	11227.52
570.457	11257.57
570.819	11199.49
571.18	11178.93
571.542	11278.81
571.903	11255.76
572.265	11277.01
572.626	11255.99
572.987	11294.41
573.349	11257.35
573.71	11338.7
574.071	11354.97
574.432	11322.65
574.794	11428.19
575.155	11331.24
575.516	11277.23
575.877	11352.03
576.238	11357.23
576.599	11352.71
576.96	11302.99
577.32	11359.94
577.681	11319.04
578.042	11379.6
578.403	11324.24
578.763	11319.26
579.124	11417.12
579.485	11410.11
579.845	11375.08
580.206	11405.59
580.566	11396.78
580.927	11469.09
581.287	11423.89
581.648	11396.55
582.008	11469.32
582.368	11413.95
582.728	11489.2
583.089	11417.57
583.449	11418.02
583.809	11360.17
584.169	11457.79
584.529	11397.45
584.889	11408.53
585.249	11343.22
585.609	11259.38
585.969	11473.16
586.329	11336.89
586.688	11366.04
587.048	11447.17
587.408	11299.38
587.768	11330.34
588.127	11289.66
588.487	11307.29
588.846	11395.19
589.206	11289.66
589.565	11342.54
589.925	11330.34
590.284	11316.1
590.643	11332.82
591.003	11334.86
591.362	11372.6
591.721	11300.06
592.08	11288.98
592.44	11314.07
592.799	11367.62
593.158	11331.69
593.517	11257.57
593.876	11281.75
594.235	11274.52
594.593	11284.46
594.952	11343.9
595.311	11225.71
595.67	11265.03
596.029	11253.05
596.387	11262.54
596.746	11297.34
597.104	11266.38
597.463	11183.67
597.822	11267.97
598.18	11171.25
598.538	11180.29
598.897	11295.31
599.255	11194.97
599.613	11340.28
599.972	11270.23
600.33	11238.14
600.688	11174.41
601.046	11232.26
601.404	11274.07
601.762	11214.41
602.12	11271.58
602.478	11285.14
602.836	11243.11
603.194	11183.22
603.552	11172.38
603.91	11193.17
604.268	11262.09
604.625	11164.47
604.983	11199.27
605.341	11174.86
605.698	11174.64
606.056	11235.88
606.413	11253.05
606.771	11234.97
607.128	11299.6
607.485	11151.59
607.843	11197.46
608.2	11258.48
608.557	11248.76
608.914	11200.4
609.272	11294.63
609.629	11323.11
609.986	11318.36
610.343	11228.65
610.7	11325.37
611.057	11327.63
611.414	11284.24
611.771	11297.8
612.127	11328.53
612.484	11401.3
612.841	11401.75
613.198	11314.29
613.554	11373.27
613.911	11431.35
614.267	11427.74
614.624	11415.76
614.98	11395.65
615.337	11543.21
615.693	11337.34
616.05	11333.73
616.406	11515.87
616.762	11485.81
617.118	11444.91
617.475	11399.04
617.831	11451.69
618.187	11439.49
618.543	11438.58
618.899	11570.33
619.255	11484.68
619.611	11433.61
619.967	11461.18
620.323	11475.19
620.678	11494.18
621.034	11455.98
621.39	11439.49
621.746	11421.63
622.101	11572.37
622.457	11403.78
622.812	11517.68
623.168	11477.68
623.523	11470
623.879	11526.72
624.234	11431.58
624.589	11431.13
624.945	11399.71
625.3	11467.74
625.655	11463.22
626.01	11530.33
626.365	11455.53
626.72	11471.35
627.075	11406.95
627.43	11410.11
627.785	11360.62
628.14	11439.04
628.495	11478.81
628.85	11493.95
629.205	11427.74
629.559	11404.46
629.914	11330.34
630.269	11412.37
630.623	11358.81
630.978	11330.79
631.332	11391.8
631.687	11434.06
632.041	11312.94
632.396	11376.21
632.75	11248.76
633.104	11290.34
633.459	11268.64
633.813	11234.3
634.167	11229.32
634.521	11180.06
634.875	11152.94
635.229	11258.48
635.583	11170.57
635.937	11189.1
636.291	11138.93
636.645	11107.29
636.999	11101.42
637.352	11104.81
637.706	11121.3
638.06	11074.75
638.413	11066.62
638.767	11052.15
639.121	11110.23
639.474	11004.92
639.828	11025.71
640.181	11012.61
640.534	11045.37
640.888	11012.83
641.241	10874.98
641.594	10919.28
641.947	10991.59
642.301	10946.84
642.654	10955.88
643.007	10872.04
643.36	10908.43
643.713	10841.09
644.066	10945.72
644.419	10839.28
644.771	10809
645.124	10692.16
645.477	10639.06
645.83	10568.1
646.182	10696.68
646.535	10509.79
646.888	10482.9
647.24	10557.48
647.593	10537.59
647.945	10545.95
648.298	10422.79
648.65	10376.24
649.002	10426.86
649.355	10511.6
649.707	10526.52
650.059	10528.32
650.411	10704.59
650.763	10762.67
651.115	10733.07
651.467	10698.72
651.819	10797.7
652.171	10759.73
652.523	10757.92
652.875	10776
653.227	10667.98
653.578	10736.23
653.93	10707.3
654.282	10692.84
654.633	10684.93
654.985	10727.64
655.337	10698.49
655.688	10720.64
656.039	10783.23
656.391	10651.71
656.742	10662.78
657.094	10725.16
657.445	10766.28
657.796	10730.13
658.147	10700.07
658.498	10705.27
658.849	10713.18
659.2	10750.24
659.551	10705.72
659.902	10767.41
660.253	10755.66
660.604	10754.76
660.955	10655.78
661.306	10821.65
661.656	10729.45
662.007	10744.82
662.358	10708.89
662.708	10819.84
663.059	10740.52
663.409	10726.74
663.76	10752.95
664.11	10850.8
664.461	10771.93
664.811	10765.83
665.161	10734.65
665.511	10729.45
665.862	10726.06
666.212	10821.65
666.562	10858.49
666.912	10792.72
667.262	10741.2
667.612	10749.79
667.962	10781.43
668.312	10743.69
668.662	10846.51
669.011	10704.14
669.361	10752.05
669.711	10719.51
670.06	10721.99
670.41	10765.61
670.76	10756.79
671.109	10703.91
671.459	10757.02
671.808	10701.43
672.157	10751.14
672.507	10646.97
672.856	10610.58
673.205	10696.91
673.554	10715.44
673.904	10627.53
674.253	10703.46
674.602	10616.68
674.951	10431.15
675.3	10430.93
675.649	10605.16
675.998	10565.16
676.346	10551.38
676.695	10647.19
677.044	10543.01
677.393	10606.51
677.741	10530.36
678.09	10522
678.438	10551.15
678.787	10576.23
679.135	10521.55
679.484	10471.15
679.832	10490.59
680.181	10393.87
680.529	10406.29
680.877	10370.14
681.225	10387.09
681.573	10500.08
681.922	10306.18
682.27	10371.27
682.618	10338.27
682.966	10341.66
683.314	10280.42
683.661	10300.76
684.009	10188.22
684.357	10199.75
684.705	10183.48
685.053	10197.94
685.4	10174.21
685.748	10141.22
686.095	10096.47
686.443	10036.36
686.79	10075.91
687.138	10063.25
687.485	10124.49
687.832	10021.45
688.18	9893.09
688.527	9978.06
688.874	9894.22
689.221	9930.6
689.568	9838.85
689.915	9847.21
690.262	9860.77
690.609	9700.1
690.956	9759.08
691.303	9750.94
691.65	9679.31
691.997	9631.85
692.344	9640.44
692.69	9590.72
693.037	9617.84
693.383	9500.33
693.73	9512.98
694.077	9418.75
694.423	9464.17
694.769	9403.61
695.116	9350.5
695.462	9417.62
695.808	9312.31
696.155	9353.21
696.501	9224.18
696.847	9155.25
697.193	9173.33
697.539	9179.66
697.885	9079.55
698.231	9105.09
698.577	9086.55
698.923	9091.53
699.269	8966.33
699.614	8921.81
699.96	8939.89
700.306	8876.39
700.651	8836.62
700.997	8828.48
701.342	8808.6
701.688	8695.38
702.033	8777.86
702.379	8751.2
702.724	8736.28
703.069	8678.88
703.415	8593.46
703.76	8611.99
704.105	8601.6
704.45	8560.69
704.795	8444.31
705.14	8446.8
705.485	8503.75
705.83	8408.15
706.175	8399.57
706.52	8349.17
706.865	8336.29
707.209	8350.98
707.554	8301.72
707.899	8292.9
708.243	8271.89
708.588	8299
708.932	8179.01
709.277	8208.16
709.621	8202.06
709.966	8100.82
710.31	8120.03
710.654	8045.68
710.998	8008.62
711.342	8063.76
711.687	8026.7
712.031	8057.66
712.375	7976.98
712.719	7992.57
713.063	7996.41
713.407	7979.24
713.75	7955.06
714.094	7995.06
714.438	7925.91
714.782	7890.43
715.125	7859.02
715.469	7890.65
715.812	7831.9
716.156	7755.06
716.499	7761.39
716.843	7836.87
717.186	7733.6
717.53	7797.55
717.873	7854.04
718.216	7764.56
718.559	7720.26
718.902	7701.05
719.246	7646.59
719.589	7628.74
719.932	7625.35
720.275	7697.89
720.617	7650.89
720.96	7585.13
721.303	7671.45
721.646	7613.6
721.989	7519.59
722.331	7656.99
722.674	7564.79
723.016	7603.66
723.359	7536.99
723.701	7610.44
724.044	7550.32
724.386	7482.53
724.729	7553.26
725.071	7577.89
725.413	7503.77
725.755	7487.73
726.097	7465.81
726.439	7419.48
726.782	7445.02
727.124	7521.62
727.465	7432.59
727.807	7461.96
728.149	7431.46
728.491	7492.02
728.833	7447.5
729.175	7444.79
729.516	7447.28
729.858	7434.17
730.199	7468.97
730.541	7401.63
730.882	7438.91
731.224	7445.47
731.565	7429.2
731.906	7428.07
732.248	7461.96
732.589	7443.21
732.93	7409.31
733.271	7401.18
733.612	7443.21
733.953	7438.01
734.294	7409.54
734.635	7379.71
734.976	7409.76
735.317	7393.72
735.658	7484.11
735.999	7409.99
736.339	7464.45
736.68	7464.22
737.021	7445.47
737.361	7424.9
737.702	7506.26
738.042	7423.77
738.383	7455.19
738.723	7466.26
739.063	7446.37
739.404	7484.34
739.744	7506.71
740.084	7472.59
740.424	7499.93
740.764	7501.29
741.104	7586.93
741.444	7526.6
741.784	7573.6
742.124	7529.76
742.464	7598.01
742.804	7556.2
743.143	7570.21
743.483	7669.42
743.823	7647.72
744.162	7666.48
744.502	7709.64
744.841	7734.95
745.181	7777.66
745.52	7783.99
745.86	7830.99
746.199	7834.38
746.538	7913.7
746.877	7960.48
747.216	8022.4
747.556	8001.39
747.895	8071.21
748.234	8119.8
748.573	8162.74
748.911	8238.22
749.25	8296.97
749.589	8299
749.928	8415.39
750.267	8518.66
750.605	8544.42
750.944	8596.17
751.283	8672.33
751.621	8786.9
751.96	8836.17
752.298	8931.98
752.636	9037.29
752.975	9147.8
753.313	9212.43
753.651	9376.04
753.989	9369.03
754.327	9517.05
754.666	9553.89
755.004	9763.6
755.342	9943.48
755.679	10016.02
756.017	10116.13
756.355	10312.96
756.693	10428.44
757.031	10595.44
757.368	10725.38
757.706	10821.42
758.044	10983.91
758.381	11204.92
758.719	11412.37
759.056	11535.08
759.394	11712.02
759.731	11860.49
760.068	11924.9
760.405	12154.72
760.743	12293.02
761.08	12530.76
761.417	12656.86
761.754	12855.5
762.091	13094.36
762.428	13211.19
762.765	13377.29
763.102	13632.65
763.438	13748.58
763.775	13908.8
764.112	14208.91
764.449	14297.04
764.785	14542.46
765.122	14596.69
765.458	14799.17
765.795	14966.17
766.131	15139.05
766.467	15222.66
766.804	15392.83
767.14	15576.55
767.476	15696.32
767.812	15956.66
768.148	16114.17
768.485	16176.76
768.821	16282.3
769.157	16553.25
769.492	16442.29
769.828	16738.56
770.164	16822.17
770.5	16924.09
770.836	17103.07
771.171	17221.03
771.507	17370.63
771.842	17307.13
772.178	17585.77
772.513	17562.72
772.849	17691.07
773.184	17842.26
773.519	17957.73
773.855	17959.99
774.19	18139.88
774.525	18251.51
774.86	18339.64
775.195	18437.04
775.53	18542.8
775.865	18435.91
776.2	18325.86
776.535	18470.49
776.87	18582.12
777.205	18526.53
777.539	18643.37
777.874	18716.13
778.209	18700.09
778.543	18819.41
778.878	18876.58
779.212	18873.19
779.547	18899.18
779.881	18957.93
780.215	18860.08
780.55	18997.03
780.884	19007.65
781.218	19063.69
781.552	19167.87
781.886	19104.82
782.22	18978.27
782.554	19103.69
782.888	18964.94
783.222	19001.32
783.556	19064.15
783.889	19060.98
784.223	18853.76
784.557	19034.32
784.89	19131.71
785.224	19035.9
785.557	18863.47
785.891	18964.04
786.224	18949.35
786.558	18988.22
786.891	18888.56
787.224	18821.89
787.557	18889.23
787.891	18872.29
788.224	18862.12
788.557	18868.67
788.89	18879.29
789.223	18971.94
789.556	18815.56
789.888	18727.43
790.221	18745.74
790.554	18659.64
790.887	18667.09
791.219	18634.1
791.552	18596.14
791.884	18520.88
792.217	18587.1
792.549	18624.84
792.882	18434.56
793.214	18408.8
793.546	18509.36
793.879	18522.69
794.211	18334.67
794.543	18380.77
794.875	18344.16
795.207	18355.92
795.539	18232.98
795.871	18286.09
796.203	18109.82
796.535	18098.75
796.867	18133.77
797.198	17944.63
797.53	18089.48
797.862	17959.54
798.193	18094
798.525	17822.14
798.856	17994.57
799.188	17818.3
799.519	17731.3
799.85	17718.42
800.182	17693.79
800.513	17602.72
800.844	17494.24
801.175	17607.46
801.506	17620.12
801.837	17528.14
802.168	17451.98
802.499	17452.44
802.83	17371.99
803.161	17397.52
803.491	17369.95
803.822	17399.1
804.153	17369.73
804.483	17206.79
804.814	17162.05
805.145	17130.86
805.475	17020.13
805.805	17085.67
806.136	17093.35
806.466	17041.6
806.796	17000.47
807.126	16798.89
807.457	16807.26
807.787	16950.53
808.117	16828.27
808.447	16731.55
808.777	16758.9
809.107	16664.66
809.436	16659.69
809.766	16636.64
810.096	16498.56
810.426	16558.67
810.755	16531.1
811.085	16478
811.414	16476.87
811.744	16429.64
812.073	16295.18
812.403	16439.81
812.732	16332.92
813.061	16240.27
813.39	16235.29
813.719	16207.95
814.049	16188.52
814.378	16261.28
814.707	16135.18
815.036	16176.76
815.365	16038.69
815.693	15937.22
816.022	16006.15
816.351	15936.54
816.68	15899.48
817.008	15921.86
817.337	15833.72
817.665	15760.96
817.994	15875.75
818.322	15800.73
818.651	15666.27
818.979	15640.73
819.307	15716.66
819.636	15760.73
819.964	15559.61
820.292	15556.22
820.62	15623.56
820.948	15600.51
821.276	15672.37
821.604	15627.63
821.932	15617.91
822.259	15588.53
822.587	15578.36
822.915	15561.41
823.243	15603.67
823.57	15549.66
823.898	15620.85
824.225	15499.72
824.553	15617.23
824.88	15543.56
825.207	15560.51
825.535	15535.2
825.862	15616.33
826.189	15525.71
826.516	15632.82
826.843	15715.08
827.17	15651.58
827.497	15641.41
827.824	15560.73
828.151	15666.49
828.478	15593.05
828.805	15672.6
829.131	15567.97
829.458	15678.25
829.785	15560.06
830.111	15659.94
830.438	15637.57
830.764	15649.32
831.09	15700.84
831.417	15562.32
831.743	15553.96
832.069	15604.35
832.395	15491.58
832.722	15516.89
833.048	15586.27
833.374	15521.19
833.7	15398.25
834.026	15562.09
834.351	15458.59
834.677	15485.03
835.003	15506.05
835.329	15451.59
835.654	15437.57
835.98	15376.33
836.306	15453.39
836.631	15399.38
836.956	15443.9
837.282	15370.46
837.607	15352.6
837.932	15348.76
838.258	15304.92
838.583	15290.01
838.908	15212.04
839.233	15185.6
839.558	15143.12
839.883	15127.53
840.208	15103.12
840.533	15133.18
840.858	15079.39
841.182	15112.39
841.507	15067.19
841.832	14967.53
842.156	15009.56
842.481	14882.79
842.805	14971.15
843.13	14884.37
843.454	14826.97
843.778	14877.82
844.103	14811.38
844.427	14740.42
844.751	14834.88
845.075	14732.28
845.399	14719.4
845.723	14573.19
846.047	14589.46
846.371	14473.08
846.695	14445.51
847.019	14375.91
847.343	14301.56
847.666	14263.37
847.99	14201.67
848.313	14195.35
848.637	14116.03
848.96	14157.83
849.284	13977.5
849.607	13963.71
849.931	13920.78
850.254	13825.87
850.577	13729.37
850.9	13705.87
851.223	13647.11
851.546	13565.31
851.869	13514.01
852.192	13504.97
852.515	13473.11
852.838	13402.83
853.161	13424.52
853.483	13306.56
853.806	13263.39
854.129	13158.09
854.451	13124.64
854.774	13128.48
855.096	13122.38
855.419	12993.34
855.741	13047.13
856.063	12940.92
856.385	12939.56
856.708	12891.65
857.03	12810.98
857.352	12905.44
857.674	12754.03
857.996	12717.87
858.318	12610.76
858.64	12672.9
858.961	12639.23
859.283	12576.86
859.605	12526.01
859.926	12503.87
860.248	12542.28
860.57	12464.32
860.891	12514.49
861.212	12355.85
861.534	12359.46
861.855	12259.13
862.176	12345.68
862.498	12337.32
862.819	12270.65
863.14	12237.43
863.461	12228.62
863.782	12152.24
864.103	12221.16
864.424	12164.67
864.745	12121.28
865.065	12093.48
865.386	12057.32
865.707	11983.43
866.027	12064.56
866.348	11956.08
866.668	12049.19
866.989	11967.61
867.309	11866.82
867.63	11891.23
867.95	11883.54
868.27	11879.48
868.59	11938.46
868.91	11827.27
869.23	11753.38
869.55	11778.01
869.87	11820.27
870.19	11783.21
870.51	11709.54
870.83	11829.53
871.15	11725.58
871.469	11724.45
871.789	11680.61
872.109	11691.46
872.428	11567.17
872.748	11605.81
873.067	11627.96
873.386	11611.23
873.706	11609.65
874.025	11526.49
874.344	11504.34
874.663	11481.29
874.982	11495.53
875.301	11484.23
875.62	11430.22
875.939	11437.45
876.258	11392.03
876.577	11375.76
876.896	11362.88
877.214	11341.41
877.533	11392.26
877.852	11305.03
878.17	11342.09
878.489	11287.63
878.807	11215.54
879.125	11261.64
879.444	11222.54
879.762	11196.56
880.08	11164.47
880.398	11193.39
880.716	11154.07
881.034	11137.35
881.352	11131.02
881.67	11083.34
881.988	11053.28
882.306	11021.19
882.624	10973.06
882.941	10974.19
883.259	10934.64
883.577	10886.06
883.894	10852.84
884.212	10842.44
884.529	10848.99
884.846	10835.21
885.164	10785.72
885.481	10812.84
885.798	10725.38
886.115	10683.35
886.432	10677.47
886.75	10640.41
887.067	10617.36
887.383	10621.66
887.7	10645.84
888.017	10622.33
888.334	10607.42
888.651	10502.79
888.967	10432.51
889.284	10509.79
889.6	10429.8
889.917	10386.86
890.233	10367.65
890.55	10283.59
890.866	10279.97
891.182	10305.05
891.498	10252.63
891.815	10198.84
892.131	10122.69
892.447	10163.14
892.763	10124.27
893.079	10126.3
893.395	10074.33
893.71	9992.75
894.026	10056.02
894.342	9979.86
894.657	9890.15
894.973	9887.89
895.289	9825.29
895.604	9904.39
895.92	9723.83
896.235	9720.66
896.55	9758.85
896.865	9682.25
897.181	9712.3
897.496	9661.23
897.811	9578.52
898.126	9591.63
898.441	9541.91
898.756	9523.38
899.071	9508.46
899.386	9498.75
899.7	9345.98
900.015	9317.06
900.33	9259.88
900.644	9313.89
900.959	9284.74
901.273	9253.78
901.588	9247.45
901.902	9151.64
902.216	9148.93
902.531	9116.61
902.845	9108.7
903.159	9008.14
903.473	9019.66
903.787	8933.34
904.101	8868.48
904.415	8914.81
904.729	8869.39
905.042	8808.6
905.356	8807.24
905.67	8798.2
905.984	8742.61
906.297	8696.73
906.611	8678.2
906.924	8642.05
907.237	8605.89
907.551	8518.89
907.864	8533.58
908.177	8580.13
908.491	8463.75
908.804	8402.96
909.117	8378.78
909.43	8322.51
909.743	8244.09
910.056	8244.32
910.368	8273.69
910.681	8237.76
910.994	8173.58
911.307	8150.08
911.619	8118.22
911.932	8149.4
912.244	8014.94
912.557	8031.44
912.869	8004.55
913.181	7972.69
913.494	7922.07
913.806	7908.51
914.118	7894.72
914.43	7817.21
914.742	7798.91
915.054	7718.91
915.366	7672.35
915.678	7642.53
915.99	7704.22
916.302	7565.92
916.613	7583.09
916.925	7575.41
917.236	7552.13
917.548	7505.58
917.859	7473.72
918.171	7417.67
918.482	7345.81
918.794	7355.3
919.105	7426.03
919.416	7308.07
919.727	7287.51
920.038	7221.97
920.349	7212.71
920.66	7207.51
920.971	7161.41
921.282	7159.83
921.593	7103.1
921.903	7115.99
922.214	7036.67
922.525	7014.74
922.835	6973.39
923.146	6976.1
923.456	6901.98
923.767	6900.4
924.077	6877.57
924.387	6836.9
924.697	6772.94
925.008	6781.76
925.318	6798.93
925.628	6734.53
925.938	6730.23
926.248	6694.08
926.558	6649.56
926.867	6594.64
927.177	6611.14
927.487	6591.25
927.796	6603
928.106	6553.74
928.416	6506.74
928.725	6457.25
929.034	6431.48
929.344	6426.51
929.653	6381.77
929.962	6346.74
930.271	6318.49
930.581	6313.52
930.89	6243.24
931.199	6224.71
931.508	6224.26
931.817	6264.48
932.125	6182.22
932.434	6218.38
932.743	6098.16
933.051	6086.86
933.36	6090.48
933.669	6052.51
933.977	6044.15
934.286	6039.4
934.594	6039.18
934.902	5986.98
935.21	5925.96
935.519	5934.32
935.827	5913.53
936.135	5902.68
936.443	5823.82
936.751	5764.83
937.059	5815.23
937.367	5798.96
937.674	5722.12
937.982	5734.1
938.29	5724.61
938.597	5698.17
938.905	5612.3
939.213	5615.91
939.52	5629.92
939.827	5551.73
940.135	5527.33
940.442	5492.07
940.749	5479.64
941.056	5494.78
941.363	5466.99
941.67	5436.26
941.977	5406.2
942.284	5348.35
942.591	5376.14
942.898	5319.2
943.205	5275.36
943.511	5285.98
943.818	5263.6
944.125	5251.63
944.431	5227
944.738	5191.74
945.044	5124.4
945.35	5111.52
945.657	5113.55
945.963	5085.98
946.269	5052.76
946.575	5154.45
946.881	5038.3
947.187	5014.8
947.493	5009.6
947.799	5023.38
948.105	4947.23
948.41	4923.5
948.716	4949.71
949.022	4932.77
949.327	4884.18
949.633	4834.24
949.938	4856.38
950.244	4809.38
950.549	4805.99
950.854	4754.69
951.16	4773.67
951.465	4692.09
951.77	4725.31
952.075	4710.4
952.38	4662.72
952.685	4670.85
952.99	4669.5
953.294	4624.53
953.599	4585.2
953.904	4576.84
954.209	4532.78
954.513	4551.98
954.818	4538.65
955.122	4472.21
955.426	4448.48
955.731	4438.54
956.035	4423.63
956.339	4451.87
956.643	4405.55
956.948	4362.39
957.252	4361.93
957.556	4314.7
957.86	4325.1
958.163	4311.54
958.467	4284.42
958.771	4254.59
959.075	4285.78
959.378	4220.47
959.682	4242.61
959.985	4160.36
960.289	4135.5
960.592	4166.91
960.896	4167.81
961.199	4112.9
961.502	4081.71
961.805	4113.58
962.108	4014.6
962.411	4041.04
962.714	4047.82
963.017	4031.55
963.32	4009.63
963.623	3970.98
963.926	3996.97
964.228	3930.08
964.531	3919.46
964.833	3916.75
965.136	3864.09
965.438	3873.13
965.741	3843.3
966.043	3836.75
966.345	3825.45
966.648	3817.31
966.95	3772.8
967.252	3765.79
967.554	3773.93
967.856	3756.98
968.158	3708.84
968.46	3724.89
968.761	3668.62
969.063	3692.8
969.365	3634.72
969.666	3691.22
969.968	3618
970.269	3589.3
970.571	3587.26
970.872	3568.96
971.174	3602.86
971.475	3537.55
971.776	3498
972.077	3490.54
972.378	3478.34
972.679	3497.78
972.98	3470.21
973.281	3431.34
973.582	3432.24
973.883	3429.3
974.183	3427.04
974.484	3386.82
974.785	3394.5
975.085	3335.52
975.386	3368.97
975.686	3345.91
975.986	3302.53
976.287	3286.03
976.587	3305.24
976.887	3248.74
977.187	3295.07
977.487	3246.03
977.787	3246.26
978.087	3261.62
978.387	3152.7
978.687	3210.78
978.987	3196.99
979.286	3174.17
979.586	3148.18
979.885	3145.47
980.185	3087.62
980.484	3093.72
980.784	3144.79
981.083	3065.7
981.382	3096.66
981.682	3033.15
981.981	3073.38
982.28	3044
982.579	2994.51
982.878	3004.68
983.177	2970.11
983.475	2989.54
983.774	2958.35
984.073	2947.51
984.372	2904.8
984.67	2914.06
984.969	2893.95
985.267	2881.29
985.566	2874.74
985.864	2854.63
986.162	2861.86
986.461	2821.86
986.759	2819.83
987.057	2812.14
987.355	2770.11
987.653	2766.04
987.951	2736.21
988.249	2727.85
988.547	2761.3
988.844	2770.56
989.142	2736.21
989.44	2702.99
989.737	2691.02
990.035	2695.31
990.332	2682.88
990.63	2668.64
990.927	2653.5
991.224	2653.73
991.521	2616.89
991.819	2632.04
992.116	2620.74
992.413	2592.26
992.71	2579.16
993.006	2530.34
993.303	2557.46
993.6	2548.42
993.897	2553.62
994.193	2509.55
994.49	2491.93
994.787	2501.19
995.083	2503.45
995.379	2462.55
995.676	2460.97
995.972	2407.86
996.268	2463
996.565	2415.32
996.861	2422.55
997.157	2338.03
997.453	2385.94
997.749	2381.87
998.044	2386.84
998.34	2335.77
998.636	2313.85
998.932	2326.28
999.227	2310.69
999.523	2303
999.818	2278.6
1000.114	2292.16
1000.409	2272.95
1000.704	2260.97
1001	2198.15
1001.295	2193.18
1001.59	2230.46
1001.885	2202.22
1002.18	2186.4
1002.475	2156.34
1002.77	2175.55
1003.065	2141.2
1003.359	2150.01
1003.654	2136
1003.949	2091.48
1004.243	2098.26
1004.538	2096.91
1004.832	2104.14
1005.127	2040.19
1005.421	2072.5
1005.715	2039.28
1006.009	2041.77
1006.304	1993.63
1006.598	2001.54
1006.892	2007.19
1007.186	2013.75
1007.48	1992.96
1007.773	1971.04
1008.067	1947.53
1008.361	1925.16
1008.655	1939.17
1008.948	1914.77
1009.242	1917.03
1009.535	1871.38
1009.829	1866.86
1010.122	1869.8
1010.415	1879.51
1010.708	1860.3
1011.001	1841.32
1011.295	1821.21
1011.588	1828.67
1011.881	1818.95
1012.173	1816.01
1012.466	1778.95
1012.759	1779.4
1013.052	1768.1
1013.344	1727.88
1013.637	1743.7
1013.93	1738.95
1014.222	1717.71
1014.514	1721.1
1014.807	1723.58
1015.099	1693.98
1015.391	1717.94
1015.683	1676.58
1015.976	1661.21
1016.268	1671.16
1016.56	1651.95
1016.851	1635.45
1017.143	1632.51
1017.435	1628.22
1017.727	1621.89
1018.018	1597.49
1018.31	1604.94
1018.602	1598.16
1018.893	1573.98
1019.185	1544.83
1019.476	1529.69
1019.767	1551.84
1020.058	1518.84
1020.35	1501.9
1020.641	1499.64
1020.932	1493.08
1021.223	1492.63
1021.514	1487.88
1021.804	1457.83
1022.095	1475.46
1022.386	1437.72
1022.677	1434.55
1022.967	1450.82
1023.258	1424.38
1023.548	1435
1023.839	1373.54
1024.129	1404.5
1024.419	1377.61
1024.709	1379.41
1025	1361.79
1025.29	1343.03
1025.58	1348.91
1025.87	1321.56
1026.16	1296.48
1026.449	1344.16
1026.739	1289.92
1027.029	1310.26
1027.319	1301.45
1027.608	1308.45
1027.898	1267.55
1028.187	1286.99
1028.477	1253.99
1028.766	1204.28
1029.055	1261.9
1029.344	1234.33
1029.634	1239.76
1029.923	1230.04
1030.212	1218.29
1030.501	1200.66
1030.79	1197.5
1031.078	1180.77
1031.367	1186.42
1031.656	1175.12
1031.945	1152.98
1032.233	1153.2
1032.522	1159.98
1032.81	1151.62
1033.099	1119.76
1033.387	1117.72
1033.675	1105.52
1033.963	1115.69
1034.251	1082.92
1034.54	1069.14
1034.828	1082.92
1035.116	1100.78
1035.403	1055.35
1035.691	1054.45
1035.979	1049.48
1036.267	1063.04
1036.554	1074.34
1036.842	1034.56
1037.129	1046.54
1037.417	1002.25
1037.704	1044.96
1037.992	1030.95
1038.279	993.89
1038.566	1018.74
1038.853	1018.74
1039.14	1018.74
