Data from hue_160_FLMS001491_00039.txt Node
Date: Tue Feb 07 16:51:07 GMT 2017
User: dcchb
Spectrometer: FLMS00149
Trigger mode: 0
Integration Time (sec): 2.000000E-2
Scans to average: 10
Electric dark correction enabled: true
Nonlinearity correction enabled: false
Boxcar width: 0
XAxis mode: Wavelengths
Number of Pixels in Spectrum: 2048
>>>>>Begin Spectral Data<<<<<
341.393	-6.57
341.776	-6.57
342.16	-6.57
342.543	-54.25
342.927	-61.93
343.31	-66.91
343.693	-53.35
344.077	-72.55
344.46	-66.91
344.843	-46.11
345.226	-52.22
345.61	-18.09
345.993	-19.45
346.376	-9.05
346.759	-3.4
347.142	24.84
347.525	44.96
347.908	58.29
348.291	69.14
348.674	91.28
349.057	119.53
349.44	129.93
349.823	145.97
350.206	162.24
350.588	190.94
350.971	202.24
351.354	226.19
351.737	225.06
352.119	253.09
352.502	275.91
352.884	264.39
353.267	296.93
353.65	283.37
354.032	274.78
354.414	299.19
354.797	336.47
355.179	321.11
355.562	292.41
355.944	340.99
356.326	326.53
356.709	319.07
357.091	360.88
357.473	334.21
357.855	347.32
358.238	346.19
358.62	329.24
359.002	339.86
359.384	341.9
359.766	330.15
360.148	336.93
360.53	344.16
360.912	338.96
361.294	334.89
361.676	325.85
362.057	340.99
362.439	335.34
362.821	322.69
363.203	327.89
363.584	325.63
363.966	311.39
364.348	311.39
364.729	323.14
365.111	318.62
365.493	327.21
365.874	303.25
366.256	312.97
366.637	317.49
367.019	321.33
367.4	310.71
367.781	317.04
368.163	301.9
368.544	319.75
368.925	303.71
369.306	317.04
369.688	296.25
370.069	306.19
370.45	297.61
370.831	303.71
371.212	282.01
371.593	302.35
371.974	311.62
372.355	321.33
372.736	296.7
373.117	298.51
373.498	335.8
373.879	309.58
374.26	296.48
374.641	316.59
375.021	310.71
375.402	305.51
375.783	340.32
376.163	341.67
376.544	315.91
376.925	305.51
377.305	310.71
377.686	317.49
378.066	318.17
378.447	311.16
378.827	314.1
379.208	322.01
379.588	319.3
379.968	339.19
380.349	331.05
380.729	331.73
381.109	333.76
381.489	310.03
381.87	351.62
382.25	309.36
382.63	328.34
383.01	316.14
383.39	347.32
383.77	333.99
384.15	338.73
384.53	341.45
384.91	361.56
385.29	342.58
385.67	346.42
386.049	347.77
386.429	365.17
386.809	354.33
387.189	342.35
387.568	341.45
387.948	365.63
388.328	335.12
388.707	365.63
389.087	342.8
389.466	351.16
389.846	350.94
390.225	366.98
390.605	354.33
390.984	365.85
391.363	369.92
391.743	355.68
392.122	373.99
392.501	352.07
392.881	346.19
393.26	363.37
393.639	354.1
394.018	374.21
394.397	376.25
394.776	374.67
395.155	360.88
395.534	370.15
395.913	373.54
396.292	384.61
396.671	389.13
397.05	364.04
397.429	384.83
397.808	380.31
398.186	388.45
398.565	392.07
398.944	394.55
399.323	364.72
399.701	385.74
400.08	383.7
400.458	382.8
400.837	393.42
401.215	399.07
401.594	389.81
401.972	395.68
402.351	397.26
402.729	382.12
403.107	388
403.486	398.85
403.864	405.62
404.242	404.72
404.62	407.43
404.999	409.47
405.377	404.04
405.755	418.73
406.133	426.87
406.511	410.37
406.889	428
407.267	425.96
407.645	419.64
408.023	421.22
408.401	443.82
408.779	419.41
409.156	440.2
409.534	433.87
409.912	444.95
410.29	438.39
410.667	449.24
411.045	445.17
411.422	463.7
411.8	447.66
412.178	455.12
412.555	456.92
412.933	465.06
413.31	461.22
413.687	449.92
414.065	458.28
414.442	473.87
414.819	479.97
415.197	484.72
415.574	476.36
415.951	491.95
416.328	508.45
416.705	500.99
417.082	458.96
417.46	474.1
417.837	526.53
418.214	521.33
418.591	501.67
418.967	503.02
419.344	510.93
419.721	520.2
420.098	527.2
420.475	508
420.852	512.06
421.228	516.36
421.605	532.63
421.982	533.98
422.358	549.12
422.735	555
423.111	538.95
423.488	538.05
423.864	538.5
424.241	561.1
424.617	561.55
424.994	534.89
425.37	549.12
425.746	550.03
426.123	574.21
426.499	591.16
426.875	577.6
427.251	582.12
427.627	590.25
428.003	593.42
428.379	609.46
428.756	596.35
429.132	602.46
429.507	619.63
429.883	599.52
430.259	606.3
430.635	629.35
431.011	609.01
431.387	639.97
431.763	636.13
432.138	627.99
432.514	642.68
432.89	648.56
433.265	665.28
433.641	653.75
434.016	665.51
434.392	661.66
434.767	704.15
435.143	702.79
435.518	688.56
435.894	702.34
436.269	691.04
436.644	721.55
437.02	707.99
437.395	721.32
437.77	716.13
438.145	735.79
438.52	728.33
438.895	750.47
439.271	762.9
439.646	756.35
440.021	764.71
440.395	760.19
440.77	781.43
441.145	757.71
441.52	805.16
441.895	792.06
442.27	801.55
442.645	808.1
443.019	808.33
443.394	792.96
443.769	804.26
444.143	813.07
444.518	816.69
444.892	824.82
445.267	836.8
445.641	834.31
446.016	823.92
446.39	867.53
446.764	835.9
447.139	841.09
447.513	837.03
447.887	866.86
448.262	869.34
448.636	879.51
449.01	882.45
449.384	884.26
449.758	906.4
450.132	910.47
450.506	911.6
450.88	908.66
451.254	931.49
451.628	934.2
452.002	943.46
452.376	954.76
452.75	979.62
453.123	989.56
453.497	965.61
453.871	978.04
454.244	983.46
454.618	1000.19
454.992	1005.38
455.365	1001.09
455.739	1031.15
456.112	1093.52
456.486	1069.11
456.859	1063.91
457.232	1075.89
457.606	1067.53
457.979	1103.46
458.352	1145.72
458.725	1141.42
459.099	1134.42
459.472	1165.83
459.845	1168.32
460.218	1176.45
460.591	1208.32
460.964	1167.64
461.337	1229.78
461.71	1257.81
462.083	1261.2
462.456	1268.43
462.829	1278.37
463.201	1287.86
463.574	1289.9
463.947	1317.69
464.32	1318.37
464.692	1347.52
465.065	1345.71
465.438	1408.31
465.81	1405.82
466.183	1419.84
466.555	1440.17
466.928	1472.72
467.3	1487.18
467.672	1526.05
468.045	1551.81
468.417	1568.76
468.789	1585.03
469.161	1631.36
469.534	1645.59
469.906	1678.81
470.278	1684.01
470.65	1696.89
471.022	1724.46
471.394	1779.83
471.766	1794.51
472.138	1852.14
472.51	1902.99
472.882	1937.79
473.253	1938.92
473.625	2010.33
473.997	2070.89
474.369	2102.08
474.74	2098.69
475.112	2162.19
475.484	2203.77
475.855	2252.13
476.227	2287.38
476.598	2398.79
476.97	2449.86
477.341	2513.82
477.713	2554.04
478.084	2609.86
478.455	2658.67
478.827	2720.59
479.198	2817.54
479.569	2819.35
479.94	2936.86
480.311	3029.28
480.682	3110.19
481.053	3208.94
481.424	3281.26
481.795	3379.56
482.166	3433.79
482.537	3534.36
482.908	3634.92
483.279	3718.31
483.65	3793.78
484.021	3886.66
484.391	4000.78
484.762	4088.69
485.133	4190.84
485.503	4291.85
485.874	4388.8
486.244	4466.76
486.615	4575.91
486.985	4702.91
487.356	4866.07
487.726	4923.02
488.097	5059.97
488.467	5177.93
488.837	5301.32
489.207	5454.31
489.578	5510.12
489.948	5597.58
490.318	5785.37
490.688	5866.5
491.058	6025.59
491.428	6137.45
491.798	6258.35
492.168	6464
492.538	6479.36
492.908	6586.71
493.278	6685.91
493.648	6792.58
494.017	6943.98
494.387	7024.66
494.757	7158.89
495.126	7336.29
495.496	7341.04
495.866	7491.77
496.235	7596.62
496.605	7715.04
496.974	7796.84
497.344	7917.74
497.713	7993.45
498.082	8117.96
498.452	8192.09
498.821	8303.72
499.19	8393.89
499.559	8443.61
499.928	8592.75
500.298	8703.94
500.667	8815.8
501.036	8766.54
501.405	8910.49
501.774	8947.1
502.143	9036.36
502.512	9139.86
502.88	9195
503.249	9272.06
503.618	9337.59
503.987	9359.97
504.356	9439.29
504.724	9563.35
505.093	9611.03
505.462	9693.52
505.83	9763.34
506.199	9806.51
506.567	9888.54
506.936	9911.36
507.304	10078.14
507.672	10085.82
508.041	10155.43
508.409	10112.71
508.777	10268.42
509.145	10301.41
509.514	10305.25
509.882	10379.15
510.25	10366.72
510.618	10442.42
510.986	10451.91
511.354	10601.52
511.722	10573.49
512.09	10712.92
512.458	10629.76
512.826	10765.13
513.193	10821.62
513.561	10835.63
513.929	10876.76
514.297	10980.26
514.664	11065.23
515.032	11034.95
515.4	11013.48
515.767	11023.2
516.135	11086.7
516.502	11047.6
516.869	11220.93
517.237	11230.88
517.604	11214.15
517.972	11203.31
518.339	11297.09
518.706	11272.23
519.073	11279.69
519.44	11336.41
519.808	11381.38
520.175	11331.44
520.542	11431.78
520.909	11421.61
521.276	11410.08
521.643	11583.18
522.009	11593.81
522.376	11549.96
522.743	11552.22
523.11	11614.14
523.477	11664.99
523.843	11669.74
524.21	11735.04
524.577	11822.73
524.943	11782.05
525.31	11790.86
525.676	11847.13
526.043	11851.88
526.409	11894.14
526.776	11939.33
527.142	11932.78
527.508	11887.13
527.874	11985.89
528.241	11910.86
528.607	11980.69
528.973	11956.28
529.339	11982.95
529.705	11933.68
530.071	12052.55
530.437	11979.56
530.803	11949.28
531.169	12062.95
531.535	11890.97
531.901	11901.59
532.267	11989.05
532.632	12020.01
532.998	11915.83
533.364	11883.29
533.73	11882.16
534.095	11924.42
534.461	11968.26
534.826	11860.01
535.192	11883.97
535.557	11902.27
535.923	11817.98
536.288	11875.15
536.653	11869.5
537.019	11643.3
537.384	11702.95
537.749	11711.77
538.114	11756.96
538.479	11641.04
538.845	11717.42
539.21	11579.79
539.575	11596.52
539.94	11522.17
540.305	11583.64
540.67	11457.99
541.034	11478.33
541.399	11481.27
541.764	11424.77
542.129	11455.5
542.494	11350.65
542.858	11342.51
543.223	11309.74
543.587	11345.22
543.952	11238.11
544.316	11206.24
544.681	11194.04
545.045	11185.91
545.41	11201.95
545.774	11091.67
546.138	11034.5
546.503	11016.19
546.867	10980.26
547.231	11057.77
547.595	11013.71
547.959	10928.51
548.324	10942.3
548.688	10840.6
549.052	10901.85
549.416	10815.29
549.779	10768.74
550.143	10705.92
550.507	10749.99
550.871	10725.58
551.235	10704.56
551.599	10689.42
551.962	10680.38
552.326	10619.37
552.689	10719.03
553.053	10562.65
553.417	10506.15
553.78	10583.44
554.143	10534.85
554.507	10540.27
554.87	10507.05
555.234	10589.31
555.597	10446.94
555.96	10468.64
556.323	10446.94
556.686	10375.76
557.05	10458.47
557.413	10411.01
557.776	10317.91
558.139	10395.42
558.502	10347.06
558.865	10341.63
559.228	10384.8
559.59	10374.85
559.953	10331.92
560.316	10376.89
560.679	10372.37
561.041	10416.66
561.404	10339.83
561.767	10378.47
562.129	10400.39
562.492	10383.22
562.854	10357.68
563.217	10334.4
563.579	10404.01
563.941	10355.42
564.304	10474.29
564.666	10403.55
565.028	10381.86
565.39	10487.62
565.753	10399.26
566.115	10462.31
566.477	10408.98
566.839	10466.38
567.201	10418.47
567.563	10488.98
567.925	10512.03
568.287	10468.19
568.648	10397.68
569.01	10563.55
569.372	10512.7
569.734	10513.83
570.095	10577.79
570.457	10570.1
570.819	10531.69
571.18	10523.1
571.542	10534.4
571.903	10564.68
572.265	10568.52
572.626	10622.08
572.987	10616.88
573.349	10634.96
573.71	10644.45
574.071	10692.59
574.432	10630.67
574.794	10590.22
575.155	10695.75
575.516	10656.43
575.877	10600.84
576.238	10604
576.599	10678.12
576.96	10633.83
577.32	10717.67
577.681	10680.38
578.042	10708.63
578.403	10726.94
578.763	10712.25
579.124	10700.27
579.485	10664.56
579.845	10722.42
580.206	10723.55
580.566	10730.1
580.927	10652.59
581.287	10754.05
581.648	10631.34
582.008	10700.95
582.368	10682.87
582.728	10742.75
583.089	10633.38
583.449	10667.73
583.809	10629.08
584.169	10630.67
584.529	10594.06
584.889	10707.95
585.249	10578.46
585.609	10653.72
585.969	10690.55
586.329	10628.63
586.688	10600.61
587.048	10611.91
587.408	10627.5
587.768	10560.39
588.127	10570.33
588.487	10569.65
588.846	10606.03
589.206	10485.81
589.565	10519.71
589.925	10545.25
590.284	10527.84
590.643	10524.68
591.003	10489.43
591.362	10532.36
591.721	10542.31
592.08	10445.36
592.44	10461.63
592.799	10430.67
593.158	10502.99
593.517	10462.08
593.876	10543.21
594.235	10429.54
594.593	10502.99
594.952	10439.49
595.311	10371.01
595.67	10448.98
596.029	10486.49
596.387	10437.23
596.746	10517.68
597.104	10447.17
597.463	10464.57
597.822	10535.53
598.18	10420.5
598.538	10447.62
598.897	10500.73
599.255	10462.99
599.613	10529.43
599.972	10467.28
600.33	10465.02
600.688	10425.02
601.046	10479.94
601.404	10486.49
601.762	10468.41
602.12	10484.91
602.478	10510.22
602.836	10453.27
603.194	10435.19
603.552	10406.27
603.91	10491.46
604.268	10402.2
604.625	10445.36
604.983	10509.54
605.341	10361.52
605.698	10467.28
606.056	10479.71
606.413	10465.93
606.771	10420.95
607.128	10416.44
607.485	10403.78
607.843	10493.27
608.2	10496.66
608.557	10510.9
608.914	10470.22
609.272	10564.45
609.629	10568.3
609.986	10574.17
610.343	10530.56
610.7	10535.08
611.057	10546.15
611.414	10516.77
611.771	10584.34
612.127	10561.52
612.484	10589.31
612.841	10527.17
613.198	10523.55
613.554	10573.95
613.911	10591.8
614.267	10577.33
614.624	10545.02
614.98	10688.97
615.337	10638.12
615.693	10599.48
616.05	10646.71
616.406	10648.75
616.762	10595.87
617.118	10622.08
617.475	10668.18
617.831	10712.47
618.187	10754.05
618.543	10745.69
618.899	10754.05
619.255	10766.03
619.611	10632.47
619.967	10710.66
620.323	10703.21
620.678	10662.08
621.034	10639.71
621.39	10694.85
621.746	10682.64
622.101	10797.44
622.457	10674.51
622.812	10683.55
623.168	10740.72
623.523	10709.08
623.879	10782.3
624.234	10708.63
624.589	10743.66
624.945	10713.6
625.3	10791.11
625.655	10730.1
626.01	10721.51
626.365	10774.17
626.72	10731.91
627.075	10676.54
627.43	10645.81
627.785	10731.46
628.14	10656.43
628.495	10679.25
628.85	10725.58
629.205	10639.48
629.559	10708.63
629.914	10656.43
630.269	10713.83
630.623	10632.93
630.978	10590.22
631.332	10621.4
631.687	10674.28
632.041	10611.68
632.396	10646.71
632.75	10564.23
633.104	10676.99
633.459	10524.45
633.813	10565.81
634.167	10562.65
634.521	10526.26
634.875	10590.22
635.229	10579.59
635.583	10498.69
635.937	10446.49
636.291	10526.26
636.645	10495.98
636.999	10473.61
637.352	10458.47
637.706	10375.31
638.06	10455.08
638.413	10426.15
638.767	10422.08
639.121	10467.28
639.474	10352.03
639.828	10326.27
640.181	10328.75
640.534	10390.45
640.888	10272.03
641.241	10206.05
641.594	10286.5
641.947	10372.59
642.301	10226.16
642.654	10327.4
643.007	10344.35
643.36	10244.24
643.713	10341.41
644.066	10294.4
644.419	10275.42
644.771	10270.45
645.124	10057.12
645.477	10095.99
645.83	10004.69
646.182	10004.47
646.535	9933.96
646.888	9905.26
647.24	10006.95
647.593	9969.89
647.945	9990.01
648.298	9930.57
648.65	9887.64
649.002	9898.26
649.355	9929.67
649.707	9882.89
650.059	9980.51
650.411	10074.98
650.763	10043.79
651.115	10194.07
651.467	10091.92
651.819	10194.75
652.171	10089.21
652.523	10110.91
652.875	10097.8
653.227	10065.26
653.578	10130.34
653.93	10117.46
654.282	10110.68
654.633	10128.99
654.985	10063.22
655.337	10084.47
655.688	10102.55
656.039	10158.36
656.391	10161.53
656.742	10176.44
657.094	10122.21
657.445	10187.51
657.796	10166.95
658.147	10084.01
658.498	10117.23
658.849	10174.86
659.2	10140.51
659.551	10106.84
659.902	10154.75
660.253	10111.81
660.604	10193.84
660.955	10157.01
661.306	10109.55
661.656	10129.66
662.007	10158.14
662.358	10165.59
662.708	10138.93
663.059	10209.43
663.409	10142.32
663.76	10220.96
664.11	10150.91
664.461	10150.45
664.811	10171.02
665.161	10225.03
665.511	10204.01
665.862	10106.61
666.212	10238.59
666.562	10186.61
666.912	10176.44
667.262	10212.6
667.612	10217.34
667.962	10212.37
668.312	10170.34
668.662	10209.43
669.011	10156.55
669.361	10206.72
669.711	10123.34
670.06	10175.09
670.41	10200.62
670.76	10060.96
671.109	10185.71
671.459	10195.2
671.808	10204.24
672.157	10162.43
672.507	10098.03
672.856	10090.57
673.205	10091.25
673.554	10105.71
673.904	10050.8
674.253	10093.96
674.602	10081.3
674.951	9975.54
675.3	9894.87
675.649	10089.89
675.998	10027.52
676.346	10048.31
676.695	10075.43
677.044	9973.73
677.393	10008.99
677.741	10014.19
678.09	9998.14
678.438	9924.7
678.787	9973.73
679.135	9992.49
679.484	9902.1
679.832	9904.58
680.181	9901.65
680.529	9925.83
680.877	9858.94
681.225	9890.8
681.573	9885.38
681.922	9817.58
682.27	9761.09
682.618	9820.07
682.966	9741.42
683.314	9776.45
683.661	9744.81
684.009	9709.79
684.357	9680.18
684.705	9696
685.053	9649.45
685.4	9665.49
685.748	9650.35
686.095	9612.61
686.443	9587.3
686.79	9512.73
687.138	9570.81
687.485	9520.19
687.832	9505.27
688.18	9568.77
688.527	9421.66
688.874	9475.89
689.221	9483.8
689.568	9416.91
689.915	9354.77
690.262	9407.87
690.609	9314.77
690.956	9261.21
691.303	9315.22
691.65	9236.81
691.997	9237.26
692.344	9154.1
692.69	9190.93
693.037	9118.62
693.383	9042.01
693.73	9092.4
694.077	8997.26
694.423	8935.57
694.769	8930.6
695.116	8983.03
695.462	8978.05
695.808	8912.52
696.155	8910.49
696.501	8878.85
696.847	8808.79
697.193	8734.9
697.539	8760.89
697.885	8678.18
698.231	8684.96
698.577	8686.76
698.923	8670.94
699.269	8564.96
699.614	8505.98
699.96	8536.94
700.306	8538.74
700.651	8464.17
700.997	8443.61
701.342	8398.41
701.688	8426.66
702.033	8384.17
702.379	8397.51
702.724	8331.74
703.069	8309.82
703.415	8230.28
703.76	8251.75
704.105	8213.78
704.45	8209.71
704.795	8102.15
705.14	8114.57
705.485	8152.54
705.83	8051.53
706.175	8109.15
706.52	8040
706.865	8029.83
707.209	7955.93
707.554	7969.72
707.899	7948.25
708.243	7936.27
708.588	7921.81
708.932	7938.99
709.277	7898.99
709.621	7888.82
709.966	7823.96
710.31	7796.39
710.654	7750.06
710.998	7764.3
711.342	7762.04
711.687	7750.52
712.031	7675.49
712.375	7692.89
712.719	7709.84
713.063	7637.07
713.407	7636.4
713.75	7621.48
714.094	7627.81
714.438	7597.07
714.782	7588.94
715.125	7548.49
715.469	7576.51
715.812	7479.34
716.156	7428.94
716.499	7474.82
716.843	7480.24
717.186	7447.93
717.53	7464.87
717.873	7450.19
718.216	7469.62
718.559	7462.84
718.902	7400.02
719.246	7414.48
719.589	7352.33
719.932	7366.57
720.275	7289.29
720.617	7361.6
720.96	7306.46
721.303	7359.11
721.646	7303.07
721.989	7299.68
722.331	7310.53
722.674	7305.33
723.016	7346.46
723.359	7296.29
723.701	7271.89
724.044	7207.93
724.386	7233.24
724.729	7280.7
725.071	7232.79
725.413	7261.04
725.755	7239.12
726.097	7161.61
726.439	7178.1
726.782	7169.51
727.124	7222.62
727.465	7230.53
727.807	7179.01
728.149	7147.14
728.491	7188.5
728.833	7213.13
729.175	7191.44
729.516	7115.28
729.858	7219.01
730.199	7201.6
730.541	7187.82
730.882	7161.15
731.224	7202.06
731.565	7117.76
731.906	7169.74
732.248	7142.17
732.589	7151.44
732.93	7133.13
733.271	7112.57
733.612	7090.65
733.953	7086.58
734.294	7143.3
734.635	7120.7
734.976	7182.62
735.317	7167.26
735.658	7074.6
735.999	7120.7
736.339	7117.76
736.68	7162.28
737.021	7162.28
737.361	7114.83
737.702	7194.6
738.042	7158.89
738.383	7138.78
738.723	7136.97
739.063	7183.07
739.404	7302.84
739.744	7165.22
740.084	7248.83
740.424	7239.12
740.764	7274.14
741.104	7274.14
741.444	7182.62
741.784	7280.25
742.124	7326.57
742.464	7318.89
742.804	7301.04
743.143	7362.05
743.483	7294.26
743.823	7356.85
744.162	7400.02
744.502	7380.58
744.841	7407.47
745.181	7482.05
745.52	7459
745.86	7523.4
746.199	7554.36
746.538	7519.11
746.877	7663.51
747.216	7645.21
747.556	7703.51
747.895	7789.16
748.234	7742.16
748.573	7809.05
748.911	7877.74
749.25	7938.08
749.589	7955.03
749.928	8014.92
750.267	8071.64
750.605	8135.59
750.944	8217.85
751.283	8227.79
751.621	8387.56
751.96	8346.89
752.298	8434.57
752.636	8546.43
752.975	8682.47
753.313	8662.13
753.651	8817.83
753.989	8828.68
754.327	8996.81
754.666	9090.37
755.004	9179.41
755.342	9336.69
755.679	9469.34
756.017	9529.45
756.355	9654.42
756.693	9734.65
757.031	9941.42
757.368	9980.06
757.706	10140.06
758.044	10244.46
758.381	10406.04
758.719	10497.56
759.056	10780.49
759.394	10796.76
759.731	10960.83
760.068	11062.07
760.405	11208.96
760.743	11409.18
761.08	11528.5
761.417	11582.28
761.754	11798.77
762.091	11973
762.428	12191.3
762.765	12214.35
763.102	12426.1
763.438	12503.39
763.775	12651.86
764.112	12907.67
764.449	13105.4
764.785	13171.84
765.122	13296.81
765.458	13412.74
765.795	13547.88
766.131	13699.96
766.467	13876.68
766.804	14019.28
767.14	14098.6
767.476	14303.34
767.812	14349.89
768.148	14478.7
768.485	14638.25
768.821	14720.05
769.157	14803.21
769.492	14905.58
769.828	15068.29
770.164	15027.16
770.5	15145.12
770.836	15351.67
771.171	15305.35
771.507	15549.63
771.842	15544.44
772.178	15627.82
772.513	15717.99
772.849	15824.2
773.184	15768.61
773.519	15971.54
773.855	15941.04
774.19	16107.13
774.525	16062.39
774.86	16289.73
775.195	16226.23
775.53	16233.68
775.865	16316.39
776.2	16362.04
776.535	16306.9
776.87	16403.4
777.205	16354.58
777.539	16450.85
777.874	16579.89
778.209	16562.71
778.543	16454.02
778.878	16531.08
779.212	16555.71
779.547	16628.48
779.881	16621.24
780.215	16599.32
780.55	16718.87
780.884	16658.98
781.218	16689.04
781.552	16713.67
781.886	16653.56
782.22	16631.19
782.554	16708.02
782.888	16580.34
783.222	16588.48
783.556	16611.3
783.889	16679.77
784.223	16524.07
784.557	16573.34
784.89	16631.19
785.224	16528.14
785.557	16452.66
785.891	16622.37
786.224	16559.1
786.558	16632.99
786.891	16462.38
787.224	16397.07
787.557	16441.81
787.891	16475.94
788.224	16367.24
788.557	16457.63
788.89	16431.42
789.223	16462.38
789.556	16323.62
789.888	16379.44
790.221	16343.51
790.554	16290.86
790.887	16242.72
791.219	16274.81
791.552	16185.55
791.884	16258.54
792.217	16110.52
792.549	16124.31
792.882	16062.84
793.214	15984.88
793.546	16077.53
793.879	15990.53
794.211	15837.31
794.543	15871.88
794.875	15932.67
795.207	15896.52
795.539	15848.16
795.871	15868.04
796.203	15792.34
796.535	15686.58
796.867	15658.56
797.198	15679.57
797.53	15706.24
797.862	15540.14
798.193	15572.68
798.525	15474.83
798.856	15525.91
799.188	15383.99
799.519	15379.24
799.85	15292.92
800.182	15315.29
800.513	15358.23
800.844	15212.92
801.175	15301.28
801.506	15322.29
801.837	15174.73
802.168	15085.24
802.499	15141.73
802.83	14980.16
803.161	14996.2
803.491	15043.88
803.822	15054.73
804.153	14918.24
804.483	14832.36
804.814	14795.76
805.145	14767.96
805.475	14785.81
805.805	14701.97
806.136	14704.46
806.466	14696.77
806.796	14648.41
807.126	14569.77
807.457	14502.66
807.787	14548.53
808.117	14432.15
808.447	14390.12
808.777	14567.96
809.107	14417.91
809.436	14385.14
809.766	14351.92
810.096	14322.55
810.426	14283
810.755	14190.57
811.085	14213.4
811.414	14224.47
811.744	14161.87
812.073	14161.87
812.403	14129.11
812.732	14035.78
813.061	14073.51
813.39	14086.62
813.719	14028.09
814.049	14106.06
814.378	14007.75
814.707	13937.02
815.036	13879.85
815.365	13898.6
815.693	13720.76
816.022	13852.73
816.351	13746.74
816.68	13631.27
817.008	13677.82
817.337	13615.9
817.665	13591.04
817.994	13699.96
818.322	13676.69
818.651	13544.71
818.979	13495
819.307	13635.79
819.636	13538.61
819.964	13519.63
820.292	13521.66
820.62	13457.26
820.948	13464.04
821.276	13525.05
821.604	13401.89
821.932	13527.09
822.259	13497.26
822.587	13472.4
822.915	13427.66
823.243	13504.72
823.57	13410.25
823.898	13437.37
824.225	13378.62
824.553	13367.09
824.88	13488.9
825.207	13431.05
825.535	13459.74
825.862	13459.74
826.189	13472.4
826.516	13464.72
826.843	13483.7
827.17	13456.58
827.497	13524.38
827.824	13561.66
828.151	13506.52
828.478	13456.58
828.805	13561.44
829.131	13419.07
829.458	13551.95
829.785	13377.71
830.111	13464.94
830.438	13533.87
830.764	13446.19
831.09	13542.91
831.417	13357.37
831.743	13444.38
832.069	13421.1
832.395	13417.03
832.722	13361.44
833.048	13363.93
833.374	13405.06
833.7	13318.05
834.026	13318.96
834.351	13410.25
834.677	13291.84
835.003	13286.64
835.329	13384.27
835.654	13265.17
835.98	13290.26
836.306	13266.3
836.631	13318.96
836.956	13258.62
837.282	13304.27
837.607	13124.61
837.932	13175.46
838.258	13174.1
838.583	13123.03
838.908	13075.35
839.233	13099.98
839.558	13071.28
839.883	13043.03
840.208	13002.81
840.533	13071.96
840.858	12978.63
841.182	13036.71
841.507	13009.14
841.832	12946.09
842.156	12963.03
842.481	12889.82
842.805	12883.71
843.13	12862.47
843.454	12768.01
843.778	12746.77
844.103	12758.97
844.427	12716.04
844.751	12718.75
845.075	12663.61
845.399	12720.1
845.723	12477.62
846.047	12612.76
846.371	12441.69
846.695	12489.37
847.019	12506.55
847.343	12365.76
847.666	12272.43
847.99	12227.23
848.313	12200.8
848.637	12127.58
848.96	12178.2
849.284	12125.32
849.607	12003.29
849.931	11998.31
850.254	11885.55
850.577	11851.2
850.9	11700.47
851.223	11792.67
851.546	11695.5
851.869	11632.67
852.192	11677.42
852.515	11556.29
852.838	11546.57
853.161	11547.48
853.483	11422.06
853.806	11390.42
854.129	11357.88
854.451	11370.53
854.774	11311.78
855.096	11213.7
855.419	11253.02
855.741	11198.11
856.063	11178.67
856.385	11126.47
856.708	11130.09
857.03	11081.28
857.352	11074.27
857.674	10993.82
857.996	10936.2
858.318	10956.31
858.64	10912.92
858.961	10855.75
859.283	10812.81
859.605	10812.81
859.926	10796.31
860.248	10815.29
860.57	10716.99
860.891	10739.82
861.212	10672.93
861.534	10643.32
861.855	10635.64
862.176	10574.62
862.498	10580.05
862.819	10615.98
863.14	10548.64
863.461	10594.06
863.782	10531.46
864.103	10497.56
864.424	10446.94
864.745	10514.74
865.065	10425.47
865.386	10417.79
865.707	10352.26
866.027	10334.63
866.348	10340.28
866.668	10344.35
866.989	10309.55
867.309	10263.44
867.63	10282.2
867.95	10318.81
868.27	10277.23
868.59	10238.81
868.91	10237.23
869.23	10207.4
869.55	10185.48
869.87	10191.58
870.19	10154.07
870.51	10153.84
870.83	10139.83
871.15	10122.21
871.469	10075.43
871.789	10122.21
872.109	10049.21
872.428	10064.58
872.748	10081.75
873.067	10021.87
873.386	10011.7
873.706	9994.07
874.025	9943.91
874.344	9851.03
874.663	9902.78
874.982	9914.53
875.301	9901.42
875.62	9885.38
875.939	9834.98
876.258	9867.07
876.577	9821.2
876.896	9799.95
877.214	9786.85
877.533	9794.98
877.852	9830.01
878.17	9792.04
878.489	9787.07
878.807	9751.59
879.125	9712.05
879.444	9716.34
879.762	9654.65
880.08	9719.28
880.398	9670.24
880.716	9603.35
881.034	9632.05
881.352	9647.87
881.67	9559.51
881.988	9483.13
882.306	9579.17
882.624	9475.67
882.941	9458.72
883.259	9461.43
883.577	9401.77
883.894	9377.59
884.212	9445.39
884.529	9435.67
884.846	9347.31
885.164	9364.49
885.481	9336.01
885.798	9303.92
886.115	9232.29
886.432	9266.41
886.75	9211.27
887.067	9251.72
887.383	9157.26
887.7	9153.87
888.017	9179.86
888.334	9106.41
888.651	9147.32
888.967	9036.81
889.284	9019.86
889.6	9005.17
889.917	8888.34
890.233	8970.82
890.55	8947.77
890.866	8902.12
891.182	8889.92
891.498	8894.67
891.815	8860.77
892.131	8836.82
892.447	8763.37
892.763	8759.98
893.079	8760.21
893.395	8718.4
893.71	8721.11
894.026	8636.14
894.342	8653.54
894.657	8608.12
894.973	8560.66
895.289	8572.19
895.604	8574
895.92	8464.62
896.235	8429.37
896.55	8473.66
896.865	8436.15
897.181	8404.06
897.496	8345.98
897.811	8369.71
898.126	8270.95
898.441	8310.05
898.756	8203.84
899.071	8223.72
899.386	8221.46
899.7	8097.4
900.015	8087.23
900.33	8052.43
900.644	8005.2
900.959	8082.26
901.273	7986.44
901.588	7893.11
901.902	7894.02
902.216	7881.36
902.531	7897.41
902.845	7839.55
903.159	7795.04
903.473	7783.28
903.787	7743.96
904.101	7698.31
904.415	7706.68
904.729	7631.42
905.042	7612.22
905.356	7651.08
905.67	7502.61
905.984	7611.31
906.297	7494.93
906.611	7529.05
906.924	7453.8
907.237	7461.03
907.551	7409.06
907.864	7355.27
908.177	7343.97
908.491	7330.41
908.804	7273.24
909.117	7273.69
909.43	7230.3
909.743	7137.2
910.056	7184.88
910.368	7168.38
910.681	7091.55
910.994	7118.44
911.307	7054.04
911.619	6994.15
911.932	7063.53
912.244	6914.15
912.557	6968.84
912.869	6887.94
913.181	6862.86
913.494	6930.65
913.806	6787.38
914.118	6780.37
914.43	6736.31
914.742	6758.68
915.054	6706.25
915.366	6696.31
915.678	6645.46
915.99	6613.82
916.302	6612.92
916.613	6545.8
916.925	6534.73
917.236	6517.33
917.548	6457.22
917.859	6477.1
918.171	6432.36
918.482	6401.85
918.794	6392.81
919.105	6372.47
919.416	6328.86
919.727	6292.48
920.038	6269.43
920.349	6230.56
920.66	6242.76
920.971	6208.41
921.282	6181.52
921.593	6188.98
921.903	6108.75
922.214	6122.08
922.525	6142.88
922.835	6009.09
923.146	6039.38
923.456	6004.12
923.767	5993.05
924.077	6013.16
924.387	5963.67
924.697	5916.44
925.008	5908.08
925.318	5882.09
925.628	5818.36
925.938	5820.17
926.248	5757.35
926.558	5812.71
926.867	5697.46
927.177	5724.36
927.487	5725.03
927.796	5650.91
928.106	5696.79
928.416	5613.85
928.725	5647.97
929.034	5581.99
929.344	5570.46
929.653	5523.68
929.962	5514.42
930.271	5424.02
930.581	5450.01
930.89	5483.23
931.199	5421.99
931.508	5382.67
931.817	5374.99
932.125	5415.21
932.434	5388.32
932.743	5311.71
933.051	5333.63
933.36	5241.66
933.669	5269.23
933.977	5212.96
934.286	5247.76
934.594	5168.21
934.902	5100.42
935.21	5169.57
935.519	5135.9
935.827	5125.73
936.135	5090.93
936.443	5028.55
936.751	5020.64
937.059	5034.43
937.367	5004.6
937.674	5029.01
937.982	4964.15
938.29	4950.36
938.597	4922.12
938.905	4896.13
939.213	4868.78
939.52	4839.63
939.827	4838.95
940.135	4828.56
940.442	4804.38
940.749	4779.52
941.056	4780.2
941.363	4725.96
941.67	4716.7
941.977	4663.37
942.284	4654.55
942.591	4641.22
942.898	4596.93
943.205	4643.25
943.511	4609.36
943.818	4596.48
944.125	4525.06
944.431	4516.25
944.738	4536.14
945.044	4522.35
945.35	4465.18
945.657	4457.95
945.963	4505.86
946.269	4433.54
946.575	4490.94
946.881	4357.84
947.187	4376.82
947.493	4343.15
947.799	4310.38
948.105	4304.73
948.41	4290.95
948.716	4269.03
949.022	4257.5
949.327	4223.6
949.633	4232.64
949.938	4185.64
950.244	4203.94
950.549	4182.02
950.854	4172.76
951.16	4139.54
951.465	4115.81
951.77	4114.23
952.075	4087.11
952.38	4053.66
952.685	4089.6
952.99	4024.74
953.294	4014.34
953.599	3989.71
953.904	3975.25
954.209	3964.63
954.513	3971.41
954.818	3924.18
955.122	3954.46
955.426	3904.29
955.731	3854.57
956.035	3886.89
956.339	3867.68
956.643	3829.04
956.948	3818.87
957.252	3808.7
957.556	3761.92
957.86	3759.66
958.163	3733
958.467	3727.57
958.771	3719.66
959.075	3681.02
959.378	3710.4
959.682	3663.62
959.985	3668.14
960.289	3657.29
960.592	3621.81
960.896	3613.45
961.199	3556.28
961.502	3580.46
961.805	3513.34
962.108	3515.6
962.411	3548.82
962.714	3521.02
963.017	3494.58
963.32	3506.56
963.623	3491.19
963.926	3462.27
964.228	3454.58
964.531	3406.45
964.833	3422.95
965.136	3397.41
965.438	3395.38
965.741	3340.01
966.043	3335.94
966.345	3316.06
966.648	3298.66
966.95	3346.56
967.252	3275.15
967.554	3277.64
967.856	3249.84
968.158	3234.03
968.46	3246.23
968.761	3192.67
969.063	3213.46
969.365	3191.77
969.666	3181.6
969.968	3185.21
970.269	3138.89
970.571	3150.86
970.872	3128.49
971.174	3085.78
971.475	3127.59
971.776	3060.92
972.077	3083.97
972.378	3074.48
972.679	3036.74
972.98	3013.92
973.281	3027.02
973.582	3002.62
973.883	3021.15
974.183	2989.51
974.484	2957.2
974.785	2912
975.085	2931.66
975.386	2953.81
975.686	2949.29
975.986	2887.37
976.287	2933.02
976.587	2862.06
976.887	2842.85
977.187	2856.41
977.487	2818.22
977.787	2857.09
978.087	2832.23
978.387	2777.54
978.687	2798.56
978.987	2787.48
979.286	2758.11
979.586	2749.29
979.885	2733.47
980.185	2729.18
980.484	2719.46
980.784	2722.17
981.083	2679.46
981.382	2670.88
981.682	2684.66
981.981	2671.33
982.28	2646.92
982.579	2619.58
982.878	2620.48
983.177	2613.7
983.475	2592.69
983.774	2578.22
984.073	2573.03
984.372	2562.4
984.67	2583.65
984.969	2553.59
985.267	2510.43
985.566	2516.53
985.864	2525.12
986.162	2506.59
986.461	2475.63
986.759	2493.03
987.057	2452.8
987.355	2445.57
987.653	2441.96
987.951	2444.89
988.249	2423.88
988.547	2414.84
988.844	2399.92
989.142	2428.85
989.44	2367.61
989.737	2392.01
990.035	2373.48
990.332	2345.01
990.63	2319.92
990.927	2340.72
991.224	2330.32
991.521	2343.88
991.819	2280.6
992.116	2269.53
992.413	2294.61
992.71	2264.56
993.006	2222.07
993.303	2250.32
993.6	2215.52
993.897	2226.59
994.193	2239.02
994.49	2237.44
994.787	2190.66
995.083	2197.89
995.379	2189.53
995.676	2162.64
995.972	2181.4
996.268	2169.65
996.565	2098.69
996.861	2118.8
997.157	2082.87
997.453	2097.78
997.749	2112.7
998.044	2039.25
998.34	2083.55
998.636	2070.67
998.932	2027.05
999.227	2045.36
999.523	2036.09
999.818	2012.14
1000.114	2000.61
1000.409	1994.96
1000.704	1954.74
1001	1973.04
1001.295	1953.15
1001.59	1968.75
1001.885	1986.83
1002.18	1945.7
1002.475	1931.46
1002.77	1903.66
1003.065	1887.17
1003.359	1902.53
1003.654	1892.82
1003.949	1877.9
1004.243	1846.94
1004.538	1836.1
1004.832	1822.54
1005.127	1834.51
1005.421	1819.15
1005.715	1802.65
1006.009	1790.45
1006.304	1789.32
1006.598	1794.29
1006.892	1733.27
1007.186	1757.23
1007.48	1745.93
1007.773	1736.66
1008.067	1746.38
1008.361	1716.32
1008.655	1696.44
1008.948	1690.11
1009.242	1689.43
1009.535	1692.37
1009.829	1674.52
1010.122	1655.08
1010.415	1660.73
1010.708	1657.8
1011.001	1628.64
1011.295	1615.08
1011.588	1605.14
1011.881	1601.07
1012.173	1620.28
1012.466	1608.31
1012.759	1571.92
1013.052	1576.22
1013.344	1564.01
1013.637	1573.73
1013.93	1533.5
1014.222	1551.81
1014.514	1517.23
1014.807	1534.63
1015.099	1504.13
1015.391	1485.82
1015.683	1499.38
1015.976	1501.87
1016.268	1483.56
1016.56	1463
1016.851	1458.03
1017.143	1446.73
1017.435	1441.98
1017.727	1427.74
1018.018	1427.97
1018.31	1379.84
1018.602	1413.06
1018.893	1411.47
1019.185	1398.14
1019.476	1382.32
1019.767	1395.2
1020.058	1357.24
1020.35	1355.66
1020.641	1330.57
1020.932	1336.45
1021.223	1309.1
1021.514	1334.87
1021.804	1284.25
1022.095	1300.74
1022.386	1293.06
1022.677	1270.01
1022.967	1286.05
1023.258	1247.41
1023.548	1234.98
1023.839	1250.8
1024.129	1245.15
1024.419	1244.92
1024.709	1224.13
1025	1231.82
1025.29	1201.54
1025.58	1193.85
1025.87	1197.69
1026.16	1192.72
1026.449	1216
1026.739	1176.9
1027.029	1166.06
1027.319	1169.22
1027.608	1193.17
1027.898	1150.01
1028.187	1134.65
1028.477	1116.11
1028.766	1154.08
1029.055	1084.03
1029.344	1136
1029.634	1123.12
1029.923	1111.14
1030.212	1117.24
1030.501	1116.34
1030.79	1054.87
1031.078	1069.34
1031.367	1070.01
1031.656	1045.83
1031.945	1051.26
1032.233	1040.64
1032.522	1042.9
1032.81	1025.5
1033.099	1021.88
1033.387	1039.96
1033.675	1009.9
1033.963	1013.74
1034.251	1009.9
1034.54	1012.16
1034.828	994.99
1035.116	993.41
1035.403	1007.87
1035.691	950.92
1035.979	982.33
1036.267	945.05
1036.554	957.02
1036.842	921.54
1037.129	921.77
1037.417	916.57
1037.704	926.74
1037.992	924.26
1038.279	912.5
1038.566	892.17
1038.853	892.17
1039.14	892.17
