Data from hue_180_FLMS001491_00018.txt Node
Date: Tue Feb 07 16:46:38 GMT 2017
User: dcchb
Spectrometer: FLMS00149
Trigger mode: 0
Integration Time (sec): 2.000000E-2
Scans to average: 10
Electric dark correction enabled: true
Nonlinearity correction enabled: false
Boxcar width: 0
XAxis mode: Wavelengths
Number of Pixels in Spectrum: 2048
>>>>>Begin Spectral Data<<<<<
341.393	-7.47
341.776	-7.47
342.16	-7.47
342.543	-58.54
342.927	-53.12
343.31	-76.62
343.693	-104.87
344.077	-75.04
344.46	-49.28
344.843	-43.18
345.226	-33.46
345.61	-29.84
345.993	-21.71
346.376	5.18
346.759	14.9
347.142	23.94
347.525	53.09
347.908	61.68
348.291	72.98
348.674	92.41
349.057	109.81
349.44	138.29
349.823	140.1
350.206	176.7
350.588	208.57
350.971	207.21
351.354	214.44
351.737	234.56
352.119	258.96
352.502	263.93
352.884	294.67
353.267	268.45
353.65	313.88
354.032	286.31
354.414	320.43
354.797	311.39
355.179	324.27
355.562	319.3
355.944	317.94
356.326	349.36
356.709	334.44
357.091	331.5
357.473	348
357.855	332.18
358.238	347.1
358.62	345.06
359.002	310.49
359.384	339.86
359.766	329.47
360.148	325.85
360.53	351.62
360.912	356.13
361.294	318.4
361.676	347.77
362.057	325.4
362.439	333.99
362.821	324.72
363.203	333.54
363.584	317.49
363.966	336.7
364.348	329.92
364.729	334.89
365.111	329.92
365.493	313.42
365.874	311.62
366.256	315.68
366.637	310.03
367.019	297.83
367.4	316.59
367.781	308.45
368.163	328.11
368.544	333.31
368.925	317.49
369.306	294.44
369.688	310.94
370.069	318.17
370.45	306.64
370.831	308.68
371.212	298.51
371.593	330.6
371.974	312.29
372.355	312.29
372.736	312.52
373.117	304.16
373.498	278.17
373.879	313.65
374.26	298.28
374.641	320.43
375.021	306.87
375.402	330.82
375.783	331.5
376.163	328.11
376.544	337.83
376.925	289.92
377.305	336.93
377.686	318.62
378.066	316.36
378.447	334.44
378.827	317.94
379.208	336.93
379.588	340.32
379.968	324.27
380.349	340.09
380.729	319.98
381.109	318.85
381.489	339.19
381.87	325.4
382.25	346.64
382.63	330.6
383.01	343.03
383.39	359.52
383.77	317.49
384.15	353.87
384.53	363.14
384.91	336.25
385.29	345.06
385.67	362.01
386.049	357.94
386.429	358.85
386.809	366.08
387.189	357.94
387.568	349.81
387.948	345.97
388.328	362.69
388.707	359.98
389.087	370.37
389.466	354.1
389.846	340.09
390.225	369.02
390.605	389.13
390.984	383.48
391.363	367.66
391.743	377.38
392.122	345.97
392.501	374.89
392.881	369.47
393.26	382.35
393.639	382.35
394.018	393.2
394.397	382.12
394.776	406.75
395.155	403.82
395.534	399.75
395.913	382.57
396.292	401.78
396.671	383.25
397.05	390.03
397.429	402.01
397.808	370.82
398.186	404.72
398.565	410.6
398.944	381.9
399.323	399.75
399.701	407.43
400.08	406.98
400.458	421.44
400.837	404.72
401.215	430.26
401.594	425.74
401.972	423.48
402.351	441.1
402.729	428.45
403.107	439.07
403.486	427.09
403.864	423.25
404.242	437.49
404.62	442.91
404.999	424.38
405.377	420.31
405.755	446.53
406.133	436.58
406.511	457.37
406.889	461.67
407.267	475
407.645	483.36
408.023	479.3
408.401	492.18
408.779	500.54
409.156	495.57
409.534	489.01
409.912	492.18
410.29	506.19
410.667	516.81
411.045	513.64
411.422	524.72
411.8	545.28
412.178	537.37
412.555	545.51
412.933	542.57
413.31	564.49
413.687	571.5
414.065	571.04
414.442	590.48
414.819	579.18
415.197	587.99
415.574	591.38
415.951	620.53
416.328	623.02
416.705	606.75
417.082	624.83
417.46	640.65
417.837	634.32
418.214	628.67
418.591	653.98
418.967	663.92
419.344	678.39
419.721	657.37
420.098	678.61
420.475	683.81
420.852	708.89
421.228	714.32
421.605	719.29
421.982	711.38
422.358	739.63
422.735	758.38
423.111	762.23
423.488	780.53
423.864	773.52
424.241	790.47
424.617	813.52
424.994	793.41
425.37	834.77
425.746	817.82
426.123	841.32
426.499	869.12
426.875	842.45
427.251	901.21
427.627	868.89
428.003	904.37
428.379	895.33
428.756	934.88
429.132	936.68
429.507	918.15
429.883	953.18
430.259	947.76
430.635	966.06
431.011	973.97
431.387	1005.16
431.763	998.83
432.138	1010.13
432.514	1031.82
432.89	1047.87
433.265	1037.92
433.641	1062.33
434.016	1101.88
434.392	1104.82
434.767	1117.92
435.143	1125.83
435.518	1156.57
435.894	1179.62
436.269	1171.71
436.644	1201.08
437.02	1237.24
437.395	1217.58
437.77	1248.31
438.145	1272.27
438.52	1305.26
438.895	1328.09
439.271	1317.69
439.646	1353.85
440.021	1380.29
440.395	1384.58
440.77	1375.54
441.145	1406.05
441.52	1427.29
441.895	1397.92
442.27	1455.31
442.645	1466.39
443.019	1477.69
443.394	1493.96
443.769	1524.47
444.143	1514.07
444.518	1529.89
444.892	1519.49
445.267	1567.85
445.641	1546.16
446.016	1599.04
446.39	1593.62
446.764	1597.01
447.139	1604.46
447.513	1665.03
447.887	1614.41
448.262	1661.41
448.636	1628.19
449.01	1706.83
449.384	1692.82
449.758	1708.87
450.132	1742.76
450.506	1723.1
450.88	1754.06
451.254	1740.51
451.628	1765.82
452.002	1808.3
452.376	1836.77
452.75	1802.42
453.123	1830.22
453.497	1875.42
453.871	1901.18
454.244	1945.47
454.618	1968.97
454.992	1990.89
455.365	1992.02
455.739	1981.63
456.112	2035.19
456.486	2049.42
456.859	2091.23
457.232	2129.2
457.606	2126.48
457.979	2162.64
458.352	2192.02
458.725	2204.45
459.099	2224.33
459.472	2256.42
459.845	2322.64
460.218	2353.14
460.591	2392.01
460.964	2373.03
461.337	2401.73
461.71	2474.05
462.083	2479.02
462.456	2533.48
462.829	2512.24
463.201	2541.39
463.574	2563.31
463.947	2616.64
464.32	2672.68
464.692	2717.88
465.065	2733.93
465.438	2777.09
465.81	2788.16
466.183	2834.94
466.555	2876.52
466.928	2932.34
467.3	2969.85
467.672	2997.42
468.045	3064.76
468.417	3082.62
468.789	3093.92
469.161	3179.11
469.534	3224.31
469.906	3274.48
470.278	3354.02
470.65	3361.71
471.022	3453
471.394	3500.23
471.766	3532.77
472.138	3574.36
472.51	3628.37
472.882	3703.17
473.253	3746.33
473.625	3800.79
473.997	3898.64
474.369	3979.09
474.74	3982.48
475.112	4101.35
475.484	4190.61
475.855	4229.93
476.227	4276.71
476.598	4365.07
476.97	4442.81
477.341	4562.35
477.713	4624.05
478.084	4660.65
478.455	4838.5
478.827	4860.65
479.198	5059.51
479.569	5010.02
479.94	5251.83
480.311	5259.06
480.682	5340.41
481.053	5528.2
481.424	5617.92
481.795	5678.03
482.166	5783.79
482.537	5831.92
482.908	5973.39
483.279	6067.17
483.65	6174.51
484.021	6324.79
484.391	6407.28
484.762	6476.43
485.133	6541.06
485.503	6656.31
485.874	6873.25
486.244	6915.28
486.615	7049.97
486.985	7110.31
487.356	7241.38
487.726	7322.73
488.097	7480.02
488.467	7567.7
488.837	7751.42
489.207	7830.29
489.578	7957.52
489.948	8035.25
490.318	8148.92
490.688	8185.53
491.058	8338.3
491.428	8475.47
491.798	8580.33
492.168	8684.5
492.538	8766.76
492.908	8867.32
493.278	8995.91
493.648	9008.34
494.017	9109.58
494.387	9196.35
494.757	9317.03
495.126	9394.99
495.496	9408.1
495.866	9484.93
496.235	9596.8
496.605	9736.9
496.974	9750.24
497.344	9818.71
497.713	9937.35
498.082	9969.22
498.452	10054.64
498.821	10102.77
499.19	10128.99
499.559	10198.14
499.928	10241.98
500.298	10331.69
500.667	10484.23
501.036	10373.27
501.405	10448.75
501.774	10443.1
502.143	10569.43
502.512	10618.92
502.88	10740.27
503.249	10669.99
503.618	10696.65
503.987	10764.45
504.356	10876.54
504.724	10913.15
505.093	10909.3
505.462	10963.99
505.83	10974.61
506.199	10999.47
506.567	11113.59
506.936	11086.02
507.304	11259.35
507.672	11225.91
508.041	11203.99
508.409	11329.41
508.777	11411.89
509.145	11398.1
509.514	11434.94
509.882	11525.33
510.25	11508.61
510.618	11521.94
510.986	11528.27
511.354	11604.65
511.722	11669.96
512.09	11669.74
512.458	11679
512.826	11793.35
513.193	11765.55
513.561	11778.21
513.929	11824.99
514.297	11881.71
514.664	11932.55
515.032	11953.57
515.4	11971.87
515.767	11889.84
516.135	12067.69
516.502	11963.74
516.869	12119.44
517.237	12040.8
517.604	12025.43
517.972	12117.41
518.339	12083.28
518.706	12041.7
519.073	12102.27
519.44	12120.8
519.808	12215.26
520.175	12145.43
520.542	12277.63
520.909	12284.63
521.276	12196.5
521.643	12284.41
522.009	12300
522.376	12378.19
522.743	12387.46
523.11	12527.57
523.477	12479.21
523.843	12447.57
524.21	12561.01
524.577	12560.33
524.943	12542.71
525.31	12565.98
525.676	12538.87
526.043	12599.43
526.409	12671.52
526.776	12672.87
527.142	12653.21
527.508	12694.12
527.874	12680.1
528.241	12625.19
528.607	12611.86
528.973	12626.55
529.339	12628.58
529.705	12687.34
530.071	12670.61
530.437	12668.35
530.803	12667
531.169	12651.4
531.535	12539.32
531.901	12556.27
532.267	12564.4
532.632	12643.72
532.998	12495.02
533.364	12610.95
533.73	12503.61
534.095	12561.92
534.461	12485.53
534.826	12563.72
535.192	12506.55
535.557	12501.13
535.923	12383.62
536.288	12460.45
536.653	12355.14
537.019	12302.04
537.384	12258.65
537.749	12253.45
538.114	12245.54
538.479	12129.16
538.845	12109.27
539.21	12058.88
539.575	12092.78
539.94	12048.26
540.305	11980.69
540.67	11978.2
541.034	11906.57
541.399	11966.9
541.764	11904.53
542.129	11888.26
542.494	11824.76
542.858	11770.75
543.223	11717.64
543.587	11684.65
543.952	11691.43
544.316	11616.63
544.681	11511.32
545.045	11547.7
545.41	11482.62
545.774	11487.37
546.138	11418.22
546.503	11445.56
546.867	11322.85
547.231	11293.47
547.595	11299.12
547.959	11264.55
548.324	11167.38
548.688	11099.36
549.052	11118.34
549.416	11051.9
549.779	11040.37
550.143	10968.29
550.507	10915.41
550.871	11003.31
551.235	10974.61
551.599	10915.18
551.962	10836.31
552.326	10833.15
552.689	10856.2
553.053	10709.08
553.417	10693.94
553.78	10797.67
554.143	10702.08
554.507	10697.78
554.87	10610.55
555.234	10704.11
555.597	10642.19
555.96	10505.7
556.323	10524.23
556.686	10458.24
557.05	10517.22
557.413	10503.21
557.776	10426.38
558.139	10505.7
558.502	10415.76
558.865	10437
559.228	10455.08
559.59	10405.14
559.953	10400.62
560.316	10401.75
560.679	10343.67
561.041	10341.41
561.404	10390.45
561.767	10422.76
562.129	10381.18
562.492	10372.14
562.854	10335.31
563.217	10395.64
563.579	10327.62
563.941	10328.08
564.304	10350.22
564.666	10401.29
565.028	10362.2
565.39	10359.49
565.753	10336.89
566.115	10400.62
566.477	10395.19
566.839	10394.74
567.201	10392.25
567.563	10368.07
567.925	10349.54
568.287	10412.14
568.648	10325.82
569.01	10435.19
569.372	10415.76
569.734	10390
570.095	10447.85
570.457	10425.02
570.819	10444.91
571.18	10381.41
571.542	10419.15
571.903	10418.92
572.265	10449.43
572.626	10477.68
572.987	10482.42
573.349	10444.46
573.71	10471.12
574.071	10528.75
574.432	10493.04
574.794	10562.19
575.155	10552.02
575.516	10543.66
575.877	10513.38
576.238	10387.28
576.599	10557.9
576.96	10485.13
577.32	10493.95
577.681	10475.87
578.042	10499.82
578.403	10467.51
578.763	10462.08
579.124	10493.95
579.485	10540.5
579.845	10514.51
580.206	10493.27
580.566	10467.96
580.927	10470.67
581.287	10508.86
581.648	10467.51
582.008	10477.45
582.368	10486.49
582.728	10459.82
583.089	10414.18
583.449	10460.95
583.809	10468.19
584.169	10452.59
584.529	10379.83
584.889	10473.83
585.249	10371.01
585.609	10333.73
585.969	10438.58
586.329	10396.55
586.688	10370.33
587.048	10349.32
587.408	10324.69
587.768	10339.83
588.127	10306.16
588.487	10288.08
588.846	10317.68
589.206	10312.48
589.565	10273.84
589.925	10328.08
590.284	10317.45
590.643	10271.58
591.003	10320.84
591.362	10323.33
591.721	10373.95
592.08	10224.12
592.44	10246.5
592.799	10251.92
593.158	10220.73
593.517	10230
593.876	10173.96
594.235	10172.37
594.593	10188.42
594.952	10205.82
595.311	10122.43
595.67	10153.84
596.029	10201.3
596.387	10201.53
596.746	10259.83
597.104	10066.84
597.463	10087.86
597.822	10211.47
598.18	10130.11
598.538	10065.94
598.897	10180.74
599.255	10046.05
599.613	10179.61
599.972	10156.78
600.33	10168.98
600.688	10074.07
601.046	10107.29
601.404	10138.48
601.762	10128.53
602.12	10177.57
602.478	10203.79
602.836	10203.56
603.194	10141.64
603.552	10107.74
603.91	10073.62
604.268	10137.35
604.625	10070.23
604.983	10128.08
605.341	10060.29
605.698	10118.82
606.056	10187.97
606.413	10076.56
606.771	10147.74
607.128	10180.74
607.485	10076.56
607.843	10094.86
608.2	10108.42
608.557	10249.21
608.914	10133.05
609.272	10248.76
609.629	10245.14
609.986	10204.46
610.343	10106.84
610.7	10198.36
611.057	10178.25
611.414	10228.42
611.771	10203.56
612.127	10256.89
612.484	10249.89
612.841	10220.28
613.198	10221.64
613.554	10207.18
613.911	10194.07
614.267	10221.86
614.624	10181.64
614.98	10199.72
615.337	10331.69
615.693	10264.8
616.05	10295.53
616.406	10261.18
616.762	10187.74
617.118	10270.9
617.475	10248.98
617.831	10276.55
618.187	10342.99
618.543	10326.04
618.899	10362.88
619.255	10324.46
619.611	10325.14
619.967	10383.67
620.323	10350.9
620.678	10371.46
621.034	10355.65
621.39	10292.14
621.746	10334.4
622.101	10406.94
622.457	10300.73
622.812	10393.84
623.168	10384.12
623.523	10388.19
623.879	10440.16
624.234	10320.84
624.589	10392.48
624.945	10360.84
625.3	10347.96
625.655	10294.4
626.01	10338.7
626.365	10348.19
626.72	10265.25
627.075	10348.41
627.43	10384.12
627.785	10295.08
628.14	10288.53
628.495	10285.82
628.85	10346.61
629.205	10220.06
629.559	10326.72
629.914	10273.61
630.269	10182.54
630.623	10259.15
630.978	10273.16
631.332	10235.65
631.687	10284.46
632.041	10273.84
632.396	10212.6
632.75	10163.79
633.104	10183.9
633.459	10140.96
633.813	10177.57
634.167	10190.9
634.521	10170.57
634.875	10146.16
635.229	10125.37
635.583	10073.17
635.937	10164.69
636.291	10119.49
636.645	10095.77
636.999	10026.84
637.352	10044.02
637.706	9982.1
638.06	10026.61
638.413	9960.4
638.767	9965.15
639.121	9916.11
639.474	9968.31
639.828	9923.79
640.181	9903.23
640.534	9985.03
640.888	9957.01
641.241	9894.87
641.594	9914.3
641.947	9950.01
642.301	9901.19
642.654	9838.37
643.007	9900.97
643.36	9817.13
643.713	9815.1
644.066	9829.11
644.419	9778.49
644.771	9755.44
645.124	9727.41
645.477	9665.72
645.83	9574.42
646.182	9615.33
646.535	9478.61
646.888	9507.98
647.24	9451.04
647.593	9535.55
647.945	9507.98
648.298	9419.63
648.65	9470.47
649.002	9477.25
649.355	9552.28
649.707	9470.92
650.059	9534.88
650.411	9660.52
650.763	9641.77
651.115	9742.78
651.467	9788.66
651.819	9681.31
652.171	9738.49
652.523	9726.06
652.875	9693.97
653.227	9654.42
653.578	9736.68
653.93	9693.06
654.282	9706.62
654.633	9695.78
654.985	9674.31
655.337	9741.42
655.688	9619.39
656.039	9703.23
656.391	9622.56
656.742	9672.73
657.094	9705.95
657.445	9751.82
657.796	9758.83
658.147	9689.67
658.498	9669.56
658.849	9716.11
659.2	9708.66
659.551	9707.75
659.902	9771.48
660.253	9717.7
660.604	9774.42
660.955	9658.71
661.306	9743.46
661.656	9719.28
662.007	9755.66
662.358	9743.91
662.708	9788.2
663.059	9788.43
663.409	9665.95
663.76	9685.83
664.11	9753.18
664.461	9774.87
664.811	9787.98
665.161	9745.94
665.511	9713.18
665.862	9785.72
666.212	9712.5
666.562	9845.15
666.912	9764.47
667.262	9738.49
667.612	9779.62
667.962	9771.71
668.312	9745.72
668.662	9770.58
669.011	9693.06
669.361	9688.54
669.711	9759.28
670.06	9720.18
670.41	9684.25
670.76	9714.53
671.109	9703.69
671.459	9665.72
671.808	9763.12
672.157	9683.12
672.507	9648.32
672.856	9685.38
673.205	9671.14
673.554	9681.77
673.904	9615.78
674.253	9678.15
674.602	9674.53
674.951	9498.49
675.3	9505.95
675.649	9561.54
675.998	9656
676.346	9641.09
676.695	9622.56
677.044	9505.27
677.393	9534.88
677.741	9635.66
678.09	9451.94
678.438	9535.33
678.787	9510.24
679.135	9466.63
679.484	9522.45
679.832	9461.43
680.181	9502.56
680.529	9382.56
680.877	9507.98
681.225	9397.93
681.573	9486.97
681.922	9398.16
682.27	9378.95
682.618	9423.01
682.966	9346.86
683.314	9384.82
683.661	9335.33
684.009	9311.15
684.357	9279.52
684.705	9263.47
685.053	9307.09
685.4	9241.55
685.748	9119.07
686.095	9106.87
686.443	9142.8
686.79	9146.86
687.138	9083.59
687.485	9091.5
687.832	9087.66
688.18	9096.24
688.527	8997.94
688.874	8983.7
689.221	8930.6
689.568	8952.74
689.915	8929.69
690.262	8891.96
690.609	8905.06
690.956	8851.96
691.303	8845.18
691.65	8800.88
691.997	8768.34
692.344	8718.17
692.69	8695.58
693.037	8682.47
693.383	8631.17
693.73	8659.87
694.077	8626.65
694.423	8561.57
694.769	8593.66
695.116	8579.2
695.462	8478.63
695.808	8484.06
696.155	8431.18
696.501	8413.55
696.847	8345.08
697.193	8259.43
697.539	8325.64
697.885	8319.32
698.231	8272.76
698.577	8199.32
698.923	8246.55
699.269	8168.36
699.614	8125.2
699.96	8094.01
700.306	8064.18
700.651	7995.93
700.997	8079.32
701.342	8040.68
701.688	7973.56
702.033	7970.62
702.379	7921.13
702.724	7905.54
703.069	7870.97
703.415	7852.43
703.76	7825.32
704.105	7817.86
704.45	7818.09
704.795	7789.84
705.14	7656.28
705.485	7677.75
705.83	7668.03
706.175	7733.57
706.52	7616.28
706.865	7655.15
707.209	7584.19
707.554	7542.39
707.899	7580.35
708.243	7495.16
708.588	7474.59
708.932	7407.93
709.277	7458.32
709.621	7425.33
709.966	7332.67
710.31	7343.52
710.654	7323.18
710.998	7317.53
711.342	7343.07
711.687	7290.19
712.031	7240.25
712.375	7176.29
712.719	7216.97
713.063	7219.23
713.407	7262.17
713.75	7190.53
714.094	7205.45
714.438	7171.32
714.782	7183.98
715.125	7117.99
715.469	7136.07
715.812	7067.6
716.156	7093.36
716.499	7023.98
716.843	7100.36
717.186	6991.21
717.53	7040.25
717.873	7038.67
718.216	7026.47
718.559	6998.22
718.902	6995.28
719.246	7004.32
719.589	6950.54
719.932	6919.35
720.275	6929.75
720.617	6923.19
720.96	6972.68
721.303	6974.27
721.646	6934.04
721.989	6932.91
722.331	6934.04
722.674	6929.97
723.016	6930.65
723.359	6958.9
723.701	6934.49
724.044	6852.46
724.386	6821.5
724.729	6876.87
725.071	6863.76
725.413	6884.32
725.755	6837.55
726.097	6794.61
726.439	6783.31
726.782	6795.51
727.124	6871.67
727.465	6781.5
727.807	6858.79
728.149	6829.18
728.491	6795.06
728.833	6828.28
729.175	6816.3
729.516	6759.81
729.858	6748.51
730.199	6735.85
730.541	6776.08
730.882	6700.15
731.224	6777.89
731.565	6749.86
731.906	6793.71
732.248	6805.68
732.589	6710.54
732.93	6721.39
733.271	6764.78
733.612	6747.15
733.953	6728.85
734.294	6730.43
734.635	6698.57
734.976	6778.79
735.317	6762.07
735.658	6759.36
735.999	6758.45
736.339	6748.73
736.68	6749.64
737.021	6739.47
737.361	6731.11
737.702	6796.87
738.042	6758.45
738.383	6773.82
738.723	6806.36
739.063	6763.42
739.404	6753.03
739.744	6785.34
740.084	6777.89
740.424	6863.31
740.764	6841.39
741.104	6897.21
741.444	6832.8
741.784	6856.53
742.124	6931.78
742.464	6892.01
742.804	6958.67
743.143	6937.2
743.483	6986.69
743.823	6951.67
744.162	6990.54
744.502	7046.35
744.841	7018.78
745.181	7129.74
745.52	7100.14
745.86	7111.21
746.199	7190.53
746.538	7166.58
746.877	7266.91
747.216	7348.95
747.556	7359.11
747.895	7360.47
748.234	7402.05
748.573	7475.72
748.911	7546.91
749.25	7607.92
749.589	7618.32
749.928	7692.21
750.267	7755.94
750.605	7815.15
750.944	7928.82
751.283	7920.68
751.621	8092.65
751.96	8099.43
752.298	8183.27
752.636	8329.48
752.975	8357.96
753.313	8446.77
753.651	8630.72
753.989	8659.87
754.327	8802.01
754.666	8780.32
755.004	8957.72
755.342	9062.57
755.679	9187.99
756.017	9311.15
756.355	9423.47
756.693	9572.62
757.031	9704.59
757.368	9792.72
757.706	9936
758.044	10134.86
758.381	10332.82
758.719	10396.55
759.056	10535.08
759.394	10689.42
759.731	10757.9
760.068	10975.74
760.405	11157.43
760.743	11218.45
761.08	11428.84
761.417	11536.63
761.754	11713.8
762.091	11869.28
762.428	12127.35
762.765	12194.47
763.102	12412.99
763.438	12572.54
763.775	12661.8
764.112	12888.91
764.449	13079.42
764.785	13207.55
765.122	13244.16
765.458	13468.33
765.795	13629.23
766.131	13781.09
766.467	13867.19
766.804	13954.2
767.14	14175.88
767.476	14349.67
767.812	14469.21
768.148	14664.23
768.485	14671.24
768.821	14844.12
769.157	14943.55
769.492	15078.46
769.828	15220.6
770.164	15283.65
770.5	15399.13
770.836	15513.02
771.171	15588.05
771.507	15745.33
771.842	15703.08
772.178	15982.39
772.513	15948.72
772.849	15972.9
773.184	16086.12
773.519	16292.21
773.855	16312.33
774.19	16375.83
774.525	16440.23
774.86	16537.4
775.195	16634.12
775.53	16663.05
775.865	16693.33
776.2	16668.02
776.535	16675.48
776.87	16845.42
777.205	16844.06
777.539	16893.1
777.874	16928.35
778.209	16935.36
778.543	16931.07
778.878	16922.25
779.212	16957.28
779.547	17010.16
779.881	17089.48
780.215	17081.34
780.55	17185.52
780.884	17133.77
781.218	17127.9
781.552	17192.98
781.886	17122.25
782.22	17079.08
782.554	17236.14
782.888	17052.87
783.222	17095.81
783.556	17077.73
783.889	17057.62
784.223	17058.52
784.557	17172.42
784.89	17096.49
785.224	17077.05
785.557	16926.32
785.891	17074.11
786.224	17022.82
786.558	17116.82
786.891	17028.01
787.224	16966.55
787.557	17037.73
787.891	16916.83
788.224	16951.63
788.557	16920.9
788.89	16984.85
789.223	16867.34
789.556	16877.51
789.888	16899.43
790.221	16789.15
790.554	16700.34
790.887	16837.51
791.219	16711.41
791.552	16744.4
791.884	16686.1
792.217	16647.46
792.549	16649.27
792.882	16475.48
793.214	16454.24
793.546	16619.89
793.879	16454.24
794.211	16394.81
794.543	16495.37
794.875	16469.38
795.207	16512.77
795.539	16393.45
795.871	16435.26
796.203	16399.1
796.535	16239.11
796.867	16211.31
797.198	16252.44
797.53	16234.36
797.862	16129.05
798.193	16074.82
798.525	16004.76
798.856	16092.22
799.188	15885.9
799.519	15863.07
799.85	15837.76
800.182	15927.48
800.513	15873.47
800.844	15766.58
801.175	15860.13
801.506	15759.12
801.837	15753.7
802.168	15704.88
802.499	15667.6
802.83	15564.32
803.161	15582.4
803.491	15529.52
803.822	15580.59
804.153	15461.73
804.483	15399.35
804.814	15357.77
805.145	15247.27
805.475	15288.85
805.805	15211.56
806.136	15242.07
806.466	15279.81
806.796	15257.89
807.126	15128.4
807.457	15105.8
807.787	15160.04
808.117	15043.66
808.447	14998.24
808.777	14988.29
809.107	14931.12
809.436	14821.29
809.766	14871.46
810.096	14856.77
810.426	14844.57
810.755	14779.71
811.085	14812.93
811.414	14754.17
811.744	14695.87
812.073	14622.65
812.403	14694.74
812.732	14498.14
813.061	14590.34
813.39	14528.87
813.719	14460.4
814.049	14533.39
814.378	14464.69
814.707	14423.79
815.036	14444.35
815.365	14386.5
815.693	14256.56
816.022	14247.07
816.351	14269.22
816.68	14259.5
817.008	14308.31
817.337	14118.03
817.665	14040.29
817.994	14078.03
818.322	14124.59
818.651	14095.66
818.979	14104.93
819.307	14087.53
819.636	14026.28
819.964	13971.6
820.292	13962.1
820.62	13961.43
820.948	13949
821.276	14029.22
821.604	13993.97
821.932	14047.75
822.259	13948.77
822.587	13988.09
822.915	13922.11
823.243	13930.47
823.57	13976.57
823.898	13948.55
824.225	13897.93
824.553	13945.83
824.88	14048.66
825.207	13897.47
825.535	13898.38
825.862	14005.04
826.189	13920.07
826.516	14024.25
826.843	14057.47
827.17	13959.62
827.497	13982.44
827.824	14057.47
828.151	14073.97
828.478	13980.64
828.805	14016.11
829.131	14085.49
829.458	14021.09
829.785	13957.81
830.111	13918.94
830.438	14030.8
830.764	13957.13
831.09	14029.9
831.417	13990.8
831.743	13902.22
832.069	14051.14
832.395	13931.6
832.722	13940.64
833.048	13890.69
833.374	13976.79
833.7	13879.39
834.026	13876.01
834.351	13920.52
834.677	13864.03
835.003	13900.41
835.329	13853.41
835.654	13842.11
835.98	13801.66
836.306	13798.04
836.631	13720.3
836.956	13744.94
837.282	13803.92
837.607	13783.58
837.932	13725.27
838.258	13706.74
838.583	13746.97
838.908	13672.85
839.233	13674.43
839.558	13650.02
839.883	13556.92
840.208	13576.35
840.533	13477.82
840.858	13508.33
841.182	13428.79
841.507	13499.74
841.832	13419.52
842.156	13431.27
842.481	13390.82
842.805	13311.27
843.13	13330.26
843.454	13280.54
843.778	13246.64
844.103	13258.85
844.427	13241.45
844.751	13132.07
845.075	13126.87
845.399	13130.26
845.723	12999.64
846.047	13067.44
846.371	12990.38
846.695	12972.3
847.019	12873.77
847.343	12766.88
847.666	12718.52
847.99	12702.48
848.313	12754
848.637	12646.43
848.96	12577.28
849.284	12522.14
849.607	12484.86
849.931	12443.95
850.254	12283.5
850.577	12282.83
850.9	12234.92
851.223	12138.65
851.546	12136.16
851.869	12096.84
852.192	12092.55
852.515	12006.22
852.838	11984.98
853.161	11962.61
853.483	11885.78
853.806	11839.22
854.129	11800.35
854.451	11789.05
854.774	11665.67
855.096	11719.23
855.419	11696.4
855.741	11547.7
856.063	11557.42
856.385	11641.49
856.708	11510.19
857.03	11523.52
857.352	11437.2
857.674	11425.45
857.996	11394.04
858.318	11340.7
858.64	11327.15
858.961	11272.91
859.283	11269.07
859.605	11231.33
859.926	11194.72
860.248	11232.68
860.57	11101.61
860.891	11134.61
861.212	11043.09
861.534	11072.92
861.855	11020.49
862.176	11033.37
862.498	11010.54
862.819	10965.35
863.14	10929.64
863.461	10945.23
863.782	10842.41
864.103	10954.95
864.424	10912.02
864.745	10891.45
865.065	10836.31
865.386	10730.55
865.707	10887.84
866.027	10769.19
866.348	10770.78
866.668	10800.38
866.989	10713.6
867.309	10691.68
867.63	10715.41
867.95	10673.38
868.27	10609.88
868.59	10681.74
868.91	10590.89
869.23	10588.63
869.55	10561.29
869.87	10633.6
870.19	10556.54
870.51	10550.67
870.83	10544.57
871.15	10480.84
871.469	10491.01
871.789	10427.28
872.109	10418.69
872.428	10391.13
872.748	10504.34
873.067	10379.37
873.386	10354.29
873.706	10386.61
874.025	10341.18
874.344	10323.1
874.663	10357
874.982	10282.43
875.301	10267.96
875.62	10257.8
875.939	10253.73
876.258	10262.99
876.577	10298.02
876.896	10234.75
877.214	10175.76
877.533	10178.7
877.852	10185.25
878.17	10186.84
878.489	10202.88
878.807	10164.24
879.125	10130.34
879.444	10112.04
879.762	10046.28
880.08	10081.75
880.398	9990.23
880.716	9994.75
881.034	9963.11
881.352	9931.7
881.67	9865.49
881.988	9898.71
882.306	9877.47
882.624	9843.34
882.941	9804.47
883.259	9831.82
883.577	9768.99
883.894	9767.19
884.212	9735.1
884.529	9748.66
884.846	9714.08
885.164	9630.02
885.481	9616.46
885.798	9659.39
886.115	9571.03
886.432	9547.98
886.75	9561.09
887.067	9676.12
887.383	9509.34
887.7	9561.54
888.017	9516.12
888.334	9482.67
888.651	9451.71
888.967	9456.91
889.284	9378.04
889.6	9395.67
889.917	9312.28
890.233	9315.67
890.55	9271.15
890.866	9162.68
891.182	9236.58
891.498	9198.16
891.815	9181.67
892.131	9058.28
892.447	9204.26
892.763	9116.81
893.079	9075
893.395	9019.86
893.71	8984.16
894.026	8970.6
894.342	8976.47
894.657	8889.02
894.973	8857.38
895.289	8898.51
895.604	8879.98
895.92	8728.57
896.235	8794.33
896.55	8791.39
896.865	8735.8
897.181	8732.19
897.496	8729.7
897.811	8616.93
898.126	8601.12
898.441	8548.46
898.756	8508.91
899.071	8520.44
899.386	8469.37
899.7	8407.45
900.015	8404.51
900.33	8322.25
900.644	8321.57
900.959	8305.53
901.273	8307.79
901.588	8331.52
901.902	8209.49
902.216	8228.02
902.531	8216.94
902.845	8141.01
903.159	8082.94
903.473	8061.92
903.787	8017.63
904.101	7968.14
904.415	8000.23
904.729	7948.48
905.042	7953
905.356	7908.7
905.67	7910.96
905.984	7805.88
906.297	7808.37
906.611	7767.47
906.924	7774.24
907.237	7778.76
907.551	7668.26
907.864	7693.57
908.177	7604.08
908.491	7637.07
908.804	7456.06
909.117	7480.92
909.43	7425.78
909.743	7443.41
910.056	7457.64
910.368	7374.48
910.681	7386.68
910.994	7324.31
911.307	7310.98
911.619	7274.6
911.932	7298.33
912.244	7178.1
912.557	7200.93
912.869	7127.93
913.181	7102.85
913.494	7066.47
913.806	7041.38
914.118	7044.77
914.43	7005
914.742	6968.39
915.054	6941.72
915.366	6966.36
915.678	6869.86
915.99	6844.55
916.302	6847.26
916.613	6808.62
916.925	6793.93
917.236	6786.25
917.548	6736.98
917.859	6758.45
918.171	6673.71
918.482	6639.59
918.794	6674.16
919.105	6669.42
919.416	6583.54
919.727	6569.53
920.038	6558.46
920.349	6478.46
920.66	6459.93
920.971	6464.45
921.282	6470.55
921.593	6373.6
921.903	6365.24
922.214	6381.74
922.525	6345.81
922.835	6293.38
923.146	6261.97
923.456	6251.57
923.767	6232.82
924.077	6234.62
924.387	6154.4
924.697	6171.12
925.008	6113.05
925.318	6118.24
925.628	6096.1
925.938	6049.09
926.248	6005.48
926.558	5982.65
926.867	5963.67
927.177	5946.95
927.487	5889.55
927.796	5861.75
928.106	5834.41
928.416	5893.84
928.725	5815.88
929.034	5777.46
929.344	5767.07
929.653	5773.62
929.962	5730.68
930.271	5701.53
930.581	5692.72
930.89	5621.53
931.199	5624.02
931.508	5594.87
931.817	5635.77
932.125	5594.19
932.434	5567.98
932.743	5506.73
933.051	5480.97
933.36	5480.29
933.669	5459.96
933.977	5400.97
934.286	5444.14
934.594	5386.06
934.902	5337.02
935.21	5364.82
935.519	5377.47
935.827	5291.37
936.135	5270.81
936.443	5217.48
936.751	5231.49
937.059	5206.4
937.367	5187.42
937.674	5195.33
937.982	5117.14
938.29	5111.72
938.597	5116.69
938.905	5087.08
939.213	5076.46
939.52	5047.08
939.827	5045.28
940.135	5018.84
940.442	4941.78
940.749	4996.24
941.056	5001.21
941.363	4886.64
941.67	4873.53
941.977	4851.38
942.284	4883.7
942.591	4849.8
942.898	4800.54
943.205	4806.41
943.511	4794.44
943.818	4768.22
944.125	4715.34
944.431	4701.11
944.738	4681.44
945.044	4669.24
945.35	4676.25
945.657	4583.82
945.963	4619.3
946.269	4616.14
946.575	4564.84
946.881	4549.47
947.187	4479.64
947.493	4513.31
947.799	4469.7
948.105	4419.98
948.41	4479.42
948.716	4473.09
949.022	4445.07
949.327	4405.29
949.633	4366.42
949.938	4376.59
950.244	4347.89
950.549	4348.35
950.854	4299.08
951.16	4310.38
951.465	4262.7
951.77	4230.61
952.075	4208.91
952.38	4233.32
952.685	4266.09
952.99	4130.27
953.294	4141.12
953.599	4152.65
953.904	4112.65
954.209	4074.68
954.513	4125.08
954.818	4058.86
955.122	4049.37
955.426	4064.96
955.731	4025.19
956.035	3993.33
956.339	4004.17
956.643	3974.57
956.948	3946.32
957.252	3942.71
957.556	3913.1
957.86	3931.86
958.163	3904.52
958.467	3921.24
958.771	3916.72
959.075	3833.78
959.378	3808.7
959.682	3823.84
959.985	3807.57
960.289	3762.37
960.592	3765.08
960.896	3765.99
961.199	3714.46
961.502	3733
961.805	3702.26
962.108	3685.54
962.411	3697.52
962.714	3649.83
963.017	3598.99
963.32	3596.05
963.623	3582.49
963.926	3567.12
964.228	3568.93
964.531	3586.56
964.833	3587.24
965.136	3497.52
965.438	3482.38
965.741	3481.93
966.043	3498.88
966.345	3471.08
966.648	3446
966.95	3440.8
967.252	3446.9
967.554	3416.17
967.856	3399.9
968.158	3347.92
968.46	3333.91
968.761	3292.33
969.063	3342.27
969.365	3325.32
969.666	3331.88
969.968	3274.48
970.269	3285.1
970.571	3274.93
970.872	3261.14
971.174	3239.9
971.475	3219.79
971.776	3210.52
972.077	3231.54
972.378	3191.54
972.679	3187.47
972.98	3159.45
973.281	3113.58
973.582	3164.65
973.883	3133.91
974.183	3111.09
974.484	3096.4
974.785	3084.88
975.085	3076.74
975.386	3085.33
975.686	3057.08
975.986	2961.94
976.287	3013.69
976.587	2953.35
976.887	2979.57
977.187	2937.99
977.487	2945.9
977.787	2939.34
978.087	2958.33
978.387	2920.36
978.687	2927.37
978.987	2906.58
979.286	2898.21
979.586	2877.2
979.885	2838.33
980.185	2851.89
980.484	2820.7
980.784	2831.55
981.083	2789.74
981.382	2766.92
981.682	2795.17
981.981	2745.68
982.28	2722.17
982.579	2740.48
982.878	2729.41
983.177	2712.23
983.475	2692.57
983.774	2674.72
984.073	2675.62
984.372	2632.46
984.67	2650.09
984.969	2642.18
985.267	2637.66
985.566	2622.29
985.864	2607.15
986.162	2613.02
986.461	2598.11
986.759	2569.86
987.057	2538
987.355	2547.04
987.653	2509.75
987.951	2509.07
988.249	2541.84
988.547	2467.27
988.844	2467.49
989.142	2473.82
989.44	2467.04
989.737	2464.33
990.035	2431.79
990.332	2417.78
990.63	2420.04
990.927	2413.71
991.224	2349.3
991.521	2361.28
991.819	2383.65
992.116	2394.5
992.413	2351.56
992.71	2350.21
993.006	2390.43
993.303	2303.65
993.6	2331.45
993.897	2306.59
994.193	2326.93
994.49	2293.48
994.787	2294.61
995.083	2222.53
995.379	2261.85
995.676	2232.7
995.972	2222.75
996.268	2211.68
996.565	2215.29
996.861	2199.93
997.157	2186.82
997.453	2193.6
997.749	2163.54
998.044	2156.54
998.34	2135.07
998.636	2124
998.932	2129.65
999.227	2124.45
999.523	2086.03
999.818	2094.17
1000.114	2096.2
1000.409	2076.77
1000.704	2058.69
1001	2055.75
1001.295	2032.93
1001.59	2014.62
1001.885	2003.77
1002.18	2015.07
1002.475	2019.37
1002.77	1957.22
1003.065	1959.71
1003.359	1943.44
1003.654	1947.28
1003.949	1934.62
1004.243	1924.46
1004.538	1888.07
1004.832	1887.85
1005.127	1891.91
1005.421	1881.52
1005.715	1861.63
1006.009	1867.73
1006.304	1840.84
1006.598	1816.89
1006.892	1871.12
1007.186	1784.35
1007.48	1802.88
1007.773	1801.75
1008.067	1757.68
1008.361	1750.22
1008.655	1768.98
1008.948	1764.91
1009.242	1749.77
1009.535	1740.05
1009.829	1759.26
1010.122	1712.71
1010.415	1734.18
1010.708	1709.09
1011.001	1685.14
1011.295	1674.52
1011.588	1650.34
1011.881	1662.32
1012.173	1639.49
1012.466	1620.73
1012.759	1640.85
1013.052	1625.03
1013.344	1618.47
1013.637	1565.82
1013.93	1582.09
1014.222	1606.27
1014.514	1552.26
1014.807	1599.04
1015.099	1569.21
1015.391	1568.53
1015.683	1538.25
1015.976	1553.62
1016.268	1540.28
1016.56	1526.95
1016.851	1488.99
1017.143	1493.05
1017.435	1476.33
1017.727	1491.25
1018.018	1471.36
1018.31	1457.57
1018.602	1421.87
1018.893	1434.52
1019.185	1439.95
1019.476	1423
1019.767	1414.86
1020.058	1392.27
1020.35	1390.01
1020.641	1401.3
1020.932	1396.33
1021.223	1370.35
1021.514	1355.2
1021.804	1343.45
1022.095	1335.54
1022.386	1331.02
1022.677	1316.11
1022.967	1317.69
1023.258	1293.74
1023.548	1293.51
1023.839	1275.21
1024.129	1285.6
1024.419	1254.42
1024.709	1282.66
1025	1253.29
1025.29	1238.37
1025.58	1246.73
1025.87	1234.3
1026.16	1259.16
1026.449	1249.22
1026.739	1204.25
1027.029	1214.64
1027.319	1201.99
1027.608	1199.05
1027.898	1168.99
1028.187	1173.06
1028.477	1171.25
1028.766	1170.12
1029.055	1159.73
1029.344	1161.54
1029.634	1121.76
1029.923	1131.03
1030.212	1116.11
1030.501	1114.31
1030.79	1103.23
1031.078	1121.31
1031.367	1076.12
1031.656	1098.26
1031.945	1089.22
1032.233	1098.94
1032.522	1073.63
1032.81	1070.69
1033.099	1059.39
1033.387	1047.64
1033.675	1064.36
1033.963	1051.26
1034.251	1033.41
1034.54	1043.35
1034.828	1025.95
1035.116	1009.68
1035.403	1035.89
1035.691	1007.42
1035.979	991.37
1036.267	973.52
1036.554	966.29
1036.842	981.65
1037.129	955.44
1037.417	954.09
1037.704	970.36
1037.992	952.05
1038.279	920.87
1038.566	926.06
1038.853	926.06
1039.14	926.06
