Data from hue_10_FLMS001491_24.txt Node
Date: Mon Feb 06 15:31:39 GMT 2017
User: dcchb
Spectrometer: FLMS00149
Trigger mode: 0
Integration Time (sec): 2.000000E-2
Scans to average: 10
Electric dark correction enabled: true
Nonlinearity correction enabled: false
Boxcar width: 0
XAxis mode: Wavelengths
Number of Pixels in Spectrum: 2048
>>>>>Begin Spectral Data<<<<<
341.393	-2.23
341.776	-2.23
342.16	-2.23
342.543	-71.16
342.927	-63.02
343.31	-59.63
343.693	-86.98
344.077	-57.82
344.46	-71.16
344.843	-42.91
345.226	-27.99
345.61	-33.64
345.993	-5.4
346.376	-14.21
346.759	3.87
347.142	19.46
347.525	24.21
347.908	68.28
348.291	73.47
348.674	93.13
349.057	117.31
349.44	149.63
349.823	142.17
350.206	167.48
350.588	190.31
350.971	224.88
351.354	210.19
351.737	230.98
352.119	249.06
352.502	272.79
352.884	259.23
353.267	294.03
353.65	318.21
354.032	305.56
354.414	320.92
354.797	302.17
355.179	328.16
355.562	333.13
355.944	329.96
356.326	336.97
356.709	341.04
357.091	331.09
357.473	361.37
357.855	349.17
358.238	335.61
358.62	341.26
359.002	349.4
359.384	339.91
359.766	351.43
360.148	339.45
360.53	330.64
360.912	338.32
361.294	333.35
361.676	366.8
362.057	323.41
362.439	334.26
362.821	345.1
363.203	353.69
363.584	315.5
363.966	316.4
364.348	327.48
364.729	331.09
365.111	325.22
365.493	322.51
365.874	321.38
366.256	303.3
366.637	313.69
367.019	297.65
367.4	318.89
367.781	318.44
368.163	315.73
368.544	327.7
368.925	336.06
369.306	316.86
369.688	315.27
370.069	312.79
370.45	304.65
370.831	327.25
371.212	311.43
371.593	320.02
371.974	303.52
372.355	317.08
372.736	335.39
373.117	316.18
373.498	333.8
373.879	323.64
374.26	315.73
374.641	316.63
375.021	317.53
375.402	309.4
375.783	350.98
376.163	333.8
376.544	316.86
376.925	351.43
377.305	322.28
377.686	348.72
378.066	316.63
378.447	311.66
378.827	327.7
379.208	322.51
379.588	326.35
379.968	349.85
380.349	354.6
380.729	350.08
381.109	337.65
381.489	357.08
381.87	363.41
382.25	319.57
382.63	348.95
383.01	336.29
383.39	352.34
383.77	321.38
384.15	330.42
384.53	333.13
384.91	348.72
385.29	351.66
385.67	371.32
386.049	369.96
386.429	356.18
386.809	352.34
387.189	367.25
387.568	347.14
387.948	351.88
388.328	355.73
388.707	372.45
389.087	357.31
389.466	357.98
389.846	379.91
390.225	369.96
390.605	376.52
390.984	361.6
391.363	370.19
391.743	365.44
392.122	370.19
392.501	343.07
392.881	385.78
393.26	356.4
393.639	367.02
394.018	360.02
394.397	375.16
394.776	386.01
395.155	369.74
395.534	381.94
395.913	347.59
396.292	375.61
396.671	378.1
397.05	388.72
397.429	387.81
397.808	392.33
398.186	389.4
398.565	389.62
398.944	386.91
399.323	383.07
399.701	398.89
400.08	413.35
400.458	389.17
400.837	392.79
401.215	404.09
401.594	398.89
401.972	386.46
402.351	396.4
402.729	405.67
403.107	409.96
403.486	399.34
403.864	405.44
404.242	391.88
404.62	406.8
404.999	413.8
405.377	412.67
405.755	412.22
406.133	404.76
406.511	426.46
406.889	415.84
407.267	419.45
407.645	433.46
408.023	421.03
408.401	420.58
408.779	436.85
409.156	422.39
409.534	427.36
409.912	435.05
410.29	420.36
410.667	442.5
411.045	432.11
411.422	446.57
411.8	464.42
412.178	467.59
412.555	448.38
412.933	463.52
413.31	451.32
413.687	467.36
414.065	460.13
414.442	462.39
414.819	486.12
415.197	470.07
415.574	469.39
415.951	481.6
416.328	475.27
416.705	469.85
417.082	481.6
417.46	496.29
417.837	482.28
418.214	493.57
418.591	480.69
418.967	491.54
419.344	514.14
419.721	527.02
420.098	513.24
420.475	522.27
420.852	507.13
421.228	513.46
421.605	525.21
421.982	521.14
422.358	536.29
422.735	543.52
423.111	548.49
423.488	548.26
423.864	530.41
424.241	539.22
424.617	543.06
424.994	543.29
425.37	529.28
425.746	539
426.123	559.34
426.499	544.42
426.875	559.79
427.251	543.06
427.627	571.09
428.003	542.16
428.379	571.76
428.756	560.92
429.132	579
429.507	596.4
429.883	592.33
430.259	591.65
430.635	602.27
431.011	614.93
431.387	614.93
431.763	599.56
432.138	600.69
432.514	633.91
432.89	619
433.265	617.19
433.641	651.31
434.016	641.82
434.392	650.63
434.767	654.7
435.143	635.49
435.518	666.68
435.894	672.55
436.269	679.33
436.644	684.98
437.02	675.94
437.395	673.23
437.77	679.56
438.145	703.96
438.52	706
438.895	723.17
439.271	702.83
439.646	721.59
440.021	704.19
440.395	719.33
440.77	720.91
441.145	735.83
441.52	743.29
441.895	738.31
442.27	710.74
442.645	724.08
443.019	746.9
443.394	727.69
443.769	739.22
444.143	767.24
444.518	772.44
444.892	737.41
445.267	752.78
445.641	751.42
446.016	778.31
446.39	772.89
446.764	763.62
447.139	791.65
447.513	774.47
447.887	793.45
448.262	791.87
448.636	791.65
449.01	799.33
449.384	781.93
449.758	816.73
450.132	830.06
450.506	817.86
450.88	831.42
451.254	837.97
451.628	837.29
452.002	838.2
452.376	867.8
452.75	832.55
453.123	844.75
453.497	864.64
453.871	877.97
454.244	877.07
454.618	882.04
454.992	886.78
455.365	882.49
455.739	909.16
456.112	921.59
456.486	912.77
456.859	922.04
457.232	938.76
457.606	941.92
457.979	957.52
458.352	973.56
458.725	980.57
459.099	993.67
459.472	970.62
459.845	1002.94
460.218	1003.39
460.591	984.41
460.964	1005.88
461.337	1035.26
461.71	1014.24
462.083	1037.06
462.456	1054.69
462.829	1050.62
463.201	1069.15
463.574	1093.78
463.947	1112.77
464.32	1166.55
464.692	1121.35
465.065	1157.74
465.438	1126.33
465.81	1169.94
466.183	1165.42
466.555	1179.66
466.928	1210.62
467.3	1218.53
467.672	1207.45
468.045	1249.03
468.417	1238.64
468.789	1281.12
469.161	1291.97
469.534	1312.31
469.906	1341.01
470.278	1324.29
470.65	1347.79
471.022	1363.83
471.394	1413.78
471.766	1390.5
472.138	1433.44
472.51	1438.41
472.882	1485.19
473.253	1456.49
473.625	1488.35
473.997	1541.91
474.369	1517.73
474.74	1564.28
475.112	1603.6
475.484	1646.31
475.855	1630.04
476.227	1695.35
476.598	1677.5
476.97	1735.58
477.341	1785.74
477.713	1766.76
478.084	1805.86
478.455	1853.31
478.827	1867.78
479.198	1942.8
479.569	1947.55
479.94	1983.93
480.311	2009.47
480.682	2079.75
481.053	2115
481.424	2129.24
481.795	2171.5
482.166	2191.84
482.537	2228.44
482.908	2270.25
483.279	2323.36
483.65	2328.33
484.021	2416.91
484.391	2433.41
484.762	2438.38
485.133	2513.63
485.503	2526.06
485.874	2588.66
486.244	2618.94
486.615	2684.03
486.985	2720.18
487.356	2810.35
487.726	2811.48
488.097	2858.71
488.467	2902.32
488.837	2929.89
489.207	2989.78
489.578	3036.78
489.948	3077.46
490.318	3117.23
490.688	3147.29
491.058	3173.5
491.428	3211.7
491.798	3284.46
492.168	3344.8
492.538	3328.08
492.908	3415.76
493.278	3458.92
493.648	3453.04
494.017	3470.9
494.387	3553.38
494.757	3624.11
495.126	3577.34
495.496	3655.3
495.866	3647.39
496.235	3671.57
496.605	3734.85
496.974	3754.96
497.344	3820.04
497.713	3834.73
498.082	3833.37
498.452	3928.06
498.821	3956.31
499.19	3946.82
499.559	3985.91
499.928	4051.67
500.298	3995.4
500.667	4081.95
501.036	4090.99
501.405	4078.34
501.774	4117.66
502.143	4190.2
502.512	4198.79
502.88	4243.31
503.249	4203.99
503.618	4243.76
503.987	4322.85
504.356	4353.59
504.724	4307.71
505.093	4324.43
505.462	4319.24
505.83	4450.98
506.199	4436.3
506.567	4415.73
506.936	4504.32
507.304	4503.86
507.672	4539.57
508.041	4556.29
508.409	4603.97
508.777	4600.81
509.145	4598.78
509.514	4608.95
509.882	4658.89
510.25	4645.1
510.618	4638.78
510.986	4691.88
511.354	4706.57
511.722	4780.24
512.09	4795.83
512.458	4780.92
512.826	4833.57
513.193	4792.9
513.561	4833.8
513.929	4866.79
514.297	4886.45
514.664	4940.69
515.032	4921.48
515.4	4990.86
515.767	4932.33
516.135	4950.86
516.502	4981.37
516.869	5015.26
517.237	5049.39
517.604	4991.54
517.972	5070.86
518.339	5060.01
518.706	5038.54
519.073	5131.19
519.44	5130.74
519.808	5191.3
520.175	5159.21
520.542	5180.23
520.909	5232.43
521.276	5207.35
521.643	5274.92
522.009	5262.04
522.376	5296.16
522.743	5295.03
523.11	5381.13
523.477	5365.31
523.843	5411.64
524.21	5434.01
524.577	5477.4
524.943	5470.39
525.31	5539.77
525.676	5536.83
526.043	5575.93
526.409	5610.05
526.776	5629.26
527.142	5655.7
527.508	5714.91
527.874	5702.93
528.241	5744.06
528.607	5805.75
528.973	5776.6
529.339	5822.47
529.705	5888.01
530.071	5897.95
530.437	5923.71
530.803	5964.84
531.169	5984.73
531.535	5977.27
531.901	6047.78
532.267	6060.43
532.632	6107.44
532.998	6092.07
533.364	6111.51
533.73	6102.69
534.095	6211.16
534.461	6234.67
534.826	6161
535.192	6266.76
535.557	6281.9
535.923	6286.42
536.288	6369.35
536.653	6324.83
537.019	6356.92
537.384	6354.89
537.749	6434.66
538.114	6435.34
538.479	6457.71
538.845	6497.03
539.21	6475.79
539.575	6537.94
539.94	6519.4
540.305	6549.69
540.67	6577.03
541.034	6588.33
541.399	6718.95
541.764	6706.52
542.129	6711.04
542.494	6717.37
542.858	6738.38
543.223	6766.4
543.587	6812.28
543.952	6874.65
544.316	6832.84
544.681	6910.13
545.045	6846.4
545.41	6923.24
545.774	7001.43
546.138	6968.21
546.503	6989
546.867	7024.02
547.231	7085.72
547.595	7127.3
547.959	7067.19
548.324	7150.8
548.688	7131.82
549.052	7212.27
549.416	7283.23
549.779	7217.69
550.143	7321.64
550.507	7289.1
550.871	7370
551.235	7332.49
551.599	7334.98
551.962	7417.01
552.326	7458.82
552.689	7478.48
553.053	7449.1
553.417	7468.76
553.78	7513.05
554.143	7469.89
554.507	7560.28
554.87	7594.86
555.234	7651.8
555.597	7559.6
555.96	7584.69
556.323	7704.23
556.686	7660.39
557.05	7771.58
557.413	7758.47
557.776	7835.75
558.139	7835.3
558.502	7814.51
558.865	7811.8
559.228	7853.38
559.59	7947.62
559.953	7951.91
560.316	7973.38
560.679	8017.67
561.041	7985.36
561.404	8079.82
561.767	8145.12
562.129	8084.79
562.492	8132.92
562.854	8182.41
563.217	8175.41
563.579	8234.61
563.941	8284.33
564.304	8300.37
564.666	8293.14
565.028	8325.01
565.39	8385.34
565.753	8435.51
566.115	8424.67
566.477	8445.91
566.839	8486.13
567.201	8511.89
567.563	8494.04
567.925	8623.08
568.287	8574.04
568.648	8616.3
569.01	8689.52
569.372	8725.45
569.734	8742.85
570.095	8807.48
570.457	8840.25
570.819	8839.34
571.18	8870.53
571.542	8912.79
571.903	8947.82
572.265	9043.63
572.626	9038.66
572.987	9099
573.349	9153.23
573.71	9188.94
574.071	9214.48
574.432	9268.94
574.794	9378.76
575.155	9334.47
575.516	9416.05
575.877	9539.21
576.238	9623.96
576.599	9698.08
576.96	9665.31
577.32	9791.86
577.681	9919.77
578.042	10004.74
578.403	10054.91
578.763	10148.24
579.124	10297.84
579.485	10345.29
579.845	10474.33
580.206	10559.75
580.566	10666.64
580.927	10817.14
581.287	10973.53
581.648	11036.8
582.008	11239.28
582.368	11399.05
582.728	11549.1
583.089	11637.01
583.449	11863.45
583.809	11958.58
584.169	12178.92
584.529	12377.1
584.889	12643.31
585.249	12792.69
585.609	12956.75
585.969	13282.84
586.329	13399.45
586.688	13682.61
587.048	13980
587.408	14083.05
587.768	14377.73
588.127	14584.73
588.487	14811.39
588.846	15159.63
589.206	15386.52
589.565	15653.85
589.925	15958.93
590.284	16187.4
590.643	16583.32
591.003	16812.24
591.362	17169.97
591.721	17415.62
592.08	17787.58
592.44	18116.84
592.799	18448.36
593.158	18732.64
593.517	19089.47
593.876	19362.68
594.235	19695.56
594.593	19989.56
594.952	20422.77
595.311	20668.64
595.67	21097.78
596.029	21530.31
596.387	21790.42
596.746	22227.69
597.104	22460.45
597.463	22785.42
597.822	23157.16
598.18	23459.75
598.538	23833.75
598.897	24179.28
599.255	24351.93
599.613	25006.15
599.972	25141.51
600.33	25700.6
600.688	25903.08
601.046	26247.47
601.404	26555.26
601.762	26947.57
602.12	27394.34
602.478	27688.57
602.836	27890.14
603.194	28192.28
603.552	28519.5
603.91	28727.63
604.268	29125.59
604.625	29343.89
604.983	29902.97
605.341	29931.67
605.698	30369.63
606.056	30676.74
606.413	31019.55
606.771	31260.9
607.128	31716.26
607.485	31823.37
607.843	32067.89
608.2	32493.64
608.557	32942.66
608.914	32998.93
609.272	33376.33
609.629	33615.87
609.986	34042.75
610.343	34018.79
610.7	34581.04
611.057	34661.04
611.414	34954.36
611.771	35108.26
612.127	35398.42
612.484	35718.41
612.841	36025.97
613.198	35961.34
613.554	36232.97
613.911	36573.08
614.267	36978.49
614.624	37052.16
614.98	37229.33
615.337	37718.13
615.693	37560.4
616.05	37778.47
616.406	38298
616.762	38256.65
617.118	38478.11
617.475	38462.97
617.831	38721.04
618.187	38909.06
618.543	39186.57
618.899	39413.68
619.255	39523.06
619.611	39664.75
619.967	39897.06
620.323	39979.77
620.678	39958.98
621.034	40179.54
621.39	40219.76
621.746	40331.85
622.101	40962.79
622.457	40707.88
622.812	40931.83
623.168	41022.9
623.523	41176.12
623.879	41442.1
624.234	41227.87
624.589	41520.52
624.945	41521.65
625.3	41797.35
625.655	41894.75
626.01	41873.5
626.365	42026.04
626.72	41910.56
627.075	42025.36
627.43	42099.71
627.785	42072.37
628.14	42357.11
628.495	42445.47
628.85	42360.5
629.205	42342.87
629.559	42634.84
629.914	42520.04
630.269	42543.54
630.623	42484.11
630.978	42495.63
631.332	42806.59
631.687	42811.11
632.041	42665.35
632.396	42959.8
632.75	42652.92
633.104	42792.12
633.459	42826.02
633.813	42711.45
634.167	42936.3
634.521	42855.85
634.875	42977.43
635.229	42859.47
635.583	42828.73
635.937	42866.7
636.291	42889.3
636.645	42904.89
636.999	42917.54
637.352	42986.47
637.706	42916.41
638.06	43104.43
638.413	42901.27
638.767	42916.87
639.121	43054.72
639.474	42644.56
639.828	42866.47
640.181	42816.08
640.534	42993.25
640.888	42787.83
641.241	42722.07
641.594	42850.65
641.947	43014.49
642.301	42769.53
642.654	42689.3
643.007	42869.86
643.36	42830.99
643.713	42733.82
644.066	42996.41
644.419	42598
644.771	42539.25
645.124	42009.77
645.477	42036.66
645.83	41799.38
646.182	41686.39
646.535	41534.3
646.888	41601.65
647.24	41488.2
647.593	41556.22
647.945	41618.82
648.298	41458.15
648.65	41388.77
649.002	41323.69
649.355	41507.86
649.707	41358.71
650.059	41615.66
650.411	42106.49
650.763	42233.04
651.115	42505.58
651.467	42364.79
651.819	42384.45
652.171	42351.23
652.523	42283.89
652.875	42222.65
653.227	42072.14
653.578	42379.48
653.93	42274.4
654.282	42179.03
654.633	42058.81
654.985	42138.81
655.337	42190.78
655.688	42151.69
656.039	42304.68
656.391	41828.76
656.742	42051.8
657.094	42012.03
657.445	42118.47
657.796	42100.62
658.147	41960.73
658.498	42022.2
658.849	41984.46
659.2	42009.55
659.551	42031.01
659.902	42111.69
660.253	41912.6
660.604	42216.77
660.955	41923.22
661.306	42016.32
661.656	41893.39
662.007	41986.49
662.358	42009.55
662.708	41967.29
663.059	41888.64
663.409	41607.75
663.76	42029.66
664.11	41934.74
664.461	41963.22
664.811	42007.74
665.161	41979.04
665.511	41812.71
665.862	41826.5
666.212	41992.6
666.562	41940.62
666.912	41762.09
667.262	41803
667.612	41835.99
667.962	41976.55
668.312	41835.31
668.662	41947.85
669.011	41780.85
669.361	41739.72
669.711	41734.07
670.06	41743.56
670.41	41585.6
670.76	41672.83
671.109	41865.14
671.459	41807.74
671.808	41626.05
672.157	41854.97
672.507	41452.72
672.856	41506.28
673.205	41654.98
673.554	41548.31
673.904	41584.47
674.253	41800.96
674.602	41615.88
674.951	41083.92
675.3	40830.82
675.649	41491.59
675.998	41421.54
676.346	41391.71
676.695	41527.52
677.044	41248.44
677.393	41318.72
677.741	41545.38
678.09	41170.02
678.438	41267.87
678.787	41285.27
679.135	41340.64
679.484	40961.44
679.832	41211.37
680.181	40929.35
680.529	41087.31
680.877	40971.83
681.225	40952.85
681.573	41158.27
681.922	40763.7
682.27	40717.38
682.618	40791.95
682.966	40689.35
683.314	40725.74
683.661	40642.58
684.009	40379.98
684.357	40310.61
684.705	40280.55
685.053	40349.48
685.4	40266.31
685.748	40118.07
686.095	40166.88
686.443	39977.06
686.79	39891.63
687.138	39931.63
687.485	39987.9
687.832	39853.44
688.18	39747.46
688.527	39644.18
688.874	39695.71
689.221	39551.53
689.568	39576.61
689.915	39477.86
690.262	39353.34
690.609	39302.72
690.956	39180.69
691.303	39076.29
691.65	38883.75
691.997	39008.49
692.344	38716.75
692.69	38660.48
693.037	38561.27
693.383	38514.04
693.73	38557.66
694.077	38305.46
694.423	38228.18
694.769	38309.3
695.116	38145.01
695.462	38024.57
695.808	38059.37
696.155	38017.33
696.501	37524.92
696.847	37673.39
697.193	37486.27
697.539	37630.68
697.885	37326.73
698.231	37291.25
698.577	37225.04
698.923	36998.83
699.269	36921.09
699.614	36797.7
699.96	36866.18
700.306	36822.56
700.651	36816.46
700.997	36618.05
701.342	36492.4
701.688	36487.66
702.033	36297.15
702.379	36300.77
702.724	36141.45
703.069	36166.53
703.415	35833.21
703.76	35904.85
704.105	35878.18
704.45	35889.71
704.795	35501.92
705.14	35495.59
705.485	35473.9
705.83	35371.98
706.175	35385.54
706.52	35172.66
706.865	35130.4
707.209	35081.37
707.554	34934.93
707.899	34991.65
708.243	34792.11
708.588	34787.36
708.932	34602.28
709.277	34690.42
709.621	34615.62
709.966	34411.33
710.31	34465.56
710.654	34153.25
710.998	34189.19
711.342	34194.16
711.687	34050.21
712.031	34014.5
712.375	33802.76
712.719	33763.89
713.063	33911.45
713.407	33965.01
713.75	33636.88
714.094	33728.63
714.438	33555.08
714.782	33555.76
715.125	33370
715.469	33549.88
715.812	33414.29
716.156	33204.8
716.499	33125.71
716.843	33210
717.186	33031.02
717.53	33173.62
717.873	33004.13
718.216	32893.63
718.559	32837.81
718.902	32581.54
719.246	32751.26
719.589	32557.59
719.932	32508.55
720.275	32512.85
720.617	32446.18
720.96	32360.76
721.303	32404.15
721.646	32333.42
721.989	32185.4
722.331	32269.24
722.674	32160.76
723.016	32182.91
723.359	32177.71
723.701	32012.07
724.044	31880.55
724.386	31814.33
724.729	31946.98
725.071	31765.97
725.413	31846.65
725.755	31737.05
726.097	31634.9
726.439	31441.46
726.782	31373.21
727.124	31597.84
727.465	31382.93
727.807	31405.53
728.149	31263.61
728.491	31239.88
728.833	31367.11
729.175	31052.09
729.516	31217.29
729.858	31121.24
730.199	31105.2
730.541	31010.06
730.882	31006.9
731.224	31032.88
731.565	30898.65
731.906	30963.28
732.248	30824.98
732.589	30723.51
732.93	30659.34
733.271	30634.03
733.612	30724.19
733.953	30696.85
734.294	30508.15
734.635	30451.2
734.976	30505.67
735.317	30323.98
735.658	30275.16
735.999	30364.65
736.339	30367.59
736.68	30297.54
737.021	30259.12
737.361	30153.81
737.702	30292.79
738.042	30068.62
738.383	29962.63
738.723	30103.64
739.063	29927.15
739.404	29988.17
739.744	29990.2
740.084	29918.56
740.424	29887.83
740.764	29693.94
741.104	29792.01
741.444	29673.82
741.784	29660.49
742.124	29600.15
742.464	29683.77
742.804	29567.84
743.143	29458.91
743.483	29487.61
743.823	29353.15
744.162	29262.31
744.502	29292.14
744.841	29229.99
745.181	29269.54
745.52	29146.61
745.86	29212.37
746.199	29141.63
746.538	29232.71
746.877	29163.33
747.216	29033.39
747.556	29037
747.895	29094.4
748.234	28940.51
748.573	28914.52
748.911	28870.91
749.25	28800.17
749.589	28662.1
749.928	28703.45
750.267	28738.26
750.605	28592.5
750.944	28576.9
751.283	28574.19
751.621	28688.54
751.96	28325.39
752.298	28352.05
752.636	28439.51
752.975	28281.32
753.313	28165.62
753.651	28252.39
753.989	28119.29
754.327	28137.37
754.666	27919.97
755.004	28075.67
755.342	27884.27
755.679	27991.83
756.017	27751.16
756.355	27818.28
756.693	27742.35
757.031	27801.56
757.368	27590.49
757.706	27571.73
758.044	27514.79
758.381	27539.64
758.719	27366.09
759.056	27451.74
759.394	27364.05
759.731	27164.29
760.068	27155.92
760.405	27019.2
760.743	26910.28
761.08	27141.46
761.417	27016.49
761.754	26780.57
762.091	26753.45
762.428	26663.06
762.765	26467.13
763.102	26553.91
763.438	26395.72
763.775	26332.44
764.112	26392.55
764.449	26394.59
764.785	26173.35
765.122	26032.56
765.458	25930.87
765.795	25913.25
766.131	25915.73
766.467	25747.83
766.804	25687.26
767.14	25534.05
767.476	25426.03
767.812	25386.93
768.148	25563.2
768.485	25248.18
768.821	25151.91
769.157	25043.44
769.492	25019.26
769.828	25011.8
770.164	24792.82
770.5	24744.01
770.836	24803.67
771.171	24507.41
771.507	24521.87
771.842	24320.07
772.178	24392.61
772.513	24223.8
772.849	24357.35
773.184	24116.23
773.519	24086.4
773.855	24007.53
774.19	23964.14
774.525	23814.32
774.86	23855.67
775.195	23709.46
775.53	23742.45
775.865	23559.41
776.2	23431.28
776.535	23336.82
776.87	23297.72
777.205	22959.42
777.539	22957.84
777.874	23057.5
778.209	22849.37
778.543	22876.04
778.878	22691.63
779.212	22653.44
779.547	22565.31
779.881	22515.37
780.215	22374.81
780.55	22441.25
780.884	22257.07
781.218	22147.24
781.552	22252.32
781.886	22070.86
782.22	21932.11
782.554	21933.24
782.888	21600.82
783.222	21579.35
783.556	21505.23
783.889	21535.96
784.223	21401.95
784.557	21338.68
784.89	21394.49
785.224	21207.38
785.557	21120.15
785.891	21113.15
786.224	20905.92
786.558	21010.32
786.891	20803.32
787.224	20801.29
787.557	20719.26
787.891	20664.12
788.224	20523.1
788.557	20591.35
788.89	20505.7
789.223	20491.69
789.556	20324.01
789.888	20217.35
790.221	20200.18
790.554	20016
790.887	20084.47
791.219	19989.79
791.552	19906.17
791.884	19856
792.217	19662.34
792.549	19707.31
792.882	19586.18
793.214	19517.93
793.546	19483.36
793.879	19409.69
794.211	19280.65
794.543	19297.37
794.875	19184.16
795.207	19266.41
795.539	19107.1
795.871	19118.62
796.203	18920.89
796.535	18886.54
796.867	18810.16
797.198	18797.27
797.53	18799.08
797.862	18610.84
798.193	18765.64
798.525	18511.86
798.856	18524.29
799.188	18381.69
799.519	18316.16
799.85	18211.98
800.182	18238.19
800.513	18157.97
800.844	18080.23
801.175	18112.32
801.506	18104.41
801.837	17962.27
802.168	17848.15
802.499	17806.79
802.83	17762.73
803.161	17777.64
803.491	17761.14
803.822	17656.97
804.153	17573.58
804.483	17420.81
804.814	17437.99
805.145	17407.48
805.475	17308.05
805.805	17232.8
806.136	17290.2
806.466	17262.17
806.796	17226.69
807.126	17115.51
807.457	17125.68
807.787	17038.22
808.117	16997.32
808.447	16934.95
808.777	16920.49
809.107	16841.17
809.436	16813.82
809.766	16752.81
810.096	16784.9
810.426	16619.7
810.755	16655.41
811.085	16715.07
811.414	16648.86
811.744	16422.65
812.073	16343.78
812.403	16397.56
812.732	16229.43
813.061	16236.89
813.39	16222.2
813.719	16098.81
814.049	16277.79
814.378	16186.95
814.707	16033.05
815.036	16105.37
815.365	15960.51
815.693	15863.57
816.022	15827.63
816.351	15836.67
816.68	15720.74
817.008	15786.28
817.337	15689.33
817.665	15653.63
817.994	15713.74
818.322	15625.61
818.651	15593.06
818.979	15507.42
819.307	15545.16
819.636	15491.15
819.964	15437.14
820.292	15447.08
820.62	15371.83
820.948	15333.86
821.276	15376.57
821.604	15437.36
821.932	15447.98
822.259	15329.12
822.587	15329.34
822.915	15317.14
823.243	15370.7
823.57	15263.81
823.898	15324.82
824.225	15253.19
824.553	15242.11
824.88	15180.42
825.207	15304.26
825.535	15183.81
825.862	15277.82
826.189	15228.33
826.516	15295.9
826.843	15318.72
827.17	15260.42
827.497	15384.03
827.824	15246.18
828.151	15327.76
828.478	15223.13
828.805	15249.8
829.131	15298.84
829.458	15215.45
829.785	15134.55
830.111	15223.36
830.438	15307.65
830.764	15209.12
831.09	15191.04
831.417	15135
831.743	15202.34
832.069	15240.08
832.395	15174.32
832.722	15116.92
833.048	15078.28
833.374	15166.18
833.7	15149.46
834.026	15153.75
834.351	15153.08
834.677	15083.47
835.003	15102.23
835.329	15038.73
835.654	15076.24
835.98	14899.52
836.306	15049.12
836.631	14943.36
836.956	14865.63
837.282	14965.06
837.607	14835.34
837.932	14842.12
838.258	14775.01
838.583	14889.13
838.908	14757.15
839.233	14805.29
839.558	14784.72
839.883	14741.79
840.208	14583.6
840.533	14710.15
840.858	14634.67
841.182	14652.3
841.507	14543.83
841.832	14497.27
842.156	14555.58
842.481	14526.65
842.805	14363.49
843.13	14436.48
843.454	14427.67
843.778	14294.79
844.103	14243.27
844.427	14280.33
844.751	14304.28
845.075	14221.12
845.399	14228.13
845.723	14034.91
846.047	14202.14
846.371	13950.85
846.695	13975.25
847.019	13818.87
847.343	13860.68
847.666	13708.59
847.99	13694.13
848.313	13770.97
848.637	13655.71
848.96	13596.05
849.284	13531.42
849.607	13409.39
849.931	13426.12
850.254	13260.02
850.577	13290.53
850.9	13160.36
851.223	13189.96
851.546	13086.69
851.869	13009.86
852.192	13106.12
852.515	12910.65
852.838	12876.53
853.161	12850.31
853.483	12703.2
853.806	12699.81
854.129	12718.34
854.451	12674.72
854.774	12666.36
855.096	12641.5
855.419	12574.84
855.741	12535.74
856.063	12538
856.385	12413.71
856.708	12349.08
857.03	12355.86
857.352	12363.77
857.674	12348.18
857.996	12309.76
858.318	12229.76
858.64	12323.77
858.961	12203.55
859.283	12105.7
859.605	11978.24
859.926	12029.99
860.248	12014.63
860.57	11992.48
860.891	11944.12
861.212	11902.99
861.534	11873.61
861.855	11820.73
862.176	11812.6
862.498	11880.85
862.819	11864.58
863.14	11798.59
863.461	11711.58
863.782	11745.71
864.103	11685.14
864.424	11687.63
864.745	11722.21
865.065	11687.86
865.386	11572.38
865.707	11548.2
866.027	11555.43
866.348	11531.7
866.668	11475.21
866.989	11463.68
867.309	11436.34
867.63	11449.44
867.95	11462.78
868.27	11356.11
868.59	11440.63
868.91	11364.25
869.23	11386.85
869.55	11339.39
869.87	11411.25
870.19	11302.33
870.51	11284.93
870.83	11204.71
871.15	11198.38
871.469	11245.38
871.789	11222.78
872.109	11208.77
872.428	11134.2
872.748	11180.3
873.067	11168.1
873.386	11126.97
873.706	11115.89
874.025	11011.26
874.344	10981.43
874.663	11047.42
874.982	11029.34
875.301	10921.55
875.62	10964.49
875.939	10966.97
876.258	10918.61
876.577	10865.73
876.896	10869.8
877.214	10879.29
877.533	10906.18
877.852	10862.57
878.17	10889.23
878.489	10878.61
878.807	10859.4
879.125	10822.79
879.444	10816.92
879.762	10733.31
880.08	10777.15
880.398	10719.29
880.716	10751.61
881.034	10631.61
881.352	10649.24
881.67	10669.8
881.988	10683.14
882.306	10599.3
882.624	10613.31
882.941	10454.89
883.259	10415.8
883.577	10485.4
883.894	10406.53
884.212	10402.92
884.529	10456.48
884.846	10392.07
885.164	10344.16
885.481	10251.51
885.798	10341
886.115	10181.46
886.432	10306.42
886.75	10187.33
887.067	10177.39
887.383	10167.44
887.7	10233.21
888.017	10122.25
888.334	10141.23
888.651	10101.01
888.967	10087.45
889.284	9965.19
889.6	9996.15
889.917	9936.94
890.233	9957.73
890.55	9853.33
890.866	9918.86
891.182	9855.36
891.498	9879.99
891.815	9800
892.131	9759.77
892.447	9782.14
892.763	9676.16
893.079	9739.89
893.395	9647.46
893.71	9675.25
894.026	9622.37
894.342	9633.45
894.657	9499.67
894.973	9479.55
895.289	9536.95
895.604	9466.22
895.92	9435.71
896.235	9407.92
896.55	9308.71
896.865	9292.89
897.181	9292.67
897.496	9363.85
897.811	9277.07
898.126	9241.14
898.441	9175.38
898.756	9092.67
899.071	9101.94
899.386	9107.36
899.7	9059.23
900.015	9028.04
900.33	8905.1
900.644	8916.86
900.959	8976.52
901.273	8892.45
901.588	8888.16
901.902	8806.12
902.216	8752.57
902.531	8783.53
902.845	8719.8
903.159	8669.4
903.473	8613.36
903.787	8618.11
904.101	8569.29
904.415	8591.44
904.729	8517.77
905.042	8513.7
905.356	8509.64
905.67	8396.64
905.984	8483.42
906.297	8385.12
906.611	8345.12
906.924	8307.38
907.237	8228.74
907.551	8213.6
907.864	8272.81
908.177	8181.06
908.491	8200.72
908.804	8145.8
909.117	8084.11
909.43	8025.81
909.743	7962.76
910.056	8051.34
910.368	8003.21
910.681	7917.11
910.994	7859.48
911.307	7833.72
911.619	7738.13
911.932	7840.27
912.244	7785.13
912.557	7769.32
912.869	7705.59
913.181	7657.91
913.494	7665.82
913.806	7626.27
914.118	7560.96
914.43	7537.91
914.742	7508.31
915.054	7489.77
915.366	7465.37
915.678	7377.46
915.99	7369.1
916.302	7303.79
916.613	7350.34
916.925	7300.4
917.236	7297.46
917.548	7287.07
917.859	7216.79
918.171	7123.46
918.482	7185.38
918.794	7054.53
919.105	7098.37
919.416	7033.97
919.727	7025.38
920.038	7009.79
920.349	6966.62
920.66	6985.38
920.971	6925.27
921.282	6910.13
921.593	6859.06
921.903	6838.94
922.214	6785.61
922.525	6745.84
922.835	6745.61
923.146	6636.92
923.456	6709
923.767	6579.74
924.077	6695.45
924.387	6625.84
924.697	6611.83
925.008	6552.62
925.318	6498.39
925.628	6521.89
925.938	6465.17
926.248	6480.31
926.558	6385.17
926.867	6409.35
927.177	6368.22
927.487	6299.75
927.796	6262.91
928.106	6277.83
928.416	6281.67
928.725	6269.69
929.034	6201.67
929.344	6159.19
929.653	6147.44
929.962	6106.08
930.271	6034.9
930.581	6079.42
930.89	6024.95
931.199	5975.92
931.508	5975.01
931.817	5974.11
932.125	5994.9
932.434	5940.66
932.743	5859.99
933.051	5907.22
933.36	5825.19
933.669	5812.08
933.977	5748.58
934.286	5751.74
934.594	5758.97
934.902	5717.39
935.21	5666.77
935.519	5638.3
935.827	5560.33
936.135	5594.91
936.443	5608.24
936.751	5516.04
937.059	5546.1
937.367	5457.29
937.674	5530.96
937.982	5518.75
938.29	5445.76
938.597	5449.6
938.905	5407.8
939.213	5349.49
939.52	5373.22
939.827	5350.85
940.135	5322.15
940.442	5241.02
940.749	5284.86
941.056	5238.08
941.363	5192.89
941.67	5167.8
941.977	5161.47
942.284	5097.3
942.591	5086.67
942.898	5056.62
943.205	5102.94
943.511	5109.95
943.818	5015.49
944.125	4978.43
944.431	4980.69
944.738	4973.68
945.044	4955.6
945.35	4885.32
945.657	4886
945.963	4894.81
946.269	4840.13
946.575	4826.57
946.881	4780.69
947.187	4841.26
947.493	4793.57
947.799	4751.09
948.105	4744.54
948.41	4685.1
948.716	4695.27
949.022	4683.97
949.327	4674.93
949.633	4609.62
949.938	4629.29
950.244	4602.62
950.549	4573.92
950.854	4578.21
951.16	4554.48
951.465	4537.08
951.77	4515.39
952.075	4483.07
952.38	4519.68
952.685	4406.92
952.99	4395.84
953.294	4406.92
953.599	4388.84
953.904	4356.3
954.209	4342.51
954.513	4303.87
954.818	4338.9
955.122	4312.68
955.426	4249.63
955.731	4295.51
956.035	4234.72
956.339	4253.25
956.643	4173.48
956.948	4171.67
957.252	4163.99
957.556	4131.9
957.86	4132.12
958.163	4104.1
958.467	4093.03
958.771	4093.03
959.075	4049.87
959.378	3993.6
959.682	4031.56
959.985	3972.58
960.289	3985.46
960.592	3955.4
960.896	3909.3
961.199	3935.29
961.502	3922.41
961.805	3913.15
962.108	3853.94
962.411	3843.99
962.714	3860.04
963.017	3854.39
963.32	3822.3
963.623	3785.47
963.926	3812.58
964.228	3737.33
964.531	3702.3
964.833	3773.71
965.136	3678.12
965.438	3713.15
965.741	3667.28
966.043	3673.6
966.345	3681.74
966.648	3674.51
966.95	3610.78
967.252	3620.5
967.554	3597.22
967.856	3590.44
968.158	3539.82
968.46	3557.67
968.761	3513.16
969.063	3468.19
969.365	3432.93
969.666	3470.67
969.968	3456.21
970.269	3474.29
970.571	3441.52
970.872	3408.75
971.174	3397
971.475	3418.24
971.776	3367.62
972.077	3331.92
972.378	3353.39
972.679	3311.13
972.98	3309.55
973.281	3343.22
973.582	3285.37
973.883	3272.94
974.183	3295.76
974.484	3208.08
974.785	3219.15
975.085	3210.57
975.386	3224.35
975.686	3167.18
975.986	3163.79
976.287	3101.42
976.587	3126.95
976.887	3137.35
977.187	3097.57
977.487	3080.17
977.787	3064.81
978.087	3053.28
978.387	3026.84
978.687	3079.72
978.987	3010.34
979.286	2994.75
979.586	2977.35
979.885	2975.09
980.185	2969.44
980.484	2952.27
980.784	2938.26
981.083	2936
981.382	2920.63
981.682	2915.43
981.981	2900.74
982.28	2887.64
982.579	2896
982.878	2881.31
983.177	2846.51
983.475	2825.94
983.774	2819.16
984.073	2809.67
984.372	2786.17
984.67	2767.41
984.969	2758.83
985.267	2781.88
985.566	2757.92
985.864	2731.71
986.162	2722.44
986.461	2715.44
986.759	2704.59
987.057	2679.05
987.355	2692.16
987.653	2654.42
987.951	2656.23
988.249	2645.61
988.547	2616.46
988.844	2636.34
989.142	2587.08
989.44	2570.36
989.737	2570.81
990.035	2578.49
990.332	2571.03
990.63	2531.71
990.927	2561.32
991.224	2555.67
991.521	2485.61
991.819	2498.72
992.116	2462.34
992.413	2483.13
992.71	2429.57
993.006	2441.09
993.303	2450.59
993.6	2439.74
993.897	2416.91
994.193	2409.46
994.49	2379.85
994.787	2406.74
995.083	2367.88
995.379	2346.63
995.676	2353.64
995.972	2339.85
996.268	2361.1
996.565	2297.82
996.861	2303.02
997.157	2312.51
997.453	2271.61
997.749	2324.94
998.044	2240.42
998.34	2248.33
998.636	2248.33
998.932	2225.73
999.227	2213.3
999.523	2184.38
999.818	2203.36
1000.114	2181.44
1000.409	2207.65
1000.704	2147.77
1001	2146.64
1001.295	2116.36
1001.59	2123.81
1001.885	2118.16
1002.18	2091.5
1002.475	2104.83
1002.77	2088.56
1003.065	2073.87
1003.359	2071.16
1003.654	2056.7
1003.949	2024.83
1004.243	2013.31
1004.538	2022.8
1004.832	1993.87
1005.127	2005.17
1005.421	1986.64
1005.715	1940.54
1006.009	1949.58
1006.304	1940.09
1006.598	1915.23
1006.892	1923.37
1007.186	1910.94
1007.48	1877.49
1007.773	1894.67
1008.067	1859.41
1008.361	1901
1008.655	1837.72
1008.948	1845.86
1009.242	1828.45
1009.535	1849.02
1009.829	1818.96
1010.122	1770.6
1010.415	1790.94
1010.708	1779.87
1011.001	1766.31
1011.295	1776.03
1011.588	1767.67
1011.881	1717.95
1012.173	1723.82
1012.466	1776.7
1012.759	1731.06
1013.052	1710.27
1013.344	1698.97
1013.637	1702.36
1013.93	1673.88
1014.222	1660.78
1014.514	1660.1
1014.807	1672.75
1015.099	1654.67
1015.391	1625.75
1015.683	1641.79
1015.976	1589.59
1016.268	1638.63
1016.56	1571.51
1016.851	1586.65
1017.143	1573.55
1017.435	1574.45
1017.727	1535.36
1018.018	1521.34
1018.31	1524.51
1018.602	1532.87
1018.893	1526.77
1019.185	1507.33
1019.476	1518.63
1019.767	1494.68
1020.058	1490.38
1020.35	1475.92
1020.641	1454.68
1020.932	1466.88
1021.223	1440.67
1021.514	1429.37
1021.804	1410.61
1022.095	1409.48
1022.386	1415.13
1022.677	1392.76
1022.967	1371.97
1023.258	1356.15
1023.548	1352.76
1023.839	1356.6
1024.129	1376.49
1024.419	1371.97
1024.709	1329.94
1025	1348.47
1025.29	1308.02
1025.58	1314.34
1025.87	1300.11
1026.16	1282.71
1026.449	1276.6
1026.739	1273.89
1027.029	1266.21
1027.319	1242.93
1027.608	1268.24
1027.898	1214.46
1028.187	1235.02
1028.477	1239.77
1028.766	1241.8
1029.055	1184.4
1029.344	1181.01
1029.634	1179.43
1029.923	1185.31
1030.212	1167.46
1030.501	1187.34
1030.79	1173.56
1031.078	1154.35
1031.367	1135.82
1031.656	1147.34
1031.945	1111.19
1032.233	1111.86
1032.522	1122.26
1032.81	1117.51
1033.099	1091.07
1033.387	1085.42
1033.675	1084.52
1033.963	1089.94
1034.251	1083.62
1034.54	1053.79
1034.828	1071.64
1035.116	1056.5
1035.403	1032.77
1035.691	1039.1
1035.979	1035.48
1036.267	1011.53
1036.554	1026.44
1036.842	1026.67
1037.129	1006.1
1037.417	984.41
1037.704	1002.94
1037.992	974.92
1038.279	976.95
1038.566	974.01
1038.853	974.01
1039.14	974.01
