Data from hue_24_FLMS001491_00075.txt Node
Date: Tue Feb 07 17:12:44 GMT 2017
User: dcchb
Spectrometer: FLMS00149
Trigger mode: 0
Integration Time (sec): 2.000000E-2
Scans to average: 10
Electric dark correction enabled: true
Nonlinearity correction enabled: false
Boxcar width: 0
XAxis mode: Wavelengths
Number of Pixels in Spectrum: 2048
>>>>>Begin Spectral Data<<<<<
341.393	-6.05
341.776	-6.05
342.16	-6.05
342.543	-72.03
342.927	-48.98
343.31	-52.15
343.693	-64.57
344.077	-73.16
344.46	-39.49
344.843	-56.44
345.226	-49.89
345.61	-33.16
345.993	-29.1
346.376	-1.3
346.759	5.03
347.142	25.82
347.525	22.43
347.908	68.53
348.291	77.12
348.674	100.39
349.057	99.94
349.44	129.77
349.823	136.1
350.206	164.57
350.588	191.69
350.971	205.02
351.354	217.68
351.737	223.78
352.119	254.51
352.502	261.29
352.884	273.72
353.267	271.46
353.65	310.56
354.032	300.84
354.414	300.16
354.797	311.91
355.179	309.65
355.562	333.61
355.944	336.32
356.326	349.88
356.709	323.21
357.091	312.36
357.473	362.08
357.855	343.1
358.238	355.08
358.62	331.12
359.002	322.08
359.384	342.19
359.766	364.79
360.148	351.91
360.53	353.04
360.912	329.09
361.294	353.95
361.676	328.18
362.057	337
362.439	330.67
362.821	319.6
363.203	323.89
363.584	327.28
363.966	332.93
364.348	322.53
364.729	316.21
365.111	328.86
365.493	329.31
365.874	325.25
366.256	302.65
366.637	335.87
367.019	316.43
367.4	305.13
367.781	308.3
368.163	320.95
368.544	323.89
368.925	291.35
369.306	305.36
369.688	317.34
370.069	315.75
370.45	305.13
370.831	311.91
371.212	318.01
371.593	337
371.974	305.13
372.355	321.4
372.736	299.48
373.117	334.51
373.498	307.17
373.879	330.22
374.26	291.8
374.641	326.15
375.021	326.83
375.402	303.33
375.783	351.23
376.163	329.31
376.544	328.86
376.925	334.96
377.305	328.18
377.686	324.57
378.066	321.86
378.447	310.33
378.827	297.9
379.208	319.82
379.588	324.79
379.968	331.8
380.349	325.25
380.729	352.59
381.109	336.09
381.489	365.02
381.87	331.35
382.25	331.12
382.63	333.61
383.01	364.57
383.39	336.77
383.77	351.23
384.15	339.03
384.53	352.59
384.91	355.3
385.29	353.72
385.67	338.58
386.049	340.84
386.429	374.06
386.809	335.87
387.189	338.35
387.568	369.31
387.948	377.67
388.328	366.83
388.707	354.62
389.087	381.52
389.466	377.9
389.846	371.8
390.225	347.84
390.605	371.35
390.984	378.35
391.363	362.08
391.743	355.3
392.122	363.21
392.501	372.02
392.881	390.33
393.26	381.29
393.639	377.9
394.018	376.32
394.397	384.91
394.776	379.48
395.155	370.89
395.534	412.7
395.913	386.04
396.292	408.63
396.671	419.71
397.05	381.52
397.429	392.36
397.808	380.16
398.186	379.93
398.565	385.58
398.944	393.72
399.323	405.02
399.701	413.6
400.08	385.13
400.458	402.31
400.837	383.55
401.215	407.73
401.594	402.53
401.972	388.97
402.351	429.65
402.729	416.54
403.107	408.63
403.486	429.2
403.864	412.25
404.242	413.15
404.62	421.74
404.999	421.29
405.377	421.51
405.755	418.35
406.133	425.81
406.511	434.4
406.889	412.48
407.267	455.41
407.645	426.26
408.023	437.79
408.401	453.15
408.779	449.08
409.156	461.06
409.534	444.11
409.912	467.84
410.29	456.32
410.667	454.28
411.045	460.84
411.422	453.83
411.8	466.26
412.178	452.02
412.555	475.3
412.933	498.57
413.31	450.89
413.687	474.17
414.065	486.37
414.442	484.34
414.819	487.28
415.197	497.44
415.574	477.78
415.951	509.2
416.328	526.37
416.705	508.29
417.082	501.29
417.46	489.99
417.837	521.85
418.214	501.29
418.591	513.94
418.967	510.33
419.344	533.38
419.721	530.21
420.098	536.54
420.475	540.16
420.852	554.17
421.228	549.65
421.605	546.48
421.982	534.28
422.358	529.08
422.735	552.13
423.111	550.78
423.488	565.92
423.864	532.47
424.241	551.91
424.617	566.6
424.994	578.12
425.37	559.59
425.746	559.14
426.123	579.7
426.499	585.13
426.875	586.93
427.251	582.19
427.627	589.19
428.003	613.6
428.379	593.26
428.756	601.85
429.132	606.37
429.507	619.48
429.883	607.27
430.259	633.49
430.635	624.67
431.011	616.09
431.387	621.06
431.763	635.97
432.138	658.57
432.514	652.24
432.89	666.25
433.265	679.59
433.641	681.39
434.016	666.25
434.392	684.33
434.767	715.97
435.143	700.15
435.518	689.3
435.894	699.47
436.269	706.7
436.644	703.77
437.02	708.06
437.395	732.01
437.77	737.89
438.145	758.68
438.52	746.48
438.895	754.84
439.271	746.7
439.646	755.74
440.021	756.42
440.395	753.26
440.77	785.35
441.145	775.86
441.52	789.19
441.895	772.92
442.27	804.78
442.645	800.04
443.019	781.05
443.394	800.71
443.769	814.72
444.143	794.61
444.518	800.04
444.892	814.27
445.267	813.82
445.641	834.61
446.016	825.8
446.39	831.9
446.764	842.75
447.139	829.41
447.513	834.38
447.887	846.59
448.262	857.44
448.636	840.26
449.01	866.02
449.384	873.93
449.758	870.54
450.132	869.64
450.506	881.16
450.88	908.73
451.254	892.46
451.628	903.76
452.002	903.99
452.376	910.99
452.75	919.81
453.123	937.21
453.497	941.5
453.871	951.44
454.244	973.59
454.618	969.3
454.992	957.09
455.365	947.6
455.739	987.15
456.112	1038.22
456.486	1003.19
456.859	982.4
457.232	1032.57
457.606	1026.02
457.979	1037.54
458.352	1052.01
458.725	1091.33
459.099	1074.83
459.472	1092.91
459.845	1094.04
460.218	1093.36
460.591	1124.77
460.964	1110.08
461.337	1148.95
461.71	1144.43
462.083	1156.86
462.456	1175.17
462.829	1173.81
463.201	1172.46
463.574	1221.72
463.947	1196.86
464.32	1242.96
464.692	1254.49
465.065	1265.56
465.438	1250.65
465.81	1271.44
466.183	1300.59
466.555	1316.41
466.928	1339.23
467.3	1336.07
467.672	1339.23
468.045	1375.61
468.417	1385.1
468.789	1380.81
469.161	1369.06
469.534	1445.22
469.906	1457.65
470.278	1502.84
470.65	1505.33
471.022	1536.06
471.394	1574.7
471.766	1560.92
472.138	1600.69
472.51	1614.7
472.882	1689.5
473.253	1651.31
473.625	1678.88
473.997	1707.13
474.369	1749.16
474.74	1791.65
475.112	1794.13
475.484	1783.06
475.855	1851.31
476.227	1898.76
476.598	1920.01
476.97	1931.53
477.341	2002.26
477.713	2044.97
478.084	2030.06
478.455	2128.14
478.827	2134.92
479.198	2157.29
479.569	2174.24
479.94	2220.79
480.311	2244.74
480.682	2319.09
481.053	2378.3
481.424	2388.92
481.795	2431.4
482.166	2531.29
482.537	2516.15
482.908	2593.43
483.279	2611.51
483.65	2623.94
484.021	2706.65
484.391	2782.36
484.762	2839.98
485.133	2852.86
485.503	2896.03
485.874	2950.94
486.244	2987.32
486.615	3062.12
486.985	3067.77
487.356	3108.22
487.726	3163.14
488.097	3244.04
488.467	3281.78
488.837	3363.58
489.207	3373.53
489.578	3403.58
489.948	3460.76
490.318	3513.64
490.688	3563.8
491.058	3583.24
491.428	3648.32
491.798	3724.7
492.168	3791.14
492.538	3788.66
492.908	3841.54
493.278	3914.53
493.648	3921.76
494.017	3961.99
494.387	4007.63
494.757	4068.65
495.126	4101.64
495.496	4111.13
495.866	4198.36
496.235	4234.3
496.605	4275.42
496.974	4272.49
497.344	4335.31
497.713	4404.46
498.082	4418.7
498.452	4481.07
498.821	4451.46
499.19	4492.37
499.559	4500.5
499.928	4588.64
500.298	4589.54
500.667	4646.71
501.036	4665.7
501.405	4692.59
501.774	4694.62
502.143	4768.29
502.512	4726.94
502.88	4778.01
503.249	4819.59
503.618	4856.65
503.987	4877.44
504.356	4930.55
504.724	4982.52
505.093	4982.3
505.462	5033.14
505.83	5034.05
506.199	5092.35
506.567	5111.33
506.936	5130.54
507.304	5166.25
507.672	5223.65
508.041	5192.69
508.409	5193.82
508.777	5319.24
509.145	5330.54
509.514	5327.6
509.882	5366.47
510.25	5370.99
510.618	5368.73
510.986	5368.95
511.354	5481.04
511.722	5460.03
512.09	5468.16
512.458	5535.28
512.826	5538.44
513.193	5575.73
513.561	5588.38
513.929	5586.12
514.297	5641.49
514.664	5691.43
515.032	5697.53
515.4	5758.55
515.767	5739.11
516.135	5818.66
516.502	5735.27
516.869	5902.27
517.237	5849.17
517.604	5855.95
517.972	5909.51
518.339	5930.75
518.706	5951.31
519.073	5926.23
519.44	5974.59
519.808	6028.15
520.175	5996.73
520.542	6110.4
520.909	6116.51
521.276	6128.48
521.643	6151.31
522.009	6229.05
522.376	6271.98
522.743	6258.65
523.11	6315.37
523.477	6410.06
523.843	6408.93
524.21	6440.34
524.577	6548.58
524.943	6510.85
525.31	6535.93
525.676	6600.79
526.043	6618.87
526.409	6637.17
526.776	6768.47
527.142	6649.15
527.508	6802.82
527.874	6778.41
528.241	6869.71
528.607	6797.62
528.973	6900.21
529.339	6931.4
529.705	6949.93
530.071	7064.96
530.437	7045.29
530.803	7043.94
531.169	7083.03
531.535	7098.63
531.901	7137.04
532.267	7131.17
532.632	7240.09
532.998	7234.22
533.364	7278.06
533.73	7316.47
534.095	7322.12
534.461	7285.51
534.826	7437.38
535.192	7447.32
535.557	7501.78
535.923	7447.32
536.288	7532.29
536.653	7537.49
537.019	7551.04
537.384	7601.66
537.749	7646.18
538.114	7636.01
538.479	7662.91
538.845	7701.77
539.21	7739.74
539.575	7760.98
539.94	7754.65
540.305	7870.58
540.67	7859.96
541.034	7902.9
541.399	7965.27
541.764	7912.84
542.129	7993.52
542.494	8090.24
542.858	8091.6
543.223	8068.32
543.587	8095.21
543.952	8132.5
544.316	8148.77
544.681	8179.05
545.045	8242.1
545.41	8299.05
545.774	8280.06
546.138	8316.9
546.503	8338.37
546.867	8336.33
547.231	8410.23
547.595	8473.73
547.959	8486.84
548.324	8523.67
548.688	8520.74
549.052	8609.32
549.416	8544.92
549.779	8566.38
550.143	8673.73
550.507	8700.84
550.871	8703.56
551.235	8773.16
551.599	8759.83
551.962	8773.61
552.326	8871.91
552.689	8822.88
553.053	8766.38
553.417	8859.94
553.78	8991.91
554.143	8943.1
554.507	8962.76
554.87	9003.66
555.234	9139.25
555.597	9061.06
555.96	9128.63
556.323	9157.56
556.686	9149.42
557.05	9164.34
557.413	9167.95
557.776	9238.91
558.139	9266.71
558.502	9329.75
558.865	9372.01
559.228	9406.14
559.59	9405.46
559.953	9395.29
560.316	9540.6
560.679	9572.69
561.041	9540.82
561.404	9663.08
561.767	9627.6
562.129	9651.1
562.492	9679.35
562.854	9744.66
563.217	9748.73
563.579	9789.63
563.941	9842.96
564.304	9889.97
564.666	9917.99
565.028	9970.19
565.39	9934.48
565.753	10013.58
566.115	10090.19
566.477	10071.43
566.839	10207.25
567.201	10104.65
567.563	10250.63
567.925	10270.97
568.287	10295.38
568.648	10294.7
569.01	10322.72
569.372	10473.23
569.734	10364.53
570.095	10423.51
570.457	10466
570.819	10524.3
571.18	10509.38
571.542	10602.04
571.903	10640.68
572.265	10612.21
572.626	10749.83
572.987	10790.28
573.349	10889.71
573.71	10889.71
574.071	10930.84
574.432	11032.76
574.794	11098.97
575.155	11143.94
575.516	11182.14
575.877	11191.4
576.238	11341
576.599	11432.07
576.96	11403.6
577.32	11480.88
577.681	11556.36
578.042	11721.1
578.403	11741.89
578.763	11883.13
579.124	11995
579.485	12084.03
579.845	12204.03
580.206	12253.75
580.566	12375.55
580.927	12528.31
581.287	12716.78
581.648	12754.52
582.008	12882.66
582.368	12971.92
582.728	13175.08
583.089	13343.43
583.449	13458.69
583.809	13615.52
584.169	13743.65
584.529	13931.67
584.889	14243.3
585.249	14320.58
585.609	14557.19
585.969	14788.82
586.329	14931.19
586.688	15065.2
587.048	15396.94
587.408	15494.11
587.768	15858.4
588.127	15878.96
588.487	16201.89
588.846	16523.01
589.206	16674.87
589.565	16871.93
589.925	17238.7
590.284	17438.69
590.643	17661.96
591.003	18020.37
591.362	18196.41
591.721	18571.77
592.08	18847.47
592.44	19039.1
592.799	19406.78
593.158	19609.48
593.517	20038.63
593.876	20319.3
594.235	20491.04
594.593	20807.42
594.952	21129.44
595.311	21440.4
595.67	21749.77
596.029	22190.66
596.387	22519.46
596.746	22708.61
597.104	22941.6
597.463	23253.68
597.822	23744.06
598.18	23768.7
598.538	24078.29
598.897	24591.5
599.255	24720.76
599.613	25305.38
599.972	25400.29
600.33	25822.2
600.688	25957.79
601.046	26345.8
601.404	26671.9
601.762	26922.96
602.12	27409.96
602.478	27636.62
602.836	27931.98
603.194	28071.18
603.552	28500.78
603.91	28579.42
604.268	29004.04
604.625	29136.47
604.983	29555.44
605.341	29644.47
605.698	30047.85
606.056	30286.49
606.413	30680.38
606.771	30902.07
607.128	31270.19
607.485	31345.45
607.843	31461.83
608.2	32010.74
608.557	32229.27
608.914	32362.37
609.272	32683.26
609.629	32939.76
609.986	33210.03
610.343	33199.18
610.7	33657.48
611.057	33735.89
611.414	34121.42
611.771	34177.24
612.127	34638.02
612.484	34751.23
612.841	34969.98
613.198	35075.52
613.554	35189.19
613.911	35589.63
614.267	35693.81
614.624	35851.54
614.98	36141.48
615.337	36295.15
615.693	36548.7
616.05	36580.34
616.406	36908.92
616.762	36871.4
617.118	37068.23
617.475	37272.07
617.831	37507.32
618.187	37697.6
618.543	37743.92
618.899	38168.09
619.255	38197.92
619.611	38117.25
619.967	38442.66
620.323	38650.79
620.678	38601.3
621.034	38684.92
621.39	38879.26
621.746	38788.87
622.101	39387.72
622.457	39281.74
622.812	39390.89
623.168	39518.57
623.523	39585
623.879	39801.27
624.234	39658.9
624.589	39891.66
624.945	39971.43
625.3	40125.1
625.655	40146.12
626.01	40361.93
626.365	40365.77
626.72	40351.31
627.075	40383.85
627.43	40465.66
627.785	40408.03
628.14	40601.7
628.495	40718.76
628.85	40842.6
629.205	40663.39
629.559	40938.42
629.914	40793.79
630.269	40932.77
630.623	40847.12
630.978	40854.58
631.332	41112.42
631.687	41200.56
632.041	40974.8
632.396	41217.5
632.75	41000.56
633.104	41237.39
633.459	41041.01
633.813	40952.88
634.167	41222.93
634.521	41305.41
634.875	41370.72
635.229	41219.99
635.583	41104.96
635.937	41104.29
636.291	41050.05
636.645	41142.03
636.999	41036.72
637.352	41240.78
637.706	41035.14
638.06	41276.94
638.413	41118.3
638.767	41068.81
639.121	41309.25
639.474	40936.61
639.828	40959.66
640.181	41114
640.534	41147.45
640.888	40976.83
641.241	40863.16
641.594	40887.12
641.947	41147.68
642.301	41083.5
642.654	41034.91
643.007	41051.18
643.36	40968.02
643.713	40955.36
644.066	41227.22
644.419	40873.33
644.771	40721.7
645.124	40516.28
645.477	40336.62
645.83	40171.2
646.182	40004.2
646.535	39885.56
646.888	40055.95
647.24	39704.55
647.593	39970.08
647.945	39966.24
648.298	39818.22
648.65	39751.55
649.002	39701.84
649.355	39832
649.707	39800.82
650.059	40027.48
650.411	40454.81
650.763	40389.05
651.115	40721.25
651.467	40812.32
651.819	40757.4
652.171	40554.47
652.523	40556.05
652.875	40726.44
653.227	40395.38
653.578	40669.04
653.93	40707.01
654.282	40444.87
654.633	40315.61
654.985	40582.72
655.337	40517.18
655.688	40593.79
656.039	40605.09
656.391	40306.79
656.742	40431.31
657.094	40279.22
657.445	40571.42
657.796	40423.4
658.147	40414.14
658.498	40352.89
658.849	40425.43
659.2	40478.77
659.551	40390.63
659.902	40424.98
660.253	40272.22
660.604	40359.67
660.955	40178.21
661.306	40504.98
661.656	40295.72
662.007	40394.93
662.358	40434.02
662.708	40364.42
663.059	40340.92
663.409	40189.73
663.76	40458.2
664.11	40291.88
664.461	40399.9
664.811	40335.04
665.161	40414.81
665.511	40214.14
665.862	40229.96
666.212	40363.29
666.562	40314.02
666.912	40269.05
667.262	40173.92
667.612	40212.11
667.962	40378.88
668.312	40240.81
668.662	40520.8
669.011	40224.31
669.361	40141.37
669.711	40187.47
670.06	40130.3
670.41	40045.78
670.76	40065.9
671.109	40156.29
671.459	40196.97
671.808	40036.07
672.157	40165.1
672.507	39800.59
672.856	39881.72
673.205	40115.84
673.554	40209.17
673.904	39934.15
674.253	40048.49
674.602	40006.69
674.951	39416.2
675.3	39315.18
675.649	39956.75
675.998	39737.09
676.346	39861.83
676.695	40021.38
677.044	39643.53
677.393	39694.83
677.741	39653.93
678.09	39726.02
678.438	39589.3
678.787	39675.4
679.135	39641.05
679.484	39535.51
679.832	39532.58
680.181	39400.83
680.529	39585.46
680.877	39289.19
681.225	39438.79
681.573	39657.54
681.922	39227.73
682.27	39183.88
682.618	39281.51
682.966	39150.67
683.314	39272.24
683.661	39148.18
684.009	38877.68
684.357	38861.18
684.705	38802.88
685.053	38879.03
685.4	38870.22
685.748	38721.75
686.095	38527.86
686.443	38462.77
686.79	38543.45
687.138	38665.48
687.485	38588.65
687.832	38492.6
688.18	38531.02
688.527	38211.48
688.874	38305.26
689.221	38244.02
689.568	38077.93
689.915	37922.45
690.262	38024.59
690.609	37806.97
690.956	37641.1
691.303	37709.12
691.65	37447.89
691.997	37556.58
692.344	37379.19
692.69	37315.46
693.037	37338.51
693.383	36901.23
693.73	37212.41
694.077	36809.48
694.423	36939.65
694.769	36840.22
695.116	36638.64
695.462	36703.27
695.808	36483.17
696.155	36621.47
696.501	36342.6
696.847	36356.39
697.193	36112.55
697.539	36245.21
697.885	36030.75
698.231	36060.13
698.577	35909.62
698.923	35894.93
699.269	35737.42
699.614	35584.88
699.96	35389.63
700.306	35520.7
700.651	35268.28
700.997	35172.01
701.342	35273.48
701.688	35111.9
702.033	34990.1
702.379	34991.68
702.724	34846.82
703.069	34934.51
703.415	34525.02
703.76	34746.04
704.105	34583.33
704.45	34484.12
704.795	34212.26
705.14	34201.19
705.485	34093.17
705.83	33943.8
706.175	34201.64
706.52	34037.58
706.865	33991.71
707.209	33938.6
707.554	33777.93
707.899	33845.49
708.243	33726.18
708.588	33713.52
708.932	33354.43
709.277	33382.46
709.621	33482.57
709.966	33130.48
710.31	33262.91
710.654	33014.56
710.998	32988.12
711.342	32994.22
711.687	32839.19
712.031	32758.07
712.375	32689.59
712.719	32794.22
713.063	32728.46
713.407	32647.56
713.75	32532.76
714.094	32454.12
714.438	32414.8
714.782	32458.19
715.125	32304.29
715.469	32433.1
715.812	32165.76
716.156	31917.41
716.499	31998.76
716.843	32178.19
717.186	31861.14
717.53	31997.41
717.873	32005.99
718.216	31923.28
718.559	31756.74
718.902	31549.51
719.246	31723.29
719.589	31556.51
719.932	31361.27
720.275	31448.27
720.617	31432.45
720.96	31410.53
721.303	31309.06
721.646	31295.73
721.989	31190.42
722.331	31178.67
722.674	30971.45
723.016	31037.43
723.359	31004.66
723.701	31122.63
724.044	30765.58
724.386	30703.43
724.729	30891.9
725.071	30794.05
725.413	30593.38
725.755	30712.47
726.097	30601.74
726.439	30336.21
726.782	30541.63
727.124	30554.96
727.465	30281.29
727.807	30325.59
728.149	30187.74
728.491	30183.9
728.833	30280.16
729.175	30094.63
729.516	30049.21
729.858	30103.67
730.199	30155.2
730.541	30003.34
730.882	30008.98
731.224	30047.18
731.565	29882.21
731.906	29848.31
732.248	29831.14
732.589	29688.99
732.93	29681.54
733.271	29714.76
733.612	29639.5
733.953	29663.68
734.294	29459.85
734.635	29519.73
734.976	29554.08
735.317	29204.49
735.658	29405.84
735.999	29431.15
736.339	29281.09
736.68	29394.76
737.021	29367.19
737.361	29163.13
737.702	29266.41
738.042	29160.42
738.383	29155
738.723	29106.41
739.063	29082.46
739.404	29073.19
739.744	28896.25
740.084	28746.87
740.424	28821.22
740.764	28837.72
741.104	28883.82
741.444	28701.22
741.784	28638.63
742.124	28568.57
742.464	28631.17
742.804	28559.53
743.143	28501.23
743.483	28518.85
743.823	28333.77
744.162	28407.9
744.502	28541.23
744.841	28305.53
745.181	28535.13
745.52	28430.5
745.86	28229.14
746.199	28211.52
746.538	28222.14
746.877	28327.67
747.216	28262.59
747.556	28182.82
747.895	28055.36
748.234	28048.13
748.573	28059.66
748.911	27998.87
749.25	27950.96
749.589	27896.27
749.928	27917.74
750.267	27899.21
750.605	27750.51
750.944	27835.71
751.283	27666.22
751.621	27722.27
751.96	27671.65
752.298	27607.47
752.636	27593.46
752.975	27444.98
753.313	27433.23
753.651	27592.78
753.989	27371.31
754.327	27402.05
754.666	27141.26
755.004	27301.71
755.342	27253.58
755.679	27180.81
756.017	26988.27
756.355	27222.17
756.693	27060.36
757.031	26960.25
757.368	26798
757.706	26811.55
758.044	26729.75
758.381	26752.35
758.719	26647.94
759.056	26701.73
759.394	26504.9
759.731	26438.01
760.068	26448.85
760.405	26332.92
760.743	26254.73
761.08	26293.6
761.417	26108.52
761.754	26111.69
762.091	26046.15
762.428	25930.9
762.765	25842.99
763.102	25892.26
763.438	25721.41
763.775	25674.41
764.112	25752.6
764.449	25628.08
764.785	25489.1
765.122	25387.86
765.458	25239.39
765.795	25320.29
766.131	25250.69
766.467	25122.33
766.804	25062.9
767.14	24929.12
767.476	24869.46
767.812	24736.13
768.148	24723.93
768.485	24574.78
768.821	24508.34
769.157	24549.02
769.492	24529.13
769.828	24386.53
770.164	24071.29
770.5	24143.6
770.836	24248.46
771.171	24040.33
771.507	23927.79
771.842	23777.06
772.178	23815.25
772.513	23734.8
772.849	23684.18
773.184	23489.16
773.519	23538.87
773.855	23402.15
774.19	23369.84
774.525	23115.38
774.86	23348.6
775.195	23070.41
775.53	23046
775.865	22946.12
776.2	22876.07
776.535	22612.57
776.87	22745
777.205	22596.52
777.539	22514.94
777.874	22500.03
778.209	22364.21
778.543	22195.18
778.878	22164.45
779.212	22098.23
779.547	22083.77
779.881	22089.19
780.215	21924
780.55	22013.94
780.884	21829.09
781.218	21662.99
781.552	21693.27
781.886	21586.16
782.22	21425.03
782.554	21431.36
782.888	21181.87
783.222	21105.94
783.556	20979.62
783.889	21047.86
784.223	20881.09
784.557	20892.16
784.89	20806.52
785.224	20659.17
785.557	20598.61
785.891	20579.85
786.224	20497.14
786.558	20437.49
786.891	20300.99
787.224	20345.74
787.557	20159.98
787.891	20226.42
788.224	20143.71
788.557	20118.85
788.89	20072.75
789.223	19925.41
789.556	19820.55
789.888	19768.12
790.221	19726.54
790.554	19564.51
790.887	19524.06
791.219	19478.87
791.552	19408.36
791.884	19290.85
792.217	19314.12
792.549	19293.33
792.882	19133.56
793.214	19054.02
793.546	19016.51
793.879	18896.28
794.211	18802.5
794.543	18793.91
794.875	18839.56
795.207	18877.53
795.539	18685.44
795.871	18713.46
796.203	18461.72
796.535	18441.83
796.867	18449.06
797.198	18362.29
797.53	18346.92
797.862	18282.51
798.193	18258.79
798.525	18068.96
798.856	18080.94
799.188	17941.51
799.519	17838.68
799.85	17856.31
800.182	17806.82
800.513	17816.09
800.844	17625.36
801.175	17689.76
801.506	17710.33
801.837	17576.09
802.168	17520.5
802.499	17429.88
802.83	17355.31
803.161	17241.86
803.491	17340.39
803.822	17351.69
804.153	17184.92
804.483	17003.23
804.814	17111.7
805.145	17046.84
805.475	17051.13
805.805	16924.58
806.136	16936.33
806.466	16932.27
806.796	16838.94
807.126	16719.84
807.457	16699.96
807.787	16690.47
808.117	16620.86
808.447	16522.33
808.777	16534.09
809.107	16524.59
809.436	16444.37
809.766	16342.68
810.096	16324.6
810.426	16351.26
810.755	16304.94
811.085	16207.31
811.414	16140.42
811.744	16085.28
812.073	16078.5
812.403	16048.45
812.732	15934.33
813.061	15979.52
813.39	15917.83
813.719	15853.42
814.049	15876.7
814.378	15784.73
814.707	15658.63
815.036	15708.12
815.365	15604.84
815.693	15503.6
816.022	15489.59
816.351	15493.21
816.68	15376.83
817.008	15453.21
817.337	15274.68
817.665	15223.84
817.994	15245.31
818.322	15299.09
818.651	15227.68
818.979	15174.12
819.307	15259.99
819.636	15116.5
819.964	15001.92
820.292	15087.34
820.62	15143.84
820.948	15035.37
821.276	15033.33
821.604	15022.03
821.932	15096.38
822.259	15054.35
822.587	15043.5
822.915	15035.37
823.243	15002.15
823.57	14966.22
823.898	14901.36
824.225	14906.78
824.553	14970.96
824.88	14909.49
825.207	15015.03
825.535	14877.18
825.862	15002.15
826.189	14854.81
826.516	14977.74
826.843	15005.54
827.17	15025.88
827.497	14913.34
827.824	14998.98
828.151	15001.02
828.478	15000.79
828.805	15002.6
829.131	14941.36
829.458	14907.69
829.785	14856.62
830.111	14842.83
830.438	14971.87
830.764	14868.59
831.09	14883.73
831.417	14827.46
831.743	14885.09
832.069	14842.38
832.395	14786.11
832.722	14843.51
833.048	14831.98
833.374	14850.74
833.7	14693
834.026	14777.07
834.351	14745.88
834.677	14741.82
835.003	14745.43
835.329	14715.83
835.654	14650.97
835.98	14614.14
836.306	14591.54
836.631	14667.92
836.956	14718.09
837.282	14629.05
837.607	14653.91
837.932	14506.34
838.258	14519.9
838.583	14421.82
838.908	14401.49
839.233	14441.71
839.558	14380.7
839.883	14408.49
840.208	14309.96
840.533	14321.71
840.858	14324.88
841.182	14296.18
841.507	14262.05
841.832	14202.39
842.156	14169.85
842.481	14156.07
842.805	14089.4
843.13	14093.25
843.454	14093.92
843.778	14032.68
844.103	13985.9
844.427	13926.7
844.751	13977.32
845.075	13860.48
845.399	13886.25
845.723	13785.46
846.047	13813.25
846.371	13728.28
846.695	13740.49
847.019	13594.28
847.343	13586.59
847.666	13518.35
847.99	13503.66
848.313	13390.89
848.637	13277.67
848.96	13287.16
849.284	13279.26
849.607	13202.42
849.931	13168.3
850.254	13071.8
850.577	12969.21
850.9	12956.1
851.223	12887.4
851.546	12785.03
851.869	12678.59
852.192	12780.74
852.515	12617.13
852.838	12725.6
853.161	12639.72
853.483	12562.89
853.806	12552.49
854.129	12525.83
854.451	12441.31
854.774	12403.35
855.096	12363.57
855.419	12327.64
855.741	12247.87
856.063	12238.6
856.385	12197.02
856.708	12190.47
857.03	12066.86
857.352	12154.99
857.674	12009.46
857.996	12040.87
858.318	11910.03
858.64	11977.59
858.961	11870.25
859.283	11812.85
859.605	11837.94
859.926	11811.95
860.248	11677.72
860.57	11721.1
860.891	11742.35
861.212	11592.29
861.534	11640.2
861.855	11578.74
862.176	11616.7
862.498	11568.11
862.819	11615.34
863.14	11562.24
863.461	11501
863.782	11399.3
864.103	11440.43
864.424	11501
864.745	11402.24
865.065	11399.98
865.386	11376.25
865.707	11343.94
866.027	11343.49
866.348	11279.08
866.668	11327.44
866.989	11227.11
867.309	11308.91
867.63	11257.16
867.95	11251.96
868.27	11167.9
868.59	11227.56
868.91	11100.1
869.23	11130.39
869.55	11029.82
869.87	11139.88
870.19	11127.45
870.51	11110.27
870.83	11045.42
871.15	11035.25
871.469	11024.63
871.789	11015.81
872.109	11021.69
872.428	10930.62
872.748	10970.39
873.067	11000.22
873.386	10966.77
873.706	10881.13
874.025	10840.45
874.344	10756.61
874.663	10872.09
874.982	10792.32
875.301	10775.59
875.62	10751.41
875.939	10709.15
876.258	10781.47
876.577	10754.58
876.896	10693.33
877.214	10701.24
877.533	10649.95
877.852	10711.87
878.17	10643.17
878.489	10643.84
878.807	10552.1
879.125	10607.46
879.444	10545.09
879.762	10490.18
880.08	10548.03
880.398	10481.81
880.716	10509.16
881.034	10531.31
881.352	10467.35
881.67	10385.55
881.988	10378.54
882.306	10330.41
882.624	10329.5
882.941	10272.1
883.259	10270.75
883.577	10263.06
883.894	10257.19
884.212	10225.78
884.529	10244.31
884.846	10273.46
885.164	10217.19
885.481	10136.29
885.798	10144.87
886.115	10075.5
886.432	10114.59
886.75	10069.62
887.067	10104.65
887.383	10002.28
887.7	10051.54
888.017	9917.31
888.334	9999.12
888.651	10029.17
888.967	9938.55
889.284	9872.57
889.6	9821.04
889.917	9787.82
890.233	9783.08
890.55	9782.17
890.866	9729.74
891.182	9695.62
891.498	9697.43
891.815	9624.44
892.131	9541.73
892.447	9596.87
892.763	9522.97
893.079	9494.95
893.395	9503.76
893.71	9464.21
894.026	9415.85
894.342	9418.11
894.657	9387.61
894.973	9350.32
895.289	9329.75
895.604	9316.42
895.92	9285.46
896.235	9193.26
896.55	9186.71
896.865	9201.62
897.181	9124.11
897.496	9130.89
897.811	9071
898.126	8988.75
898.441	8975.64
898.756	8992.59
899.071	8934.96
899.386	8925.92
899.7	8867.62
900.015	8795.31
900.33	8790.11
900.644	8751.24
900.959	8802.76
901.273	8732.93
901.588	8726.15
901.902	8669.43
902.216	8639.38
902.531	8651.13
902.845	8573.39
903.159	8586.27
903.473	8545.14
903.787	8416.56
904.101	8463.79
904.415	8471.7
904.729	8431.25
905.042	8404.36
905.356	8313.96
905.67	8305.37
905.984	8326.39
906.297	8221.08
906.611	8201.42
906.924	8223.8
907.237	8180.63
907.551	8179.28
907.864	8122.78
908.177	8072.16
908.491	8007.98
908.804	8030.35
909.117	8002.78
909.43	7899.28
909.743	7902.22
910.056	7868.32
910.368	7844.37
910.681	7825.16
910.994	7745.62
911.307	7762.56
911.619	7706.97
911.932	7739.51
912.244	7630.82
912.557	7591.72
912.869	7559.18
913.181	7544.72
913.494	7500.2
913.806	7471.27
914.118	7476.02
914.43	7369.13
914.742	7411.84
915.054	7336.59
915.366	7343.82
915.678	7360.77
915.99	7268.11
916.302	7099.53
916.613	7133.43
916.925	7196.7
917.236	7119.87
917.548	7073.77
917.859	7066.09
918.171	7016.14
918.482	7020.44
918.794	6925.07
919.105	6980.21
919.416	6920.33
919.727	6880.1
920.038	6945.86
920.349	6871.74
920.66	6799.43
920.971	6825.87
921.282	6839.88
921.593	6733.44
921.903	6666.55
922.214	6706.09
922.525	6656.38
922.835	6648.92
923.146	6544.07
923.456	6590.84
923.767	6592.65
924.077	6572.31
924.387	6416.84
924.697	6413.22
925.008	6402.6
925.318	6388.82
925.628	6381.13
925.938	6332.55
926.248	6298.65
926.558	6244.86
926.867	6275.82
927.177	6228.14
927.487	6191.08
927.796	6190.18
928.106	6224.98
928.416	6133.91
928.725	6111.08
929.034	6099.56
929.344	6077.18
929.653	6066.56
929.962	5980.92
930.271	6004.19
930.581	5961.48
930.89	5870.64
931.199	5906.12
931.508	5840.58
931.817	5863.86
932.125	5871.31
932.434	5806.23
932.743	5794.03
933.051	5695.27
933.36	5683.97
933.669	5730.98
933.977	5652.11
934.286	5665.67
934.594	5617.08
934.902	5563.07
935.21	5563.3
935.519	5549.97
935.827	5501.38
936.135	5486.47
936.443	5473.36
936.751	5456.64
937.059	5458.9
937.367	5404.66
937.674	5404.89
937.982	5395.39
938.29	5345.9
938.597	5342.51
938.905	5270.2
939.213	5284.21
939.52	5235.17
939.827	5234.27
940.135	5201.73
940.442	5156.08
940.749	5197.66
941.056	5127.61
941.363	5085.35
941.67	5053.71
941.977	5036.76
942.284	5031.79
942.591	5016.87
942.898	4996.76
943.205	4970.32
943.511	4962.41
943.818	5003.09
944.125	4892.81
944.431	4895.75
944.738	4876.31
945.044	4880.15
945.35	4844.45
945.657	4784.79
945.963	4775.52
946.269	4762.42
946.575	4774.17
946.881	4731.23
947.187	4753.15
947.493	4689.42
947.799	4718.8
948.105	4639.93
948.41	4629.54
948.716	4610.78
949.022	4559.03
949.327	4579.82
949.633	4522.42
949.938	4547.51
950.244	4536.43
950.549	4472.03
950.854	4483.55
951.16	4435.65
951.465	4422.54
951.77	4369.89
952.075	4415.76
952.38	4388.64
952.685	4366.95
952.99	4342.54
953.294	4307.29
953.599	4329.66
953.904	4302.77
954.209	4240.4
954.513	4277.46
954.818	4206.95
955.122	4195.65
955.426	4170.57
955.731	4146.16
956.035	4174.18
956.339	4093.51
956.643	4140.06
956.948	4100.97
957.252	4097.12
957.556	4049.22
957.86	4025.49
958.163	4056.9
958.467	4031.14
958.771	4005.15
959.075	4044.47
959.378	3981.42
959.682	3941.87
959.985	3908.88
960.289	3910.01
960.592	3892.16
960.896	3869.56
961.199	3859.84
961.502	3850.58
961.805	3813.97
962.108	3799.28
962.411	3812.84
962.714	3735.55
963.017	3778.49
963.32	3783.91
963.623	3736.23
963.926	3750.69
964.228	3693.74
964.531	3698.72
964.833	3672.5
965.136	3648.1
965.438	3614.65
965.741	3632.96
966.043	3623.24
966.345	3554.09
966.648	3560.41
966.95	3583.47
967.252	3528.33
967.554	3549.57
967.856	3464.15
968.158	3440.19
968.46	3503.92
968.761	3432.06
969.063	3441.32
969.365	3429.57
969.666	3436.58
969.968	3415.79
970.269	3405.16
970.571	3348.22
970.872	3368.56
971.174	3324.94
971.475	3319.52
971.776	3315
972.077	3255.79
972.378	3317.94
972.679	3305.96
972.98	3240.42
973.281	3232.51
973.582	3232.29
973.883	3210.59
974.183	3201.1
974.484	3198.39
974.785	3159.07
975.085	3136.47
975.386	3153.19
975.686	3146.19
975.986	3100.09
976.287	3087.66
976.587	3096.02
976.887	3059.64
977.187	3062.12
977.487	3085.63
977.787	3023.25
978.087	3012.86
978.387	2988
978.687	3003.14
978.987	2977.15
979.286	2969.7
979.586	2953.88
979.885	2985.06
980.185	2921.79
980.484	2926.31
980.784	2906.19
981.083	2926.31
981.382	2860.77
981.682	2862.58
981.981	2847.21
982.28	2885.86
982.579	2847.89
982.878	2862.58
983.177	2802.92
983.475	2786.88
983.774	2815.8
984.073	2773.54
984.372	2732.64
984.67	2736.03
984.969	2746.42
985.267	2741.23
985.566	2702.13
985.864	2738.97
986.162	2689.93
986.461	2679.31
986.759	2673.66
987.057	2624.85
987.355	2589.82
987.653	2629.82
987.951	2592.76
988.249	2597.05
988.547	2598.63
988.844	2567.22
989.142	2580.33
989.44	2524.96
989.737	2544.62
990.035	2509.6
990.332	2527
990.63	2496.04
990.927	2516.83
991.224	2504.85
991.521	2475.25
991.819	2436.83
992.116	2463.04
992.413	2409.03
992.71	2451.97
993.006	2383.72
993.303	2377.4
993.6	2379.43
993.897	2405.19
994.193	2347.79
994.49	2357.28
994.787	2352.76
995.083	2306.21
995.379	2332.65
995.676	2314.35
995.972	2286.32
996.268	2262.37
996.565	2277.06
996.861	2291.97
997.157	2254.46
997.453	2215.37
997.749	2259.21
998.044	2225.31
998.34	2218.53
998.636	2202.03
998.932	2206.55
999.227	2183.05
999.523	2193.45
999.818	2162.49
1000.114	2177.63
1000.409	2159.55
1000.704	2086.78
1001	2120
1001.295	2097.85
1001.59	2109.61
1001.885	2089.49
1002.18	2066.67
1002.475	2055.82
1002.77	2041.58
1003.065	2020.79
1003.359	2016.73
1003.654	2013.56
1003.949	2012.21
1004.243	1977.86
1004.538	1951.19
1004.832	1997.52
1005.127	1937.18
1005.421	1960.68
1005.715	1943.06
1006.009	1912.55
1006.304	1904.19
1006.598	1886.33
1006.892	1892.21
1007.186	1887.46
1007.48	1867.13
1007.773	1897.41
1008.067	1844.98
1008.361	1856.73
1008.655	1867.8
1008.948	1825.32
1009.242	1781.03
1009.535	1830.52
1009.829	1811.08
1010.122	1767.02
1010.415	1751.65
1010.708	1771.08
1011.001	1770.18
1011.295	1746.45
1011.588	1716.85
1011.881	1715.04
1012.173	1709.84
1012.466	1710.29
1012.759	1684.31
1013.052	1702.16
1013.344	1693.35
1013.637	1642.27
1013.93	1652.89
1014.222	1638.43
1014.514	1647.7
1014.807	1621.48
1015.099	1604.53
1015.391	1601.37
1015.683	1572.44
1015.976	1600.47
1016.268	1568.38
1016.56	1523.86
1016.851	1541.26
1017.143	1560.69
1017.435	1547.81
1017.727	1559.34
1018.018	1537.42
1018.31	1505.33
1018.602	1499
1018.893	1489.73
1019.185	1498.55
1019.476	1482.73
1019.767	1482.05
1020.058	1459.23
1020.35	1451.09
1020.641	1440.02
1020.932	1425.78
1021.223	1421.49
1021.514	1439.79
1021.804	1394.82
1022.095	1381.26
1022.386	1361.15
1022.677	1378.78
1022.967	1377.2
1023.258	1372
1023.548	1328.16
1023.839	1335.84
1024.129	1303.3
1024.419	1339.23
1024.709	1308.72
1025	1313.47
1025.29	1324.32
1025.58	1282.06
1025.87	1256.29
1026.16	1283.41
1026.449	1228.72
1026.739	1239.57
1027.029	1246.35
1027.319	1240.02
1027.608	1239.35
1027.898	1233.47
1028.187	1223.53
1028.477	1198.44
1028.766	1217.88
1029.055	1181.04
1029.344	1190.76
1029.634	1181.27
1029.923	1157.77
1030.212	1144.43
1030.501	1146.47
1030.79	1161.16
1031.078	1144.66
1031.367	1124.09
1031.656	1122.06
1031.945	1094.49
1032.233	1128.16
1032.522	1106.02
1032.81	1099.46
1033.099	1104.89
1033.387	1108.05
1033.675	1090.88
1033.963	1025.57
1034.251	1062.63
1034.54	1042.74
1034.828	1047.71
1035.116	1026.92
1035.403	1021.27
1035.691	1056.98
1035.979	1027.15
1036.267	1001.16
1036.554	1012.46
1036.842	1003.65
1037.129	1012.46
1037.417	983.53
1037.704	970.88
1037.992	980.82
1038.279	960.71
1038.566	960.71
1038.853	960.71
1039.14	960.71
