Data from hue_250_FLMS001491_00036.txt Node
Date: Tue Feb 07 16:00:53 GMT 2017
User: dcchb
Spectrometer: FLMS00149
Trigger mode: 0
Integration Time (sec): 2.000000E-2
Scans to average: 10
Electric dark correction enabled: true
Nonlinearity correction enabled: false
Boxcar width: 0
XAxis mode: Wavelengths
Number of Pixels in Spectrum: 2048
>>>>>Begin Spectral Data<<<<<
341.393	-14.03
341.776	-14.03
342.16	-14.03
342.543	-56.74
342.927	-63.29
343.31	-68.03
343.693	-71.88
344.077	-50.63
344.46	-60.58
344.843	-36.85
345.226	-34.82
345.61	-43.63
345.993	-4.99
346.376	-3.18
346.759	1.79
347.142	27.1
347.525	38.4
347.908	60.55
348.291	63.04
348.674	77.5
349.057	106.2
349.44	120.21
349.823	156.59
350.206	165.18
350.588	183.26
350.971	204.5
351.354	206.99
351.737	218.29
352.119	230.71
352.502	254.44
352.884	256.93
353.267	290.37
353.65	283.82
354.032	281.33
354.414	274.55
354.797	321.33
355.179	301.22
355.562	321.79
355.944	319.53
356.326	319.53
356.709	310.26
357.091	316.59
357.473	344.38
357.855	326.08
358.238	315.91
358.62	336.02
359.002	335.12
359.384	316.81
359.766	338.28
360.148	331.05
360.53	323.14
360.912	323.14
361.294	327.43
361.676	329.02
362.057	316.36
362.439	324.5
362.821	324.05
363.203	298.28
363.584	338.51
363.966	317.04
364.348	313.2
364.729	314.33
365.111	301.67
365.493	325.63
365.874	301.9
366.256	310.49
366.637	291.28
367.019	287.66
367.4	287.89
367.781	290.6
368.163	300.09
368.544	304.16
368.925	306.87
369.306	301.22
369.688	306.87
370.069	325.4
370.45	297.38
370.831	294.89
371.212	288.79
371.593	325.85
371.974	311.39
372.355	303.48
372.736	285.63
373.117	314.33
373.498	300.54
373.879	305.29
374.26	303.48
374.641	312.97
375.021	317.27
375.402	307.55
375.783	312.29
376.163	322.46
376.544	306.64
376.925	309.13
377.305	294.22
377.686	307.1
378.066	315.46
378.447	296.48
378.827	321.56
379.208	303.48
379.588	324.05
379.968	329.47
380.349	322.92
380.729	317.49
381.109	321.79
381.489	313.88
381.87	335.57
382.25	326.98
382.63	314.1
383.01	326.98
383.39	333.76
383.77	333.54
384.15	351.84
384.53	334.21
384.91	332.18
385.29	339.41
385.67	361.33
386.049	346.19
386.429	319.07
386.809	348.45
387.189	333.99
387.568	350.94
387.948	330.82
388.328	333.76
388.707	351.16
389.087	337.38
389.466	356.13
389.846	347.55
390.225	343.93
390.605	338.28
390.984	360.43
391.363	358.85
391.743	370.6
392.122	385.06
392.501	380.09
392.881	366.53
393.26	360.65
393.639	380.77
394.018	371.05
394.397	376.02
394.776	377.83
395.155	375.8
395.534	370.15
395.913	370.37
396.292	382.8
396.671	385.29
397.05	403.37
397.429	379.86
397.808	379.41
398.186	387.77
398.565	378.51
398.944	392.52
399.323	390.71
399.701	396.36
400.08	380.31
400.458	406.08
400.837	388.22
401.215	415.34
401.594	409.92
401.972	406.98
402.351	419.86
402.729	417.15
403.107	420.09
403.486	424.61
403.864	421.67
404.242	422.35
404.62	450.37
404.999	425.96
405.377	464.15
405.755	436.36
406.133	456.02
406.511	437.26
406.889	450.6
407.267	450.6
407.645	483.81
408.023	474.78
408.401	461.89
408.779	471.84
409.156	466.87
409.534	487.43
409.912	496.92
410.29	497.83
410.667	510.25
411.045	532.85
411.422	510.71
411.8	493.76
412.178	544.15
412.555	520.65
412.933	533.31
413.31	550.25
413.687	553.42
414.065	565.39
414.442	563.36
414.819	566.52
415.197	558.39
415.574	592.51
415.951	582.12
416.328	579.18
416.705	583.02
417.082	583.7
417.46	620.76
417.837	609.91
418.214	615.79
418.591	632.51
418.967	612.17
419.344	609.46
419.721	665.51
420.098	637.03
420.475	655.79
420.852	670.25
421.228	705.73
421.605	713.41
421.982	697.59
422.358	727.65
422.735	715.9
423.111	719.97
423.488	730.59
423.864	742.79
424.241	756.8
424.617	763.81
424.994	771.94
425.37	773.98
425.746	782.79
426.123	807.87
426.499	785.05
426.875	805.84
427.251	837.93
427.627	850.58
428.003	822.56
428.379	829.79
428.756	846.29
429.132	843.13
429.507	864.14
429.883	875.67
430.259	928.55
430.635	911.83
431.011	899.17
431.387	922.67
431.763	959.28
432.138	965.61
432.514	953.41
432.89	969.68
433.265	988.21
433.641	1006.97
434.016	1039.96
434.392	1041.54
434.767	1039.28
435.143	1063.46
435.518	1089.9
435.894	1079.28
436.269	1111.37
436.644	1117.7
437.02	1143.23
437.395	1131.48
437.77	1138.94
438.145	1192.27
438.52	1187.3
438.895	1182.1
439.271	1221.65
439.646	1252.38
440.021	1263.68
440.395	1271.36
440.77	1271.82
441.145	1285.38
441.52	1287.18
441.895	1289.22
442.27	1356.11
442.645	1336.9
443.019	1346.17
443.394	1352.27
443.769	1381.19
444.143	1336.22
444.518	1387.07
444.892	1406.73
445.267	1406.28
445.641	1441.53
446.016	1415.09
446.39	1437.91
446.764	1428.87
447.139	1462.32
447.513	1476.11
447.887	1488.76
448.262	1501.19
448.636	1483.79
449.01	1511.36
449.384	1497.35
449.758	1540.28
450.132	1532.37
450.506	1554.07
450.88	1541.64
451.254	1555.2
451.628	1584.8
452.002	1610.34
452.376	1646.95
452.75	1638.36
453.123	1654.86
453.497	1687.17
453.871	1648.53
454.244	1717.23
454.618	1722.43
454.992	1756.32
455.365	1747.51
455.739	1747.51
456.112	1785.02
456.486	1780.73
456.859	1835.42
457.232	1828.19
457.606	1845.14
457.979	1844.46
458.352	1888.98
458.725	1928.3
459.099	1905.02
459.472	1936.88
459.845	1950.67
460.218	1965.58
460.591	2018.46
460.964	2014.17
461.337	2059.37
461.71	2090.33
462.083	2113.15
462.456	2108.86
462.829	2104.34
463.201	2145.24
463.574	2161.74
463.947	2193.15
464.32	2217.1
464.692	2243.77
465.065	2241.96
465.438	2310.21
465.81	2327.38
466.183	2344.33
466.555	2367.61
466.928	2425.23
467.3	2420.71
467.672	2433.82
468.045	2519.47
468.417	2529.64
468.789	2506.81
469.161	2531.22
469.534	2577.77
469.906	2613.25
470.278	2620.03
470.65	2653.25
471.022	2709.52
471.394	2762.4
471.766	2742.06
472.138	2758.11
472.51	2825.22
472.882	2892.79
473.253	2913.36
473.625	2913.36
473.997	3005.56
474.369	3014.37
474.74	3020.47
475.112	3111.54
475.484	3171.43
475.855	3194.25
476.227	3187.47
476.598	3306.11
476.97	3291.42
477.341	3367.13
477.713	3379.56
478.084	3457.3
478.455	3502.04
478.827	3558.76
479.198	3632.88
479.569	3623.85
479.94	3676.05
480.311	3730.28
480.682	3781.13
481.053	3906.1
481.424	3907
481.795	3924.4
482.166	3942.71
482.537	4013.21
482.908	4131.85
483.279	4160.55
483.65	4204.85
484.021	4299.76
484.391	4318.06
484.762	4400.32
485.133	4366.88
485.503	4427.21
485.874	4486.87
486.244	4548.57
486.615	4656.36
486.985	4696.59
487.356	4749.92
487.726	4733.19
488.097	4874.66
488.467	4867.88
488.837	4968.89
489.207	4989.69
489.578	5023.58
489.948	5120.76
490.318	5143.35
490.688	5171.38
491.058	5253.63
491.428	5320.07
491.798	5315.1
492.168	5454.53
492.538	5446.85
492.908	5496.56
493.278	5538.15
493.648	5564.81
494.017	5624.47
494.387	5650.91
494.757	5720.51
495.126	5769.78
495.496	5728.87
495.866	5811.81
496.235	5832.15
496.605	5913.5
496.974	5928.19
497.344	5948.53
497.713	5959.38
498.082	5990.34
498.452	6031.47
498.821	6074.4
499.19	6081.63
499.559	6129.09
499.928	6149.88
500.298	6198.47
500.667	6241.86
501.036	6213.38
501.405	6261.97
501.774	6256.54
502.143	6305.81
502.512	6339.93
502.88	6398.69
503.249	6392.81
503.618	6447.5
503.987	6436.88
504.356	6441.85
504.724	6460.61
505.093	6533.83
505.462	6496.31
505.83	6530.21
506.199	6577.67
506.567	6669.87
506.936	6653.6
507.304	6717.55
507.672	6684.56
508.041	6724.78
508.409	6845.23
508.777	6794.61
509.145	6823.54
509.514	6842.97
509.882	6858.79
510.25	6878.68
510.618	6893.59
510.986	6852.91
511.354	6948.73
511.722	6964.32
512.09	6997.54
512.458	6931.56
512.826	6971.1
513.193	7033.7
513.561	7057.65
513.929	7043.42
514.297	7128.84
514.664	7113.02
515.032	7151.44
515.4	7205.9
515.767	7159.35
516.135	7228.04
516.502	7157.54
516.869	7268.27
517.237	7239.34
517.604	7236.86
517.972	7308.72
518.339	7324.09
518.706	7325.44
519.073	7329.96
519.44	7334.93
519.808	7444.99
520.175	7395.05
520.542	7426.23
520.909	7470.52
521.276	7408.6
521.643	7476.4
522.009	7462.39
522.376	7562.05
522.743	7536.28
523.11	7606.11
523.477	7678.2
523.843	7618.99
524.21	7681.82
524.577	7720.01
524.943	7696.51
525.31	7783.28
525.676	7766.79
526.043	7824.19
526.409	7836.39
526.776	7854.69
527.142	7844.75
527.508	7851.98
527.874	7875.26
528.241	7922.94
528.607	7946.44
528.973	7988.7
529.339	7860.12
529.705	7966.78
530.071	7943.73
530.437	7981.02
530.803	7984.18
531.169	8082.94
531.535	7983.5
531.901	7978.99
532.267	8048.36
532.632	8047.01
532.998	8046.55
533.364	8056.5
533.73	8030.28
534.095	8075.48
534.461	8029.38
534.826	8045.2
535.192	8009.04
535.557	8111.19
535.923	8056.05
536.288	8023.28
536.653	8096.04
537.019	8006.1
537.384	8027.8
537.749	8120
538.114	8082.71
538.479	8042.49
538.845	8036.16
539.21	8063.95
539.575	8013.11
539.94	8030.74
540.305	8021.7
540.67	8008.59
541.034	8066.44
541.399	8044.97
541.764	8080.68
542.129	8030.96
542.494	7984.86
542.858	8011.53
543.223	7968.14
543.587	8041.81
543.952	8015.59
544.316	8046.55
544.681	8025.76
545.045	8034.8
545.41	8002.49
545.774	8014.69
546.138	8006.33
546.503	8051.98
546.867	7942.6
547.231	8000.91
547.595	7973.56
547.959	7941.92
548.324	7960.23
548.688	8004.3
549.052	7993.45
549.416	7972.88
549.779	8014.92
550.143	7942.6
550.507	7939.66
550.871	7980.79
551.235	7966.33
551.599	7987.12
551.962	7960
552.326	7956.61
552.689	7922.72
553.053	7909.61
553.417	7950.29
553.78	8010.85
554.143	7939.66
554.507	7991.41
554.87	7950.74
555.234	8007.46
555.597	7949.83
555.96	7983.73
556.323	8050.4
556.686	7970.4
557.05	8072.54
557.413	8024.63
557.776	7948.48
558.139	8032.54
558.502	8038.42
558.865	8016.27
559.228	8077.29
559.59	8063.95
559.953	8075.71
560.316	8143.27
560.679	8081.81
561.041	8174.01
561.404	8110.51
561.767	8179.66
562.129	8188.92
562.492	8222.59
562.854	8163.39
563.217	8188.7
563.579	8218.53
563.941	8237.51
564.304	8275.93
564.666	8301.01
565.028	8268.92
565.39	8275.02
565.753	8294.68
566.115	8366.09
566.477	8348.01
566.839	8355.92
567.201	8379.88
567.563	8428.01
567.925	8493.1
568.287	8504.62
568.648	8476.83
569.01	8479.99
569.372	8536.48
569.734	8498.97
570.095	8554.34
570.457	8595.01
570.819	8635.69
571.18	8583.94
571.542	8690.38
571.903	8623.04
572.265	8708.46
572.626	8662.58
572.987	8736.25
573.349	8694.9
573.71	8761.34
574.071	8761.34
574.432	8774.67
574.794	8832.52
575.155	8835.69
575.516	8816.93
575.877	8898.06
576.238	8879.3
576.599	8957.49
576.96	8990.03
577.32	8939.64
577.681	9025.29
578.042	8980.77
578.403	8965.85
578.763	9029.13
579.124	9054.89
579.485	9000.88
579.845	9097.15
580.206	9058.05
580.566	9047.21
580.927	9089.69
581.287	9152.29
581.648	9112.74
582.008	9178.73
582.368	9142.12
582.728	9136.69
583.089	9190.03
583.449	9211.72
583.809	9209.69
584.169	9214.88
584.529	9205.17
584.889	9304.37
585.249	9291.27
585.609	9271.15
585.969	9260.53
586.329	9249.46
586.688	9286.75
587.048	9322.68
587.408	9246.07
587.768	9227.54
588.127	9332.17
588.487	9363.13
588.846	9375.78
589.206	9287.65
589.565	9294.2
589.925	9401.77
590.284	9419.17
590.643	9388.21
591.003	9429.79
591.362	9481.32
591.721	9461.21
592.08	9519.28
592.44	9464.37
592.799	9478.38
593.158	9474.09
593.517	9431.15
593.876	9460.98
594.235	9482
594.593	9517.7
594.952	9517.25
595.311	9528.1
595.67	9506.63
596.029	9564.48
596.387	9571.71
596.746	9588.89
597.104	9575.1
597.463	9552.96
597.822	9559.73
598.18	9495.78
598.538	9592.5
598.897	9687.41
599.255	9578.72
599.613	9698.49
599.972	9575.78
600.33	9676.79
600.688	9568.55
601.046	9652.16
601.404	9648.77
601.762	9600.41
602.12	9738.26
602.478	9678.6
602.836	9664.14
603.194	9516.12
603.552	9673.63
603.91	9675.89
604.268	9646.06
604.625	9629.11
604.983	9697.13
605.341	9631.6
605.698	9696.23
606.056	9724.25
606.413	9729.22
606.771	9760.41
607.128	9726.51
607.485	9719.73
607.843	9715.89
608.2	9747.98
608.557	9811.03
608.914	9676.57
609.272	9785.49
609.629	9783.01
609.986	9782.1
610.343	9786.85
610.7	9899.39
611.057	9867.52
611.414	9771.93
611.771	9877.24
612.127	9906.84
612.484	9952.49
612.841	9967.63
613.198	9863.68
613.554	9910.91
613.911	9909.33
614.267	9957.24
614.624	9937.35
614.98	9883.12
615.337	9966.28
615.693	9967.41
616.05	10005.37
616.406	9989.33
616.762	9929.22
617.118	9949.1
617.475	9971.7
617.831	9896.45
618.187	9987.97
618.543	10005.37
618.899	10089.66
619.255	10094.64
619.611	10060.29
619.967	10088.76
620.323	9994.98
620.678	10065.26
621.034	10041.08
621.39	10095.09
621.746	10027.29
622.101	10121.3
622.457	10084.47
622.812	10014.19
623.168	10097.35
623.523	10084.92
623.879	10112.49
624.234	10048.08
624.589	10037.91
624.945	10121.53
625.3	10078.82
625.655	10127.86
626.01	10134.86
626.365	10171.24
626.72	10081.75
627.075	10080.17
627.43	10064.58
627.785	9981.19
628.14	10075.88
628.495	10057.57
628.85	10063.68
629.205	9956.56
629.559	10087.4
629.914	10004.02
630.269	10075.43
630.623	10025.03
630.978	9920.63
631.332	10034.07
631.687	9998.59
632.041	9994.3
632.396	9959.95
632.75	9845.6
633.104	9937.8
633.459	9845.6
633.813	9921.31
634.167	9927.18
634.521	9883.57
634.875	9865.49
635.229	9902.55
635.583	9799.73
635.937	9790.24
636.291	9830.01
636.645	9819.61
636.999	9806.73
637.352	9801.76
637.706	9752.5
638.06	9814.87
638.413	9760.63
638.767	9755.89
639.121	9828.2
639.474	9675.89
639.828	9702.33
640.181	9731.26
640.534	9657.36
640.888	9657.59
641.241	9673.4
641.594	9657.81
641.947	9660.07
642.301	9649
642.654	9604.93
643.007	9613.52
643.36	9613.07
643.713	9668.21
644.066	9637.47
644.419	9588.89
644.771	9495.1
645.124	9465.27
645.477	9431.83
645.83	9367.88
646.182	9319.97
646.535	9271.83
646.888	9331.94
647.24	9303.02
647.593	9310.25
647.945	9242.91
648.298	9234.55
648.65	9275.67
649.002	9241.32
649.355	9299.18
649.707	9244.71
650.059	9266.18
650.411	9413.07
650.763	9375.56
651.115	9444.94
651.467	9502.11
651.819	9522.45
652.171	9469.79
652.523	9416.24
652.875	9423.92
653.227	9355.45
653.578	9477.93
653.93	9500.53
654.282	9406.29
654.633	9371.26
654.985	9411.94
655.337	9376.46
655.688	9429.79
656.039	9467.08
656.391	9395.67
656.742	9367.65
657.094	9376.91
657.445	9412.39
657.796	9365.16
658.147	9431.15
658.498	9397.48
658.849	9369.46
659.2	9399.06
659.551	9317.71
659.902	9409.91
660.253	9413.52
660.604	9416.24
660.955	9329.46
661.306	9425.5
661.656	9432.28
662.007	9434.99
662.358	9404.03
662.708	9427.53
663.059	9365.62
663.409	9353.19
663.76	9398.16
664.11	9420.98
664.461	9478.38
664.811	9432.73
665.161	9371.49
665.511	9417.82
665.862	9371.04
666.212	9448.78
666.562	9430.02
666.912	9407.65
667.262	9402.9
667.612	9394.77
667.962	9386.41
668.312	9347.08
668.662	9432.05
669.011	9409.23
669.361	9328.33
669.711	9295.33
670.06	9359.97
670.41	9353.64
670.76	9367.65
671.109	9411.04
671.459	9312.28
671.808	9349.57
672.157	9341.66
672.507	9325.16
672.856	9402.9
673.205	9378.27
673.554	9399.29
673.904	9288.33
674.253	9449.23
674.602	9312.28
674.951	9195.45
675.3	9184.83
675.649	9273.41
675.998	9183.25
676.346	9256.01
676.695	9270.93
677.044	9200.87
677.393	9361.77
677.741	9237.71
678.09	9164.94
678.438	9161.78
678.787	9216.01
679.135	9147.09
679.484	9103.02
679.832	9164.72
680.181	9108.67
680.529	9117.49
680.877	9143.25
681.225	9131.05
681.573	9118.62
681.922	9085.85
682.27	9089.24
682.618	8992.07
682.966	8998.62
683.314	9038.39
683.661	9007.66
684.009	8957.26
684.357	8916.14
684.705	8919.07
685.053	8925.85
685.4	8928.34
685.748	8892.63
686.095	8887.66
686.443	8816.48
686.79	8811.73
687.138	8869.36
687.485	8845.18
687.832	8783.03
688.18	8824.16
688.527	8715.46
688.874	8735.35
689.221	8690.6
689.568	8702.13
689.915	8656.71
690.262	8641.57
690.609	8649.7
690.956	8535.58
691.303	8600.21
691.65	8555.02
691.997	8490.38
692.344	8420.56
692.69	8432.08
693.037	8421.01
693.383	8348.92
693.73	8416.71
694.077	8367.9
694.423	8373.1
694.769	8277.06
695.116	8315.47
695.462	8208.36
695.808	8257.85
696.155	8272.76
696.501	8212.88
696.847	8195.25
697.193	8100.79
697.539	8099.21
697.885	8031.19
698.231	8079.77
698.577	8046.33
698.923	7984.18
699.269	8008.59
699.614	7952.32
699.96	7947.12
700.306	7909.83
700.651	7888.37
700.997	7878.42
701.342	7807.24
701.688	7827.8
702.033	7782.61
702.379	7715.04
702.724	7680.24
703.069	7766.34
703.415	7618.54
703.76	7666
704.105	7648.6
704.45	7612.22
704.795	7591.88
705.14	7516.85
705.485	7507.59
705.83	7506
706.175	7470.07
706.52	7467.81
706.865	7415.61
707.209	7399.11
707.554	7383.75
707.899	7402.5
708.243	7390.3
708.588	7377.87
708.932	7307.82
709.277	7318.21
709.621	7305.56
709.966	7235.05
710.31	7284.99
710.654	7182.62
710.998	7171.1
711.342	7187.82
711.687	7198.67
712.031	7185.33
712.375	7138.33
712.719	7133.58
713.063	7132.68
713.407	7140.14
713.75	7118.22
714.094	7083.64
714.438	7028.95
714.782	7035.73
715.125	7020.82
715.469	6995.51
715.812	6978.11
716.156	7011.33
716.499	6999.35
716.843	6902.63
717.186	6926.81
717.53	6943.53
717.873	6976.3
718.216	6957.09
718.559	6894.95
718.902	6841.84
719.246	6857.43
719.589	6832.57
719.932	6836.19
720.275	6845.46
720.617	6794.16
720.96	6825.57
721.303	6786.25
721.646	6790.99
721.989	6749.19
722.331	6739.02
722.674	6745.57
723.016	6760.94
723.359	6723.65
723.701	6755.97
724.044	6706.02
724.386	6715.29
724.729	6708.51
725.071	6742.18
725.413	6706.25
725.755	6680.04
726.097	6698.34
726.439	6650.88
726.782	6692.47
727.124	6691.79
727.465	6638.68
727.807	6670.77
728.149	6578.34
728.491	6607.5
728.833	6665.12
729.175	6644.33
729.516	6620.38
729.858	6635.52
730.199	6586.25
730.541	6623.09
730.882	6555.75
731.224	6632.58
731.565	6554.16
731.906	6535.18
732.248	6536.76
732.589	6575.18
732.93	6528.63
733.271	6563.88
733.612	6562.98
733.953	6552.36
734.294	6534.73
734.635	6522.98
734.976	6607.27
735.317	6565.24
735.658	6510.55
735.999	6585.58
736.339	6528.85
736.68	6600.49
737.021	6584.9
737.361	6536.99
737.702	6597.55
738.042	6535.41
738.383	6607.04
738.723	6558.23
739.063	6548.74
739.404	6635.97
739.744	6553.94
740.084	6523.88
740.424	6593.48
740.764	6588.74
741.104	6608.17
741.444	6594.84
741.784	6594.84
742.124	6612.47
742.464	6564.56
742.804	6621.51
743.143	6682.97
743.483	6647.95
743.823	6669.87
744.162	6706.25
744.502	6677.1
744.841	6718.45
745.181	6719.13
745.52	6731.79
745.86	6706.7
746.199	6780.82
746.538	6773.37
746.877	6849.07
747.216	6887.71
747.556	6826.93
747.895	6885.23
748.234	6906.47
748.573	6947.83
748.911	6887.04
749.25	7009.75
749.589	7030.99
749.928	7121.15
750.267	7182.17
750.605	7160.48
750.944	7217.65
751.283	7249.06
751.621	7277.76
751.96	7360.92
752.298	7414.25
752.636	7531.31
752.975	7548.26
753.313	7576.28
753.651	7672.33
753.989	7734.02
754.327	7790.97
754.666	7844.53
755.004	7925.43
755.342	8031.41
755.679	8055.59
756.017	8162.26
756.355	8274.57
756.693	8417.62
757.031	8460.33
757.368	8487.45
757.706	8586.65
758.044	8709.59
758.381	8828
758.719	8899.64
759.056	8893.54
759.394	9095.34
759.731	9179.18
760.068	9249.01
760.405	9405.61
760.743	9417.82
761.08	9573.52
761.417	9646.74
761.754	9682.44
762.091	9829.78
762.428	9966.5
762.765	10049.89
763.102	10142.09
763.438	10178.7
763.775	10350.9
764.112	10415.53
764.449	10546.83
764.785	10613.04
765.122	10601.29
765.458	10785.01
765.795	10851.9
766.131	11018.68
766.467	11052.35
766.804	11110.43
767.14	11175.96
767.476	11255.06
767.812	11368.95
768.148	11479.01
768.485	11424.32
768.821	11472.45
769.157	11612.11
769.492	11701.83
769.828	11706.57
770.164	11742.95
770.5	11827.92
770.836	11876.51
771.171	11965.77
771.507	11988.82
771.842	12017.07
772.178	12069.73
772.513	11997.86
772.849	12058.43
773.184	12118.31
773.519	12253.45
773.855	12188.37
774.19	12297.52
774.525	12345.42
774.86	12391.75
775.195	12395.59
775.53	12473.1
775.865	12361.47
776.2	12429.04
776.535	12361.02
776.87	12455.25
777.205	12442.14
777.539	12464.97
777.874	12551.07
778.209	12448.02
778.543	12461.13
778.878	12407.34
779.212	12558.75
779.547	12467
779.881	12544.29
780.215	12451.41
780.55	12563.95
780.884	12443.73
781.218	12571.18
781.552	12594.68
781.886	12513.78
782.22	12480.56
782.554	12388.81
782.888	12347.01
783.222	12401.92
783.556	12371.64
783.889	12378.87
784.223	12247.57
784.557	12325.54
784.89	12336.84
785.224	12307.01
785.557	12288.93
785.891	12217.74
786.224	12286.22
786.558	12277.63
786.891	12079.67
787.224	12215.71
787.557	12171.64
787.891	12163.96
788.224	12154.92
788.557	12131.64
788.89	12153.34
789.223	12162.83
789.556	12085.77
789.888	12032.44
790.221	12033.12
790.554	11946.79
790.887	12004.64
791.219	11914.02
791.552	11957.86
791.884	11914.25
792.217	11794.48
792.549	11818.66
792.882	11830.18
793.214	11716.97
793.546	11765.1
793.879	11685.1
794.211	11604.88
794.543	11724.88
794.875	11638.32
795.207	11667.25
795.539	11585.44
795.871	11615.27
796.203	11515.39
796.535	11476.97
796.867	11485.56
797.198	11403.3
797.53	11450.98
797.862	11382.51
798.193	11452.57
798.525	11326.92
798.856	11357.2
799.188	11244.44
799.519	11296.64
799.85	11218.67
800.182	11235.85
800.513	11208.5
800.844	11120.82
801.175	11151.33
801.506	11112.91
801.837	11085.34
802.168	11125.8
802.499	11037.89
802.83	11045.8
803.161	11013.03
803.491	10963.31
803.822	10950.66
804.153	10886.93
804.483	10855.29
804.814	10869.08
805.145	10862.53
805.475	10815.07
805.805	10809.42
806.136	10789.31
806.466	10808.97
806.796	10814.16
807.126	10726.71
807.457	10652.81
807.787	10679.03
808.117	10576.2
808.447	10559.71
808.777	10598.35
809.107	10501.18
809.436	10495.3
809.766	10599.48
810.096	10494.4
810.426	10473.61
810.755	10509.54
811.085	10468.19
811.414	10389.77
811.744	10322.43
812.073	10306.38
812.403	10417.79
812.732	10292.14
813.061	10273.16
813.39	10210.79
813.719	10248.53
814.049	10225.03
814.378	10222.32
814.707	10161.75
815.036	10153.39
815.365	10128.08
815.693	10051.7
816.022	10055.09
816.351	10045.82
816.68	9902.78
817.008	10007.18
817.337	9959.95
817.665	9881.31
817.994	9954.98
818.322	9836.11
818.651	9932.15
818.979	9868.65
819.307	9977.12
819.636	9851.48
819.964	9841.08
820.292	9811.48
820.62	9814.87
820.948	9805.15
821.276	9824.59
821.604	9732.39
821.932	9792.27
822.259	9793.85
822.587	9756.79
822.915	9801.08
823.243	9796.56
823.57	9788.2
823.898	9805.6
824.225	9723.57
824.553	9729
824.88	9752.27
825.207	9789.78
825.535	9749.33
825.862	9809.22
826.189	9732.16
826.516	9786.4
826.843	9833.17
827.17	9856.9
827.497	9817.81
827.824	9800.41
828.151	9853.06
828.478	9810.35
828.805	9880.18
829.131	9797.92
829.458	9840.18
829.785	9726.74
830.111	9824.59
830.438	9884.47
830.764	9820.97
831.09	9780.07
831.417	9766.28
831.743	9802.21
832.069	9794.98
832.395	9745.04
832.722	9759.28
833.048	9771.03
833.374	9708.43
833.7	9693.74
834.026	9652.61
834.351	9718.15
834.677	9740.07
835.003	9795.66
835.329	9737.36
835.654	9750.92
835.98	9697.13
836.306	9688.77
836.631	9680.18
836.956	9731.48
837.282	9649.45
837.607	9660.75
837.932	9631.15
838.258	9608.55
838.583	9601.77
838.908	9539.4
839.233	9564.93
839.558	9482.67
839.883	9505.72
840.208	9525.61
840.533	9472.28
840.858	9439.29
841.182	9460.08
841.507	9433.64
841.832	9418.72
842.156	9447.65
842.481	9449
842.805	9314.09
843.13	9370.13
843.454	9315.67
843.778	9201.78
844.103	9208.33
844.427	9300.53
844.751	9258.95
845.075	9272.96
845.399	9189.12
845.723	9171.04
846.047	9219.18
846.371	9116.81
846.695	9112.74
847.019	8976.25
847.343	9006.75
847.666	8925.4
847.99	8892.86
848.313	8918.17
848.637	8818.51
848.96	8897.15
849.284	8832.97
849.607	8755.46
849.931	8702.81
850.254	8651.28
850.577	8671.85
850.9	8571.29
851.223	8525.41
851.546	8558.63
851.869	8479.54
852.192	8563.83
852.515	8430.72
852.838	8475.92
853.161	8423.27
853.483	8354.57
853.806	8367.22
854.129	8309.6
854.451	8336.26
854.774	8244.51
855.096	8240.45
855.419	8249.26
855.741	8218.3
856.063	8172.2
856.385	8131.52
856.708	8128.36
857.03	8115.93
857.352	8093.33
857.674	8059.43
857.996	7998.87
858.318	7998.19
858.64	7989.61
858.961	7946.9
859.283	7979.89
859.605	7902.15
859.926	7938.76
860.248	7881.36
860.57	7805.2
860.891	7815.6
861.212	7802.04
861.534	7783.06
861.855	7793
862.176	7830.29
862.498	7774.92
862.819	7773.34
863.14	7686.56
863.461	7699.9
863.782	7697.86
864.103	7684.98
864.424	7705.77
864.745	7694.92
865.065	7564.08
865.386	7646.11
865.707	7554.36
866.027	7594.81
866.348	7629.39
866.668	7562.95
866.989	7518.43
867.309	7530.64
867.63	7511.43
867.95	7539.9
868.27	7416.06
868.59	7508.49
868.91	7463.74
869.23	7469.39
869.55	7420.81
869.87	7499.68
870.19	7456.96
870.51	7489.51
870.83	7401.83
871.15	7359.57
871.469	7405.89
871.789	7428.72
872.109	7349.62
872.428	7316.4
872.748	7325.89
873.067	7338.1
873.386	7373.35
873.706	7303.75
874.025	7284.31
874.344	7270.53
874.663	7300.13
874.982	7291.32
875.301	7294.48
875.62	7276.4
875.939	7261.94
876.258	7205.22
876.577	7208.84
876.896	7209.97
877.214	7195.05
877.533	7214.71
877.852	7145.79
878.17	7239.8
878.489	7198.44
878.807	7190.98
879.125	7132.45
879.444	7104.88
879.762	7090.65
880.08	7067.14
880.398	7074.6
880.716	7128.39
881.034	7061.95
881.352	7030.08
881.67	7000.93
881.988	7036.41
882.306	6978.33
882.624	6943.31
882.941	6910.99
883.259	6955.06
883.577	6905.79
883.894	6912.35
884.212	6875.51
884.529	6899.69
884.846	6823.76
885.164	6800.71
885.481	6771.33
885.798	6811.56
886.115	6734.95
886.432	6806.13
886.75	6793.93
887.067	6816.76
887.383	6710.77
887.7	6764.33
888.017	6730.43
888.334	6686.14
888.651	6677.78
888.967	6673.93
889.284	6622.41
889.6	6606.14
889.917	6606.14
890.233	6623.77
890.55	6573.37
890.866	6518.68
891.182	6563.43
891.498	6554.16
891.815	6459.03
892.131	6505.35
892.447	6442.75
892.763	6406.15
893.079	6443.43
893.395	6368.18
893.71	6393.04
894.026	6351.91
894.342	6369.08
894.657	6310.55
894.973	6333.38
895.289	6312.36
895.604	6288.86
895.92	6205.47
896.235	6210.9
896.55	6200.73
896.865	6183.78
897.181	6215.42
897.496	6167.28
897.811	6137.45
898.126	6119.37
898.441	6099.49
898.756	6056.32
899.071	6015.87
899.386	5979.72
899.7	6004.35
900.015	5988.53
900.33	5931.58
900.644	5908.98
900.959	5944.91
901.273	5932.94
901.588	5865.37
901.902	5842.09
902.216	5828.31
902.531	5790.12
902.845	5800.96
903.159	5774.52
903.473	5694.75
903.787	5736.33
904.101	5710.12
904.415	5679.38
904.729	5640.29
905.042	5602.32
905.356	5612.95
905.67	5652.94
905.984	5575.43
906.297	5616.11
906.611	5526.17
906.924	5526.39
907.237	5487.98
907.551	5484.59
907.864	5511.93
908.177	5482.78
908.491	5435.55
908.804	5398.94
909.117	5374.08
909.43	5337.92
909.743	5310.13
910.056	5332.28
910.368	5270.81
910.681	5283.46
910.994	5229.45
911.307	5236.01
911.619	5191.94
911.932	5172.51
912.244	5113.07
912.557	5137.93
912.869	5130.02
913.181	5104.03
913.494	5107.42
913.806	5066.29
914.118	4988.1
914.43	4998.72
914.742	5008.22
915.054	4975
915.366	4941.55
915.678	4984.26
915.99	4979.06
916.302	4941.32
916.613	4918.5
916.925	4879.63
917.236	4849.35
917.548	4819.29
917.859	4828.56
918.171	4789.01
918.482	4763.02
918.794	4762.35
919.105	4799.86
919.416	4731.39
919.727	4712.63
920.038	4679.18
920.349	4642.8
920.66	4646.64
920.971	4655
921.282	4670.37
921.593	4611.62
921.903	4584.72
922.214	4635.12
922.525	4582.01
922.835	4520.54
923.146	4513.99
923.456	4453.88
923.767	4464.95
924.077	4460.66
924.387	4474.22
924.697	4408.01
925.008	4400.55
925.318	4384.28
925.628	4358.97
925.938	4387.22
926.248	4321.68
926.558	4291.4
926.867	4305.86
927.177	4277.84
927.487	4267.9
927.796	4247.33
928.106	4190.61
928.416	4174.57
928.725	4210.72
929.034	4164.4
929.344	4174.11
929.653	4132.31
929.962	4128.69
930.271	4099.54
930.581	4098.86
930.89	4070.84
931.199	4052.31
931.508	4057.28
931.817	4000.33
932.125	4036.49
932.434	4008.69
932.743	3976.6
933.051	4012.76
933.36	3957.62
933.669	3933.89
933.977	3944.29
934.286	3904.06
934.594	3907.91
934.902	3896.83
935.21	3861.35
935.519	3846.21
935.827	3869.26
936.135	3798.3
936.443	3797.17
936.751	3816.83
937.059	3787
937.367	3726.89
937.674	3746.78
937.982	3713.56
938.29	3695.71
938.597	3705.2
938.905	3663.62
939.213	3662.49
939.52	3612.32
939.827	3636.27
940.135	3628.82
940.442	3623.17
940.749	3585.65
941.056	3601.02
941.363	3540.46
941.67	3535.26
941.977	3526.45
942.284	3483.96
942.591	3559.67
942.898	3484.87
943.205	3471.76
943.511	3429.95
943.818	3454.36
944.125	3408.48
944.431	3398.77
944.738	3418.88
945.044	3383.4
945.35	3378.88
945.657	3296.4
945.963	3353.8
946.269	3317.19
946.575	3352.89
946.881	3269.28
947.187	3284.87
947.493	3267.7
947.799	3272.89
948.105	3267.24
948.41	3215.95
948.716	3217.98
949.022	3204.42
949.327	3199.9
949.633	3187.7
949.938	3170.52
950.244	3173.69
950.549	3154.48
950.854	3102.73
951.16	3105.89
951.465	3130.98
951.77	3056.4
952.075	3107.7
952.38	3109.06
952.685	3086.68
952.99	3041.94
953.294	3034.03
953.599	3012.34
953.904	2989.06
954.209	2969.63
954.513	2942.28
954.818	2935.95
955.122	2975.5
955.426	2959.68
955.731	2966.24
956.035	2882.4
956.339	2894.83
956.643	2865.9
956.948	2863.64
957.252	2865.67
957.556	2879.91
957.86	2841.95
958.163	2855.96
958.467	2806.92
958.771	2778.67
959.075	2812.79
959.378	2764.66
959.682	2759.01
959.985	2800.82
960.289	2754.94
960.592	2728.05
960.896	2750.87
961.199	2684.21
961.502	2691.21
961.805	2672.01
962.108	2669.97
962.411	2663.42
962.714	2635.85
963.017	2657.77
963.32	2657.09
963.623	2600.37
963.926	2637.43
964.228	2618.22
964.531	2580.26
964.833	2605.79
965.136	2566.02
965.438	2548.17
965.741	2547.49
966.043	2542.52
966.345	2546.59
966.648	2492.35
966.95	2493.25
967.252	2489.19
967.554	2496.42
967.856	2475.18
968.158	2470.2
968.46	2476.08
968.761	2456.64
969.063	2420.94
969.365	2420.71
969.666	2427.49
969.968	2394.05
970.269	2380.26
970.571	2399.47
970.872	2404.89
971.174	2408.74
971.475	2358.34
971.776	2375.29
972.077	2339.81
972.378	2350.21
972.679	2323.54
972.98	2314.28
973.281	2295.52
973.582	2291
973.883	2307.27
974.183	2290.55
974.484	2281.96
974.785	2236.76
975.085	2264.79
975.386	2236.31
975.686	2216.88
975.986	2256.42
976.287	2225.24
976.587	2211.68
976.887	2178.69
977.187	2196.99
977.487	2177.56
977.787	2154.96
978.087	2159.93
978.387	2147.05
978.687	2160.61
978.987	2122.87
979.286	2113.15
979.586	2091
979.885	2095.75
980.185	2089.87
980.484	2073.38
980.784	2051.91
981.083	2060.5
981.382	2063.66
981.682	2071.34
981.981	2027.5
982.28	2023.89
982.579	2009.2
982.878	2023.21
983.177	1990.22
983.475	1991.35
983.774	1968.07
984.073	1969.43
984.372	1959.03
984.67	1961.06
984.969	1955.87
985.267	1943.21
985.566	1961.97
985.864	1906.83
986.162	1924
986.461	1915.42
986.759	1919.26
987.057	1894.63
987.355	1902.76
987.653	1906.83
987.951	1848.3
988.249	1842.2
988.547	1889.65
988.844	1818.7
989.142	1841.52
989.44	1814.4
989.737	1836.55
990.035	1818.92
990.332	1796.55
990.63	1773.95
990.927	1810.33
991.224	1805.81
991.521	1789.77
991.819	1764.01
992.116	1787.51
992.413	1767.4
992.71	1727.17
993.006	1749.54
993.303	1742.54
993.6	1744.57
993.897	1740.05
994.193	1718.58
994.49	1727.17
994.787	1684.46
995.083	1691.69
995.379	1715.87
995.676	1688.3
995.972	1696.89
996.268	1624.58
996.565	1625.71
996.861	1618.7
997.157	1651.69
997.453	1630.68
997.749	1607.4
998.044	1640.17
998.34	1619.6
998.636	1620.96
998.932	1592.49
999.227	1583.45
999.523	1591.81
999.818	1558.36
1000.114	1564.46
1000.409	1571.92
1000.704	1566.5
1001	1551.81
1001.295	1526.73
1001.59	1552.26
1001.885	1498.7
1002.18	1478.59
1002.475	1470.91
1002.77	1509.1
1003.065	1498.03
1003.359	1503.68
1003.654	1456.22
1003.949	1458.93
1004.243	1446.73
1004.538	1432.94
1004.832	1447.41
1005.127	1447.63
1005.421	1427.07
1005.715	1385.26
1006.009	1426.16
1006.304	1421.64
1006.598	1387.52
1006.892	1405.6
1007.186	1364.92
1007.48	1371.25
1007.773	1380.29
1008.067	1343
1008.361	1345.71
1008.655	1329.44
1008.948	1335.54
1009.242	1320.18
1009.535	1336
1009.829	1313.17
1010.122	1316.56
1010.415	1305.94
1010.708	1292.16
1011.001	1305.94
1011.295	1272.95
1011.588	1256.9
1011.881	1262.78
1012.173	1275.66
1012.466	1239.5
1012.759	1263.68
1013.052	1223.91
1013.344	1237.24
1013.637	1219.16
1013.93	1215.32
1014.222	1210.35
1014.514	1227.75
1014.807	1203.8
1015.099	1202.89
1015.391	1170.8
1015.683	1197.02
1015.976	1193.85
1016.268	1165.38
1016.56	1138.04
1016.851	1133.29
1017.143	1144.14
1017.435	1158.15
1017.727	1134.87
1018.018	1122.67
1018.31	1107.98
1018.602	1108.66
1018.893	1098.04
1019.185	1105.49
1019.476	1097.13
1019.767	1090.13
1020.058	1110.69
1020.35	1091.03
1020.641	1067.75
1020.932	1069.34
1021.223	1084.93
1021.514	1049.22
1021.804	1061.2
1022.095	1049
1022.386	1048.55
1022.677	1032.73
1022.967	1027.08
1023.258	1037.25
1023.548	1023.24
1023.839	1006.29
1024.129	1024.37
1024.419	986.4
1024.709	976.23
1025	987.08
1025.29	969.68
1025.58	974.2
1025.87	957.47
1026.16	961.54
1026.449	953.86
1026.739	971.03
1027.029	938.04
1027.319	956.57
1027.608	936.23
1027.898	947.76
1028.187	936.46
1028.477	914.99
1028.766	881.54
1029.055	915.22
1029.344	909.11
1029.634	872.73
1029.923	868.66
1030.212	890.81
1030.501	884.71
1030.79	878.83
1031.078	890.13
1031.367	888.32
1031.656	892.62
1031.945	861.66
1032.233	848.1
1032.522	843.35
1032.81	849.23
1033.099	834.77
1033.387	839.74
1033.675	827.08
1033.963	826.63
1034.251	787.54
1034.54	826.86
1034.828	842.9
1035.116	806.07
1035.403	818.5
1035.691	776.46
1035.979	773.52
1036.267	789.57
1036.554	773.52
1036.842	780.3
1037.129	786.18
1037.417	758.16
1037.704	794.54
1037.992	780.3
1038.279	747.54
1038.566	739.4
1038.853	739.4
1039.14	739.4
