Data from hue_120_FLMS001491_00049.txt Node
Date: Tue Feb 07 16:59:27 GMT 2017
User: dcchb
Spectrometer: FLMS00149
Trigger mode: 0
Integration Time (sec): 2.000000E-2
Scans to average: 10
Electric dark correction enabled: true
Nonlinearity correction enabled: false
Boxcar width: 0
XAxis mode: Wavelengths
Number of Pixels in Spectrum: 2048
>>>>>Begin Spectral Data<<<<<
341.393	-15.3
341.776	-15.3
342.16	-15.3
342.543	-51.68
342.927	-46.93
343.31	-66.82
343.693	-68.85
344.077	-69.53
344.46	-74.73
344.843	-57.33
345.226	-36.99
345.61	-35.18
345.993	-15.75
346.376	2.33
346.759	-7.39
347.142	20.64
347.525	39.39
347.908	65.38
348.291	87.07
348.674	101.08
349.057	116.68
349.44	121.88
349.823	132.72
350.206	150.58
350.588	203.46
350.971	212.95
351.354	242.32
351.737	246.62
352.119	253.4
352.502	263.79
352.884	266.28
353.267	301.98
353.65	313.96
354.032	297.92
354.414	318.03
354.797	338.82
355.179	331.81
355.562	315.99
355.944	343.79
356.326	329.78
356.709	341.08
357.091	361.19
357.473	355.77
357.855	340.17
358.238	358.25
358.62	358.25
359.002	354.41
359.384	356.67
359.766	360.51
360.148	345.37
360.53	344.47
360.912	342.66
361.294	337.69
361.676	341.3
362.057	330.68
362.439	348.31
362.821	340.85
363.203	327.52
363.584	325.71
363.966	326.84
364.348	288.65
364.729	324.13
365.111	311.02
365.493	337.24
365.874	324.58
366.256	326.16
366.637	323.68
367.019	343.11
367.4	347.63
367.781	307.41
368.163	331.59
368.544	310.8
368.925	310.34
369.306	331.36
369.688	308.54
370.069	327.07
370.45	333.62
370.831	328.65
371.212	330.23
371.593	323
371.974	323.45
372.355	319.84
372.736	320.74
373.117	311.93
373.498	315.77
373.879	311.02
374.26	333.85
374.641	306.96
375.021	327.52
375.402	324.81
375.783	325.49
376.163	305.37
376.544	333.17
376.925	339.5
377.305	327.29
377.686	333.17
378.066	315.77
378.447	337.46
378.827	332.94
379.208	336.33
379.588	335.66
379.968	352.6
380.349	359.84
380.729	336.56
381.109	346.95
381.489	363
381.87	358.71
382.25	351.7
382.63	368.42
383.01	343.56
383.39	369.33
383.77	353.73
384.15	368.2
384.53	362.77
384.91	346.73
385.29	363.68
385.67	381.08
386.049	355.54
386.429	359.84
386.809	366.16
387.189	393.28
387.568	370.23
387.948	369.55
388.328	352.6
388.707	368.65
389.087	390.34
389.466	384.69
389.846	388.53
390.225	379.04
390.605	406.39
390.984	392.6
391.363	379.27
391.743	406.61
392.122	402.77
392.501	386.05
392.881	408.65
393.26	410.46
393.639	410.23
394.018	395.54
394.397	408.65
394.776	402.32
395.155	399.83
395.534	380.63
395.913	417.91
396.292	397.8
396.671	425.6
397.05	411.36
397.429	422.88
397.808	427.4
398.186	422.88
398.565	424.24
398.944	421.08
399.323	417.01
399.701	418.14
400.08	412.26
400.458	442.09
400.837	430.57
401.215	442.54
401.594	426.95
401.972	445.71
402.351	436.9
402.729	456.33
403.107	443.9
403.486	440.29
403.864	434.64
404.242	461.53
404.62	467.4
404.999	466.5
405.377	438.48
405.755	447.06
406.133	490.68
406.511	475.99
406.889	487.97
407.267	466.27
407.645	488.42
408.023	467.85
408.401	482.32
408.779	513.05
409.156	494.07
409.534	471.24
409.912	485.93
410.29	510.79
410.667	514.86
411.045	513.73
411.422	517.35
411.8	513.96
412.178	511.47
412.555	502.88
412.933	515.09
413.31	525.71
413.687	550.34
414.065	545.82
414.442	541.53
414.819	553.05
415.197	540.17
415.574	546.72
415.951	553.73
416.328	556.44
416.705	584.46
417.082	567.29
417.46	567.51
417.837	583.56
418.214	580.17
418.591	596.89
418.967	578.59
419.344	590.79
419.721	592.6
420.098	573.84
420.475	619.94
420.852	590.56
421.228	596.21
421.605	628.75
421.982	600.05
422.358	624.01
422.735	608.19
423.111	652.48
423.488	622.88
423.864	640.96
424.241	651.8
424.617	662.88
424.994	671.69
425.37	661.07
425.746	658.13
426.123	662.43
426.499	658.13
426.875	691.8
427.251	688.64
427.627	682.54
428.003	710.11
428.379	702.88
428.756	720.5
429.132	688.41
429.507	739.49
429.883	740.84
430.259	737.45
430.635	733.16
431.011	751.69
431.387	776.77
431.763	771.12
432.138	746.27
432.514	782.42
432.89	768.86
433.265	771.8
433.641	778.81
434.016	796.43
434.392	821.29
434.767	843.89
435.143	840.27
435.518	837.79
435.894	852.25
436.269	855.19
436.644	862.87
437.02	843.66
437.395	856.32
437.77	895.64
438.145	879.82
438.52	893.61
438.895	914.62
439.271	899.26
439.646	898.8
440.021	923.21
440.395	937.67
440.77	915.3
441.145	930.89
441.52	937.9
441.895	944
442.27	944.45
442.645	993.49
443.019	980.16
443.394	980.61
443.769	979.93
444.143	1019.7
444.518	992.81
444.892	1005.69
445.267	991.46
445.641	1008.41
446.016	1052.25
446.39	1042.98
446.764	1053.15
447.139	1053.38
447.513	1041.63
447.887	1058.57
448.262	1071.91
448.636	1051.12
449.01	1051.79
449.384	1100.38
449.758	1081.62
450.132	1139.02
450.506	1106.71
450.88	1112.58
451.254	1139.7
451.628	1126.14
452.002	1141.96
452.376	1144
452.75	1161.85
453.123	1172.7
453.497	1206.82
453.871	1209.53
454.244	1222.86
454.618	1233.26
454.992	1257.21
455.365	1237.55
455.739	1275.29
456.112	1308.28
456.486	1300.6
456.859	1313.26
457.232	1320.04
457.606	1343.09
457.979	1347.38
458.352	1380.6
458.725	1380.6
459.099	1426.93
459.472	1438.68
459.845	1458.79
460.218	1475.96
460.591	1494.27
460.964	1473.7
461.337	1511.67
461.71	1561.39
462.083	1580.14
462.456	1586.24
462.829	1605.45
463.201	1642.51
463.574	1617.66
463.947	1629.18
464.32	1675.28
464.692	1721.16
465.065	1732.23
465.438	1714.15
465.81	1766.13
466.183	1752.79
466.555	1807.25
466.928	1829.4
467.3	1887.7
467.672	1873.92
468.045	1941.04
468.417	1945.33
468.789	1991.2
469.161	2040.92
469.534	2068.49
469.906	2097.19
470.278	2122.95
470.65	2173.35
471.022	2196.62
471.394	2289.5
471.766	2260.8
472.138	2357.07
472.51	2378.31
472.882	2446.33
473.253	2474.36
473.625	2497.86
473.997	2607.46
474.369	2621.02
474.74	2694.01
475.112	2740.56
475.484	2800.9
475.855	2879.99
476.227	2872.09
476.598	3000.22
476.97	3049.03
477.341	3151.4
477.713	3214.45
478.084	3259.19
478.455	3326.54
478.827	3457.83
479.198	3575.8
479.569	3596.81
479.94	3736.47
480.311	3787.32
480.682	3910.48
481.053	4061.88
481.424	4160.87
481.795	4222.33
482.166	4305.49
482.537	4442.89
482.908	4521.76
483.279	4630.91
483.65	4787.52
484.021	4927.85
484.391	5049.66
484.762	5118.81
485.133	5232.25
485.503	5363.32
485.874	5502.07
486.244	5601.96
486.615	5757.21
486.985	5921.72
487.356	6080.81
487.726	6144.77
488.097	6391.77
488.467	6454.82
488.837	6657.75
489.207	6810.51
489.578	7025.42
489.948	7103.39
490.318	7247.11
490.688	7380.89
491.058	7539.76
491.428	7669.7
491.798	7919.86
492.168	8073.53
492.538	8294.54
492.908	8366.63
493.278	8447.76
493.648	8598.04
494.017	8851.59
494.387	8921.19
494.757	9127.06
495.126	9231.47
495.496	9395.08
495.866	9494.06
496.235	9576.09
496.605	9805.01
496.974	9931.33
497.344	10078
497.713	10143.08
498.082	10251.78
498.452	10435.73
498.821	10543.52
499.19	10677.3
499.559	10811.31
499.928	10955.26
500.298	11014.7
500.667	11183.51
501.036	11222.83
501.405	11314.8
501.774	11478.19
502.143	11585.08
502.512	11682.93
502.88	11743.49
503.249	11878.63
503.618	11965.41
503.987	12032.52
504.356	12163.82
504.724	12277.49
505.093	12361.78
505.462	12407.43
505.83	12507.54
506.199	12577.59
506.567	12785.27
506.936	12798.15
507.304	13048.32
507.672	13001.54
508.041	13079.27
508.409	13184.36
508.777	13287.86
509.145	13403.33
509.514	13418.25
509.882	13438.14
510.25	13532.37
510.618	13620.05
510.986	13724.68
511.354	13785.92
511.722	13880.16
512.09	13980.72
512.458	13952.92
512.826	14097.33
513.193	14143.88
513.561	14183.88
513.929	14318.11
514.297	14338.68
514.664	14416.19
515.032	14359.69
515.4	14558.33
515.767	14673.58
516.135	14764.2
516.502	14631.32
516.869	14752.23
517.237	14741.15
517.604	14755.39
517.972	14895.95
518.339	14953.35
518.706	14936.18
519.073	14911.09
519.44	15061.14
519.808	15118.32
520.175	15105.66
520.542	15342.94
520.909	15301.36
521.276	15326
521.643	15457.97
522.009	15580.68
522.376	15474.69
522.743	15612.99
523.11	15600.79
523.477	15761.69
523.843	15711.3
524.21	15866.09
524.577	15918.3
524.943	15899.99
525.31	15952.42
525.676	15931.4
526.043	16044.17
526.409	16099.99
526.776	16188.8
527.142	16071.96
527.508	16264.5
527.874	16361.45
528.241	16387.44
528.607	16287.55
528.973	16401.67
529.339	16347.21
529.705	16434.44
530.071	16475.34
530.437	16504.72
530.803	16473.54
531.169	16554.66
531.535	16476.7
531.901	16366.19
532.267	16506.08
532.632	16536.13
532.998	16554.21
533.364	16543.59
533.73	16517.38
534.095	16539.07
534.461	16609.8
534.826	16568.22
535.192	16598.96
535.557	16623.59
535.923	16477.6
536.288	16656.58
536.653	16647.09
537.019	16535.91
537.384	16548.56
537.749	16461.78
538.114	16384.5
538.479	16378.4
538.845	16460.65
539.21	16337.27
539.575	16367.78
539.94	16353.99
540.305	16368
540.67	16235.58
541.034	16367.78
541.399	16257.04
541.764	16289.36
542.129	16301.11
542.494	16375.23
542.858	16199.87
543.223	16210.27
543.587	16246.42
543.952	16122.13
544.316	16167.33
544.681	16170.27
545.045	16075.35
545.41	16108.8
545.774	16157.16
546.138	15985.41
546.503	15971.63
546.867	15962.14
547.231	16071.51
547.595	15962.14
547.959	15987.67
548.324	15939.76
548.688	15847.34
549.052	15836.94
549.416	15915.58
549.779	15851.18
550.143	15808.47
550.507	15725.76
550.871	15719.21
551.235	15712.88
551.599	15808.24
551.962	15784.74
552.326	15696.16
552.689	15769.15
553.053	15669.72
553.417	15608.7
553.78	15738.64
554.143	15669.04
554.507	15707.23
554.87	15674.23
555.234	15805.3
555.597	15547.46
555.96	15607.8
556.323	15533.67
556.686	15557.85
557.05	15642.6
557.413	15650.73
557.776	15599.21
558.139	15627
558.502	15577.29
558.865	15548.36
559.228	15617.74
559.59	15718.98
559.953	15653.67
560.316	15724.63
560.679	15688.7
561.041	15766.89
561.404	15705.87
561.767	15840.11
562.129	15695.48
562.492	15885.53
562.854	15815.25
563.217	15826.55
563.579	15768.24
563.941	15816.38
564.304	15961.01
564.666	15974.57
565.028	15954.23
565.39	15908.58
565.753	15881.69
566.115	15987.45
566.477	16033.55
566.839	16014.56
567.201	16149.25
567.563	16063.38
567.925	16039.65
568.287	16137.5
568.648	16123.71
569.01	16170.94
569.372	16241.9
569.734	16125.52
570.095	16262.47
570.457	16331.84
570.819	16201.45
571.18	16287.33
571.542	16393.31
571.903	16304.73
572.265	16290.72
572.626	16384.27
572.987	16473.54
573.349	16438.73
573.71	16429.02
574.071	16424.05
574.432	16551.95
574.794	16581.1
575.155	16505.17
575.516	16460.43
575.877	16467.43
576.238	16468.11
576.599	16525.74
576.96	16490.03
577.32	16569.35
577.681	16691.38
578.042	16683.02
578.403	16639.86
578.763	16558.51
579.124	16687.77
579.485	16669.24
579.845	16720.08
580.206	16610.71
580.566	16601.89
580.927	16628.33
581.287	16669.91
581.648	16615
582.008	16735
582.368	16631.05
582.728	16722.34
583.089	16633.76
583.449	16597.15
583.809	16701.55
584.169	16699.07
584.529	16626.53
584.889	16735.68
585.249	16582.01
585.609	16531.16
585.969	16598.28
586.329	16668.33
586.688	16559.41
587.048	16560.54
587.408	16533.65
587.768	16484.61
588.127	16447.55
588.487	16516.02
588.846	16611.39
589.206	16430.6
589.565	16346.53
589.925	16480.77
590.284	16365.52
590.643	16484.16
591.003	16488.45
591.362	16428.34
591.721	16419.75
592.08	16537.04
592.44	16423.82
592.799	16597.15
593.158	16557.6
593.517	16478.06
593.876	16489.35
594.235	16421.56
594.593	16490.94
594.952	16493.65
595.311	16347.44
595.67	16500.43
596.029	16586.08
596.387	16466.3
596.746	16493.2
597.104	16450.26
597.463	16359.19
597.822	16483.93
598.18	16407.1
598.538	16444.84
598.897	16499.3
599.255	16348.79
599.613	16423.14
599.972	16472.86
600.33	16371.84
600.688	16362.13
601.046	16418.62
601.404	16496.13
601.762	16381.11
602.12	16537.26
602.478	16501.78
602.836	16422.69
603.194	16393.54
603.552	16408.9
603.91	16328.23
604.268	16419.75
604.625	16373.2
604.983	16419.53
605.341	16276.03
605.698	16397.38
606.056	16467.89
606.413	16499.07
606.771	16473.08
607.128	16485.74
607.485	16412.52
607.843	16404.61
608.2	16558.51
608.557	16606.41
608.914	16450.49
609.272	16610.03
609.629	16601.44
609.986	16645.96
610.343	16575
610.7	16705.39
611.057	16688.22
611.414	16651.38
611.771	16634.44
612.127	16683.7
612.484	16630.82
612.841	16711.27
613.198	16699.52
613.554	16667.2
613.911	16719.86
614.267	16727.31
614.624	16782.91
614.98	16717.82
615.337	16887.76
615.693	16810.93
616.05	16744.72
616.406	16873.07
616.762	16820.87
617.118	16742.91
617.475	16727.09
617.831	16808.67
618.187	16911.72
618.543	16876.24
618.899	16942.45
619.255	17006.86
619.611	16910.13
619.967	17007.76
620.323	17082.11
620.678	16927.31
621.034	16876.69
621.39	16931.15
621.746	16929.57
622.101	17117.81
622.457	17037.59
622.812	16994.43
623.168	16995.1
623.523	17021.77
623.879	16981.32
624.234	16928.89
624.589	16867.2
624.945	16965.27
625.3	17004.14
625.655	17017.25
626.01	17002.11
626.365	17029.91
626.72	16927.31
627.075	16990.81
627.43	16851.38
627.785	16960.53
628.14	17016.57
628.495	17020.41
628.85	16869.91
629.205	16837.82
629.559	17022.22
629.914	16894.99
630.269	16836.69
630.623	16940.64
630.978	16801.44
631.332	16897.93
631.687	16986.97
632.041	16782.91
632.396	16840.98
632.75	16815
633.104	16862.9
633.459	16777.71
633.813	16843.02
634.167	16707.2
634.521	16697.26
634.875	16597.37
635.229	16637.6
635.583	16522.12
635.937	16580.65
636.291	16597.83
636.645	16609.8
636.999	16496.36
637.352	16510.6
637.706	16413.2
638.06	16534.78
638.413	16553.76
638.767	16442.35
639.121	16489.58
639.474	16346.76
639.828	16372.75
640.181	16383.59
640.534	16485.51
640.888	16385.85
641.241	16306.76
641.594	16317.61
641.947	16320.09
642.301	16297.27
642.654	16331.39
643.007	16311.28
643.36	16365.29
643.713	16218.63
644.066	16300.88
644.419	16128.23
644.771	16089.59
645.124	16078.97
645.477	15919.88
645.83	15835.81
646.182	15807.56
646.535	15760.11
646.888	15860.67
647.24	15650.51
647.593	15726.44
647.945	15729.83
648.298	15659.09
648.65	15663.16
649.002	15631.52
649.355	15759.66
649.707	15692.77
650.059	15730.05
650.411	15848.69
650.763	15948.58
651.115	16090.49
651.467	16010.95
651.819	16022.02
652.171	16076.94
652.523	16077.84
652.875	16072.19
653.227	15977.28
653.578	16062.02
653.93	16067.44
654.282	15997.84
654.633	15971.4
654.985	15963.94
655.337	15980.22
655.688	16048.91
656.039	16025.64
656.391	15875.13
656.742	16007.33
657.094	15954.91
657.445	15946.77
657.796	15969.14
658.147	15961.46
658.498	15941.12
658.849	16019.08
659.2	16043.26
659.551	16027.22
659.902	15996.71
660.253	15980.89
660.604	15979.09
660.955	15976.6
661.306	15997.62
661.656	16024.06
662.007	16068.8
662.358	16024.06
662.708	15982.25
663.059	16036.03
663.409	15928.69
663.76	16103.6
664.11	16073.77
664.461	16054.56
664.811	15973.89
665.161	15974.34
665.511	16005.98
665.862	16074.68
666.212	16093.21
666.562	16044.85
666.912	16032.87
667.262	16017.28
667.612	16018.63
667.962	15996.26
668.312	16026.32
668.662	16094.56
669.011	16013.89
669.361	16032.64
669.711	15886.43
670.06	15863.16
670.41	15895.7
670.76	15972.98
671.109	15904.06
671.459	15949.03
671.808	15817.51
672.157	15954.91
672.507	15855.7
672.856	15897.73
673.205	15868.58
673.554	15996.26
673.904	15847.11
674.253	15871.07
674.602	15889.82
674.951	15629.26
675.3	15610.28
675.649	15818.19
675.998	15805.98
676.346	15870.16
676.695	15922.59
677.044	15747.68
677.393	15784.06
677.741	15774.57
678.09	15766.66
678.438	15630.39
678.787	15652.54
679.135	15653.67
679.484	15510.85
679.832	15611.86
680.181	15484.86
680.529	15561.24
680.877	15597.63
681.225	15461.13
681.573	15532.09
681.922	15419.33
682.27	15351.98
682.618	15413.22
682.966	15341.36
683.314	15388.59
683.661	15410.06
684.009	15323.28
684.357	15164.64
684.705	15236.51
685.053	15223.63
685.4	15140.46
685.748	15078.77
686.095	15090.07
686.443	14990.64
686.79	15056.62
687.138	14978.66
687.485	15024.53
687.832	14876.97
688.18	14889.17
688.527	14827.7
688.874	14806.46
689.221	14726.46
689.568	14693.02
689.915	14633.81
690.262	14700.93
690.609	14557.88
690.956	14544.55
691.303	14564.89
691.65	14476.3
691.997	14467.49
692.344	14446.47
692.69	14312.91
693.037	14338.68
693.383	14117.44
693.73	14162.86
694.077	14126.7
694.423	14219.58
694.769	14126.7
695.116	14098.01
695.462	13966.71
695.808	13950.21
696.155	13947.73
696.501	13906.82
696.847	13848.07
697.193	13805.13
697.539	13813.27
697.885	13708.64
698.231	13648.75
698.577	13635.42
698.923	13654.63
699.269	13469.55
699.614	13493.5
699.96	13413.73
700.306	13334.86
700.651	13348.19
700.997	13223.45
701.342	13138.93
701.688	13249.67
702.033	13189.1
702.379	13133.96
702.724	13090.8
703.069	13092.16
703.415	13016.23
703.76	13015.32
704.105	12926.28
704.45	12886.29
704.795	12802.9
705.14	12761.99
705.485	12704.37
705.83	12689.23
706.175	12774.88
706.52	12565.62
706.865	12618.5
707.209	12554.09
707.554	12542.79
707.899	12584.37
708.243	12526.29
708.588	12408.56
708.932	12357.26
709.277	12302.35
709.621	12418.5
709.966	12308.22
710.31	12266.87
710.654	12126.31
710.998	12144.84
711.342	12188.45
711.687	12061
712.031	12111.39
712.375	12079.53
712.719	12041.79
713.063	12039.53
713.407	12118.17
713.75	12037.72
714.094	11953.43
714.438	11921.11
714.782	11922.47
715.125	11943.26
715.469	11940.55
715.812	11801.79
716.156	11724.73
716.499	11809.93
716.843	11829.82
717.186	11681.35
717.53	11763.83
717.873	11766.99
718.216	11694.23
718.559	11715.92
718.902	11571.74
719.246	11676.6
719.589	11609.93
719.932	11491.52
720.275	11563.61
720.617	11529.94
720.96	11573.1
721.303	11572.42
721.646	11562.7
721.989	11503.72
722.331	11519.09
722.674	11501.69
723.016	11472.54
723.359	11429.15
723.701	11448.81
724.044	11389.38
724.386	11365.87
724.729	11420.56
725.071	11345.99
725.413	11304.86
725.755	11268.02
726.097	11321.58
726.439	11227.12
726.782	11309.83
727.124	11244.07
727.465	11213.34
727.807	11230.74
728.149	11295.37
728.491	11251.75
728.833	11295.14
729.175	11220.11
729.516	11265.76
729.858	11222.6
730.199	11251.98
730.541	11213.11
730.882	11146.22
731.224	11228.48
731.565	11189.61
731.906	11135.82
732.248	11201.13
732.589	11120.91
732.93	11091.53
733.271	11097.63
733.612	11074.36
733.953	11103.28
734.294	11104.41
734.635	11054.24
734.976	11084.52
735.317	11055.83
735.658	11035.26
735.999	11110.06
736.339	11077.75
736.68	11109.83
737.021	11110.51
737.361	11004.98
737.702	11163.62
738.042	11138.76
738.383	11073
738.723	11106.9
739.063	11102.83
739.404	11163.84
739.744	11137.86
740.084	11060.34
740.424	11110.51
740.764	11111.87
741.104	11213.56
741.444	11108.71
741.784	11159.33
742.124	11222.37
742.464	11176.27
742.804	11197.52
743.143	11225.31
743.483	11296.04
743.823	11229.61
744.162	11282.26
744.502	11288.59
744.841	11347.34
745.181	11415.14
745.52	11392.77
745.86	11451.07
746.199	11450.62
746.538	11481.8
746.877	11578.3
747.216	11574.91
747.556	11568.81
747.895	11656.94
748.234	11639.54
748.573	11788.91
748.911	11774.9
749.25	11925.86
749.589	11954.56
749.928	12051.73
750.267	12118.62
750.605	12133.08
750.944	12239.97
751.283	12258.05
751.621	12341.67
751.96	12482.91
752.298	12526.75
752.636	12606.97
752.975	12657.36
753.313	12772.16
753.651	12915.89
753.989	12993.4
754.327	13130.57
754.666	13053.96
755.004	13246.28
755.342	13498.7
755.679	13539.83
756.017	13680.39
756.355	13838.12
756.693	13881.29
757.031	14126.7
757.368	14142.07
757.706	14299.81
758.044	14441.5
758.381	14679.91
758.719	14832.22
759.056	14984.54
759.394	15121.48
759.731	15149.5
760.068	15413.68
760.405	15487.35
760.743	15593.11
761.08	15850.95
761.417	15997.84
761.754	16135.92
762.091	16334.56
762.428	16498.17
762.765	16610.26
763.102	16824.26
763.438	16948.33
763.775	17128.89
764.112	17294.08
764.449	17520.97
764.785	17552.6
765.122	17629.66
765.458	17825.59
765.795	18003.89
766.131	18103.32
766.467	18311.45
766.804	18315.75
767.14	18566.59
767.476	18630.09
767.812	18819.46
768.148	18988.5
768.485	19082.96
768.821	19059.46
769.157	19242.73
769.492	19424.42
769.828	19477.75
770.164	19509.16
770.5	19628.48
770.836	19741.25
771.171	19818.31
771.507	20001.8
771.842	19865.54
772.178	20060.11
772.513	20079.99
772.849	20134.46
773.184	20258.97
773.519	20367.67
773.855	20348.69
774.19	20444.96
774.525	20430.49
774.86	20618.51
775.195	20624.61
775.53	20571.73
775.865	20701.22
776.2	20641.11
776.535	20554.11
776.87	20696.48
777.205	20659.41
777.539	20739.41
777.874	20924.72
778.209	20643.37
778.543	20679.98
778.878	20645.63
779.212	20736.93
779.547	20780.32
779.881	20977.37
780.215	20854.89
780.55	20955.68
780.884	20941.89
781.218	20936.24
781.552	20954.55
781.886	20918.16
782.22	20791.61
782.554	20843.82
782.888	20753.88
783.222	20797.04
783.556	20696.93
783.889	20717.49
784.223	20600.66
784.557	20634.1
784.89	20721.56
785.224	20685.4
785.557	20525.18
785.891	20569.93
786.224	20475.01
786.558	20453.09
786.891	20435.01
787.224	20426.88
787.557	20471.17
787.891	20368.12
788.224	20459.65
788.557	20395.24
788.89	20384.17
789.223	20473.2
789.556	20189.6
789.888	20292.64
790.221	20229.14
790.554	20036.38
790.887	20065.76
791.219	20024.85
791.552	19985.53
791.884	19993.44
792.217	19993.44
792.549	19943.95
792.882	19749.38
793.214	19726.56
793.546	19818.31
793.879	19680.46
794.211	19572.44
794.543	19645.2
794.875	19654.47
795.207	19710.51
795.539	19505.55
795.871	19547.35
796.203	19428.71
796.535	19414.93
796.867	19339
797.198	19270.98
797.53	19289.28
797.862	19184.88
798.193	19202.96
798.525	19074.6
798.856	19136.74
799.188	18972
799.519	18843.87
799.85	18824.66
800.182	18898.78
800.513	18738.11
800.844	18764.55
801.175	18820.82
801.506	18845.9
801.837	18648.85
802.168	18612.91
802.499	18568.17
802.83	18552.13
803.161	18488.4
803.491	18467.83
803.822	18519.36
804.153	18373.15
804.483	18174.73
804.814	18139.48
805.145	18129.09
805.475	18188.52
805.805	18123.66
806.136	18066.04
806.466	18132.25
806.796	18057
807.126	17933.61
807.457	17914.4
807.787	17908.07
808.117	17885.48
808.447	17840.51
808.777	17851.8
809.107	17840.73
809.436	17760.73
809.766	17691.36
810.096	17600.74
810.426	17600.51
810.755	17610.23
811.085	17589.66
811.414	17449.33
811.744	17437.35
812.073	17335.21
812.403	17346.28
812.732	17227.64
813.061	17243.23
813.39	17179.73
813.719	17172.5
814.049	17274.19
814.378	17157.81
814.707	17123.46
815.036	17109.23
815.365	16906.29
815.693	16882.34
816.022	16872.4
816.351	16944.03
816.68	16791.49
817.008	16838.72
817.337	16725.28
817.665	16620.2
817.994	16676.24
818.322	16720.99
818.651	16620.65
818.979	16624.27
819.307	16670.59
819.636	16641.67
819.964	16518.73
820.292	16588.56
820.62	16542.91
820.948	16455.91
821.276	16562.35
821.604	16425.4
821.932	16437.15
822.259	16471.28
822.587	16416.81
822.915	16383.82
823.243	16486.64
823.57	16469.24
823.898	16460.88
824.225	16419.53
824.553	16351.51
824.88	16485.29
825.207	16464.27
825.535	16441.67
825.862	16462.24
826.189	16368.68
826.516	16463.37
826.843	16506.76
827.17	16482.35
827.497	16593.53
827.824	16432.63
828.151	16490.71
828.478	16434.67
828.805	16568.45
829.131	16446.64
829.458	16405.51
829.785	16399.87
830.111	16430.6
830.438	16578.39
830.764	16441.9
831.09	16497.26
831.417	16360.77
831.743	16506.76
832.069	16533.2
832.395	16321.68
832.722	16494.55
833.048	16284.61
833.374	16432.63
833.7	16316.25
834.026	16417.27
834.351	16345.4
834.677	16245.29
835.003	16271.96
835.329	16246.42
835.654	16231.96
835.98	16198.51
836.306	16239.64
836.631	16108.12
836.956	16265.63
837.282	16223.82
837.607	16181.34
837.932	16112.87
838.258	16077.39
838.583	16076.03
838.908	15987.45
839.233	15970.72
839.558	15986.99
839.883	15882.82
840.208	15940.22
840.533	15856.38
840.858	15795.81
841.182	15769.15
841.507	15895.47
841.832	15721.47
842.156	15698.64
842.481	15701.13
842.805	15633.56
843.13	15675.14
843.454	15692.99
843.778	15592.2
844.103	15553.56
844.427	15501.36
844.751	15448.03
845.075	15358.54
845.399	15415.94
845.723	15315.6
846.047	15388.59
846.371	15330.51
846.695	15303.85
847.019	15147.69
847.343	15078.09
847.666	14954.48
847.99	14920.81
848.313	14859.34
848.637	14841.71
848.96	14724.2
849.284	14766.46
849.607	14662.96
849.931	14598.1
850.254	14531.89
850.577	14473.59
850.9	14325.57
851.223	14299.13
851.546	14316.3
851.869	14184.78
852.192	14217.1
852.515	14069.53
852.838	14063.2
853.161	14050.77
853.483	13952.47
853.806	13871.57
854.129	13919.03
854.451	13794.96
854.774	13725.13
855.096	13666.38
855.419	13753.61
855.741	13732.14
856.063	13501.41
856.385	13601.97
856.708	13549.54
857.03	13424.58
857.352	13508.64
857.674	13406.05
857.996	13390.68
858.318	13326.5
858.64	13299.83
858.961	13243.56
859.283	13227.75
859.605	13132.15
859.926	13193.62
860.248	13116.79
860.57	13062.55
860.891	13030.01
861.212	12984.14
861.534	12986.85
861.855	12985.27
862.176	12955.89
862.498	12934.87
862.819	12934.42
863.14	12917.92
863.461	12807.87
863.782	12853.29
864.103	12810.36
864.424	12783.01
864.745	12738.72
865.065	12691.94
865.386	12660.3
865.707	12630.02
866.027	12624.82
866.348	12532.62
866.668	12546.41
866.989	12547.99
867.309	12449.46
867.63	12569.01
867.95	12469.12
868.27	12444.94
868.59	12390.71
868.91	12368.33
869.23	12344.15
869.55	12342.57
869.87	12404.72
870.19	12356.13
870.51	12417.6
870.83	12380.31
871.15	12265.28
871.469	12305.96
871.789	12274.1
872.109	12251.73
872.428	12159.3
872.748	12264.15
873.067	12179.19
873.386	12162.91
873.706	12228.68
874.025	12037.95
874.344	12082.69
874.663	12045.18
874.982	12016.03
875.301	12117.04
875.62	12052.18
875.939	11930.83
876.258	11964.73
876.577	11978.51
876.896	11947.33
877.214	11886.31
877.533	11896.93
877.852	11858.52
878.17	11873.43
878.489	11823.26
878.807	11839.99
879.125	11825.52
879.444	11826.65
879.762	11778.97
880.08	11730.84
880.398	11706.66
880.716	11732.19
881.034	11662.14
881.352	11707.33
881.67	11673.21
881.988	11610.61
882.306	11576.94
882.624	11531.97
882.941	11467.34
883.259	11428.24
883.577	11470.28
883.894	11451.07
884.212	11428.47
884.529	11392.77
884.846	11295.59
885.164	11345.76
885.481	11238.87
885.798	11301.24
886.115	11174.24
886.432	11259.89
886.75	11231.64
887.067	11188.48
887.383	11147.35
887.7	11142.83
888.017	11121.36
888.334	11137.4
888.651	11016.73
888.967	10972.21
889.284	10957.97
889.6	10948.03
889.917	10892.67
890.233	10838.43
890.55	10775.83
890.866	10831.65
891.182	10846.34
891.498	10833.23
891.815	10732.22
892.131	10654.03
892.447	10632.56
892.763	10623.07
893.079	10588.27
893.395	10523.18
893.71	10499.46
894.026	10481.15
894.342	10529.29
894.657	10398.89
894.973	10403.41
895.289	10389.18
895.604	10425.33
895.92	10274.83
896.235	10283.42
896.55	10308.27
896.865	10184.89
897.181	10179.69
897.496	10122.97
897.811	10063.31
898.126	10055.4
898.441	9967.04
898.756	10048.85
899.071	9946.93
899.386	9901.51
899.7	9880.04
900.015	9764.79
900.33	9744.22
900.644	9777.89
900.959	9729.76
901.273	9728.63
901.588	9720.49
901.902	9560.72
902.216	9534.51
902.531	9600.27
902.845	9471.46
903.159	9437.79
903.473	9375.87
903.787	9346.49
904.101	9351.24
904.415	9366.83
904.729	9259.71
905.042	9254.74
905.356	9203.67
905.67	9162.99
905.984	9197.79
906.297	9157.57
906.611	9030.79
906.924	9072.6
907.237	9041.87
907.551	9003.9
907.864	8958.48
908.177	8949.44
908.491	8918.93
908.804	8819.5
909.117	8834.64
909.43	8755.77
909.743	8704.93
910.056	8699.28
910.368	8595.1
910.681	8655.66
910.994	8617.7
911.307	8557.81
911.619	8457.93
911.932	8527.76
912.244	8453.41
912.557	8365.73
912.869	8344.48
913.181	8383.35
913.494	8297.71
913.806	8300.19
914.118	8230.59
914.43	8229.46
914.742	8224.49
915.054	8163.47
915.366	8113.98
915.678	8109.69
915.99	8037.15
916.302	7972.06
916.613	7935.68
916.925	7966.41
917.236	7895.46
917.548	7840.99
917.859	7866.08
918.171	7832.18
918.482	7802.8
918.794	7722.13
919.105	7700.43
919.416	7666.99
919.727	7645.52
920.038	7617.72
920.349	7664.95
920.66	7598.74
920.971	7583.37
921.282	7525.07
921.593	7436.26
921.903	7405.07
922.214	7387.9
922.525	7350.16
922.835	7353.55
923.146	7323.95
923.456	7271.97
923.767	7248.24
924.077	7230.16
924.387	7189.03
924.697	7180.22
925.008	7130.96
925.318	7116.72
925.628	7063.39
925.938	7061.13
926.248	7009.15
926.558	6979.32
926.867	7004.41
927.177	6945.88
927.487	6850.06
927.796	6796.05
928.106	6842.38
928.416	6841.47
928.725	6794.02
929.034	6736.16
929.344	6756.5
929.653	6735.49
929.962	6725.77
930.271	6619.78
930.581	6574.14
930.89	6592.89
931.199	6484.87
931.508	6555.83
931.817	6497.53
932.125	6490.52
932.434	6476.28
932.743	6394.03
933.051	6377.53
933.36	6393.8
933.669	6286.46
933.977	6310.64
934.286	6326.01
934.594	6290.75
934.902	6150.64
935.21	6188.61
935.519	6193.81
935.827	6165.11
936.135	6149.29
936.443	6080.36
936.751	6090.98
937.059	6069.52
937.367	6061.15
937.674	6060.7
937.982	5995.39
938.29	5965.56
938.597	5950.87
938.905	5893.25
939.213	5869.52
939.52	5808.51
939.827	5839.69
940.135	5802.86
940.442	5817.09
940.749	5788.17
941.056	5785.91
941.363	5720.15
941.67	5671.56
941.977	5624.56
942.284	5643.76
942.591	5572.13
942.898	5560.38
943.205	5563.09
943.511	5564.44
943.818	5491.45
944.125	5529.42
944.431	5498.46
944.738	5430.66
945.044	5415.52
945.35	5377.78
945.657	5332.13
945.963	5343.21
946.269	5333.04
946.575	5312.02
946.881	5328.74
947.187	5287.39
947.493	5244.9
947.799	5195.87
948.105	5196.32
948.41	5107.05
948.716	5127.85
949.022	5098.92
949.327	5166.71
949.633	5066.83
949.938	5074.29
950.244	5081.29
950.549	5035.42
950.854	5025.48
951.16	4937.57
951.465	4902.54
951.77	4876.55
952.075	4874.29
952.38	4916.78
952.685	4861.19
952.99	4848.98
953.294	4828.87
953.599	4767.63
953.904	4814.18
954.209	4763.34
954.513	4749.55
954.818	4675.65
955.122	4665.48
955.426	4660.29
955.731	4606.96
956.035	4627.97
956.339	4662.77
956.643	4568.99
956.948	4571.02
957.252	4572.15
957.556	4544.36
957.86	4513.17
958.163	4467.07
958.467	4475.43
958.771	4430.91
959.075	4433.4
959.378	4412.38
959.682	4398.83
959.985	4406.73
960.289	4351.37
960.592	4346.4
960.896	4328.32
961.199	4330.58
961.502	4304.14
961.805	4271.6
962.108	4253.97
962.411	4209.45
962.714	4209
963.017	4160.87
963.32	4209.9
963.623	4130.36
963.926	4177.14
964.228	4131.94
964.531	4069.79
964.833	4113.86
965.136	4013.07
965.438	4031.83
965.741	4036.57
966.043	4033.86
966.345	3999.29
966.648	3963.58
966.95	3983.92
967.252	3936.01
967.554	3942.57
967.856	3895.79
968.158	3904.15
968.46	3881.55
968.761	3843.59
969.063	3895.56
969.365	3839.97
969.666	3802.68
969.968	3801.33
970.269	3811.72
970.571	3729.46
970.872	3748.67
971.174	3707.32
971.475	3709.13
971.776	3700.99
972.077	3679.3
972.378	3698.28
972.679	3659.86
972.98	3655.79
973.281	3599.52
973.582	3643.36
973.883	3580.32
974.183	3531.73
974.484	3556.36
974.785	3565.17
975.085	3538.28
975.386	3503.71
975.686	3493.99
975.986	3474.56
976.287	3495.12
976.587	3455.8
976.887	3419.64
977.187	3398.17
977.487	3441.34
977.787	3349.36
978.087	3423.03
978.387	3356.82
978.687	3362.02
978.987	3318.18
979.286	3324.5
979.586	3310.94
979.885	3303.49
980.185	3247.89
980.484	3251.74
980.784	3231.85
981.083	3246.09
981.382	3214
981.682	3229.36
981.981	3199.99
982.28	3201.79
982.579	3138.29
982.878	3136.03
983.177	3083.83
983.475	3117.28
983.774	3055.81
984.073	3088.13
984.372	3044.96
984.67	3056.94
984.969	3050.61
985.267	3012.65
985.566	3031.63
985.864	3011.97
986.162	2991.4
986.461	2944.63
986.759	2967.22
987.057	2893.33
987.355	2912.54
987.653	2904.18
987.951	2920.22
988.249	2855.14
988.547	2874.8
988.844	2841.35
989.142	2848.36
989.44	2818.98
989.737	2800.22
990.035	2811.75
990.332	2790.96
990.63	2776.95
990.927	2780.34
991.224	2728.13
991.521	2743.28
991.819	2756.61
992.116	2717.06
992.413	2694.69
992.71	2722.48
993.006	2682.49
993.303	2653.33
993.6	2657.4
993.897	2630.28
994.193	2629.61
994.49	2641.81
994.787	2602.26
995.083	2600
995.379	2575.82
995.676	2550.74
995.972	2577.63
996.268	2537.63
996.565	2500.57
996.861	2508.25
997.157	2516.16
997.453	2468.25
997.749	2504.19
998.044	2462.83
998.34	2451.08
998.636	2451.08
998.932	2436.16
999.227	2421.25
999.523	2421.7
999.818	2377.41
1000.114	2385.77
1000.409	2357.07
1000.704	2362.95
1001	2305.09
1001.295	2289.05
1001.59	2307.35
1001.885	2320.69
1002.18	2273.68
1002.475	2285.66
1002.77	2264.87
1003.065	2265.55
1003.359	2233.68
1003.654	2233.68
1003.949	2216.51
1004.243	2223.51
1004.538	2186.45
1004.832	2200.01
1005.127	2168.6
1005.421	2148.04
1005.715	2171.09
1006.009	2127.25
1006.304	2075.72
1006.598	2063.75
1006.892	2100.58
1007.186	2099.22
1007.48	2060.58
1007.773	2046.12
1008.067	2074.82
1008.361	1986.91
1008.655	2001.15
1008.948	1991.66
1009.242	2009.96
1009.535	2004.76
1009.829	1977.19
1010.122	1954.6
1010.415	1969.74
1010.708	1937.19
1011.001	1893.35
1011.295	1914.14
1011.588	1892.45
1011.881	1886.8
1012.173	1867.37
1012.466	1890.19
1012.759	1850.64
1013.052	1821.04
1013.344	1859.68
1013.637	1881.38
1013.93	1816.29
1014.222	1802.06
1014.514	1797.31
1014.807	1805.9
1015.099	1807.93
1015.391	1771.55
1015.683	1728.16
1015.976	1726.8
1016.268	1736.3
1016.56	1720.7
1016.851	1681.83
1017.143	1687.26
1017.435	1673.7
1017.727	1656.3
1018.018	1682.06
1018.31	1695.39
1018.602	1637.09
1018.893	1649.52
1019.185	1629.18
1019.476	1610.42
1019.767	1590.99
1020.058	1574.94
1020.35	1553.48
1020.641	1538.56
1020.932	1538.79
1021.223	1541.5
1021.514	1527.04
1021.804	1525.23
1022.095	1534.27
1022.386	1505.12
1022.677	1521.16
1022.967	1470.77
1023.258	1477.55
1023.548	1433.71
1023.839	1470.09
1024.129	1467.15
1024.419	1435.06
1024.709	1429.41
1025	1393.03
1025.29	1423.99
1025.58	1416.53
1025.87	1372.46
1026.16	1369.07
1026.449	1395.51
1026.739	1367.04
1027.029	1342.18
1027.319	1323.2
1027.608	1338.79
1027.898	1330.21
1028.187	1319.13
1028.477	1306.02
1028.766	1302.18
1029.055	1299.25
1029.344	1304.44
1029.634	1255.86
1029.923	1288.17
1030.212	1275.52
1030.501	1242.75
1030.79	1241.85
1031.078	1254.95
1031.367	1239.59
1031.656	1221.73
1031.945	1205.46
1032.233	1199.14
1032.522	1191.45
1032.81	1192.36
1033.099	1197.55
1033.387	1197.33
1033.675	1161.4
1033.963	1155.29
1034.251	1148.97
1034.54	1136.09
1034.828	1143.09
1035.116	1125.24
1035.403	1144.67
1035.691	1119.59
1035.979	1107.84
1036.267	1101.96
1036.554	1099.02
1036.842	1100.83
1037.129	1081.62
1037.417	1092.47
1037.704	1071.45
1037.992	1039.14
1038.279	1021.51
1038.566	1034.17
1038.853	1034.17
1039.14	1034.17
