Data from hue_200_FLMS001491_00046.txt Node
Date: Tue Feb 07 16:43:20 GMT 2017
User: dcchb
Spectrometer: FLMS00149
Trigger mode: 0
Integration Time (sec): 2.000000E-2
Scans to average: 10
Electric dark correction enabled: true
Nonlinearity correction enabled: false
Boxcar width: 0
XAxis mode: Wavelengths
Number of Pixels in Spectrum: 2048
>>>>>Begin Spectral Data<<<<<
341.393	-8.8
341.776	-8.8
342.16	-8.8
342.543	-35.47
342.927	-63.04
343.31	-74.79
343.693	-73.43
344.077	-63.94
344.46	-61.68
344.843	-56.26
345.226	-46.31
345.61	-29.36
345.993	-22.58
346.376	7.25
346.759	23.29
347.142	28.94
347.525	49.05
347.908	74.59
348.291	71.2
348.674	65.32
349.057	108.71
349.44	112.78
349.823	136.73
350.206	150.74
350.588	192.55
350.971	205.88
351.354	214.7
351.737	236.62
352.119	253.79
352.502	220.8
352.884	291.76
353.267	276.39
353.65	290.85
354.032	297.86
354.414	294.24
354.797	303.28
355.179	310.97
355.562	326.11
355.944	334.92
356.326	306.45
356.709	331.3
357.091	339.67
357.473	325.43
357.855	340.57
358.238	344.64
358.62	323.85
359.002	337.18
359.384	354.58
359.766	335.37
360.148	330.4
360.53	314.36
360.912	352.1
361.294	334.24
361.676	334.69
362.057	327.46
362.439	335.82
362.821	334.02
363.203	332.21
363.584	321.59
363.966	301.48
364.348	328.37
364.729	304.41
365.111	329.95
365.493	309.61
365.874	310.74
366.256	326.79
366.637	302.61
367.019	322.72
367.4	323.62
367.781	321.14
368.163	320.91
368.544	312.55
368.925	297.18
369.306	317.97
369.688	322.27
370.069	295.37
370.45	300.12
370.831	287.92
371.212	306.45
371.593	308.25
371.974	305.54
372.355	318.42
372.736	327.24
373.117	304.41
373.498	308.48
373.879	326.79
374.26	315.71
374.641	317.97
375.021	300.12
375.402	309.16
375.783	301.25
376.163	308.48
376.544	319.33
376.925	320.01
377.305	332.43
377.686	317.29
378.066	316.39
378.447	315.71
378.827	347.58
379.208	333.79
379.588	328.59
379.968	326.56
380.349	346.45
380.729	333.56
381.109	339.21
381.489	342.15
381.87	344.19
382.25	326.56
382.63	352.32
383.01	332.43
383.39	336.5
383.77	340.34
384.15	325.66
384.53	327.69
384.91	320.46
385.29	343.96
385.67	341.02
386.049	353.9
386.429	335.6
386.809	342.38
387.189	331.98
387.568	356.61
387.948	338.54
388.328	355.71
388.707	375.82
389.087	353.68
389.466	343.73
389.846	369.27
390.225	375.15
390.605	365.43
390.984	350.29
391.363	353.23
391.743	349.61
392.122	376.05
392.501	366.33
392.881	377.41
393.26	364.07
393.639	375.15
394.018	373.79
394.397	391.64
394.776	395.03
395.155	376.73
395.534	382.38
395.913	376.05
396.292	397.74
396.671	386.44
397.05	385.54
397.429	382.83
397.808	390.06
398.186	404.98
398.565	398.65
398.944	401.13
399.323	397.97
399.701	431.19
400.08	395.71
400.458	415.6
400.837	416.05
401.215	419.44
401.594	425.77
401.972	411.3
402.351	418.76
402.729	436.84
403.107	437.74
403.486	437.97
403.864	442.49
404.242	457.63
404.62	424.86
404.999	443.62
405.377	456.73
405.755	466.67
406.133	455.37
406.511	480.23
406.889	466.22
407.267	482.71
407.645	472.77
408.023	512.77
408.401	487.91
408.779	510.51
409.156	498.53
409.534	509.83
409.912	524.75
410.29	521.58
410.667	546.89
411.045	552.77
411.422	545.99
411.8	562.71
412.178	554.12
412.555	586.89
412.933	603.61
413.31	600.68
413.687	622.14
414.065	624.63
414.442	656.04
414.819	650.62
415.197	655.14
415.574	656.72
415.951	668.02
416.328	673.67
416.705	659.88
417.082	690.62
417.46	717.28
417.837	734.91
418.214	755.25
418.591	741.92
418.967	745.98
419.344	754.57
419.721	777.62
420.098	772.2
420.475	794.34
420.852	796.38
421.228	832.99
421.605	846.77
421.982	821.01
422.358	843.38
422.735	879.99
423.111	868.92
423.488	898.52
423.864	939.65
424.241	933.32
424.617	947.56
424.994	978.75
425.37	993.66
425.746	986.2
426.123	1044.73
426.499	1036.6
426.875	1048.57
427.251	1066.2
427.627	1072.98
428.003	1121.57
428.379	1129.7
428.756	1129.7
429.132	1142.13
429.507	1123.15
429.883	1179.42
430.259	1179.19
430.635	1203.82
431.011	1212.64
431.387	1272.98
431.763	1243.6
432.138	1251.73
432.514	1290.38
432.89	1300.77
433.265	1310.71
433.641	1369.02
434.016	1388.9
434.392	1379.64
434.767	1425.29
435.143	1466.87
435.518	1471.16
435.894	1524.04
436.269	1544.83
436.644	1555.23
437.02	1571.95
437.395	1585.96
437.77	1638.39
438.145	1670.7
438.52	1700.53
438.895	1730.14
439.271	1751.83
439.646	1775.79
440.021	1799.97
440.395	1797.48
440.77	1831.38
441.145	1826.86
441.52	1910.92
441.895	1901.21
442.27	1949.12
442.645	1946.63
443.019	1972.39
443.394	1989.11
443.769	2004.93
444.143	2009
444.518	2060.52
444.892	2061.2
445.267	2090.13
445.641	2119.96
446.016	2140.3
446.39	2165.38
446.764	2190.24
447.139	2166.51
447.513	2226.4
447.887	2223.23
448.262	2217.36
448.636	2231.14
449.01	2261.42
449.384	2305.04
449.758	2305.26
450.132	2357.01
450.506	2340.74
450.88	2372.16
451.254	2357.47
451.628	2405.37
452.002	2447.63
452.376	2481.53
452.75	2466.16
453.123	2498.93
453.497	2548.2
453.871	2555.88
454.244	2642.88
454.618	2656.22
454.992	2677.46
455.365	2652.37
455.739	2742.77
456.112	2768.98
456.486	2811.24
456.859	2847.4
457.232	2890.33
457.606	2867.96
457.979	2896.89
458.352	2972.59
458.725	3001.29
459.099	3002.2
459.472	3074.51
459.845	3092.14
460.218	3101.63
460.591	3151.12
460.964	3218.91
461.337	3217.1
461.71	3329.19
462.083	3321.96
462.456	3338.23
462.829	3342.98
463.201	3430.21
463.574	3423.88
463.947	3487.83
464.32	3552.01
464.692	3572.35
465.065	3620.26
465.438	3683.99
465.81	3709.75
466.183	3759.01
466.555	3841.5
466.928	3860.48
467.3	3873.58
467.672	3896.41
468.045	3990.64
468.417	4021.83
468.789	4011.66
469.161	4134.59
469.534	4154.48
469.906	4256.4
470.278	4289.39
470.65	4330.97
471.022	4383.63
471.394	4455.94
471.766	4505.66
472.138	4541.82
472.51	4609.61
472.882	4716.73
473.253	4755.37
473.625	4842.6
473.997	4914.91
474.369	4921.24
474.74	5033.55
475.112	5079.2
475.484	5126.21
475.855	5259.99
476.227	5245.3
476.598	5416.59
476.97	5445.97
477.341	5556.93
477.713	5597.61
478.084	5688
478.455	5773.87
478.827	5798.28
479.198	5994.88
479.569	5985.39
479.94	6169.8
480.311	6203.01
480.682	6353.52
481.053	6463.8
481.424	6562.55
481.795	6604.59
482.166	6666.05
482.537	6731.81
482.908	6898.36
483.279	6971.13
483.65	7035.31
484.021	7201.41
484.391	7188.98
484.762	7342.65
485.133	7381.51
485.503	7492.25
485.874	7608.85
486.244	7709.19
486.615	7809.3
486.985	7906.02
487.356	7998.22
487.726	8092.68
488.097	8230.98
488.467	8244.77
488.837	8395.27
489.207	8427.36
489.578	8523.63
489.948	8592.33
490.318	8688.6
490.688	8795.72
491.058	8846.11
491.428	8964.98
491.798	9025.77
492.168	9220.11
492.538	9190.05
492.908	9284.52
493.278	9414
493.648	9342.37
494.017	9496.49
494.387	9601.8
494.757	9573.1
495.126	9729.93
495.496	9661.68
495.866	9757.72
496.235	9881.56
496.605	9993.42
496.974	9992.97
497.344	10070.71
497.713	10070.94
498.082	10135.57
498.452	10286.52
498.821	10250.37
499.19	10284.49
499.559	10372.17
499.928	10399.06
500.298	10395.22
500.667	10456.91
501.036	10524.48
501.405	10564.48
501.774	10526.97
502.143	10561.77
502.512	10640.19
502.88	10689.9
503.249	10699.85
503.618	10797.47
503.987	10768.09
504.356	10831.37
504.724	10918.37
505.093	10811.93
505.462	10911.37
505.83	10966.96
506.199	10973.28
506.567	11012.61
506.936	11086.05
507.304	11082.66
507.672	11182.54
508.041	11129.44
508.409	11185.03
508.777	11250.34
509.145	11346.61
509.514	11227.74
509.882	11349.55
510.25	11325.82
510.618	11383.22
510.986	11357
511.354	11448.75
511.722	11467.06
512.09	11523.55
512.458	11465.25
512.826	11486.72
513.193	11560.16
513.561	11561.07
513.929	11564.91
514.297	11586.83
514.664	11723.77
515.032	11655.75
515.4	11723.77
515.767	11723.77
516.135	11708.86
516.502	11644.91
516.869	11848.52
517.237	11806.71
517.604	11766.03
517.972	11725.36
518.339	11816.43
518.706	11702.08
519.073	11781.85
519.44	11813.71
519.808	11897.1
520.175	11801.74
520.542	11983.88
520.909	11933.71
521.276	11854.39
521.643	11919.93
522.009	11969.64
522.376	12004.44
522.743	11966.03
523.11	12031.11
523.477	12073.59
523.843	12132.35
524.21	12152.01
524.577	12200.37
524.943	12138.68
525.31	12171.45
525.676	12248.05
526.043	12216.64
526.409	12109.98
526.776	12289.86
527.142	12172.58
527.508	12175.29
527.874	12193.59
528.241	12260.26
528.607	12159.69
528.973	12198.34
529.339	12095.52
529.705	12236.08
530.071	12231.56
530.437	12144.1
530.803	12229.98
531.169	12179.81
531.535	12084.44
531.901	12092.58
532.267	12124.44
532.632	12127.6
532.998	12115.63
533.364	12134.61
533.73	12070.21
534.095	12099.13
534.461	11993.6
534.826	12024.1
535.192	11959.93
535.557	11896.65
535.923	11892.36
536.288	11805.13
536.653	11885.35
537.019	11775.52
537.384	11729.88
537.749	11675.41
538.114	11675.19
538.479	11640.39
538.845	11611.01
539.21	11579.82
539.575	11605.81
539.94	11464.8
540.305	11534.17
540.67	11437.45
541.034	11430
541.399	11454.18
541.764	11326.5
542.129	11337.12
542.494	11224.35
542.858	11277.68
543.223	11183.22
543.587	11183.45
543.952	11079.04
544.316	11138.7
544.681	10992.95
545.045	10976.9
545.41	10931.7
545.774	10877.92
546.138	10908.88
546.503	10871.37
546.867	10690.81
547.231	10776.45
547.595	10683.12
547.959	10699.85
548.324	10616.01
548.688	10547.53
549.052	10535.1
549.416	10513.86
549.779	10472.06
550.143	10406.97
550.507	10360.87
550.871	10328.56
551.235	10224.83
551.599	10335.56
551.962	10313.87
552.326	10277.26
552.689	10255.11
553.053	10152.74
553.417	10092.18
553.78	10241.55
554.143	10109.13
554.507	10098.28
554.87	10110.26
555.234	10113.87
555.597	9959.98
555.96	9912.3
556.323	9936.7
556.686	9925.4
557.05	9879.08
557.413	9801.11
557.776	9879.75
558.139	9829.81
558.502	9769.25
558.865	9748.01
559.228	9731.51
559.59	9786.2
559.953	9759.31
560.316	9794.33
560.679	9698.97
561.041	9789.59
561.404	9716.82
561.767	9786.2
562.129	9686.99
562.492	9752.07
562.854	9610.16
563.217	9647.67
563.579	9606.32
563.941	9625.75
564.304	9631.17
564.666	9715.46
565.028	9618.74
565.39	9651.06
565.753	9708.91
566.115	9657.39
566.477	9664.39
566.839	9682.47
567.201	9625.07
567.563	9624.17
567.925	9687.67
568.287	9651.96
568.648	9578.29
569.01	9696.26
569.372	9739.42
569.734	9670.95
570.095	9703.04
570.457	9687.22
570.819	9708.23
571.18	9630.72
571.542	9685.64
571.903	9688.35
572.265	9746.2
572.626	9695.58
572.987	9707.33
573.349	9690.83
573.71	9724.5
574.071	9692.87
574.432	9729.93
574.794	9823.48
575.155	9730.38
575.516	9734.22
575.877	9707.78
576.238	9660.78
576.599	9698.29
576.96	9681.79
577.32	9737.16
577.681	9739.19
578.042	9765.41
578.403	9737.61
578.763	9713.66
579.124	9727.89
579.485	9712.3
579.845	9796.59
580.206	9765.18
580.566	9738.29
580.927	9750.04
581.287	9790.04
581.648	9628.46
582.008	9769.93
582.368	9715.01
582.728	9713.88
583.089	9766.31
583.449	9750.27
583.809	9679.08
584.169	9740.55
584.529	9686.09
584.889	9725.41
585.249	9668.23
585.609	9655.35
585.969	9743.26
586.329	9664.62
586.688	9670.27
587.048	9689.93
587.408	9666.43
587.768	9622.36
588.127	9682.92
588.487	9559.99
588.846	9667.78
589.206	9621.23
589.565	9558.86
589.925	9633.43
590.284	9591.4
590.643	9607.67
591.003	9602.7
591.362	9677.73
591.721	9622.59
592.08	9572.42
592.44	9611.29
592.799	9578.52
593.158	9595.02
593.517	9513.21
593.876	9469.14
594.235	9483.38
594.593	9527.22
594.952	9503.27
595.311	9487
595.67	9528.13
596.029	9494
596.387	9547.33
596.746	9510.72
597.104	9562.7
597.463	9470.05
597.822	9422.37
598.18	9431.86
598.538	9486.54
598.897	9493.32
599.255	9463.95
599.613	9536.26
599.972	9425.98
600.33	9437.28
600.688	9462.82
601.046	9529.48
601.404	9487
601.762	9468.01
602.12	9527.22
602.478	9497.39
602.836	9478.63
603.194	9486.54
603.552	9490.61
603.91	9432.53
604.268	9402.25
604.625	9416.72
604.983	9425.08
605.341	9397.51
605.698	9480.44
606.056	9512.98
606.413	9486.77
606.771	9457.17
607.128	9457.62
607.485	9371.29
607.843	9474.34
608.2	9464.85
608.557	9527
608.914	9407
609.272	9498.75
609.629	9538.75
609.986	9496.94
610.343	9478.41
610.7	9555.47
611.057	9512.31
611.414	9571.97
611.771	9443.61
612.127	9552.31
612.484	9534.68
612.841	9555.92
613.198	9475.92
613.554	9540.78
613.911	9590.72
614.267	9571.74
614.624	9521.57
614.98	9497.17
615.337	9609.7
615.693	9628.01
616.05	9562.02
616.406	9632.3
616.762	9569.71
617.118	9595.47
617.475	9540.33
617.831	9662.36
618.187	9579.2
618.543	9557.5
618.899	9642.47
619.255	9563.38
619.611	9663.04
619.967	9668.01
620.323	9684.28
620.678	9629.14
621.034	9562.47
621.39	9603.38
621.746	9597.73
622.101	9675.01
622.457	9681.12
622.812	9669.14
623.168	9674.11
623.523	9637.73
623.879	9648.12
624.234	9657.84
624.589	9675.47
624.945	9599.54
625.3	9677.95
625.655	9656.03
626.01	9637.95
626.365	9672.3
626.72	9582.81
627.075	9581.46
627.43	9610.61
627.785	9579.42
628.14	9584.85
628.495	9601.8
628.85	9556.37
629.205	9581.01
629.559	9613.32
629.914	9475.25
630.269	9538.07
630.623	9524.96
630.978	9515.47
631.332	9517.28
631.687	9563.15
632.041	9508.69
632.396	9504.85
632.75	9470.5
633.104	9524.74
633.459	9486.54
633.813	9441.35
634.167	9487.22
634.521	9444.96
634.875	9435.02
635.229	9392.76
635.583	9381.46
635.937	9349.82
636.291	9398.19
636.645	9386.21
636.999	9347.11
637.352	9359.77
637.706	9364.29
638.06	9283.16
638.413	9282.03
638.767	9258.75
639.121	9265.08
639.474	9243.16
639.828	9215.82
640.181	9234.57
640.534	9274.12
640.888	9208.81
641.241	9192.54
641.594	9201.13
641.947	9189.6
642.301	9150.73
642.654	9165.2
643.007	9251.07
643.36	9222.82
643.713	9173.56
644.066	9131.3
644.419	9108.93
644.771	9097.4
645.124	9000.23
645.477	8986.44
645.83	8972.43
646.182	8942.38
646.535	8885.2
646.888	8927.01
647.24	8835.71
647.593	8919.33
647.945	8937.63
648.298	8852.21
648.65	8866.67
649.002	8854.7
649.355	8857.18
649.707	8873
650.059	8947.58
650.411	9057.4
650.763	9063.96
651.115	9139.21
651.467	9077.74
651.819	9063.5
652.171	9064.86
652.523	9114.35
652.875	9051.3
653.227	9023.28
653.578	9081.36
653.93	9074.8
654.282	9018.76
654.633	9050.62
654.985	9067.57
655.337	9042.49
655.688	9065.99
656.039	9005.43
656.391	8983.73
656.742	8999.55
657.094	9061.7
657.445	9040.45
657.796	9037.06
658.147	9091.07
658.498	9087.68
658.849	9100.11
659.2	9066.67
659.551	9060.34
659.902	9143.73
660.253	9040.91
660.604	9115.03
660.955	9090.62
661.306	9117.29
661.656	9124.52
662.007	9176.04
662.358	9094.69
662.708	9114.12
663.059	9065.54
663.409	9048.14
663.76	9128.36
664.11	9111.41
664.461	9183.73
664.811	9124.75
665.161	9129.72
665.511	9098.31
665.862	9105.09
666.212	9185.76
666.562	9220.11
666.912	9169.72
667.262	9141.92
667.612	9168.59
667.962	9143.05
668.312	9159.77
668.662	9190.73
669.011	9166.55
669.361	9143.5
669.711	9138.98
670.06	9101.92
670.41	9138.53
670.76	9151.86
671.109	9091.98
671.459	9151.86
671.808	9119.32
672.157	9063.96
672.507	9087.46
672.856	9113.45
673.205	9030.51
673.554	9100.79
673.904	9054.47
674.253	9054.24
674.602	9051.3
674.951	8920.68
675.3	8927.91
675.649	9050.85
675.998	8941.7
676.346	9004.75
676.695	9061.7
677.044	8999.33
677.393	9012.66
677.741	8945.99
678.09	8952.32
678.438	8986.9
678.787	9013.79
679.135	8929.5
679.484	8845.66
679.832	8884.07
680.181	8830.52
680.529	8814.92
680.877	8811.76
681.225	8802.49
681.573	8820.57
681.922	8805.21
682.27	8770.4
682.618	8683.85
682.966	8711.2
683.314	8754.81
683.661	8664.65
684.009	8654.02
684.357	8625.55
684.705	8589.62
685.053	8602.73
685.4	8623.74
685.748	8620.58
686.095	8538.77
686.443	8588.94
686.79	8454.93
687.138	8560.69
687.485	8539.68
687.832	8452.45
688.18	8459.23
688.527	8400.92
688.874	8395.05
689.221	8350.53
689.568	8366.35
689.915	8290.64
690.262	8331.55
690.609	8263.53
690.956	8260.14
691.303	8326.57
691.65	8237.09
691.997	8180.82
692.344	8186.24
692.69	8136.3
693.037	8074.15
693.383	8091.55
693.73	8077.54
694.077	7995.51
694.423	8030.09
694.769	7985.79
695.116	7925
695.462	8004.32
695.808	7905.34
696.155	7859.47
696.501	7843.65
696.847	7835.29
697.193	7793.71
697.539	7758.68
697.885	7772.24
698.231	7662.64
698.577	7646.82
698.923	7638.91
699.269	7549.65
699.614	7540.15
699.96	7530.66
700.306	7526.82
700.651	7469.42
700.997	7419.48
701.342	7411.12
701.688	7372.25
702.033	7341.52
702.379	7362.31
702.724	7317.56
703.069	7319.37
703.415	7227.17
703.76	7190.56
704.105	7257.68
704.45	7208.64
704.795	7174.97
705.14	7121.86
705.485	7118.02
705.83	7091.58
706.175	7051.58
706.52	7070.34
706.865	6999.38
707.209	7001.19
707.554	6990.11
707.899	7024.91
708.243	6945.82
708.588	6971.36
708.932	6861.53
709.277	6847.97
709.621	6864.92
709.966	6818.14
710.31	6852.04
710.654	6767.07
710.998	6808.2
711.342	6809.1
711.687	6827.41
712.031	6751.7
712.375	6703.11
712.719	6767.29
713.063	6705.37
713.407	6677.35
713.75	6658.37
714.094	6671.48
714.438	6596.22
714.782	6597.35
715.125	6621.31
715.469	6598.26
715.812	6600.52
716.156	6554.87
716.499	6587.41
716.843	6575.21
717.186	6513.74
717.53	6551.48
717.873	6523.91
718.216	6562.55
718.559	6506.74
718.902	6518.94
719.246	6498.83
719.589	6444.82
719.932	6406.17
720.275	6475.1
720.617	6461.31
720.96	6489.11
721.303	6421.77
721.646	6426.29
721.989	6371.37
722.331	6438.94
722.674	6400.98
723.016	6383.12
723.359	6337.7
723.701	6427.19
724.044	6418.15
724.386	6366.17
724.729	6356.68
725.071	6375.44
725.413	6369.56
725.755	6421.77
726.097	6358.49
726.439	6348.1
726.782	6321.88
727.124	6364.82
727.465	6327.98
727.807	6376.34
728.149	6290.02
728.491	6280.07
728.833	6330.92
729.175	6332.95
729.516	6285.5
729.858	6226.52
730.199	6296.12
730.541	6274.88
730.882	6308.77
731.224	6336.34
731.565	6267.87
731.906	6334.08
732.248	6327.76
732.589	6286.4
732.93	6235.78
733.271	6248.66
733.612	6342.9
733.953	6271.94
734.294	6329.57
734.635	6318.27
734.976	6299.51
735.317	6271.49
735.658	6306.74
735.999	6296.12
736.339	6338.38
736.68	6308.32
737.021	6299.74
737.361	6319.17
737.702	6358.27
738.042	6316.23
738.383	6347.19
738.723	6336.8
739.063	6372.28
739.404	6370.69
739.744	6373.41
740.084	6353.97
740.424	6370.02
740.764	6409.56
741.104	6441.65
741.444	6426.29
741.784	6400.98
742.124	6468.09
742.464	6488.66
742.804	6511.93
743.143	6514.65
743.483	6591.93
743.823	6549.67
744.162	6555.77
744.502	6592.61
744.841	6622.66
745.181	6670.57
745.52	6672.38
745.86	6716.45
746.199	6766.84
746.538	6778.37
746.877	6842.09
747.216	6853.85
747.556	6892.49
747.895	6984.24
748.234	7053.61
748.573	7049.09
748.911	7101.3
749.25	7193.72
749.589	7203.44
749.928	7270.11
750.267	7370.67
750.605	7420.61
750.944	7432.59
751.283	7619.25
751.621	7654.28
751.96	7766.14
752.298	7838.45
752.636	7939.92
752.975	7966.36
753.313	8113.25
753.651	8245.9
753.989	8302.17
754.327	8434.37
754.666	8520.02
755.004	8658.32
755.342	8839.1
755.679	8845.21
756.017	9018.08
756.355	9145.76
756.693	9311.63
757.031	9506.2
757.368	9587.11
757.706	9693.32
758.044	9874.56
758.381	10009.24
758.719	10167.2
759.056	10339.86
759.394	10507.99
759.731	10686.51
760.068	10840.18
760.405	10923.34
760.743	11109.1
761.08	11378.02
761.417	11445.81
761.754	11632.7
762.091	11783.21
762.428	12001.28
762.765	12052.58
763.102	12369.86
763.438	12464.09
763.775	12686.69
764.112	12815.72
764.449	13072.89
764.785	13204.64
765.122	13281.47
765.458	13442.15
765.795	13616.61
766.131	13823.38
766.467	13988.8
766.804	14087.78
767.14	14229.02
767.476	14405.74
767.812	14467.66
768.148	14643.47
768.485	14789.91
768.821	14920.98
769.157	15048.21
769.492	15201.87
769.828	15421.76
770.164	15413.62
770.5	15524.35
770.836	15702.43
771.171	15740.39
771.507	15891.57
771.842	15882.31
772.178	16130.89
772.513	16124.34
772.849	16256.99
773.184	16325.46
773.519	16447.27
773.855	16495.85
774.19	16581.73
774.525	16605.23
774.86	16736.75
775.195	16905.33
775.53	16993.24
775.865	16867.14
776.2	16927.25
776.535	17023.3
776.87	17021.04
777.205	17059.23
777.539	17171.99
777.874	17275.49
778.209	17275.72
778.543	17278.43
778.878	17272.78
779.212	17336.28
779.547	17333.12
779.881	17449.72
780.215	17364.76
780.55	17484.3
780.884	17380.35
781.218	17500.12
781.552	17522.94
781.886	17529.5
782.22	17423.96
782.554	17477.29
782.888	17473
783.222	17409.73
783.556	17423.28
783.889	17452.21
784.223	17398.43
784.557	17402.72
784.89	17458.31
785.224	17412.66
785.557	17463.28
785.891	17380.35
786.224	17357.07
786.558	17475.94
786.891	17351.65
787.224	17276.4
787.557	17324.98
787.891	17318.43
788.224	17339.67
788.557	17356.39
788.89	17380.35
789.223	17291.54
789.556	17236.62
789.888	17241.82
790.221	17257.64
790.554	17108.72
790.887	17111.88
791.219	17046.57
791.552	17080.47
791.884	17077.08
792.217	16920.25
792.549	17044.09
792.882	16957.53
793.214	16885.9
793.546	17013.58
793.879	16877.08
794.211	16819.46
794.543	16862.85
794.875	16812
795.207	16855.16
795.539	16751.44
795.871	16900.81
796.203	16723.87
796.535	16593.02
796.867	16655.17
797.198	16599.8
797.53	16539.47
797.862	16506.47
798.193	16546.02
798.525	16437.32
798.856	16460.15
799.188	16347.38
799.519	16257.21
799.85	16214.28
800.182	16198.46
800.513	16336.53
800.844	16103.09
801.175	16240.72
801.506	16195.07
801.837	16187.61
802.168	16074.39
802.499	15998.92
802.83	15953.49
803.161	15958.01
803.491	15966.6
803.822	15966.6
804.153	15905.13
804.483	15719.37
804.814	15703.56
805.145	15766.61
805.475	15673.05
805.805	15603.45
806.136	15628.98
806.466	15711.69
806.796	15498.36
807.126	15479.16
807.457	15450.46
807.787	15542.2
808.117	15467.4
808.447	15351.02
808.777	15400.06
809.107	15311.48
809.436	15312.38
809.766	15213.85
810.096	15231.03
810.426	15167.52
810.755	15090.69
811.085	15157.81
811.414	15059.28
811.744	15071.48
812.073	15066.51
812.403	14959.17
812.732	14987.19
813.061	15023.8
813.39	14896.8
813.719	14837.14
814.049	14916.68
814.378	14900.41
814.707	14853.18
815.036	14760.08
815.365	14668.78
815.693	14690.93
816.022	14702.45
816.351	14678.72
816.68	14517.6
817.008	14642.57
817.337	14500.2
817.665	14430.82
817.994	14516.24
818.322	14485.28
818.651	14338.62
818.979	14326.42
819.307	14470.82
819.636	14344.04
819.964	14294.78
820.292	14410.93
820.62	14252.07
820.948	14309.47
821.276	14331.61
821.604	14341.56
821.932	14343.59
822.259	14393.76
822.587	14345.85
822.915	14262.46
823.243	14372.97
823.57	14319.86
823.898	14285.29
824.225	14321.45
824.553	14263.82
824.88	14295.01
825.207	14347.66
825.535	14291.84
825.862	14361.44
826.189	14268.34
826.516	14317.15
826.843	14364.61
827.17	14414.32
827.497	14346.76
827.824	14406.41
828.151	14410.48
828.478	14353.54
828.805	14481.67
829.131	14361.22
829.458	14333.65
829.785	14280.32
830.111	14268.11
830.438	14366.87
830.764	14353.08
831.09	14346.76
831.417	14253.42
831.743	14336.59
832.069	14386.08
832.395	14251.16
832.722	14356.92
833.048	14240.32
833.374	14229.7
833.7	14229.47
834.026	14197.83
834.351	14171.62
834.677	14238.28
835.003	14227.44
835.329	14218.85
835.654	14214.56
835.98	14166.42
836.306	14226.76
836.631	14090.72
836.956	14135.69
837.282	14161.68
837.607	14075.12
837.932	14108.34
838.258	14016.14
838.583	14036.93
838.908	13953.55
839.233	14034.22
839.558	13903.15
839.883	13918.07
840.208	13836.49
840.533	13905.64
840.858	13787.9
841.182	13810.05
841.507	13847.33
841.832	13846.43
842.156	13829.26
842.481	13819.76
842.805	13735.7
843.13	13706.55
843.454	13687.34
843.778	13593.56
844.103	13631.07
844.427	13498.64
844.751	13562.6
845.075	13494.8
845.399	13455.71
845.723	13431.53
846.047	13436.95
846.371	13309.72
846.695	13332.32
847.019	13256.61
847.343	13196.5
847.666	13084.42
847.99	13100.91
848.313	12996.73
848.637	12947.24
848.96	12904.08
849.284	12885.55
849.607	12897.53
849.931	12742.96
850.254	12660.92
850.577	12710.87
850.9	12507.71
851.223	12510.19
851.546	12524.43
851.869	12389.29
852.192	12395.62
852.515	12287.83
852.838	12272.01
853.161	12338.45
853.483	12215.51
853.806	12074.27
854.129	12167.15
854.451	12114.95
854.774	12057.55
855.096	11958.57
855.419	11994.95
855.741	11954.05
856.063	11794.05
856.385	11810.1
856.708	11798.35
857.03	11806.71
857.352	11764.45
857.674	11746.82
857.996	11629.09
858.318	11591.57
858.64	11650.33
858.961	11594.96
859.283	11567.62
859.605	11488.53
859.926	11503.44
860.248	11544.12
860.57	11446.72
860.891	11502.99
861.212	11382.54
861.534	11352.03
861.855	11354.07
862.176	11293.73
862.498	11373.73
862.819	11284.01
863.14	11240.17
863.461	11237.46
863.782	11219.15
864.103	11212.15
864.424	11149.78
864.745	11187.29
865.065	11135.77
865.386	11170.79
865.707	11040.18
866.027	11091.25
866.348	11039.5
866.668	11111.36
866.989	11035.66
867.309	10880.41
867.63	11003.11
867.95	11004.24
868.27	10836.34
868.59	10887.86
868.91	10909.11
869.23	10858.03
869.55	10816.68
869.87	10843.8
870.19	10868.88
870.51	10908.2
870.83	10798.83
871.15	10770.58
871.469	10750.24
871.789	10859.39
872.109	10758.83
872.428	10660.52
872.748	10766.28
873.067	10743.69
873.386	10622.11
873.706	10670.92
874.025	10582.11
874.344	10567.19
874.663	10541.21
874.982	10527.19
875.301	10571.04
875.62	10584.82
875.939	10519.51
876.258	10544.14
876.577	10533.97
876.896	10487.42
877.214	10473.64
877.533	10460.3
877.852	10438.61
878.17	10388.89
878.489	10502.79
878.807	10410.81
879.125	10404.49
879.444	10386.63
879.762	10341.21
880.08	10352.74
880.398	10278.39
880.716	10297.82
881.034	10302.57
881.352	10292.17
881.67	10214.66
881.988	10190.03
882.306	10178.73
882.624	10141.67
882.941	10172.63
883.259	10158.39
883.577	10069.35
883.894	10051.05
884.212	10037.94
884.529	10014.89
884.846	10059.64
885.164	9978.51
885.481	9978.28
885.798	9923.37
886.115	9851.51
886.432	9837.27
886.75	9784.39
887.067	9839.76
887.383	9800.89
887.7	9802.02
888.017	9818.29
888.334	9739.42
888.651	9755.92
888.967	9726.99
889.284	9663.71
889.6	9671.62
889.917	9589.37
890.233	9680.44
890.55	9530.84
890.866	9529.48
891.182	9517.5
891.498	9456.94
891.815	9407
892.131	9407.22
892.447	9414.23
892.763	9379.2
893.079	9345.98
893.395	9298.53
893.71	9281.13
894.026	9211.3
894.342	9220.56
894.657	9176.95
894.973	9099.44
895.289	9074.35
895.604	9115.48
895.92	9035.03
896.235	8966.56
896.55	8959.33
896.865	8929.95
897.181	8886.79
897.496	8944.41
897.811	8886.11
898.126	8842.27
898.441	8814.25
898.756	8769.28
899.071	8721.82
899.386	8717.53
899.7	8600.92
900.015	8597.3
900.33	8584.42
900.644	8560.02
900.959	8571.31
901.273	8474.37
901.588	8479.79
901.902	8414.26
902.216	8465.33
902.531	8403.63
902.845	8389.85
903.159	8272.34
903.473	8309.85
903.787	8289.06
904.101	8222.62
904.415	8275.73
904.729	8158.22
905.042	8116.41
905.356	8130.65
905.67	8091.55
905.984	8114.6
906.297	8074.15
906.611	7957.32
906.924	8008.39
907.237	7910.31
907.551	7944.21
907.864	7843.88
908.177	7827.6
908.491	7782.86
908.804	7734.5
909.117	7799.81
909.43	7685.24
909.743	7677.33
910.056	7644.33
910.368	7566.37
910.681	7511.91
910.994	7555.3
911.307	7527.05
911.619	7464.68
911.932	7484.79
912.244	7347.39
912.557	7465.13
912.869	7312.14
913.181	7333.38
913.494	7308.07
913.806	7204.57
914.118	7250.44
914.43	7181.97
914.742	7159.37
915.054	7144.01
915.366	7138.58
915.678	7042.31
915.99	7057
916.302	6990.34
916.613	6944.01
916.925	7002.54
917.236	6948.76
917.548	6881.42
917.859	6900.85
918.171	6895.43
918.482	6857.23
918.794	6796.45
919.105	6815.2
919.416	6741.76
919.727	6739.95
920.038	6721.42
920.349	6648.43
920.66	6617.92
920.971	6597.81
921.282	6610.24
921.593	6551.48
921.903	6520.07
922.214	6498.15
922.525	6480.52
922.835	6504.25
923.146	6424.03
923.456	6370.02
923.767	6365.04
924.077	6362.11
924.387	6329.79
924.697	6252.73
925.008	6230.13
925.318	6299.06
925.628	6269.45
925.938	6182.45
926.248	6165.73
926.558	6163.24
926.867	6129.57
927.177	6123.24
927.487	6085.5
927.796	6052.74
928.106	6064.94
928.416	5977.03
928.725	6021.78
929.034	5960.31
929.344	5952.63
929.653	5917.37
929.962	5880.76
930.271	5909.92
930.581	5822.46
930.89	5783.14
931.199	5784.04
931.508	5748.56
931.817	5706.3
932.125	5719.86
932.434	5724.38
932.743	5676.7
933.051	5594.22
933.36	5632.63
933.669	5578.85
933.977	5553.54
934.286	5576.14
934.594	5564.84
934.902	5539.08
935.21	5472.19
935.519	5463.37
935.827	5473.77
936.135	5409.36
936.443	5420.21
936.751	5343.83
937.059	5367.1
937.367	5327.11
937.674	5312.19
937.982	5312.87
938.29	5256.83
938.597	5241.23
938.905	5179.31
939.213	5240.55
939.52	5141.12
939.827	5141.8
940.135	5092.08
940.442	5100.44
940.749	5082.59
941.056	5111.07
941.363	5059.99
941.67	5004.4
941.977	4993.1
942.284	5005.08
942.591	4954.01
942.898	4943.84
943.205	4901.58
943.511	4919.21
943.818	4897.96
944.125	4840.34
944.431	4882.82
944.738	4829.94
945.044	4817.97
945.35	4741.36
945.657	4721.25
945.963	4740.45
946.269	4685.09
946.575	4698.42
946.881	4645.77
947.187	4688.93
947.493	4608.93
947.799	4626.56
948.105	4526.9
948.41	4600.8
948.716	4565.54
949.022	4554.47
949.327	4538.2
949.633	4481.03
949.938	4488.26
950.244	4447.13
950.549	4454.13
950.854	4398.09
951.16	4378.2
951.465	4398.09
951.77	4374.59
952.075	4310.64
952.38	4345.21
952.685	4316.28
952.99	4290.97
953.294	4228.6
953.599	4227.7
953.904	4193.35
954.209	4172.33
954.513	4176.18
954.818	4182.95
955.122	4158.32
955.426	4111.77
955.731	4128.95
956.035	4096.63
956.339	4057.08
956.643	4093.01
956.948	4038.33
957.252	4018.89
957.556	4011.21
957.86	4013.02
958.163	3974.82
958.467	3992.9
958.771	3964.2
959.075	3897.54
959.378	3954.03
959.682	3882.85
959.985	3891.21
960.289	3837.88
960.592	3827.48
960.896	3825.9
961.199	3843.3
961.502	3818.9
961.805	3753.36
962.108	3734.15
962.411	3733.25
962.714	3724.66
963.017	3760.14
963.32	3746.36
963.623	3676.53
963.926	3666.36
964.228	3611.9
964.531	3653.48
964.833	3642.4
965.136	3556.98
965.438	3565.8
965.741	3570.32
966.043	3564.89
966.345	3547.72
966.648	3551.79
966.95	3531.45
967.252	3476.98
967.554	3491
967.856	3461.84
968.158	3459.58
968.46	3413.71
968.761	3434.05
969.063	3429.08
969.365	3428.17
969.666	3379.36
969.968	3375.97
970.269	3353.15
970.571	3339.59
970.872	3310.21
971.174	3271.57
971.475	3323.99
971.776	3236.09
972.077	3251.68
972.378	3260.95
972.679	3282.64
972.98	3216.88
973.281	3172.13
973.582	3211
973.883	3181.4
974.183	3167.84
974.484	3127.39
974.785	3113.15
975.085	3146.37
975.386	3148.86
975.686	3109.99
975.986	3078.58
976.287	3075.87
976.587	3038.13
976.887	3045.13
977.187	3069.99
977.487	2980.73
977.787	2971.69
978.087	2995.64
978.387	2977.34
978.687	2966.94
978.987	2968.07
979.286	2935.3
979.586	2937.11
979.885	2898.47
980.185	2897.11
980.484	2898.47
980.784	2870.9
981.083	2882.42
981.382	2887.4
981.682	2859.6
981.981	2820.73
982.28	2813.27
982.579	2807.4
982.878	2762.88
983.177	2774.4
983.475	2762.65
983.774	2746.83
984.073	2739.6
984.372	2697.34
984.67	2707.74
984.969	2683.79
985.267	2707.74
985.566	2669.55
985.864	2668.19
986.162	2699.38
986.461	2632.94
986.759	2629.1
987.057	2606.5
987.355	2574.18
987.653	2610.11
987.951	2568.53
988.249	2570.57
988.547	2600.62
988.844	2563.79
989.142	2542.77
989.44	2524.47
989.737	2532.6
990.035	2510.46
990.332	2510.68
990.63	2491.02
990.927	2429.78
991.224	2454.64
991.521	2428.42
991.819	2429.55
992.116	2426.17
992.413	2418.03
992.71	2371.03
993.006	2377.13
993.303	2396.79
993.6	2378.71
993.897	2347.75
994.193	2325.15
994.49	2349.1
994.787	2360.4
995.083	2331.48
995.379	2310.01
995.676	2240.41
995.972	2291.03
996.268	2268.2
996.565	2233.18
996.861	2220.97
997.157	2203.12
997.453	2225.04
997.749	2223.01
998.044	2198.83
998.34	2175.78
998.636	2165.61
998.932	2182.33
999.227	2117.02
999.523	2109.34
999.818	2153.86
1000.114	2090.13
1000.409	2143.91
1000.704	2105.72
1001	2099.85
1001.295	2058.04
1001.59	2054.42
1001.885	2034.31
1002.18	2051.03
1002.475	2038.83
1002.77	1992.28
1003.065	2000.19
1003.359	1985.27
1003.654	2003.35
1003.949	1944.14
1004.243	1961.09
1004.538	1912.73
1004.832	1930.13
1005.127	1938.72
1005.421	1929
1005.715	1936.46
1006.009	1920.87
1006.304	1893.07
1006.598	1890.13
1006.892	1844.94
1007.186	1871.6
1007.48	1826.86
1007.773	1847.42
1008.067	1856.69
1008.361	1809.01
1008.655	1790.7
1008.948	1802
1009.242	1766.52
1009.535	1741.44
1009.829	1791.15
1010.122	1729.23
1010.415	1768.33
1010.708	1744.15
1011.001	1723.36
1011.295	1718.61
1011.588	1686.3
1011.881	1657.6
1012.173	1682
1012.466	1717.94
1012.759	1673.64
1013.052	1638.39
1013.344	1628.67
1013.637	1622.57
1013.93	1622.34
1014.222	1618.5
1014.514	1615.56
1014.807	1612.18
1015.099	1602.68
1015.391	1558.62
1015.683	1572.63
1015.976	1594.77
1016.268	1516.13
1016.56	1514.1
1016.851	1531.27
1017.143	1520.65
1017.435	1514.78
1017.727	1512.52
1018.018	1502.57
1018.31	1487.43
1018.602	1470.94
1018.893	1460.54
1019.185	1453.54
1019.476	1444.5
1019.767	1421.9
1020.058	1422.12
1020.35	1430.94
1020.641	1410.15
1020.932	1411.05
1021.223	1411.95
1021.514	1376.93
1021.804	1343.48
1022.095	1380.77
1022.386	1340.09
1022.677	1362.46
1022.967	1344.16
1023.258	1317.95
1023.548	1314.56
1023.839	1305.74
1024.129	1329.24
1024.419	1313.2
1024.709	1289.92
1025	1262.13
1025.29	1272.52
1025.58	1273.88
1025.87	1265.52
1026.16	1255.57
1026.449	1230.72
1026.739	1254.9
1027.029	1211.06
1027.319	1237.04
1027.608	1189.81
1027.898	1236.59
1028.187	1177.84
1028.477	1178.97
1028.766	1176.93
1029.055	1162.7
1029.344	1154.56
1029.634	1155.01
1029.923	1146.42
1030.212	1156.37
1030.501	1133.32
1030.79	1119.76
1031.078	1125.18
1031.367	1113.21
1031.656	1089.93
1031.945	1089.25
1032.233	1077.5
1032.522	1073.88
1032.81	1086.09
1033.099	1059.42
1033.387	1077.95
1033.675	1047.9
1033.963	1030.72
1034.251	1048.57
1034.54	1070.95
1034.828	1029.37
1035.116	1035.24
1035.403	1009.25
1035.691	1020.78
1035.979	992.08
1036.267	983.27
1036.554	985.07
1036.842	979.2
1037.129	974.68
1037.417	969.25
1037.704	956.37
1037.992	952.08
1038.279	943.72
1038.566	934
1038.853	934
1039.14	934
