Data from hue_190_FLMS001491_00098.txt Node
Date: Tue Feb 07 16:46:03 GMT 2017
User: dcchb
Spectrometer: FLMS00149
Trigger mode: 0
Integration Time (sec): 2.000000E-2
Scans to average: 10
Electric dark correction enabled: true
Nonlinearity correction enabled: false
Boxcar width: 0
XAxis mode: Wavelengths
Number of Pixels in Spectrum: 2048
>>>>>Begin Spectral Data<<<<<
341.393	-18.01
341.776	-18.01
342.16	-18.01
342.543	-52.81
342.927	-55.3
343.31	-78.8
343.693	-77.89
344.077	-64.79
344.46	-53.49
344.843	-55.97
345.226	-48.97
345.61	-22.3
345.993	-10.32
346.376	2.33
346.759	21.76
347.142	29.67
347.525	41.88
347.908	41.43
348.291	71.93
348.674	92.5
349.057	111.03
349.44	132.04
349.823	160.29
350.206	174.3
350.588	194.64
350.971	193.96
351.354	214.53
351.737	238.71
352.119	261.98
352.502	269.44
352.884	267.18
353.267	276
353.65	303.34
354.032	307.41
354.414	310.12
354.797	319.84
355.179	328.88
355.562	319.38
355.944	342.43
356.326	313.51
356.709	310.8
357.091	328.65
357.473	317.35
357.855	319.16
358.238	352.15
358.62	322.32
359.002	337.91
359.384	335.66
359.766	331.36
360.148	351.47
360.53	325.26
360.912	342.89
361.294	316.45
361.676	338.14
362.057	338.59
362.439	334.07
362.821	309.44
363.203	303.11
363.584	342.43
363.966	332.49
364.348	323.68
364.729	325.03
365.111	323.23
365.493	300.85
365.874	314.41
366.256	310.34
366.637	309.22
367.019	301.98
367.4	318.93
367.781	312.15
368.163	320.06
368.544	297.01
368.925	315.09
369.306	316.22
369.688	295.88
370.069	332.04
370.45	302.66
370.831	318.25
371.212	293.17
371.593	291.81
371.974	308.54
372.355	311.02
372.736	333.85
373.117	334.75
373.498	307.18
373.879	328.88
374.26	297.24
374.641	313.96
375.021	320.29
375.402	309.89
375.783	333.62
376.163	316.67
376.544	317.35
376.925	322.1
377.305	306.28
377.686	317.58
378.066	321.64
378.447	321.19
378.827	318.71
379.208	303.11
379.588	319.16
379.968	324.13
380.349	340.63
380.729	335.2
381.109	320.51
381.489	324.13
381.87	318.93
382.25	309.67
382.63	337.24
383.01	327.75
383.39	339.95
383.77	334.53
384.15	340.17
384.53	347.18
384.91	347.41
385.29	342.89
385.67	321.42
386.049	352.38
386.429	353.96
386.809	332.27
387.189	340.63
387.568	353.51
387.948	351.02
388.328	366.61
388.707	353.06
389.087	371.81
389.466	353.51
389.846	354.64
390.225	373.39
390.605	372.49
390.984	376.56
391.363	355.09
391.743	367.97
392.122	359.38
392.501	398.93
392.881	359.84
393.26	369.55
393.639	375.2
394.018	379.72
394.397	363
394.776	369.55
395.155	389.66
395.534	364.35
395.913	395.54
396.292	384.02
396.671	373.17
397.05	369.33
397.429	381.53
397.808	379.27
398.186	383.11
398.565	385.82
398.944	396.44
399.323	388.99
399.701	407.07
400.08	392.38
400.458	396.44
400.837	400.96
401.215	405.94
401.594	403
401.972	410.23
402.351	398.7
402.729	426.5
403.107	415.2
403.486	410.46
403.864	408.65
404.242	433.73
404.62	430.57
404.999	419.27
405.377	431.7
405.755	441.87
406.133	461.3
406.511	463.11
406.889	447.74
407.267	451.13
407.645	463.34
408.023	472.83
408.401	469.66
408.779	471.24
409.156	490.68
409.534	481.41
409.912	477.12
410.29	511.92
410.667	494.07
411.045	507.63
411.422	507.63
411.8	518.93
412.178	526.84
412.555	546.95
412.933	538.14
413.31	556.21
413.687	552.15
414.065	595.76
414.442	594.41
414.819	590.11
415.197	607.06
415.574	616.78
415.951	601.86
416.328	616.33
416.705	641.41
417.082	615.42
417.46	633.05
417.837	654.52
418.214	648.64
418.591	681.18
418.967	645.03
419.344	671.92
419.721	672.82
420.098	687.06
420.475	702.65
420.852	709.2
421.228	741.07
421.605	756.66
421.982	754.18
422.358	744.23
422.735	770.45
423.111	769.32
423.488	821.74
423.864	803.89
424.241	819.94
424.617	850.9
424.994	856.77
425.37	848.86
425.746	853.83
426.123	896.77
426.499	899.71
426.875	882.99
427.251	904.45
427.627	939.03
428.003	978.35
428.379	959.59
428.756	960.5
429.132	967.95
429.507	973.83
429.883	1009.54
430.259	1002.76
430.635	1045.01
431.011	1032.13
431.387	1086.82
431.763	1079.59
432.138	1067.61
432.514	1104.22
432.89	1099.48
433.265	1130.89
433.641	1167.5
434.016	1162.3
434.392	1171.79
434.767	1226.93
435.143	1209.76
435.518	1238
435.894	1257.89
436.269	1305.35
436.644	1318.91
437.02	1338.11
437.395	1355.52
437.77	1368.4
438.145	1386.47
438.52	1432.8
438.895	1452.91
439.271	1443.65
439.646	1486.59
440.021	1508.05
440.395	1527.04
440.77	1518.45
441.145	1556.64
441.52	1593.7
441.895	1588.28
442.27	1607.26
442.645	1635.96
443.019	1655.39
443.394	1661.04
443.769	1675.28
444.143	1670.76
444.518	1700.14
444.892	1711.21
445.267	1711.89
445.641	1744.21
446.016	1756.63
446.39	1779.01
446.764	1800.25
447.139	1789.85
447.513	1832.11
447.887	1868.95
448.262	1855.84
448.636	1858.33
449.01	1904.43
449.384	1900.81
449.758	1913.47
450.132	1987.59
450.506	1949.85
450.88	1945.56
451.254	1995.27
451.628	2033.46
452.002	2046.57
452.376	2059.23
452.75	2074.82
453.123	2090.19
453.497	2131.99
453.871	2130.86
454.244	2208.6
454.618	2215.38
454.992	2250.41
455.365	2233.91
455.739	2286.79
456.112	2333.57
456.486	2318.2
456.859	2364.3
457.232	2385.32
457.606	2403.85
457.979	2429.39
458.352	2462.83
458.725	2509.61
459.099	2464.64
459.472	2556.39
459.845	2612.43
460.218	2596.39
460.591	2632.09
460.964	2636.61
461.337	2728.36
461.71	2764.29
462.083	2759.77
462.456	2816.27
462.829	2820.56
463.201	2874.8
463.574	2856.49
463.947	2910.28
464.32	2948.69
464.692	3035.25
465.065	3035.25
465.438	3075.47
465.81	3172.19
466.183	3183.26
466.555	3225.07
466.928	3261
467.3	3247.44
467.672	3346.42
468.045	3398.17
468.417	3394.11
468.789	3461.45
469.161	3513.42
469.534	3565.63
469.906	3561.78
470.278	3651.73
470.65	3680.65
471.022	3762.91
471.394	3834.32
471.766	3871.61
472.138	3917.48
472.51	3959.51
472.882	4024.6
473.253	4067.99
473.625	4169.68
473.997	4244.48
474.369	4291.71
474.74	4303.69
475.112	4393.4
475.484	4484.47
475.855	4553.85
476.227	4581.87
476.598	4699.38
476.97	4787.52
477.341	4876.33
477.713	4946.61
478.084	4976.21
478.455	5103.21
478.827	5165.36
479.198	5257.33
479.569	5305.24
479.94	5415.75
480.311	5473.37
480.682	5633.37
481.053	5744.78
481.424	5921.27
481.795	5902.29
482.166	5963.08
482.537	6076.75
482.908	6209.4
483.279	6275.84
483.65	6382.95
484.021	6532.1
484.391	6614.59
484.762	6602.61
485.133	6691.87
485.503	6817.29
485.874	6932.77
486.244	6967.8
486.615	7119.88
486.985	7203.95
487.356	7346.77
487.726	7403.27
488.097	7530.27
488.467	7593.54
488.837	7755.35
489.207	7829.47
489.578	7862.91
489.948	7988.11
490.318	8125.05
490.688	8120.54
491.058	8290.25
491.428	8348.33
491.798	8410.92
492.168	8591.03
492.538	8642.33
492.908	8682.78
493.278	8751.7
493.648	8844.81
494.017	8937.01
494.387	9027.4
494.757	9019.72
495.126	9108.08
495.496	9236.66
495.866	9175.87
496.235	9352.14
496.605	9334.97
496.974	9393.72
497.344	9439.37
497.713	9519.37
498.082	9571.8
498.452	9671.23
498.821	9685.69
499.19	9711.68
499.559	9815.41
499.928	9793.94
500.298	9837.33
500.667	10011.33
501.036	9906.48
501.405	10019.92
501.774	9993.03
502.143	10100.37
502.512	10120.93
502.88	10209.97
503.249	10170.42
503.618	10164.78
503.987	10266.69
504.356	10279.57
504.724	10357.54
505.093	10273.25
505.462	10395.73
505.83	10369.97
506.199	10412.9
506.567	10556.18
506.936	10541.26
507.304	10553.69
507.672	10634.37
508.041	10601.15
508.409	10676.85
508.777	10731.77
509.145	10722.95
509.514	10783.52
509.882	10795.04
510.25	10813.8
510.618	10822.61
510.986	10831.42
511.354	10819.22
511.722	10911.42
512.09	10948.26
512.458	10860.12
512.826	10975.38
513.193	10989.39
513.561	11021.7
513.929	11022.83
514.297	11083.17
514.664	11064.19
515.032	11148.25
515.4	11172.88
515.767	11150.96
516.135	11148.03
516.502	11041.36
516.869	11216.72
517.237	11144.86
517.604	11125.2
517.972	11215.59
518.339	11168.14
518.706	11042.27
519.073	11205.88
519.44	11161.36
519.808	11206.78
520.175	11237.52
520.542	11317.51
520.909	11299.43
521.276	11230.51
521.643	11289.94
522.009	11229.15
522.376	11340.11
522.743	11271.19
523.11	11333.33
523.477	11404.74
523.843	11376.49
524.21	11411.52
524.577	11403.16
524.943	11370.85
525.31	11461.46
525.676	11499.66
526.043	11444.52
526.409	11454.01
526.776	11472.09
527.142	11346.44
527.508	11402.26
527.874	11365.65
528.241	11493.1
528.607	11367.68
528.973	11391.86
529.339	11431.86
529.705	11403.61
530.071	11356.83
530.437	11386.21
530.803	11301.24
531.169	11349.15
531.535	11202.49
531.901	11262.15
532.267	11268.02
532.632	11230.74
532.998	11184.18
533.364	11254.69
533.73	11066.22
534.095	11149.61
534.461	11122.26
534.826	11033
535.192	10986.9
535.557	11006.11
535.923	10987.58
536.288	10951.42
536.653	10895.83
537.019	10842.27
537.384	10755.27
537.749	10737.64
538.114	10661.71
538.479	10687.25
538.845	10617.87
539.21	10529.06
539.575	10544.2
539.94	10445.22
540.305	10491.32
540.67	10332.68
541.034	10347.14
541.399	10325.9
541.764	10283.19
542.129	10262.63
542.494	10165.23
542.858	10136.53
543.223	10125.45
543.587	10095.62
543.952	9975.63
544.316	9963.42
544.681	9821.73
545.045	9868.06
545.41	9906.25
545.774	9825.8
546.138	9681.4
546.503	9708.06
546.867	9634.62
547.231	9556.66
547.595	9550.33
547.959	9464.68
548.324	9438.24
548.688	9330.45
549.052	9381.07
549.416	9304.68
549.779	9255.19
550.143	9221.07
550.507	9242.54
550.871	9111.92
551.235	9142.2
551.599	9058.82
551.962	9024.92
552.326	8997.12
552.689	8971.13
553.053	8876.22
553.417	8837.13
553.78	8909.21
554.143	8726.62
554.507	8728.2
554.87	8708.54
555.234	8712.61
555.597	8674.19
555.96	8674.19
556.323	8634.87
556.686	8561.43
557.05	8563.46
557.413	8510.36
557.776	8462.9
558.139	8519.17
558.502	8438.04
558.865	8390.81
559.228	8408.21
559.59	8338.16
559.953	8361.21
560.316	8379.51
560.679	8289.12
561.041	8315.78
561.404	8254.32
561.767	8251.61
562.129	8268.33
562.492	8230.36
562.854	8177.93
563.217	8183.81
563.579	8232.4
563.941	8238.05
564.304	8152.17
564.666	8282.56
565.028	8139.07
565.39	8198.95
565.753	8169.8
566.115	8137.71
566.477	8141.33
566.839	8144.26
567.201	8108.56
567.563	8149.01
567.925	8160.53
568.287	8101.33
568.648	8160.99
569.01	8151.95
569.372	8158.5
569.734	8072.17
570.095	8140.42
570.457	8131.38
570.819	8151.27
571.18	8122.34
571.542	8113.08
571.903	8113.76
572.265	8071.72
572.626	8107.88
572.987	8083.47
573.349	8097.71
573.71	8064.72
574.071	8149.01
574.432	8094.55
574.794	8170.03
575.155	8086.86
575.516	8163.92
575.877	8032.85
576.238	8067.2
576.599	8109.46
576.96	7998.5
577.32	8058.84
577.681	8040.76
578.042	8117.15
578.403	8044.6
578.763	8054.55
579.124	8121.44
579.485	8096.81
579.845	8102.91
580.206	8016.13
580.566	8050.71
580.927	8039.18
581.287	8104.94
581.648	8015.45
582.008	8074.43
582.368	8110.59
582.728	7999.41
583.089	7986.08
583.449	7969.35
583.809	7977.49
584.169	7944.49
584.529	7974.78
584.889	7979.52
585.249	7917.38
585.609	7949.69
585.969	7936.36
586.329	7858.62
586.688	7895.23
587.048	7902.01
587.408	7801.67
587.768	7843.48
588.127	7845.74
588.487	7862.46
588.846	7885.06
589.206	7834.21
589.565	7867.89
589.925	7839.41
590.284	7794.44
590.643	7771.39
591.003	7880.32
591.362	7874.44
591.721	7821.56
592.08	7788.79
592.44	7796.02
592.799	7768.23
593.158	7786.98
593.517	7776.36
593.876	7754.22
594.235	7716.48
594.593	7707.66
594.952	7682.58
595.311	7724.61
595.67	7681.45
596.029	7724.39
596.387	7708.57
596.746	7714.22
597.104	7697.27
597.463	7688.46
597.822	7723.71
598.18	7652.75
598.538	7621.34
598.897	7697.27
599.255	7666.76
599.613	7737.27
599.972	7664.28
600.33	7675.58
600.688	7661.79
601.046	7631.51
601.404	7691.39
601.762	7671.28
602.12	7687.55
602.478	7676.25
602.836	7671.51
603.194	7623.37
603.552	7643.26
603.91	7554
604.268	7704.05
604.625	7617.72
604.983	7632.86
605.341	7583.83
605.698	7622.92
606.056	7696.82
606.413	7622.24
606.771	7582.02
607.128	7629.25
607.485	7594.67
607.843	7589.02
608.2	7607.33
608.557	7634.22
608.914	7528.23
609.272	7571.85
609.629	7702.47
609.986	7696.59
610.343	7675.58
610.7	7664.73
611.057	7669.47
611.414	7636.48
611.771	7630.6
612.127	7681
612.484	7637.61
612.841	7700.89
613.198	7657.27
613.554	7610.94
613.911	7657.5
614.267	7712.86
614.624	7648.01
614.98	7676.48
615.337	7636.03
615.693	7706.76
616.05	7707.66
616.406	7720.77
616.762	7786.31
617.118	7710.83
617.475	7710.6
617.831	7721.68
618.187	7641.23
618.543	7647.55
618.899	7752.18
619.255	7743.82
619.611	7690.49
619.967	7730.71
620.323	7773.2
620.678	7763.71
621.034	7714.44
621.39	7743.14
621.746	7718.29
622.101	7812.29
622.457	7743.14
622.812	7721
623.168	7745.86
623.523	7683.48
623.879	7758.96
624.234	7653.43
624.589	7689.36
624.945	7768.91
625.3	7717.16
625.655	7725.07
626.01	7716.93
626.365	7716.25
626.72	7736.14
627.075	7764.39
627.43	7727.78
627.785	7641.68
628.14	7696.59
628.495	7744.95
628.85	7700.66
629.205	7651.62
629.559	7715.35
629.914	7655.69
630.269	7682.13
630.623	7658.17
630.978	7661.34
631.332	7670.38
631.687	7712.41
632.041	7633.99
632.396	7617.95
632.75	7612.98
633.104	7615.24
633.459	7517.61
633.813	7550.61
634.167	7584.96
634.521	7503.38
634.875	7543.38
635.229	7567.1
635.583	7522.58
635.937	7540.21
636.291	7527.56
636.645	7479.42
636.999	7485.3
637.352	7511.96
637.706	7434.23
638.06	7522.81
638.413	7477.61
638.767	7398.97
639.121	7455.24
639.474	7449.37
639.828	7390.84
640.181	7414.56
640.534	7440.33
640.888	7386.77
641.241	7382.93
641.594	7399.65
641.947	7362.14
642.301	7379.54
642.654	7365.75
643.007	7336.15
643.36	7399.88
643.713	7414.11
644.066	7393.55
644.419	7309.93
644.771	7297.28
645.124	7239.43
645.477	7158.75
645.83	7152.42
646.182	7172.76
646.535	7167.79
646.888	7120.11
647.24	7102.93
647.593	7120.79
647.945	7162.82
648.298	7101.35
648.65	7096.38
649.002	7079.66
649.355	7101.35
649.707	7070.39
650.059	7172.54
650.411	7255.93
650.763	7248.47
651.115	7225.64
651.467	7233.78
651.819	7244.17
652.171	7285.3
652.523	7232.2
652.875	7251.41
653.227	7249.82
653.578	7283.72
653.93	7297.73
654.282	7234.68
654.633	7285.98
654.985	7267.9
655.337	7245.53
655.688	7250.73
656.039	7261.57
656.391	7317.84
656.742	7280.33
657.094	7283.04
657.445	7330.27
657.796	7298.64
658.147	7303.38
658.498	7318.3
658.849	7313.55
659.2	7331.86
659.551	7248.92
659.902	7321.46
660.253	7316.71
660.604	7301.57
660.955	7332.08
661.306	7328.69
661.656	7303.16
662.007	7370.5
662.358	7335.47
662.708	7349.03
663.059	7376.6
663.409	7331.86
663.76	7348.13
664.11	7358.97
664.461	7327.11
664.811	7358.3
665.161	7368.69
665.511	7361.91
665.862	7349.93
666.212	7360.56
666.562	7390.16
666.912	7331.4
667.262	7326.21
667.612	7427.9
667.962	7354.23
668.312	7357.39
668.662	7418.41
669.011	7387.22
669.361	7334.79
669.711	7361.23
670.06	7311.52
670.41	7304.96
670.76	7301.35
671.109	7368.92
671.459	7339.54
671.808	7316.94
672.157	7299.09
672.507	7316.71
672.856	7229.49
673.205	7382.02
673.554	7417.95
673.904	7285.75
674.253	7344.28
674.602	7307.9
674.951	7184.51
675.3	7156.72
675.649	7271.07
675.998	7246.43
676.346	7240.56
676.695	7305.64
677.044	7250.5
677.393	7196.49
677.741	7219.54
678.09	7176.83
678.438	7186.1
678.787	7190.39
679.135	7185.19
679.484	7178.86
679.832	7096.61
680.181	7116.04
680.529	7126.44
680.877	7138.64
681.225	7108.13
681.573	7141.35
681.922	6993.56
682.27	7098.87
682.618	7024.97
682.966	7010.96
683.314	7051.41
683.661	7019.1
684.009	7052.77
684.357	6921.7
684.705	6998.76
685.053	6935.26
685.4	6928.93
685.748	6912.43
686.095	6871.3
686.443	6887.8
686.79	6851.19
687.138	6884.41
687.485	6880.57
687.832	6820.68
688.18	6868.14
688.527	6797.63
688.874	6788.82
689.221	6753.34
689.568	6711.76
689.915	6699.78
690.262	6684.87
690.609	6676.28
690.956	6653
691.303	6692.32
691.65	6625.66
691.997	6606
692.344	6598.32
692.69	6573.91
693.037	6525.1
693.383	6461.82
693.73	6511.31
694.077	6456.4
694.423	6461.6
694.769	6436.06
695.116	6425.66
695.462	6365.78
695.808	6401.71
696.155	6420.01
696.501	6346.8
696.847	6284.2
697.193	6226.35
697.539	6275.61
697.885	6262.28
698.231	6207.59
698.577	6222.96
698.923	6179.12
699.269	6189.29
699.614	6130.08
699.96	6036.07
700.306	6062.06
700.651	6010.31
700.997	6018.44
701.342	5996.98
701.688	5986.81
702.033	5956.3
702.379	6025
702.724	5952.46
703.069	5934.38
703.415	5802.86
703.76	5845.11
704.105	5871.55
704.45	5857.09
704.795	5819.35
705.14	5780.48
705.485	5766.02
705.83	5793.14
706.175	5772.35
706.52	5776.64
706.865	5707.27
707.209	5725.34
707.554	5693.71
707.899	5657.1
708.243	5611.22
708.588	5610.77
708.932	5556.99
709.277	5533.94
709.621	5580.71
709.966	5538
710.31	5546.59
710.654	5495.75
710.998	5499.36
711.342	5481.28
711.687	5516.76
712.031	5457.55
712.375	5455.75
712.719	5467.27
713.063	5498.46
713.407	5448.06
713.75	5449.87
714.094	5424.79
714.438	5414.62
714.782	5374.39
715.125	5394.05
715.469	5336.43
715.812	5361.96
716.156	5264.34
716.499	5353.38
716.843	5322.87
717.186	5329.87
717.53	5326.94
717.873	5304.79
718.216	5258.24
718.559	5287.39
718.902	5231.8
719.246	5295.07
719.589	5233.15
719.932	5259.37
720.275	5271.57
720.617	5256.66
720.96	5221.18
721.303	5248.07
721.646	5252.81
721.989	5218.92
722.331	5215.3
722.674	5240.16
723.016	5256.43
723.359	5141.4
723.701	5189.99
724.044	5197
724.386	5207.84
724.729	5189.09
725.071	5155.87
725.413	5180.5
725.755	5175.75
726.097	5166.71
726.439	5135.98
726.782	5172.14
727.124	5161.52
727.465	5119.94
727.807	5123.55
728.149	5157.9
728.491	5123.33
728.833	5125.81
729.175	5150.44
729.516	5135.3
729.858	5107.05
730.199	5165.13
730.541	5139.37
730.882	5170.33
731.224	5142.99
731.565	5126.04
731.906	5109.99
732.248	5141.18
732.589	5174.17
732.93	5137.34
733.271	5117.9
733.612	5124.91
733.953	5166.26
734.294	5150.67
734.635	5121.52
734.976	5143.66
735.317	5119.71
735.658	5149.31
735.999	5177.56
736.339	5152.48
736.68	5172.59
737.021	5172.14
737.361	5150.44
737.702	5218.24
738.042	5213.49
738.383	5175.53
738.723	5205.36
739.063	5187.96
739.404	5214.17
739.744	5185.47
740.084	5197
740.424	5259.37
740.764	5247.62
741.104	5264.11
741.444	5270.89
741.784	5272.47
742.124	5265.24
742.464	5304.34
742.804	5360.16
743.143	5350.21
743.483	5359.93
743.823	5417.56
744.162	5383.21
744.502	5429.08
744.841	5434.28
745.181	5500.04
745.52	5480.38
745.86	5559.92
746.199	5571.68
746.538	5562.64
746.877	5651.67
747.216	5722.86
747.556	5722.86
747.895	5774.83
748.234	5776.87
748.573	5829.75
748.911	5910.2
749.25	5979.57
749.589	5992.91
749.928	6099.35
750.267	6169.85
750.605	6209.62
750.944	6215.95
751.283	6332.56
751.621	6394.93
751.96	6436.51
752.298	6546.34
752.636	6675.38
752.975	6726.45
753.313	6820.23
753.651	6966.89
753.989	7005.08
754.327	7138.87
754.666	7191.97
755.004	7356.49
755.342	7509.25
755.679	7639.87
756.017	7713.99
756.355	7957.6
756.693	7982.91
757.031	8176.13
757.368	8243.24
757.706	8427.42
758.044	8565.5
758.381	8731.14
758.719	8781.76
759.056	8997.8
759.394	9193.05
759.731	9231.92
760.068	9450.44
760.405	9610.44
760.743	9731.34
761.08	9957.77
761.417	10110.77
761.754	10258.78
762.091	10433.24
762.428	10621.94
762.765	10688.83
763.102	10965.66
763.438	11124.3
763.775	11227.35
764.112	11422.14
764.449	11663.72
764.785	11704.17
765.122	11854
765.458	11987.33
765.795	12230.94
766.131	12446.75
766.467	12556.35
766.804	12688.55
767.14	12807.42
767.476	12954.53
767.812	13100.97
768.148	13330.34
768.485	13396.55
768.821	13525.14
769.157	13627.73
769.492	13747.51
769.828	13935.98
770.164	13934.85
770.5	14098.23
770.836	14198.34
771.171	14298.68
771.507	14486.92
771.842	14466.36
772.178	14670.42
772.513	14737.08
772.849	14917.64
773.184	14850.98
773.519	15019.11
773.855	15085.78
774.19	15213.91
774.525	15245.32
774.86	15283.74
775.195	15428.14
775.53	15460
775.865	15535.48
776.2	15535.71
776.535	15497.52
776.87	15663.16
777.205	15781.8
777.539	15678.53
777.874	15910.61
778.209	15817.28
778.543	15865.42
778.878	15922.82
779.212	15943.15
779.547	15947.45
779.881	16160.78
780.215	16040.1
780.55	16187.44
780.884	16082.36
781.218	16161
781.552	16212.53
781.886	16165.3
782.22	16178.63
782.554	16116.71
782.888	16073.77
783.222	16110.38
783.556	16115.81
783.889	16098.63
784.223	16089.37
784.557	16102.47
784.89	16163.94
785.224	16042.36
785.557	16079.87
785.891	16077.61
786.224	16081.46
786.558	16229.02
786.891	16136.37
787.224	15948.8
787.557	16007.56
787.891	16022.7
788.224	16106.09
788.557	16060.44
788.89	16086.2
789.223	16140.44
789.556	16034.9
789.888	16000.1
790.221	15921.69
790.554	15780.45
790.887	15885.3
791.219	15917.39
791.552	15863.38
791.884	15854.79
792.217	15868.81
792.549	15750.62
792.882	15688.25
793.214	15629.04
793.546	15779.77
793.879	15695.48
794.211	15641.24
794.543	15669.04
794.875	15591.07
795.207	15693.44
795.539	15504.3
795.871	15566.67
796.203	15553.79
796.535	15468.14
796.867	15340.01
797.198	15480.57
797.53	15483.05
797.862	15353.34
798.193	15374.58
798.525	15260.46
798.856	15245.09
799.188	15227.47
799.519	15115.83
799.85	15104.08
800.182	15192.21
800.513	15205.77
800.844	15014.59
801.175	15125.1
801.506	15064.53
801.837	15023.86
802.168	14930.3
802.499	14943.63
802.83	14911.09
803.161	14896.85
803.491	14875.16
803.822	14820.47
804.153	14838.78
804.483	14719.68
804.814	14648.27
805.145	14674.71
805.475	14653.02
805.805	14550.42
806.136	14610.08
806.466	14612.34
806.796	14623.41
807.126	14444.44
807.457	14490.09
807.787	14458.9
808.117	14345
808.447	14387.26
808.777	14349.3
809.107	14308.17
809.436	14324.67
809.766	14234.05
810.096	14227.72
810.426	14176.42
810.755	14240.83
811.085	14145.01
811.414	14217.32
811.744	14018.69
812.073	14006.48
812.403	13990.21
812.732	13975.97
813.061	13989.53
813.39	13908.86
813.719	13816.2
814.049	13937.56
814.378	13880.16
814.707	13840.84
815.036	13892.59
815.365	13763.78
815.693	13704.8
816.022	13717
816.351	13719.26
816.68	13539.83
817.008	13603.78
817.337	13519.26
817.665	13564.01
817.994	13562.65
818.322	13595.19
818.651	13512.26
818.979	13441.3
819.307	13458.47
819.636	13498.7
819.964	13345.03
820.292	13406.5
820.62	13478.59
820.948	13378.02
821.276	13413.96
821.604	13392.49
821.932	13492.37
822.259	13401.07
822.587	13341.87
822.915	13374.63
823.243	13438.14
823.57	13286.73
823.898	13321.3
824.225	13311.13
824.553	13368.53
824.88	13279.04
825.207	13418.93
825.535	13392.71
825.862	13335.09
826.189	13400.17
826.516	13340.51
826.843	13416.67
827.17	13505.25
827.497	13390.45
827.824	13383
828.151	13438.36
828.478	13448.53
828.805	13476.1
829.131	13330.79
829.458	13373.5
829.785	13353.39
830.111	13371.7
830.438	13464.12
830.764	13486.27
831.09	13405.37
831.417	13331.25
831.743	13389.1
832.069	13438.59
832.395	13379.83
832.722	13381.64
833.048	13342.09
833.374	13409.66
833.7	13280.4
834.026	13311.59
834.351	13288.08
834.677	13398.36
835.003	13329.21
835.329	13346.16
835.654	13257.8
835.98	13263.45
836.306	13304.58
836.631	13207.41
836.956	13313.84
837.282	13235.2
837.607	13237.46
837.932	13091.7
838.258	13173.28
838.583	13161.31
838.908	13165.83
839.233	13105.94
839.558	13123.12
839.883	13072.04
840.208	12970.35
840.533	13002.21
840.858	12994.08
841.182	12983.01
841.507	12979.16
841.832	12900.07
842.156	12895.55
842.481	12911.14
842.805	12890.58
843.13	12898.49
843.454	12811.49
843.778	12743.92
844.103	12752.05
844.427	12719.96
844.751	12720.87
845.075	12718.15
845.399	12611.72
845.723	12578.95
846.047	12547.09
846.371	12379.41
846.695	12473.64
847.019	12357.49
847.343	12293.53
847.666	12286.53
847.99	12250.82
848.313	12232.52
848.637	12114.55
848.96	12136.25
849.284	12063.26
849.607	12057.38
849.931	11992.52
850.254	11903.71
850.577	11830.04
850.9	11781.23
851.223	11722.7
851.546	11646.54
851.869	11627.79
852.192	11706.43
852.515	11543.95
852.838	11471.41
853.161	11487.45
853.483	11466.89
853.806	11391.86
854.129	11349.15
854.451	11362.03
854.774	11367.91
855.096	11278.42
855.419	11221.47
855.741	11235.26
856.063	11110.96
856.385	11106.9
856.708	11094.24
857.03	10971.08
857.352	11081.81
857.674	11040.68
857.996	10928.82
858.318	10950.07
858.64	10960.69
858.961	10906.68
859.283	10816.96
859.605	10800.69
859.926	10793.01
860.248	10800.01
860.57	10764.76
860.891	10701.71
861.212	10634.37
861.534	10716.17
861.855	10667.36
862.176	10671.65
862.498	10619
862.819	10643.18
863.14	10526.57
863.461	10542.39
863.782	10545.33
864.103	10522.51
864.424	10458.33
864.745	10509.85
865.065	10470.08
865.386	10368.84
865.707	10402.51
866.027	10336.97
866.348	10353.92
866.668	10330.19
866.989	10308.73
867.309	10315.51
867.63	10272.12
867.95	10254.26
868.27	10203.87
868.59	10266.69
868.91	10225.79
869.23	10204.32
869.55	10079.35
869.87	10216.98
870.19	10199.12
870.51	10180.37
870.83	10052.91
871.15	10106.47
871.469	10100.14
871.789	10116.19
872.109	10095.62
872.428	10023.76
872.748	10019.47
873.067	10040.26
873.386	10047.26
873.706	9978.11
874.025	9910.09
874.344	9939.7
874.663	9942.18
874.982	9914.61
875.301	9949.19
875.62	9906.25
875.939	9860.15
876.258	9893.14
876.577	9830.09
876.896	9797.1
877.214	9805.69
877.533	9769.08
877.852	9719.59
878.17	9759.36
878.489	9724.33
878.807	9788.74
879.125	9661.29
879.444	9717.33
879.762	9690.21
880.08	9689.99
880.398	9655.41
880.716	9647.5
881.034	9580.84
881.352	9679.82
881.67	9570.67
881.988	9596.65
882.306	9544.68
882.624	9449.54
882.941	9405.7
883.259	9463.78
883.577	9422.42
883.894	9477.56
884.212	9397.56
884.529	9374.74
884.846	9363.21
885.164	9350.11
885.481	9369.32
885.798	9311.92
886.115	9208.42
886.432	9243.44
886.75	9244.12
887.067	9253.39
887.383	9232.37
887.7	9182.43
888.017	9104.24
888.334	9164.12
888.651	9146.04
888.967	9085.93
889.284	9067.4
889.6	9073.28
889.917	8988.08
890.233	8995.99
890.55	8902.89
890.866	8873.51
891.182	8860.18
891.498	8875.54
891.815	8824.25
892.131	8814.3
892.447	8833.28
892.763	8761.65
893.079	8784.25
893.395	8730.91
893.71	8752.38
894.026	8726.39
894.342	8623.8
894.657	8526.17
894.973	8595.55
895.289	8563.46
895.604	8548.32
895.92	8424.48
896.235	8461.32
896.55	8490.69
896.865	8404.6
897.181	8402.11
897.496	8379.06
897.811	8292.06
898.126	8273.53
898.441	8253.19
898.756	8294.54
899.071	8193.53
899.386	8229.68
899.7	8089.58
900.015	8131.61
900.33	8078.73
900.644	8050.71
900.959	8040.54
901.273	7999.86
901.588	7978.39
901.902	7957.6
902.216	7957.6
902.531	7928
902.845	7846.42
903.159	7788.79
903.473	7772.3
903.787	7716.03
904.101	7697.95
904.415	7663.6
904.729	7649.59
905.042	7591.06
905.356	7664.28
905.67	7576.59
905.984	7537.05
906.297	7574.11
906.611	7426.09
906.924	7525.75
907.237	7452.98
907.551	7437.62
907.864	7395.81
908.177	7428.35
908.491	7329.14
908.804	7293.21
909.117	7232.2
909.43	7189.26
909.743	7153.33
910.056	7170.28
910.368	7116.49
910.681	7042.37
910.994	7103.16
911.307	7086.66
911.619	6976.61
911.932	7014.8
912.244	6946.55
912.557	6953.33
912.869	6846.22
913.181	6871.53
913.494	6901.13
913.806	6793.56
914.118	6815.71
914.43	6772.55
914.742	6713.79
915.054	6706.11
915.366	6690.52
915.678	6665.21
915.99	6644.87
916.302	6575.94
916.613	6545.21
916.925	6588.82
917.236	6507.02
917.548	6443.52
917.859	6476.06
918.171	6418.43
918.482	6415.95
918.794	6421.82
919.105	6364.65
919.416	6351.32
919.727	6325.78
920.038	6302.28
920.349	6249.62
920.66	6268.15
920.971	6214.37
921.282	6222.96
921.593	6144.77
921.903	6152.45
922.214	6116.29
922.525	6132.11
922.835	6118.1
923.146	6061.61
923.456	6030.42
923.767	6011.21
924.077	5987.48
924.387	5937.99
924.697	5953.13
925.008	5894.6
925.318	5886.92
925.628	5850.76
925.938	5901.84
926.248	5777.09
926.558	5811.67
926.867	5748.62
927.177	5783.42
927.487	5706.36
927.796	5706.36
928.106	5622.97
928.416	5639.24
928.725	5657.32
929.034	5592.24
929.344	5625.69
929.653	5615.29
929.962	5522.64
930.271	5458.01
930.581	5509.3
930.89	5379.36
931.199	5452.36
931.508	5422.98
931.817	5403.09
932.125	5401.96
932.434	5392.25
932.743	5310.21
933.051	5270.89
933.36	5295.98
933.669	5251.91
933.977	5226.6
934.286	5260.95
934.594	5234.06
934.902	5195.87
935.21	5136.88
935.519	5127.39
935.827	5162.87
936.135	5147.05
936.443	5037.68
936.751	5034.06
937.059	5057.56
937.367	5034.29
937.674	5029.99
937.982	4974.18
938.29	4968.08
938.597	4940.28
938.905	4868.42
939.213	4873.16
939.52	4815.99
939.827	4870
940.135	4841.98
940.442	4779.61
940.749	4774.18
941.056	4775.76
941.363	4745.48
941.67	4769.21
941.977	4710.23
942.284	4700.06
942.591	4639.5
942.898	4648.76
943.205	4606.73
943.511	4619.16
943.818	4615.99
944.125	4595.88
944.431	4558.59
944.738	4561.08
945.044	4453.51
945.35	4475.66
945.657	4484.02
945.963	4437.47
946.269	4427.07
946.575	4409.22
946.881	4396.34
947.187	4417.36
947.493	4366.96
947.799	4298.49
948.105	4300.75
948.41	4323.57
948.716	4268.88
949.022	4251.48
949.327	4239.06
949.633	4214.2
949.938	4245.16
950.244	4200.19
950.549	4142.56
950.854	4159.96
951.16	4109.79
951.465	4149.34
951.77	4063.24
952.075	4099.62
952.38	4055.78
952.685	4065.73
952.99	3993.86
953.294	4038.61
953.599	4006.74
953.904	3966.29
954.209	3987.54
954.513	3989.8
954.818	3946.63
955.122	3917.26
955.426	3937.82
955.731	3888.78
956.035	3821.89
956.339	3865.73
956.643	3857.14
956.948	3790.25
957.252	3792.29
957.556	3816.24
957.86	3796.13
958.163	3775.34
958.467	3712.97
958.771	3735.79
959.075	3694.89
959.378	3660.77
959.682	3700.76
959.985	3659.18
960.289	3587.09
960.592	3640.2
960.896	3612.63
961.199	3588.45
961.502	3554.55
961.805	3573.08
962.108	3526.76
962.411	3569.24
962.714	3500.09
963.017	3536.93
963.32	3524.95
963.623	3464.84
963.926	3455.57
964.228	3420.32
964.531	3430.94
964.833	3441.11
965.136	3384.16
965.438	3386.42
965.741	3396.14
966.043	3372.41
966.345	3366.08
966.648	3319.31
966.95	3344.16
967.252	3310.27
967.554	3312.98
967.856	3320.66
968.158	3274.79
968.46	3256.26
968.761	3196.14
969.063	3215.13
969.365	3230.04
969.666	3218.74
969.968	3209.93
970.269	3181.91
970.571	3176.94
970.872	3157.28
971.174	3141.23
971.475	3119.99
971.776	3137.62
972.077	3072.76
972.378	3120.21
972.679	3049.93
972.98	3051.74
973.281	3049.93
973.582	3061.01
973.883	2993.66
974.183	3037.73
974.484	2984.4
974.785	2971.07
975.085	2988.69
975.386	2971.97
975.686	2931.97
975.986	2912.99
976.287	2901.69
976.587	2868.92
976.887	2881.58
977.187	2883.38
977.487	2877.96
977.787	2826.21
978.087	2821.69
978.387	2824.63
978.687	2802.93
978.987	2829.15
979.286	2787.34
979.586	2766.78
979.885	2779.88
980.185	2745.54
980.484	2743.28
980.784	2702.37
981.083	2705.31
981.382	2752.54
981.682	2675.03
981.981	2667.8
982.28	2658.31
982.579	2647.91
982.878	2658.31
983.177	2636.16
983.475	2623.05
983.774	2602.26
984.073	2573.11
984.372	2581.92
984.67	2571.98
984.969	2542.38
985.267	2558.42
985.566	2562.94
985.864	2520.46
986.162	2526.11
986.461	2467.8
986.759	2481.14
987.057	2464.64
987.355	2471.64
987.653	2437.97
987.951	2411.53
988.249	2444.53
988.547	2428.48
988.844	2410.63
989.142	2423.06
989.44	2394.58
989.737	2373.79
990.035	2358.43
990.332	2356.62
990.63	2357.75
990.927	2333.57
991.224	2349.84
991.521	2301.03
991.819	2337.64
992.116	2282.04
992.413	2310.29
992.71	2275.94
993.006	2271.88
993.303	2230.52
993.6	2262.61
993.897	2255.6
994.193	2210.86
994.49	2218.09
994.787	2190.75
995.083	2183.52
995.379	2190.75
995.676	2200.46
995.972	2175.38
996.268	2148.04
996.565	2137.87
996.861	2126.57
997.157	2101.94
997.453	2080.92
997.749	2103.07
998.044	2096.96
998.34	2091.77
998.636	2056.06
998.932	2047.25
999.227	2061.26
999.523	2054.93
999.818	1995.27
1000.114	2005.67
1000.409	2007.25
1000.704	2011.54
1001	1964.09
1001.295	1970.87
1001.59	1965.44
1001.885	1957.76
1002.18	1945.1
1002.475	1905.11
1002.77	1936.06
1003.065	1884.09
1003.359	1899.68
1003.654	1892
1003.949	1876.63
1004.243	1859.46
1004.538	1867.59
1004.832	1876.63
1005.127	1862.17
1005.421	1804.77
1005.715	1847.93
1006.009	1826.24
1006.304	1799.8
1006.598	1803.41
1006.892	1751.21
1007.186	1771.32
1007.48	1756.86
1007.773	1740.36
1008.067	1729.29
1008.361	1717.99
1008.655	1710.31
1008.948	1692.46
1009.242	1736.07
1009.535	1702.17
1009.829	1684.55
1010.122	1678.9
1010.415	1648.61
1010.708	1645.68
1011.001	1666.02
1011.295	1656.07
1011.588	1649.74
1011.881	1627.15
1012.173	1601.61
1012.466	1594.38
1012.759	1609.52
1013.052	1602.06
1013.344	1579.24
1013.637	1561.16
1013.93	1542.18
1014.222	1526.36
1014.514	1515.96
1014.807	1522.74
1015.099	1534.27
1015.391	1511.22
1015.683	1531.33
1015.976	1500.14
1016.268	1509.41
1016.56	1442.52
1016.851	1466.92
1017.143	1441.84
1017.435	1455.17
1017.727	1423.99
1018.018	1417.89
1018.31	1434.16
1018.602	1382.41
1018.893	1398.23
1019.185	1422.41
1019.476	1384.44
1019.767	1376.53
1020.058	1378.11
1020.35	1352.13
1020.641	1344.67
1020.932	1335.18
1021.223	1342.41
1021.514	1328.17
1021.804	1306.93
1022.095	1306.25
1022.386	1274.39
1022.677	1280.94
1022.967	1294.27
1023.258	1247.27
1023.548	1261.73
1023.839	1240.72
1024.129	1244.33
1024.419	1245.69
1024.709	1207.95
1025	1214.95
1025.29	1212.92
1025.58	1189.64
1025.87	1193.49
1026.16	1206.37
1026.449	1200.04
1026.739	1184.9
1027.029	1158.23
1027.319	1157.1
1027.608	1177.21
1027.898	1149.19
1028.187	1157.78
1028.477	1158.46
1028.766	1125.46
1029.055	1121.17
1029.344	1116.65
1029.634	1096.99
1029.923	1123.88
1030.212	1080.04
1030.501	1088.18
1030.79	1081.4
1031.078	1048.86
1031.367	1063.09
1031.656	1041.63
1031.945	1049.76
1032.233	1035.75
1032.522	1056.99
1032.81	1031.91
1033.099	1024.68
1033.387	1013.15
1033.675	1007.95
1033.963	1009.31
1034.251	1007.5
1034.54	995.52
1034.828	980.16
1035.116	1001.85
1035.403	987.16
1035.691	967.95
1035.979	976.32
1036.267	938.35
1036.554	944.23
1036.842	938.58
1037.129	944.23
1037.417	918.01
1037.704	934.06
1037.992	922.53
1038.279	913.94
1038.566	908.3
1038.853	908.3
1039.14	908.3
