Data from hue_40_FLMS001491_89.txt Node
Date: Mon Feb 06 15:08:41 GMT 2017
User: dcchb
Spectrometer: FLMS00149
Trigger mode: 0
Integration Time (sec): 2.000000E-2
Scans to average: 10
Electric dark correction enabled: true
Nonlinearity correction enabled: false
Boxcar width: 0
XAxis mode: Wavelengths
Number of Pixels in Spectrum: 2048
>>>>>Begin Spectral Data<<<<<
341.393	-23.4
341.776	-23.4
342.16	-23.4
342.543	-62.95
342.927	-43.06
343.31	-62.5
343.693	-77.64
344.077	-46.68
344.46	-84.19
344.843	-46.23
345.226	-49.62
345.61	-43.29
345.993	-10.52
346.376	-14.14
346.759	4.39
347.142	31.06
347.525	54.33
347.908	68.35
348.291	71.96
348.674	95.01
349.057	109.7
349.44	131.85
349.823	157.83
350.206	155.58
350.588	192.86
350.971	212.3
351.354	226.76
351.737	253.2
352.119	253.43
352.502	272.63
352.884	283.03
353.267	288.23
353.65	294.55
354.032	326.64
354.414	286.65
354.797	320.32
355.179	346.08
355.562	316.02
355.944	321.22
356.326	345.63
356.709	358.73
357.091	331.84
357.473	334.33
357.855	333.88
358.238	350.37
358.62	326.19
359.002	353.08
359.384	341.11
359.766	337.49
360.148	340.65
360.53	346.3
360.912	341.11
361.294	352.18
361.676	364.38
362.057	332.52
362.439	335.23
362.821	371.39
363.203	367.55
363.584	318.73
363.966	338.62
364.348	346.76
364.729	324.61
365.111	339.75
365.493	330.71
365.874	336.81
366.256	325.06
366.637	328.68
367.019	324.61
367.4	322.12
367.781	308.11
368.163	307.89
368.544	304.95
368.925	327.55
369.306	320.99
369.688	318.51
370.069	317.83
370.45	315.57
370.831	319.86
371.212	323.03
371.593	318.06
371.974	342.46
372.355	331.62
372.736	350.82
373.117	320.09
373.498	328
373.879	333.88
374.26	320.99
374.641	313.08
375.021	326.64
375.402	328.68
375.783	341.11
376.163	330.26
376.544	341.78
376.925	313.76
377.305	348.11
377.686	339.52
378.066	345.85
378.447	350.6
378.827	338.62
379.208	344.04
379.588	328.9
379.968	332.07
380.349	325.06
380.729	339.52
381.109	351.95
381.489	366.42
381.87	363.48
382.25	348.79
382.63	335.46
383.01	352.18
383.39	348.56
383.77	349.02
384.15	360.32
384.53	365.29
384.91	353.08
385.29	360.54
385.67	332.52
386.049	357.6
386.429	362.58
386.809	359.19
387.189	364.84
387.568	372.52
387.948	376.59
388.328	364.16
388.707	363.03
389.087	370.48
389.466	378.39
389.846	371.84
390.225	374.33
390.605	389.69
390.984	377.72
391.363	394.21
391.743	385.4
392.122	367.09
392.501	382.01
392.881	377.94
393.26	376.59
393.639	371.84
394.018	368.68
394.397	372.52
394.776	380.88
395.155	390.15
395.534	380.65
395.913	386.53
396.292	394.89
396.671	398.51
397.05	396.47
397.429	411.16
397.808	408.45
398.186	377.72
398.565	417.49
398.944	398.28
399.323	403.7
399.701	410.48
400.08	412.97
400.458	402.12
400.837	416.81
401.215	416.13
401.594	427.66
401.972	415.68
402.351	421.1
402.729	410.03
403.107	387.89
403.486	414.78
403.864	425.4
404.242	422.91
404.62	442.8
404.999	436.92
405.377	412.29
405.755	433.99
406.133	424.49
406.511	426.98
406.889	428.11
407.267	469.47
407.645	450.48
408.023	466.3
408.401	454.1
408.779	462.23
409.156	457.04
409.534	467.43
409.912	456.81
410.29	473.53
410.667	470.59
411.045	484.61
411.422	462.23
411.8	468.34
412.178	475.57
412.555	482.57
412.933	479.18
413.31	496.13
413.687	488.45
414.065	498.39
414.442	491.16
414.819	484.83
415.197	499.52
415.574	511.95
415.951	521.67
416.328	517.37
416.705	483.25
417.082	531.61
417.46	528.22
417.837	549.46
418.214	524.38
418.591	508.79
418.967	518.5
419.344	545.4
419.721	541.55
420.098	527.99
420.475	543.81
420.852	545.17
421.228	555.11
421.605	556.24
421.982	545.17
422.358	536.81
422.735	548.79
423.111	555.11
423.488	565.28
423.864	544.27
424.241	565.28
424.617	561.67
424.994	580.65
425.37	591.72
425.746	574.1
426.123	589.69
426.499	585.39
426.875	589.46
427.251	596.47
427.627	607.77
428.003	604.6
428.379	597.15
428.756	625.85
429.132	615.68
429.507	619.29
429.883	646.64
430.259	636.47
430.635	652.06
431.011	647.99
431.387	684.37
431.763	668.1
432.138	666.3
432.514	673.3
432.89	640.99
433.265	692.28
433.641	671.49
434.016	690.48
434.392	704.26
434.767	700.19
435.143	703.81
435.518	702.91
435.894	734.77
436.269	718.95
436.644	737.48
437.02	744.49
437.395	745.62
437.77	750.36
438.145	702.45
438.52	749.91
438.895	775.9
439.271	780.64
439.646	781.55
440.021	775.45
440.395	764.6
440.77	784.03
441.145	784.26
441.52	794.88
441.895	814.54
442.27	798.04
442.645	810.7
443.019	807.54
443.394	826.97
443.769	805.95
444.143	818.38
444.518	868.1
444.892	843.69
445.267	857.7
445.641	838.04
446.016	862.68
446.39	853.41
446.764	847.76
447.139	858.61
447.513	863.35
447.887	865.16
448.262	894.09
448.636	874.43
449.01	895.22
449.384	892.05
449.758	916.23
450.132	913.75
450.506	911.49
450.88	902.67
451.254	919.17
451.628	935.67
452.002	926.4
452.376	938.38
452.75	965.05
453.123	942.22
453.497	962.33
453.871	973.41
454.244	992.16
454.618	982.45
454.992	991.94
455.365	1021.54
455.739	1041.43
456.112	1027.64
456.486	1046.17
456.859	1055.66
457.232	1077.36
457.606	1062.9
457.979	1087.3
458.352	1110.58
458.725	1116
459.099	1094.31
459.472	1143.12
459.845	1159.16
460.218	1174.98
460.591	1172.72
460.964	1161.2
461.337	1188.77
461.71	1204.59
462.083	1242.78
462.456	1229.67
462.829	1238.71
463.201	1263.34
463.574	1280.52
463.947	1266.73
464.32	1286.39
464.692	1323.68
465.065	1308.77
465.438	1341.98
465.81	1345.6
466.183	1374.98
466.555	1390.12
466.928	1408.65
467.3	1431.25
467.672	1464.92
468.045	1484.13
468.417	1487.29
468.789	1527.97
469.161	1507.63
469.534	1571.81
469.906	1591.7
470.278	1617.46
470.65	1613.84
471.022	1665.37
471.394	1700.17
471.766	1716.89
472.138	1734.29
472.51	1778.58
472.882	1848.41
473.253	1812.93
473.625	1851.35
473.997	1921.63
474.369	1928.41
474.74	1983.1
475.112	2002.98
475.484	2055.86
475.855	2091.12
476.227	2137.9
476.598	2178.57
476.97	2233.94
477.341	2257.21
477.713	2344.44
478.084	2348.96
478.455	2483.65
478.827	2496.76
479.198	2543.31
479.569	2569.07
479.94	2674.38
480.311	2697.66
480.682	2796.18
481.053	2849.29
481.424	2922.51
481.795	3001.6
482.166	3054.48
482.537	3127.47
482.908	3220.58
483.279	3281.37
483.65	3372.67
484.021	3472.1
484.391	3551.42
484.762	3652.21
485.133	3685.88
485.503	3775.37
485.874	3837.74
486.244	3961.8
486.615	4057.39
486.985	4155.02
487.356	4240.44
487.726	4295.13
488.097	4471.39
488.467	4503.71
488.837	4702.57
489.207	4736.7
489.578	4813.76
489.948	4918.16
490.318	5036.35
490.688	5111.6
491.058	5231.83
491.428	5353.63
491.798	5447.87
492.168	5546.85
492.538	5622.32
492.908	5730.8
493.278	5887.4
493.648	5973.5
494.017	6002.88
494.387	6212.14
494.757	6277.45
495.126	6338.46
495.496	6382.53
495.866	6524.22
496.235	6647.16
496.605	6747.72
496.974	6861.61
497.344	6949.97
497.713	7034.49
498.082	7158.78
498.452	7229.74
498.821	7322.84
499.19	7334.6
499.559	7479.22
499.928	7621.59
500.298	7640.58
500.667	7747.92
501.036	7799.67
501.405	7923.73
501.774	7982.71
502.143	8098.42
502.512	8185.42
502.88	8321.91
503.249	8352.2
503.618	8450.95
503.987	8483.04
504.356	8601.45
504.724	8670.15
505.093	8747.21
505.462	8776.82
505.83	8898.62
506.199	8927.55
506.567	9132.06
506.936	9123.93
507.304	9271.72
507.672	9331.38
508.041	9446.63
508.409	9478.27
508.777	9568.43
509.145	9603.46
509.514	9694.08
509.882	9800.29
510.25	9857.47
510.618	9922.55
510.986	9967.07
511.354	10068.31
511.722	10110.79
512.09	10243.22
512.458	10320.05
512.826	10426.04
513.193	10408.64
513.561	10505.13
513.929	10561.86
514.297	10708.52
514.664	10755.52
515.032	10833.94
515.4	10894.5
515.767	10977.44
516.135	11010.43
516.502	10970.66
516.869	11231.22
517.237	11215.62
517.604	11157.55
517.972	11349.4
518.339	11436.18
518.706	11443.19
519.073	11531.1
519.44	11574.71
519.808	11737.42
520.175	11765.67
520.542	11891.76
520.909	11930.41
521.276	11982.61
521.643	12032.55
522.009	12136.95
522.376	12266.22
522.743	12347.8
523.11	12458.98
523.477	12518.41
523.843	12602.25
524.21	12725.87
524.577	12791.4
524.943	12809.03
525.31	12898.74
525.676	13008.34
526.043	13166.08
526.409	13133.31
526.776	13281.56
527.142	13296.47
527.508	13450.37
527.874	13604.71
528.241	13540.53
528.607	13605.84
528.973	13752.05
529.339	13747.08
529.705	13884.71
530.071	14072.5
530.437	14046.51
530.803	14162.66
531.169	14209.67
531.535	14272.27
531.901	14403.79
532.267	14390.91
532.632	14547.06
532.998	14592.03
533.364	14648.98
533.73	14712.93
534.095	14829.09
534.461	14832.7
534.826	14934.17
535.192	14923.77
535.557	15074.28
535.923	15034.28
536.288	15213.26
536.653	15182.98
537.019	15121.96
537.384	15246.25
537.749	15369.64
538.114	15435.63
538.479	15540.26
538.845	15596.52
539.21	15532.12
539.575	15545.23
539.94	15607.15
540.305	15836.07
540.67	15778.67
541.034	15834.03
541.399	15913.8
541.764	15952.22
542.129	16095.27
542.494	16056.4
542.858	16172.55
543.223	16281.48
543.587	16326.68
543.952	16284.19
544.316	16422.49
544.681	16461.36
545.045	16436.73
545.41	16614.35
545.774	16633.33
546.138	16707.46
546.503	16778.19
546.867	16709.72
547.231	16976.15
547.595	16809.15
547.959	16961.69
548.324	17020.89
548.688	17138.41
549.052	17167.56
549.416	17191.06
549.779	17261.11
550.143	17224.05
550.507	17373.43
550.871	17479.19
551.235	17386.76
551.599	17473.54
551.962	17572.52
552.326	17695.9
552.689	17843.25
553.053	17590.82
553.417	17764.83
553.78	18073.07
554.143	17960.76
554.507	18014.31
554.87	18051.15
555.234	18187.87
555.597	18164.37
555.96	18232.16
556.323	18375.66
556.686	18374.08
557.05	18502.89
557.413	18558.93
557.776	18597.35
558.139	18750.34
558.502	18755.99
558.865	18782.66
559.228	18874.18
559.59	18984.68
559.953	18933.61
560.316	19177.9
560.679	19086.15
561.041	19258.58
561.404	19344.45
561.767	19478.68
562.129	19404.56
562.492	19688.62
562.854	19577.66
563.217	19676.19
563.579	19696.76
563.941	19777.43
564.304	19762.07
564.666	20038.44
565.028	19943.53
565.39	20103.3
565.753	20236.4
566.115	20290.41
566.477	20409.05
566.839	20465.55
567.201	20499.45
567.563	20539.67
567.925	20750.74
568.287	20650.4
568.648	20815.14
569.01	20936.05
569.372	21004.07
569.734	20991.41
570.095	21110.05
570.457	21225.98
570.819	21307.56
571.18	21287.67
571.542	21492.87
571.903	21494.22
572.265	21605.86
572.626	21647.44
572.987	21712.75
573.349	21772.18
573.71	21866.19
574.071	22020.54
574.432	22098.27
574.794	22346.18
575.155	22229.8
575.516	22244.94
575.877	22531.03
576.238	22571.71
576.599	22662.33
576.96	22710.46
577.32	22930.34
577.681	23062.09
578.042	23165.59
578.403	23264.12
578.763	23317.23
579.124	23517.67
579.485	23584.34
579.845	23810.55
580.206	23803.31
580.566	24041.95
580.927	24139.8
581.287	24370.08
581.648	24389.97
582.008	24667.47
582.368	24639.68
582.728	24864.08
583.089	25007.35
583.449	25091.64
583.809	25304.29
584.169	25514.68
584.529	25541.8
584.889	25978.62
585.249	25841.91
585.609	25972.52
585.969	26314.89
586.329	26532.96
586.688	26735.44
587.048	26843.23
587.408	26994.42
587.768	27166.62
588.127	27335.43
588.487	27420.62
588.846	27748.75
589.206	27763.44
589.565	27888.18
589.925	28281.16
590.284	28216.98
590.643	28543.98
591.003	28745.56
591.362	28960.24
591.721	29045.21
592.08	29329.27
592.44	29610.17
592.799	29736.72
593.158	29777.4
593.517	29904.85
593.876	30297.61
594.235	30213.09
594.593	30435
594.952	30737.82
595.311	30814.2
595.67	30894.65
596.029	31343
596.387	31495.32
596.746	31630.91
597.104	31649.89
597.463	31830.45
597.822	32286.71
598.18	32104.79
598.538	32262.3
598.897	32568.51
599.255	32491.22
599.613	33090.75
599.972	33019.57
600.33	33254.82
600.688	33115.61
601.046	33405.1
601.404	33656.62
601.762	33841.02
602.12	33980.22
602.478	34156.04
602.836	34283.04
603.194	34226.54
603.552	34351.74
603.91	34456.14
604.268	34761.67
604.625	34777.94
604.983	34987.2
605.341	34946.75
605.698	35266.52
606.056	35424.48
606.413	35403.69
606.771	35650.01
607.128	35787.63
607.485	35708.09
607.843	35867.18
608.2	36262.87
608.557	36431.23
608.914	36249.09
609.272	36627.38
609.629	36560.49
609.986	36822.86
610.343	36776.98
610.7	37055.4
611.057	37133.13
611.414	37150.31
611.771	37239.35
612.127	37430.53
612.484	37479.79
612.841	37616.28
613.198	37657.64
613.554	37659.22
613.911	37884.98
614.267	37902.83
614.624	37980.34
614.98	38042.71
615.337	38323.84
615.693	38312.54
616.05	38209.04
616.406	38575.81
616.762	38567.67
617.118	38585.98
617.475	38574
617.831	38816.48
618.187	38785.52
618.543	38992.07
618.899	39059.64
619.255	39187.77
619.611	39193.19
619.967	39402
620.323	39403.81
620.678	39386.18
621.034	39359.74
621.39	39372.17
621.746	39365.17
622.101	39794.98
622.457	39634.99
622.812	39680.86
623.168	39754.76
623.523	39814.65
623.879	39945.26
624.234	39680.19
624.589	39841.09
624.945	40006.73
625.3	40081.76
625.655	40121.76
626.01	39985.71
626.365	40129.21
626.72	40001.31
627.075	40042.44
627.43	40026.17
627.785	40039.5
628.14	40116.56
628.495	39994.98
628.85	40109.55
629.205	39994.08
629.559	40232.49
629.914	40170.34
630.269	40144.35
630.623	40158.36
630.978	40007.63
631.332	40229.78
631.687	40357
632.041	40308.19
632.396	40214.86
632.75	40125.15
633.104	40181.42
633.459	39907.75
633.813	40069.78
634.167	40037.92
634.521	40019.16
634.875	40209.44
635.229	40044.24
635.583	39893.97
635.937	39969.67
636.291	39868.43
636.645	39903.68
636.999	39920.41
637.352	40047.18
637.706	39694.2
638.06	39891.25
638.413	39770.8
638.767	39814.65
639.121	39848.54
639.474	39713.63
639.828	39640.64
640.181	39743.69
640.534	39711.6
640.888	39568.55
641.241	39641.77
641.594	39583.46
641.947	39771.93
642.301	39545.5
642.654	39531.26
643.007	39659.62
643.36	39616.68
643.713	39393.19
644.066	39740.07
644.419	39331.72
644.771	39213.98
645.124	38867.1
645.477	38704.84
645.83	38594.11
646.182	38407.45
646.535	38251.52
646.888	38359.09
647.24	38177.85
647.593	38355.25
647.945	38208.81
648.298	38085.65
648.65	37958.2
649.002	37900.8
649.355	38033.68
649.707	38143.73
650.059	38103.5
650.411	38586.88
650.763	38730.61
651.115	38989.58
651.467	38943.03
651.819	38735.8
652.171	38750.49
652.523	38611.29
652.875	38750.49
653.227	38640.44
653.578	38801.11
653.93	38604.73
654.282	38643.6
654.633	38456.49
654.985	38502.14
655.337	38582.36
655.688	38524.96
656.039	38707.33
656.391	38338.75
656.742	38382.59
657.094	38572.19
657.445	38643.38
657.796	38497.39
658.147	38338.98
658.498	38533.55
658.849	38487
659.2	38405.87
659.551	38296.72
659.902	38496.71
660.253	38362.48
660.604	38493.32
660.955	38225.31
661.306	38310.96
661.656	38269.6
662.007	38399.54
662.358	38391.63
662.708	38378.3
663.059	38284.52
663.409	37958.65
663.76	38299.66
664.11	38254.01
664.461	38287.45
664.811	38336.27
665.161	38255.82
665.511	38245.42
665.862	38076.39
666.212	38271.18
666.562	38445.19
666.912	38136.05
667.262	38156.84
667.612	38167
667.962	38302.37
668.312	38201.58
668.662	38228.02
669.011	38101.24
669.361	38065.99
669.711	38050.85
670.06	38035.93
670.41	37945.54
670.76	37987.57
671.109	38086.78
671.459	38050.17
671.808	37939.21
672.157	38012.43
672.507	37759.11
672.856	37756.85
673.205	37778.99
673.554	38036.61
673.904	37816.05
674.253	38101.24
674.602	37845.88
674.951	37268.27
675.3	37231.89
675.649	37746.45
675.998	37566.12
676.346	37567.47
676.695	37860.35
677.044	37436.4
677.393	37720.24
677.741	37606.12
678.09	37467.36
678.438	37471.66
678.787	37661.71
679.135	37570.86
679.484	37352.34
679.832	37425.33
680.181	37220.82
680.529	37412.67
680.877	37227.37
681.225	37177.88
681.573	37493.8
681.922	36988.96
682.27	36938.34
682.618	37006.13
682.966	36926.36
683.314	37035.96
683.661	36808.17
684.009	36755.52
684.357	36673.48
684.705	36700.6
685.053	36631.9
685.4	36606.82
685.748	36380.84
686.095	36363.89
686.443	36270.78
686.79	36257.22
687.138	36381.52
687.485	36442.98
687.832	36172.48
688.18	36104.69
688.527	35946.72
688.874	36028.53
689.221	36002.99
689.568	35913.05
689.915	35788.08
690.262	35777.24
690.609	35565.94
690.956	35655.66
691.303	35581.99
691.65	35341.54
691.997	35445.49
692.344	35040.53
692.69	35143.36
693.037	35306.52
693.383	34966.64
693.73	35069.91
694.077	34784.49
694.423	34881.67
694.769	34789.24
695.116	34589.02
695.462	34608.23
695.808	34583.82
696.155	34471.96
696.501	34281.01
696.847	34307.45
697.193	34016.15
697.539	34149.71
697.885	33714.69
698.231	33731.64
698.577	33820.68
698.923	33677.86
699.269	33525.77
699.614	33389.5
699.96	33329.39
700.306	33417.75
700.651	33231.99
700.997	33086.91
701.342	33042.17
701.688	33044.65
702.033	32769.41
702.379	32954.71
702.724	32652.57
703.069	32845.79
703.415	32468.17
703.76	32533.48
704.105	32459.36
704.45	32458.68
704.795	32293.71
705.14	32083.1
705.485	32159.03
705.83	32157.22
706.175	32045.81
706.52	32008.07
706.865	31864.35
707.209	31746.16
707.554	31697.8
707.899	31705.93
708.243	31506.84
708.588	31519.04
708.932	31261.65
709.277	31192.73
709.621	31330.12
709.966	31156.12
710.31	31270.01
710.654	30802.9
710.998	31045.84
711.342	31021.43
711.687	30965.61
712.031	30668.67
712.375	30678.39
712.719	30633.19
713.063	30509.13
713.407	30757.26
713.75	30455.12
714.094	30482.91
714.438	30406.08
714.782	30368.11
715.125	30209.7
715.469	30249.92
715.812	30098.06
716.156	29971.06
716.499	29998.86
716.843	30049.03
717.186	29837.51
717.53	29963.83
717.873	29889.03
718.216	29809.26
718.559	29668.92
718.902	29613.33
719.246	29596.61
719.589	29490.62
719.932	29242.27
720.275	29438.19
720.617	29341.7
720.96	29335.15
721.303	29237.75
721.646	29312.77
721.989	29015.83
722.331	29158.43
722.674	28912.11
723.016	29210.4
723.359	28949.17
723.701	28961.6
724.044	28710.08
724.386	28765.22
724.729	28841.6
725.071	28788.72
725.413	28734.71
725.755	28666.24
726.097	28480.48
726.439	28343.31
726.782	28567.26
727.124	28644.09
727.465	28470.76
727.807	28333.59
728.149	28284.78
728.491	28235.97
728.833	28305.12
729.175	28209.53
729.516	28115.74
729.858	28087.27
730.199	28081.39
730.541	28053.37
730.882	28026.03
731.224	28046.14
731.565	27854.28
731.906	27868.74
732.248	27892.47
732.589	27784.68
732.93	27780.84
733.271	27780.16
733.612	27734.96
733.953	27791.91
734.294	27588.07
734.635	27634.17
734.976	27531.58
735.317	27343.11
735.658	27380.17
735.999	27308.08
736.339	27270.79
736.68	27370.45
737.021	27347.18
737.361	27150.57
737.702	27296.78
738.042	27056.11
738.383	27091.14
738.723	27159.16
739.063	26948.32
739.404	27019.95
739.744	26859.51
740.084	26823.35
740.424	26969.11
740.764	26767.53
741.104	26841.43
741.444	26667.19
741.784	26605.95
742.124	26706.29
742.464	26654.77
742.804	26518.27
743.143	26484.37
743.483	26516.69
743.823	26399.86
744.162	26466.07
744.502	26496.8
744.841	26287.32
745.181	26422
745.52	26333.87
745.86	26373.87
746.199	26166.42
746.538	26248.22
746.877	26290.71
747.216	26197.38
747.556	26152.86
747.895	26109.92
748.234	25982.01
748.573	26046.42
748.911	26031.5
749.25	25950.83
749.589	25795.58
749.928	25878.51
750.267	25877.84
750.605	25721.91
750.944	25657.05
751.283	25657.28
751.621	25597.39
751.96	25571.86
752.298	25529.37
752.636	25559.88
752.975	25318.98
753.313	25331.64
753.651	25312.65
753.989	25220.9
754.327	25267.68
754.666	25006.22
755.004	25060.68
755.342	25066.11
755.679	25001.7
756.017	24818.2
756.355	25009.38
756.693	24832.44
757.031	24874.47
757.368	24640.13
757.706	24679
758.044	24585.22
758.381	24542.28
758.719	24475.39
759.056	24438.1
759.394	24322.4
759.731	24249.86
760.068	24243.53
760.405	24076.98
760.743	24076.08
761.08	24065.91
761.417	23951.11
761.754	23964.44
762.091	23801.96
762.428	23718.12
762.765	23608.97
763.102	23742.3
763.438	23561.74
763.775	23496.2
764.112	23472.7
764.449	23440.16
764.785	23335.98
765.122	23170.34
765.458	23140.73
765.795	23133.28
766.131	23018.93
766.467	23037.01
766.804	22842.21
767.14	22761.99
767.476	22768.99
767.812	22684.25
768.148	22578.26
768.485	22454.65
768.821	22307.53
769.157	22395.89
769.492	22266.63
769.828	22278.16
770.164	22039.07
770.5	22054.66
770.836	21947.54
771.171	21879.52
771.507	21748.45
771.842	21635.69
772.178	21738.51
772.513	21626.2
772.849	21562.24
773.184	21410.84
773.519	21491.51
773.855	21357.5
774.19	21261.46
774.525	21228.69
774.86	21170.62
775.195	21091.75
775.53	20947.12
775.865	20971.07
776.2	20762.72
776.535	20608.6
776.87	20716.39
777.205	20546.45
777.539	20466.23
777.874	20382.39
778.209	20218.1
778.543	20317.76
778.878	20239.34
779.212	20207.03
779.547	20061.04
779.881	20119.57
780.215	19945.56
780.55	20000.02
780.884	19821.5
781.218	19800.71
781.552	19795.96
781.886	19602.52
782.22	19489.08
782.554	19419.93
782.888	19384
783.222	19151.01
783.556	19158.01
783.889	19168.41
784.223	19005.02
784.557	18996.44
784.89	18965.02
785.224	18847.06
785.557	18814.75
785.891	18710.34
786.224	18687.29
786.558	18627.63
786.891	18512.15
787.224	18426.28
787.557	18303.57
787.891	18310.13
788.224	18228.55
788.557	18242.11
788.89	18137.7
789.223	18066.74
789.556	18012.51
789.888	18033.07
790.221	17921.21
790.554	17704.94
790.887	17781.1
791.219	17672.4
791.552	17639.86
791.884	17532.52
792.217	17618.17
792.549	17584.5
792.882	17289.59
793.214	17187.67
793.546	17382.01
793.879	17227.67
794.211	17060.67
794.543	17168.24
794.875	17036.04
795.207	17116.48
795.539	16987.9
795.871	16932.54
796.203	16903.38
796.535	16759.43
796.867	16636.95
797.198	16632.66
797.53	16706.55
797.862	16526.9
798.193	16523.73
798.525	16454.13
798.856	16510.85
799.188	16293
799.519	16281.7
799.85	16123.74
800.182	16207.81
800.513	16116.96
800.844	16061.6
801.175	16074.25
801.506	16016.4
801.837	15973.01
802.168	15888.49
802.499	15893.69
802.83	15729.85
803.161	15770.08
803.491	15674.49
803.822	15753.58
804.153	15629.52
804.483	15534.15
804.814	15551.78
805.145	15314.72
805.475	15417.09
805.805	15368.96
806.136	15418.68
806.466	15354.05
806.796	15280.83
807.126	15179.13
807.457	15171.45
807.787	15126.25
808.117	15117.22
808.447	15124.45
808.777	15053.49
809.107	15013.04
809.436	14973.72
809.766	14980.72
810.096	14876.09
810.426	14705.25
810.755	14822.76
811.085	14805.81
811.414	14725.14
811.744	14637.68
812.073	14626.83
812.403	14580.73
812.732	14604.01
813.061	14486.27
813.39	14392.04
813.719	14364.69
814.049	14443.56
814.378	14300.74
814.707	14276.33
815.036	14337.8
815.365	14201.31
815.693	14052.16
816.022	14119.5
816.351	14053.29
816.68	13931.26
817.008	14041.76
817.337	13874.08
817.665	13847.87
817.994	13886.51
818.322	13813.75
818.651	13795.44
818.979	13739.17
819.307	13784.14
819.636	13736.46
819.964	13662.34
820.292	13634.09
820.62	13664.15
820.948	13580.53
821.276	13718.83
821.604	13663.92
821.932	13605.39
822.259	13629.12
822.587	13659.4
822.915	13492.63
823.243	13661.21
823.57	13632.06
823.898	13557.48
824.225	13628.22
824.553	13567.43
824.88	13566.52
825.207	13652.85
825.535	13469.35
825.862	13504.83
826.189	13578.5
826.516	13499.18
826.843	13578.72
827.17	13655.79
827.497	13686.07
827.824	13634.09
828.151	13569.46
828.478	13570.14
828.805	13624.83
829.131	13435.23
829.458	13465.28
829.785	13537.82
830.111	13507.77
830.438	13537.82
830.764	13570.14
831.09	13438.16
831.417	13430.25
831.743	13516.13
832.069	13436.13
832.395	13446.3
832.722	13536.47
833.048	13454.43
833.374	13472.96
833.7	13436.58
834.026	13348.22
834.351	13446.52
834.677	13350.03
835.003	13388.9
835.329	13387.77
835.654	13355
835.98	13260.54
836.306	13336.25
836.631	13220.54
836.956	13263.25
837.282	13242.46
837.607	13154.78
837.932	13124.05
838.258	13121.11
838.583	13209.24
838.908	13049.93
839.233	13096.48
839.558	13035.91
839.883	12971.51
840.208	12989.36
840.533	12928.57
840.858	12986.42
841.182	12958.85
841.507	12945.07
841.832	12885.41
842.156	12784.85
842.481	12896.48
842.805	12812.87
843.13	12801.57
843.454	12754.11
843.778	12719.09
844.103	12723.38
844.427	12624.17
844.751	12652.2
845.075	12619.88
845.399	12541.46
845.723	12518.87
846.047	12521.35
846.371	12451.07
846.695	12425.31
847.019	12298.76
847.343	12353.22
847.666	12268.02
847.99	12095.15
848.313	12183.96
848.637	12118.88
848.96	12135.6
849.284	12112.77
849.607	11930.41
849.931	11884.76
850.254	11795.95
850.577	11701.49
850.9	11688.15
851.223	11687.48
851.546	11556.18
851.869	11564.54
852.192	11587.14
852.515	11502.17
852.838	11423.53
853.161	11439.35
853.483	11357.99
853.806	11346.24
854.129	11308.95
854.451	11249.75
854.774	11183.53
855.096	11181.95
855.419	11173.36
855.741	11100.82
856.063	11067.6
856.385	11045.46
856.708	10987.83
857.03	10921.39
857.352	10946.7
857.674	10943.77
857.996	10940.83
858.318	10865.35
858.64	10904.44
858.961	10814.96
859.283	10782.19
859.605	10696.09
859.926	10685.92
860.248	10704.45
860.57	10622.64
860.891	10654.73
861.212	10580.84
861.534	10574.96
861.855	10581.06
862.176	10531.8
862.498	10572.48
862.819	10534.51
863.14	10457.23
863.461	10425.59
863.782	10439.15
864.103	10373.84
864.424	10367.06
864.745	10362.99
865.065	10276.44
865.386	10367.74
865.707	10260.62
866.027	10317.34
866.348	10307.62
866.668	10240.73
866.989	10152.83
867.309	10105.6
867.63	10203.45
867.95	10143.56
868.27	10103.11
868.59	10165.48
868.91	10143.11
869.23	10091.81
869.55	10025.82
869.87	10040.51
870.19	10004.81
870.51	10057.24
870.83	10073.51
871.15	9919.16
871.469	9963.45
871.789	9990.57
872.109	10042.09
872.428	9946.28
872.748	9946.73
873.067	9914.19
873.386	9996.67
873.706	9880.97
874.025	9878.71
874.344	9801.88
874.663	9823.8
874.982	9801.2
875.301	9769.56
875.62	9774.76
875.939	9688.88
876.258	9777.02
876.577	9702.89
876.896	9687.53
877.214	9624.03
877.533	9657.92
877.852	9626.96
878.17	9676.91
878.489	9641.2
878.807	9618.6
879.125	9617.47
879.444	9634.65
879.762	9533.41
880.08	9521.2
880.398	9528.66
880.716	9552.62
881.034	9503.35
881.352	9493.63
881.67	9439.62
881.988	9502
882.306	9489.34
882.624	9396.24
882.941	9374.99
883.259	9318.5
883.577	9289.35
883.894	9285.28
884.212	9273.3
884.529	9262.45
884.846	9258.16
885.164	9262.23
885.481	9181.78
885.798	9241.21
886.115	9182.91
886.432	9159.86
886.75	9161.67
887.067	9095
887.383	9083.93
887.7	9062.69
888.017	8989.02
888.334	9053.19
888.651	8982.01
888.967	8899.3
889.284	8896.81
889.6	8867.21
889.917	8861.79
890.233	8837.38
890.55	8837.61
890.866	8794.67
891.182	8822.92
891.498	8724.62
891.815	8699.08
892.131	8735.91
892.447	8659.98
892.763	8732.3
893.079	8641.91
893.395	8546.54
893.71	8544.96
894.026	8561.46
894.342	8496.6
894.657	8513.77
894.973	8493.66
895.289	8500.21
895.604	8457.5
895.92	8371.18
896.235	8322.59
896.55	8356.49
896.865	8276.94
897.181	8321.01
897.496	8298.86
897.811	8251.41
898.126	8222.26
898.441	8130.51
898.756	8194.46
899.071	8068.36
899.386	8098.87
899.7	8054.8
900.015	8021.13
900.33	7964.18
900.644	7987.01
900.959	7938.87
901.273	7976.61
901.588	7923.05
901.902	7814.13
902.216	7834.02
902.531	7799.89
902.845	7749.95
903.159	7763.06
903.473	7674.7
903.787	7676.51
904.101	7663.4
904.415	7609.62
904.729	7615.04
905.042	7519.68
905.356	7578.88
905.67	7532.56
905.984	7516.96
906.297	7455.27
906.611	7358.55
906.924	7463.63
907.237	7429.96
907.551	7353.13
907.864	7334.14
908.177	7295.05
908.491	7314.03
908.804	7224.32
909.117	7236.29
909.43	7210.08
909.743	7187.71
910.056	7092.79
910.368	7137.99
910.681	7090.76
910.994	7026.13
911.307	6994.27
911.619	6956.3
911.932	6973.02
912.244	6947.26
912.557	6944.78
912.869	6856.42
913.181	6831.78
913.494	6826.13
913.806	6765.57
914.118	6728.06
914.43	6688.28
914.742	6745.01
915.054	6683.99
915.366	6602.19
915.678	6625.01
915.99	6587.95
916.302	6531.45
916.613	6555.86
916.925	6493.71
917.236	6486.03
917.548	6465.69
917.859	6406.03
918.171	6384.11
918.482	6396.54
918.794	6311.57
919.105	6396.31
919.416	6277.67
919.727	6293.27
920.038	6272.7
920.349	6205.36
920.66	6159.48
920.971	6171.91
921.282	6163.55
921.593	6110.9
921.903	6101.41
922.214	6072.48
922.525	6078.36
922.835	6019.15
923.146	5982.09
923.456	5914.52
923.767	5934.18
924.077	5914.75
924.387	5873.16
924.697	5844.01
925.008	5788.2
925.318	5789.33
925.628	5807.4
925.938	5748.2
926.248	5733.73
926.558	5699.16
926.867	5677.01
927.177	5681.76
927.487	5621.19
927.796	5623.91
928.106	5615.09
928.416	5545.49
928.725	5547.98
929.034	5482.21
929.344	5505.04
929.653	5535.77
929.962	5438.6
930.271	5464.59
930.581	5421.88
930.89	5410.58
931.199	5313.63
931.508	5351.14
931.817	5338.26
932.125	5257.59
932.434	5311.6
932.743	5216.91
933.051	5194.54
933.36	5198.38
933.669	5199.74
933.977	5133.07
934.286	5107.08
934.594	5092.17
934.902	5084.94
935.21	5080.87
935.519	5073.86
935.827	5044.03
936.135	5023.92
936.443	4939.63
936.751	4943.92
937.059	4925.85
937.367	4950.93
937.674	4930.14
937.982	4900.31
938.29	4882.46
938.597	4809.01
938.905	4851.95
939.213	4799.29
939.52	4733.31
939.827	4766.75
940.135	4753.65
940.442	4681.56
940.749	4701.44
941.056	4745.74
941.363	4656.25
941.67	4628
941.977	4611.96
942.284	4594.1
942.591	4605.85
942.898	4565.4
943.205	4525.18
943.511	4532.18
943.818	4505.29
944.125	4466.87
944.431	4469.36
944.738	4484.73
945.044	4404.28
945.35	4437.5
945.657	4386.88
945.963	4380.55
946.269	4356.82
946.575	4320.66
946.881	4272.08
947.187	4342.36
947.493	4265.07
947.799	4248.35
948.105	4249.48
948.41	4260.1
948.716	4235.47
949.022	4210.84
949.327	4165.87
949.633	4151.4
949.938	4157.05
950.244	4141.91
950.549	4098.52
950.854	4067.79
951.16	4115.7
951.465	4049.03
951.77	4053.55
952.075	4015.59
952.38	3988.47
952.685	3980.33
952.99	3964.51
953.294	3924.29
953.599	3924.52
953.904	3915.93
954.209	3871.64
954.513	3866.89
954.818	3875.03
955.122	3821.47
955.426	3812.65
955.731	3789.6
956.035	3815.37
956.339	3801.13
956.643	3797.51
956.948	3739.21
957.252	3693.11
957.556	3729.49
957.86	3702.6
958.163	3707.8
958.467	3663.05
958.771	3656.27
959.075	3603.62
959.378	3611.3
959.682	3621.7
959.985	3585.09
960.289	3578.54
960.592	3567.69
960.896	3535.6
961.199	3564.52
961.502	3541.02
961.805	3487.01
962.108	3477.52
962.411	3505.54
962.714	3441.14
963.017	3469.16
963.32	3447.47
963.623	3378.32
963.926	3379.45
964.228	3341.25
964.531	3367.69
964.833	3357.52
965.136	3320.24
965.438	3324.98
965.741	3314.14
966.043	3280.24
966.345	3257.64
966.648	3255.61
966.95	3220.13
967.252	3205.66
967.554	3241.37
967.856	3194.59
968.158	3157.98
968.46	3123.41
968.761	3127.93
969.063	3099.9
969.365	3129.73
969.666	3122.95
969.968	3113.01
970.269	3103.29
970.571	3070.98
970.872	3061.26
971.174	3050.64
971.475	3080.47
971.776	3037.08
972.077	3025.33
972.378	3010.64
972.679	2964.77
972.98	2979
973.281	2970.64
973.582	2958.21
973.883	2969.06
974.183	2929.06
974.484	2890.64
974.785	2893.36
975.085	2889.97
975.386	2890.64
975.686	2910.08
975.986	2891.77
976.287	2824.43
976.587	2791.44
976.887	2829.18
977.187	2829.4
977.487	2779.91
977.787	2779.46
978.087	2774.26
978.387	2766.81
978.687	2737.65
978.987	2712.12
979.286	2710.08
979.586	2714.38
979.885	2658.33
980.185	2638.9
980.484	2681.16
980.784	2680.25
981.083	2645.68
981.382	2603.19
981.682	2612.23
981.981	2591.22
982.28	2578.56
982.579	2591.67
982.878	2599.58
983.177	2571.56
983.475	2595.96
983.774	2540.6
984.073	2500.15
984.372	2505.8
984.67	2494.04
984.969	2524.33
985.267	2497.89
985.566	2510.54
985.864	2473.93
986.162	2468.06
986.461	2445.23
986.759	2461.28
987.057	2417.89
987.355	2414.27
987.653	2383.77
987.951	2428.74
988.249	2359.58
988.547	2376.76
988.844	2377.66
989.142	2344.22
989.44	2313.94
989.737	2336.08
990.035	2317.55
990.332	2327.5
990.63	2307.38
990.927	2268.74
991.224	2278.91
991.521	2258.8
991.819	2276.42
992.116	2249.31
992.413	2234.84
992.71	2202.98
993.006	2214.96
993.303	2210.21
993.6	2220.15
993.897	2176.09
994.193	2197.33
994.49	2135.64
994.787	2174.5
995.083	2127.73
995.379	2122.98
995.676	2111.23
995.972	2105.35
996.268	2070.55
996.565	2090.44
996.861	2094.51
997.157	2095.64
997.453	2104.9
997.749	2031.46
998.044	2020.16
998.34	1997.33
998.636	2014.74
998.932	2017.67
999.227	2007.5
999.523	1988.75
999.818	2004.34
1000.114	1973.83
1000.409	1936.32
1000.704	1971.35
1001	1931.8
1001.295	1941.06
1001.59	1915.08
1001.885	1902.87
1002.18	1888.86
1002.475	1898.58
1002.77	1890.22
1003.065	1870.33
1003.359	1878.92
1003.654	1879.15
1003.949	1832.82
1004.243	1872.37
1004.538	1835.98
1004.832	1829.2
1005.127	1805.7
1005.421	1801.41
1005.715	1770.22
1006.009	1764.8
1006.304	1767.51
1006.598	1752.14
1006.892	1754.18
1007.186	1716.21
1007.48	1747.85
1007.773	1711.92
1008.067	1715.53
1008.361	1671.92
1008.655	1718.7
1008.948	1673.5
1009.242	1695.87
1009.535	1681.41
1009.829	1662.65
1010.122	1644.12
1010.415	1628.08
1010.708	1640.96
1011.001	1616.1
1011.295	1604.12
1011.588	1602.09
1011.881	1602.99
1012.173	1578.59
1012.466	1600.28
1012.759	1545.37
1013.052	1585.59
1013.344	1557.8
1013.637	1557.35
1013.93	1532.49
1014.222	1518.93
1014.514	1528.42
1014.807	1516.44
1015.099	1498.36
1015.391	1468.53
1015.683	1516.44
1015.976	1469.66
1016.268	1467.18
1016.56	1470.12
1016.851	1448.65
1017.143	1464.02
1017.435	1424.69
1017.727	1391.7
1018.018	1413.85
1018.31	1374.53
1018.602	1402.77
1018.893	1408.42
1019.185	1368.88
1019.476	1378.82
1019.767	1360.06
1020.058	1384.7
1020.35	1353.96
1020.641	1337.46
1020.932	1331.59
1021.223	1348.54
1021.514	1298.82
1021.804	1318.26
1022.095	1296.34
1022.386	1293.4
1022.677	1270.57
1022.967	1258.14
1023.258	1267.64
1023.548	1259.73
1023.839	1242.78
1024.129	1255.66
1024.419	1241.2
1024.709	1241.2
1025	1227.41
1025.29	1200.52
1025.58	1197.58
1025.87	1182.89
1026.16	1193.29
1026.449	1144.02
1026.739	1148.54
1027.029	1153.97
1027.319	1164.14
1027.608	1154.87
1027.898	1147.41
1028.187	1157.36
1028.477	1123.46
1028.766	1118.26
1029.055	1097.25
1029.344	1109.9
1029.634	1075.32
1029.923	1083.01
1030.212	1074.42
1030.501	1077.81
1030.79	1049.56
1031.078	1068.32
1031.367	1064.7
1031.656	1045.04
1031.945	1051.14
1032.233	1020.41
1032.522	1022.9
1032.81	1026.74
1033.099	1024.25
1033.387	1004.82
1033.675	1010.02
1033.963	1004.82
1034.251	978.83
1034.54	969.56
1034.828	1006.4
1035.116	970.24
1035.403	969.11
1035.691	968.21
1035.979	964.59
1036.267	955.78
1036.554	922.79
1036.842	954.42
1037.129	952.84
1037.417	929.57
1037.704	922.56
1037.992	909
1038.279	907.19
1038.566	894.54
1038.853	894.54
1039.14	894.54
