Data from hue_130_FLMS001491_00047.txt Node
Date: Tue Feb 07 16:57:40 GMT 2017
User: dcchb
Spectrometer: FLMS00149
Trigger mode: 0
Integration Time (sec): 2.000000E-2
Scans to average: 10
Electric dark correction enabled: true
Nonlinearity correction enabled: false
Boxcar width: 0
XAxis mode: Wavelengths
Number of Pixels in Spectrum: 2048
>>>>>Begin Spectral Data<<<<<
341.393	-18.59
341.776	-18.59
342.16	-18.59
342.543	-51.58
342.927	-62.88
343.31	-61.07
343.693	-74.63
344.077	-80.05
344.46	-75.31
344.843	-36.89
345.226	-43.9
345.61	-38.93
345.993	-19.49
346.376	-6.84
346.759	20.51
347.142	11.92
347.525	32.26
347.908	70.9
348.291	78.36
348.674	107.51
349.057	115.65
349.44	114.06
349.823	145.25
350.206	157.91
350.588	168.98
350.971	230.45
351.354	248.3
351.737	231.58
352.119	239.94
352.502	250.33
352.884	265.02
353.267	292.14
353.65	302.31
354.032	323.32
354.414	299.82
354.797	316.32
355.179	330.1
355.562	345.92
355.944	332.82
356.326	312.48
356.709	321.29
357.091	340.5
357.473	327.62
357.855	341.18
358.238	344.57
358.62	362.65
359.002	350.44
359.384	335.53
359.766	358.35
360.148	350.44
360.53	324.45
360.912	346.83
361.294	328.97
361.676	344.12
362.057	339.37
362.439	309.54
362.821	326.71
363.203	315.42
363.584	330.78
363.966	317.22
364.348	332.36
364.729	308.64
365.111	311.12
365.493	316.32
365.874	326.94
366.256	327.62
366.637	319.03
367.019	314.29
367.4	307.05
367.781	296.88
368.163	319.26
368.544	311.35
368.925	313.83
369.306	317.9
369.688	312.93
370.069	309.31
370.45	304.79
370.831	326.26
371.212	312.93
371.593	328.07
371.974	320.84
372.355	314.06
372.736	313.38
373.117	312.25
373.498	322.42
373.879	312.03
374.26	318.35
374.641	316.09
375.021	314.51
375.402	304.57
375.783	319.26
376.163	313.16
376.544	315.87
376.925	294.4
377.305	325.58
377.686	345.7
378.066	320.61
378.447	334.4
378.827	323.55
379.208	345.47
379.588	317.22
379.968	337.79
380.349	333.49
380.729	336.88
381.109	326.04
381.489	350.67
381.87	361.74
382.25	354.74
382.63	330.1
383.01	321.74
383.39	340.05
383.77	332.36
384.15	352.48
384.53	344.34
384.91	324
385.29	335.75
385.67	351.35
386.049	338.92
386.429	339.37
386.809	356.32
387.189	342.99
387.568	347.05
387.948	351.57
388.328	364.91
388.707	359.93
389.087	380.72
389.466	376.88
389.846	392.25
390.225	382.76
390.605	368.07
390.984	367.62
391.363	385.24
391.743	373.94
392.122	361.06
392.501	371.91
392.881	391.12
393.26	359.03
393.639	366.94
394.018	369.88
394.397	374.17
394.776	397.67
395.155	374.17
395.534	386.37
395.913	392.25
396.292	398.35
396.671	393.83
397.05	384.34
397.429	379.37
397.808	407.39
398.186	399.71
398.565	395.19
398.944	393.38
399.323	398.35
399.701	393.83
400.08	396.32
400.458	422.76
400.837	414.17
401.215	406.26
401.594	411.91
401.972	416.66
402.351	405.81
402.729	419.14
403.107	436.99
403.486	417.79
403.864	404.45
404.242	433.38
404.62	413.27
404.999	413.27
405.377	415.07
405.755	416.66
406.133	441.97
406.511	426.15
406.889	438.8
407.267	442.87
407.645	445.58
408.023	446.94
408.401	432.25
408.779	456.88
409.156	465.92
409.534	467.73
409.912	463.21
410.29	458.91
410.667	466.37
411.045	461.4
411.422	471.8
411.8	477.9
412.178	484.68
412.555	472.7
412.933	484.45
413.31	476.99
413.687	491
414.065	486.48
414.442	464.79
414.819	505.92
415.197	499.37
415.574	509.31
415.951	508.4
416.328	509.31
416.705	524
417.082	523.32
417.46	513.83
417.837	518.12
418.214	529.2
418.591	523.09
418.967	510.66
419.344	529.65
419.721	524.9
420.098	522.64
420.475	538.91
420.852	538.23
421.228	551.57
421.605	548.18
421.982	561.96
422.358	536.2
422.735	561.74
423.111	547.27
423.488	557.44
423.864	567.39
424.241	561.06
424.617	576.65
424.994	577.78
425.37	576.65
425.746	584.79
426.123	614.16
426.499	590.66
426.875	606.26
427.251	619.81
427.627	611
428.003	610.1
428.379	617.1
428.756	616.65
429.132	633.37
429.507	652.58
429.883	635.63
430.259	657.33
430.635	668.4
431.011	660.72
431.387	660.49
431.763	664.33
432.138	653.71
432.514	671.34
432.89	671.34
433.265	681.06
433.641	688.51
434.016	718.57
434.392	705.24
434.767	729.42
435.143	706.14
435.518	743.2
435.894	731.22
436.269	721.05
436.644	742.52
437.02	736.42
437.395	770.77
437.77	757.21
438.145	759.25
438.52	766.48
438.895	794.5
439.271	773.93
439.646	825.68
440.021	793.14
440.395	798.34
440.77	793.59
441.145	798.79
441.52	830.88
441.895	822.97
442.27	834.05
442.645	801.96
443.019	829.07
443.394	821.84
443.769	869.98
444.143	827.49
444.518	857.77
444.892	852.58
445.267	858.9
445.641	870.43
446.016	858.45
446.39	864.78
446.764	885.57
447.139	885.57
447.513	901.84
447.887	899.35
448.262	891.67
448.636	911.11
449.01	907.94
449.384	918.56
449.758	922.86
450.132	909.3
450.506	945
450.88	934.16
451.254	936.64
451.628	948.17
452.002	979.58
452.376	981.84
452.75	967.83
453.123	1015.74
453.497	1019.8
453.871	1016.87
454.244	1039.01
454.618	1040.82
454.992	1026.13
455.365	1053.93
455.739	1072.01
456.112	1070.42
456.486	1073.59
456.859	1121.5
457.232	1105
457.606	1113.81
457.979	1151.55
458.352	1145.68
458.725	1156.3
459.099	1165.11
459.472	1173.47
459.845	1210.31
460.218	1200.59
460.591	1198.56
460.964	1225.9
461.337	1285.33
461.71	1281.27
462.083	1289.18
462.456	1319.91
462.829	1314.03
463.201	1339.34
463.574	1345.44
463.947	1371.21
464.32	1400.58
464.692	1419.79
465.065	1403.97
465.438	1430.19
465.81	1446.23
466.183	1477.19
466.555	1491.43
466.928	1514.93
467.3	1550.19
467.672	1566.68
468.045	1579.79
468.417	1585.66
468.789	1618.66
469.161	1644.87
469.534	1663.4
469.906	1695.27
470.278	1735.04
470.65	1763.74
471.022	1806.68
471.394	1843.51
471.766	1846
472.138	1901.59
472.51	1954.47
472.882	1966.67
473.253	2010.51
473.625	2013.68
473.997	2092.32
474.369	2127.8
474.74	2158.3
475.112	2216.83
475.484	2275.82
475.855	2345.42
476.227	2362.14
476.598	2426.77
476.97	2502.93
477.341	2564.85
477.713	2632.64
478.084	2684.84
478.455	2791.96
478.827	2775.01
479.198	2878.29
479.569	2958.96
479.94	3048.45
480.311	3114.44
480.682	3228.56
481.053	3335.45
481.424	3409.12
481.795	3486.41
482.166	3565.5
482.537	3655.21
482.908	3783.35
483.279	3842.78
483.65	4015.43
484.021	4094.75
484.391	4168.2
484.762	4263.33
485.133	4358.47
485.503	4444.8
485.874	4640.5
486.244	4694.74
486.615	4871
486.985	4978.34
487.356	5103.54
487.726	5252.01
488.097	5367.94
488.467	5450.42
488.837	5597.76
489.207	5746.23
489.578	5881.37
489.948	6004.98
490.318	6166.11
490.688	6249.04
491.058	6425.09
491.428	6507.12
491.798	6657.85
492.168	6863.49
492.538	6919.99
492.908	7118.63
493.278	7235.69
493.648	7254.89
494.017	7505.51
494.387	7753.41
494.757	7734.43
495.126	7966.06
495.496	7981.88
495.866	8106.85
496.235	8280.86
496.605	8476.33
496.974	8525.82
497.344	8726.95
497.713	8769.2
498.082	8855.76
498.452	9040.16
498.821	9150.21
499.19	9184.56
499.559	9373.03
499.928	9425.46
500.298	9498
500.667	9705.68
501.036	9653.7
501.405	9848.95
501.774	9908.84
502.143	10006.46
502.512	10178.88
502.88	10299.79
503.249	10298.43
503.618	10471.76
503.987	10518.99
504.356	10568.93
504.724	10693.9
505.093	10745.88
505.462	10767.12
505.83	10882.37
506.199	11003.04
506.567	11176.6
506.936	11149.03
507.304	11313.32
507.672	11308.35
508.041	11455.46
508.409	11508.12
508.777	11609.13
509.145	11639.41
509.514	11639.19
509.882	11765.28
510.25	11855.68
510.618	11861.33
510.986	11877.6
511.354	12052.96
511.722	12107.2
512.09	12171.83
512.458	12250.24
512.826	12280.07
513.193	12330.92
513.561	12384.93
513.929	12369.34
514.297	12570.01
514.664	12608.43
515.032	12618.37
515.4	12666.05
515.767	12696.78
516.135	12688.88
516.502	12646.84
516.869	12890.68
517.237	12856.1
517.604	12856.55
517.972	12989.66
518.339	12953.05
518.706	12912.37
519.073	13008.64
519.44	13080.05
519.808	13147.62
520.175	13108.3
520.542	13311.91
520.909	13321.85
521.276	13277.33
521.643	13423.77
522.009	13351.23
522.376	13374.06
522.743	13428.07
523.11	13529.53
523.477	13663.09
523.843	13693.82
524.21	13688.17
524.577	13778.79
524.943	13887.49
525.31	13716.64
525.676	13941.72
526.043	13908.73
526.409	13897.21
526.776	13989.86
527.142	13923.19
527.508	14038.9
527.874	14037.31
528.241	14008.39
528.607	14057.88
528.973	14153.02
529.339	13993.25
529.705	14226.24
530.071	14161.83
530.437	14189.85
530.803	14174.26
531.169	14187.82
531.535	14162.06
531.901	14108.5
532.267	14225.11
532.632	14140.14
532.998	14179.68
533.364	14138.33
533.73	14220.36
534.095	14165.45
534.461	14158.44
534.826	14210.42
535.192	14174.03
535.557	14246.57
535.923	14141.04
536.288	14091.1
536.653	14154.15
537.019	14016.3
537.384	14115.05
537.749	14081.16
538.114	14132.68
538.479	13968.84
538.845	13995.51
539.21	13956.41
539.575	13954.6
539.94	13963.64
540.305	13969.97
540.67	13897.21
541.034	13918.9
541.399	13862.18
541.764	13794.61
542.129	13874.15
542.494	13740.83
542.858	13772.69
543.223	13671.9
543.587	13684.56
543.952	13715.52
544.316	13617.44
544.681	13590.32
545.045	13563.88
545.41	13635.74
545.774	13567.72
546.138	13544.67
546.503	13508.06
546.867	13581.73
547.231	13519.59
547.595	13519.81
547.959	13480.49
548.324	13338.8
548.688	13353.26
549.052	13277.33
549.416	13300.61
549.779	13277.33
550.143	13237.11
550.507	13232.36
550.871	13247.28
551.235	13117.11
551.599	13272.14
551.962	13132.48
552.326	13139.71
552.689	13175.42
553.053	13019.49
553.417	13037.11
553.78	13128.19
554.143	12982.88
554.507	13028.53
554.87	12985.36
555.234	13055.19
555.597	12959.15
555.96	13019.26
556.323	13044.57
556.686	12975.65
557.05	12983.78
557.413	12908.76
557.776	12915.31
558.139	12969.09
558.502	12913.95
558.865	12937.23
559.228	12944.91
559.59	12947.4
559.953	12960.51
560.316	13079.83
560.679	12970
561.041	12999.83
561.404	12945.59
561.767	13045.25
562.129	12970.45
562.492	13002.54
562.854	13002.09
563.217	13004.8
563.579	12994.63
563.941	13029.21
564.304	13010
564.666	13098.13
565.028	13180.84
565.39	13078.7
565.753	13137.45
566.115	13098.58
566.477	13166.83
566.839	13182.2
567.201	13260.39
567.563	13184.23
567.925	13305.13
568.287	13235.98
568.648	13247.96
569.01	13236.66
569.372	13353.72
569.734	13288.86
570.095	13280.5
570.457	13292.7
570.819	13314.17
571.18	13315.75
571.542	13388.29
571.903	13377.22
572.265	13405.47
572.626	13490.21
572.987	13452.47
573.349	13440.04
573.71	13456.31
574.071	13400.27
574.432	13495.63
574.794	13433.71
575.155	13503.77
575.516	13392.81
575.877	13419.7
576.238	13568.85
576.599	13500.61
576.96	13518.01
577.32	13466.48
577.681	13527.05
578.042	13522.3
578.403	13548.06
578.763	13590.09
579.124	13576.54
579.485	13604.78
579.845	13592.13
580.206	13593.94
580.566	13624.67
580.927	13553.71
581.287	13629.64
581.648	13574.28
582.008	13541.96
582.368	13641.17
582.728	13649.75
583.089	13682.3
583.449	13635.52
583.809	13597.78
584.169	13545.35
584.529	13470.55
584.889	13636.87
585.249	13450.66
585.609	13459.25
585.969	13542.41
586.329	13597.55
586.688	13431.68
587.048	13485.69
587.408	13415.41
587.768	13426.71
588.127	13453.83
588.487	13407.5
588.846	13504.22
589.206	13470.32
589.565	13453.38
589.925	13558.46
590.284	13440.72
590.643	13475.3
591.003	13414.96
591.362	13488.63
591.721	13365.92
592.08	13385.81
592.44	13416.54
592.799	13400.5
593.158	13391.91
593.517	13386.26
593.876	13307.62
594.235	13344.23
594.593	13351.46
594.952	13440.27
595.311	13308.07
595.67	13355.52
596.029	13378.8
596.387	13381.51
596.746	13354.39
597.104	13270.33
597.463	13306.94
597.822	13344.68
598.18	13311.91
598.538	13256.32
598.897	13348.07
599.255	13237.11
599.613	13429.19
599.972	13345.36
600.33	13321.85
600.688	13285.24
601.046	13395.98
601.404	13377.67
601.762	13306.49
602.12	13457.44
602.478	13353.26
602.836	13365.69
603.194	13367.73
603.552	13313.04
603.91	13304.45
604.268	13334.96
604.625	13329.99
604.983	13308.07
605.341	13299.48
605.698	13355.3
606.056	13328.86
606.413	13296.77
606.771	13425.35
607.128	13442.08
607.485	13374.73
607.843	13383.55
608.2	13411.79
608.557	13410.89
608.914	13409.31
609.272	13461.96
609.629	13475.3
609.986	13525.46
610.343	13469.42
610.7	13494.73
611.057	13487.72
611.414	13478.46
611.771	13411.79
612.127	13583.99
612.484	13521.62
612.841	13567.04
613.198	13480.94
613.554	13567.95
613.911	13638.45
614.267	13528.18
614.624	13513.26
614.98	13530.66
615.337	13569.08
615.693	13638.23
616.05	13642.07
616.406	13640.26
616.762	13638
617.118	13641.17
617.475	13631.45
617.831	13676.87
618.187	13682.07
618.543	13727.49
618.899	13747.15
619.255	13732.46
619.611	13729.53
619.967	13764.55
620.323	13736.76
620.678	13715.97
621.034	13699.47
621.39	13705.12
621.746	13689.53
622.101	13828.51
622.457	13704.44
622.812	13713.26
623.168	13742.18
623.523	13748.06
623.879	13734.95
624.234	13708.74
624.589	13775.17
624.945	13707.61
625.3	13797.32
625.655	13774.5
626.01	13752.58
626.365	13723.65
626.72	13717.32
627.075	13680.26
627.43	13714.61
627.785	13712.35
628.14	13791.45
628.495	13703.09
628.85	13605.01
629.205	13626.7
629.559	13715.06
629.914	13669.41
630.269	13664.89
630.623	13674.84
630.978	13570.21
631.332	13717.32
631.687	13705.8
632.041	13590.55
632.396	13584.67
632.75	13635.07
633.104	13622.18
633.459	13570.43
633.813	13466.93
634.167	13577.89
634.521	13562.75
634.875	13448.63
635.229	13485.69
635.583	13367.28
635.937	13456.31
636.291	13462.41
636.645	13432.58
636.999	13407.27
637.352	13442.08
637.706	13337.22
638.06	13386.94
638.413	13353.72
638.767	13389.2
639.121	13414.73
639.474	13274.4
639.828	13338.8
640.181	13264.45
640.534	13301.06
640.888	13251.57
641.241	13217
641.594	13270.56
641.947	13277.79
642.301	13282.31
642.654	13205.25
643.007	13261.52
643.36	13211.57
643.713	13232.59
644.066	13211.12
644.419	13134.74
644.771	13035.76
645.124	12918.02
645.477	12882.77
645.83	12778.82
646.182	12812.49
646.535	12771.13
646.888	12803.45
647.24	12671.47
647.593	12741.53
647.945	12661.53
648.298	12650.91
648.65	12703.34
649.002	12690.68
649.355	12695.88
649.707	12649.55
650.059	12739.72
650.411	12798.03
650.763	12900.85
651.115	13082.76
651.467	13001.41
651.819	13041.18
652.171	12969.09
652.523	12945.82
652.875	12981.07
653.227	12950.79
653.578	13077.79
653.93	12980.62
654.282	12969.55
654.633	12896.1
654.985	12946.5
655.337	13008.64
655.688	12955.54
656.039	13038.02
656.391	12991.47
656.742	12976.1
657.094	12952.6
657.445	13000.28
657.796	12962.99
658.147	12946.5
658.498	12957.34
658.849	13060.39
659.2	12965.93
659.551	12933.16
659.902	13056.1
660.253	12979.94
660.604	13002.54
660.955	12977
661.306	13043.67
661.656	12966.38
662.007	13091.35
662.358	13031.92
662.708	13035.76
663.059	13027.17
663.409	12952.15
663.76	13053.84
664.11	13054.97
664.461	13005.03
664.811	13030.56
665.161	13022.2
665.511	13020.62
665.862	13041.63
666.212	13024.69
666.562	13028.08
666.912	13134.06
667.262	13028.98
667.612	12982.88
667.962	13106.49
668.312	13039.83
668.662	13061.75
669.011	13093.84
669.361	13039.15
669.711	13042.76
670.06	13002.09
670.41	12992.37
670.76	12907.63
671.109	13024.46
671.459	12965.48
671.808	12884.8
672.157	12939.72
672.507	12848.65
672.856	12903.33
673.205	12915.54
673.554	12892.03
673.904	12834.18
674.253	12993.73
674.602	12879.38
674.951	12776.33
675.3	12681.19
675.649	12849.78
675.998	12861.98
676.346	12758.7
676.695	12883.67
677.044	12760.51
677.393	12762.09
677.741	12871.92
678.09	12658.82
678.438	12761.64
678.787	12779.04
679.135	12776.33
679.484	12603.23
679.832	12751.92
680.181	12676.45
680.529	12703.79
680.877	12581.99
681.225	12535.21
681.573	12652.27
681.922	12663.57
682.27	12498.6
682.618	12614.3
682.966	12514.19
683.314	12610.01
683.661	12538.6
684.009	12438.71
684.357	12373.4
684.705	12378.6
685.053	12410.69
685.4	12393.74
685.748	12271.26
686.095	12290.69
686.443	12268.32
686.79	12219.74
687.138	12309.45
687.485	12294.76
687.832	12199.4
688.18	12144.03
688.527	12080.08
688.874	12113.75
689.221	12038.5
689.568	11980.42
689.915	11976.13
690.262	12000.98
690.609	11852.51
690.956	11917.14
691.303	11872.85
691.65	11802.12
691.997	11822.68
692.344	11720.77
692.69	11677.83
693.037	11714.89
693.383	11622.46
693.73	11583.14
694.077	11547.89
694.423	11521.9
694.769	11467.44
695.116	11390.15
695.462	11365.97
695.808	11351.96
696.155	11388.12
696.501	11244.17
696.847	11353.54
697.193	11176.82
697.539	11198.97
697.885	11116.49
698.231	11112.42
698.577	11097.28
698.923	11062.03
699.269	11007.34
699.614	10891.41
699.96	10884.4
700.306	10836.72
700.651	10780.45
700.997	10818.42
701.342	10831.52
701.688	10745.65
702.033	10705.42
702.379	10649.61
702.724	10679.44
703.069	10719.66
703.415	10582.94
703.76	10504.3
704.105	10497.52
704.45	10558.08
704.795	10381.37
705.14	10462.49
705.485	10391.76
705.83	10374.13
706.175	10274.48
706.52	10319.45
706.865	10236.74
707.209	10219.11
707.554	10198.09
707.899	10226.34
708.243	10145.44
708.588	10145.67
708.932	10023.86
709.277	10010.98
709.621	10081.49
709.966	9975.5
710.31	9947.93
710.654	9902.73
710.998	9950.64
711.342	9918.1
711.687	9862.06
712.031	9792.68
712.375	9809.4
712.719	9829.06
713.063	9755.17
713.407	9754.26
713.75	9767.37
714.094	9722.17
714.438	9697.32
714.782	9707.48
715.125	9661.84
715.469	9750.65
715.812	9671.1
716.156	9596.53
716.499	9597.88
716.843	9561.5
717.186	9587.49
717.53	9659.35
717.873	9578.22
718.216	9596.3
718.559	9554.49
718.902	9408.51
719.246	9483.08
719.589	9350.88
719.932	9438.11
720.275	9418
720.617	9423.88
720.96	9395.85
721.303	9388.4
721.646	9369.19
721.989	9378.23
722.331	9378.45
722.674	9361.73
723.016	9346.59
723.359	9339.13
723.701	9321.96
724.044	9215.52
724.386	9259.14
724.729	9214.62
725.071	9237.21
725.413	9284.67
725.755	9271.34
726.097	9175.3
726.439	9145.69
726.782	9209.87
727.124	9248.29
727.465	9216.2
727.807	9200.15
728.149	9138.91
728.491	9125.35
728.833	9101.85
729.175	9163.54
729.516	9094.39
729.858	9121.51
730.199	9161.06
730.541	9112.02
730.882	9121.96
731.224	9162.19
731.565	9103.43
731.906	9143.66
732.248	9074.73
732.589	9021.18
732.93	9092.81
733.271	9086.48
733.612	9033.83
733.953	9135.3
734.294	8986.37
734.635	9063.43
734.976	9025.24
735.317	9054.85
735.658	9063.21
735.999	9102.53
736.339	9059.37
736.68	9137.1
737.021	9129.42
737.361	9056.2
737.702	9072.93
738.042	9140.95
738.383	9154.96
738.723	9097.33
739.063	9127.84
739.404	9105.69
739.744	9131.23
740.084	9102.98
740.424	9124
740.764	9154.05
741.104	9167.16
741.444	9122.87
741.784	9198.57
742.124	9152.92
742.464	9222.98
742.804	9227.95
743.143	9236.99
743.483	9252.13
743.823	9264.33
744.162	9282.19
744.502	9331
744.841	9328.96
745.181	9413.48
745.52	9412.8
745.86	9467.49
746.199	9481.28
746.538	9507.94
746.877	9531.44
747.216	9622.29
747.556	9619.58
747.895	9687.15
748.234	9693.02
748.573	9727.15
748.911	9829.97
749.25	9891.43
749.589	9951.09
749.928	9961.49
750.267	10069.74
750.605	10139.34
750.944	10173.46
751.283	10266.11
751.621	10408.26
751.96	10378.2
752.298	10495.49
752.636	10624.52
752.975	10680.34
753.313	10771.41
753.651	10890.05
753.989	10927.79
754.327	11080.1
754.666	11120.56
755.004	11210.95
755.342	11423.6
755.679	11517.61
756.017	11628.11
756.355	11761.44
756.693	11883.92
757.031	12120.53
757.368	12126.18
757.706	12309.9
758.044	12418.83
758.381	12535.66
758.719	12646.62
759.056	12872.37
759.394	13031.01
759.731	13137
760.068	13160.05
760.405	13355.75
760.743	13510.77
761.08	13787.38
761.417	13904.89
761.754	13961.16
762.091	14249.51
762.428	14374.93
762.765	14371.54
763.102	14721.14
763.438	14767.92
763.775	14897.4
764.112	15063.28
764.449	15337.17
764.785	15366.32
765.122	15404.96
765.458	15606.31
765.795	15802.01
766.131	15941.67
766.467	16075.23
766.804	16146.86
767.14	16305.96
767.476	16466.18
767.812	16458.04
768.148	16681.99
768.485	16771.93
768.821	16880.4
769.157	16982.77
769.492	17167.63
769.828	17215.76
770.164	17283.1
770.5	17358.36
770.836	17526.04
771.171	17521.06
771.507	17696.2
771.842	17676.09
772.178	17778.23
772.513	17893.71
772.849	18042.18
773.184	18014.84
773.519	18126.7
773.855	18171.9
774.19	18263.42
774.525	18291.44
774.86	18459.57
775.195	18486.92
775.53	18573.92
775.865	18466.58
776.2	18592.22
776.535	18504.09
776.87	18494.15
777.205	18588.38
777.539	18598.55
777.874	18725.33
778.209	18596.74
778.543	18635.16
778.878	18688.94
779.212	18783.18
779.547	18768.72
779.881	18857.75
780.215	18741.15
780.55	18848.04
780.884	18672.67
781.218	18723.07
781.552	18803.97
781.886	18740.92
782.22	18728.26
782.554	18763.52
782.888	18662.5
783.222	18664.09
783.556	18681.94
783.889	18648.72
784.223	18528.27
784.557	18533.47
784.89	18548.61
785.224	18535.28
785.557	18514.03
785.891	18485.33
786.224	18566.01
786.558	18481.49
786.891	18465.22
787.224	18234.72
787.557	18350.65
787.891	18360.82
788.224	18388.84
788.557	18399.01
788.89	18356.75
789.223	18391.78
789.556	18201.72
789.888	18204.89
790.221	18154.72
790.554	18029.3
790.887	18072.01
791.219	18014.61
791.552	18131.22
791.884	18003.31
792.217	17959.02
792.549	17978.91
792.882	17944.78
793.214	17869.76
793.546	17823.2
793.879	17751.79
794.211	17675.18
794.543	17792.02
794.875	17726.26
795.207	17796.09
795.539	17641.97
795.871	17688.52
796.203	17580.05
796.535	17442.42
796.867	17443.33
797.198	17507.28
797.53	17438.36
797.862	17318.58
798.193	17348.19
798.525	17194.07
798.856	17242.65
799.188	17142.54
799.519	17051.25
799.85	16977.58
800.182	17037.46
800.513	16992.27
800.844	16897.8
801.175	16992.94
801.506	17018.93
801.837	16832.04
802.168	16844.47
802.499	16838.14
802.83	16779.16
803.161	16693.97
803.491	16695.55
803.822	16637.02
804.153	16596.34
804.483	16481.77
804.814	16472.28
805.145	16434.31
805.475	16456.01
805.805	16455.78
806.136	16417.59
806.466	16338.95
806.796	16258.5
807.126	16247.88
807.457	16193.19
807.787	16186.41
808.117	16140.76
808.447	16100.09
808.777	16126.07
809.107	16018.28
809.436	15985.29
809.766	16068.22
810.096	15857.15
810.426	15838.62
810.755	15853.76
811.085	15849.7
811.414	15855.8
811.744	15700.77
812.073	15745.74
812.403	15628.69
812.732	15542.13
813.061	15727.21
813.39	15554.79
813.719	15542.59
814.049	15605.18
814.378	15519.31
814.707	15418.97
815.036	15424.85
815.365	15435.47
815.693	15293.1
816.022	15305.08
816.351	15228.02
816.68	15193.22
817.008	15190.05
817.337	15103.5
817.665	15070.51
817.994	15105.76
818.322	15032.09
818.651	14984.41
818.979	14986.89
819.307	15075.71
819.636	14977.4
819.964	14889.5
820.292	14986.22
820.62	15022.6
820.948	14872.77
821.276	14951.41
821.604	14881.59
821.932	14901.02
822.259	14868.71
822.587	14929.04
822.915	14823.73
823.243	14913
823.57	14797.75
823.898	14949.15
824.225	14829.16
824.553	14761.36
824.88	14815.6
825.207	14900.57
825.535	14866.45
825.862	14919.1
826.189	14800.46
826.516	14927.69
826.843	14847.69
827.17	14871.64
827.497	14954.58
827.824	14930.62
828.151	14946.9
828.478	14945.09
828.805	14974.47
829.131	14871.64
829.458	14828.03
829.785	14848.82
830.111	14867.8
830.438	14908.48
830.764	14918.2
831.09	14919.55
831.417	14832.32
831.743	14972.43
832.069	14882.94
832.395	14863.73
832.722	14851.76
833.048	14824.86
833.374	14807.01
833.7	14854.02
834.026	14823.51
834.351	14818.76
834.677	14774.47
835.003	14836.39
835.329	14735.15
835.654	14808.14
835.98	14661.7
836.306	14763.62
836.631	14722.27
836.956	14721.36
837.282	14730.63
837.607	14642.72
837.932	14610.41
838.258	14545.32
838.583	14607.7
838.908	14496.74
839.233	14464.65
839.558	14541.71
839.883	14365.22
840.208	14362.28
840.533	14437.76
840.858	14306.91
841.182	14359.34
841.507	14351.2
841.832	14336.29
842.156	14139.46
842.481	14347.14
842.805	14229.85
843.13	14167.93
843.454	14118.89
843.778	14050.2
844.103	14126.58
844.427	14070.08
844.751	14045.22
845.075	13993.93
845.399	13988.28
845.723	13941.5
846.047	13849.3
846.371	13793.71
846.695	13742.41
847.019	13796.19
847.343	13681.17
847.666	13586.48
847.99	13480.27
848.313	13569.98
848.637	13413.15
848.96	13386.26
849.284	13394.17
849.607	13220.39
849.931	13181.29
850.254	13169.77
850.577	13123.21
850.9	12993.27
851.223	13089.54
851.546	13011.58
851.869	12911.69
852.192	12946.72
852.515	12763.9
852.838	12829.21
853.161	12761.19
853.483	12723.9
853.806	12643.9
854.129	12534.53
854.451	12598.03
854.774	12563.23
855.096	12462.44
855.419	12415.44
855.741	12341.54
856.063	12349.45
856.385	12283.01
856.708	12212.28
857.03	12246.63
857.352	12192.39
857.674	12151.49
857.996	12170.47
858.318	12060.87
858.64	12130.25
858.961	12027.42
859.283	11970.25
859.605	11892.06
859.926	11993.98
860.248	11875.56
860.57	11838.05
860.891	11836.02
861.212	11771.61
861.534	11749.01
861.855	11825.85
862.176	11743.14
862.498	11700.43
862.819	11752.63
863.14	11597.83
863.461	11617.72
863.782	11609.58
864.103	11667.66
864.424	11489.58
864.745	11532.97
865.065	11465.18
865.386	11406.2
865.707	11398.06
866.027	11456.14
866.348	11438.51
866.668	11469.47
866.989	11373.66
867.309	11261.34
867.63	11309.7
867.95	11386.54
868.27	11266.99
868.59	11294.11
868.91	11231.96
869.23	11274.68
869.55	11203.94
869.87	11192.42
870.19	11191.74
870.51	11306.31
870.83	11177.28
871.15	11112.19
871.469	11111.29
871.789	11214.79
872.109	11117.84
872.428	10995.13
872.748	11080.56
873.067	11019.77
873.386	11067.45
873.706	10955.14
874.025	10972.54
874.344	10972.31
874.663	10933.67
874.982	10969.37
875.301	10987
875.62	10935.48
875.939	10892.31
876.258	10881.92
876.577	10799.89
876.896	10867.23
877.214	10747.91
877.533	10826.55
877.852	10812.54
878.17	10824.52
878.489	10733.9
878.807	10814.57
879.125	10684.18
879.444	10697.52
879.762	10685.31
880.08	10678.08
880.398	10641.47
880.716	10638.99
881.034	10617.74
881.352	10603.73
881.67	10535.94
881.988	10537.07
882.306	10552.21
882.624	10443.96
882.941	10377.75
883.259	10428.37
883.577	10421.82
883.894	10402.16
884.212	10318.99
884.529	10345.89
884.846	10345.43
885.164	10285.55
885.481	10264.53
885.798	10215.49
886.115	10151.32
886.432	10234.48
886.75	10144.31
887.067	10124.65
887.383	10066.57
887.7	10065.44
888.017	10135.95
888.334	10046.91
888.651	9975.27
888.967	10004.88
889.284	9930.98
889.6	9892.79
889.917	9869.29
890.233	9905.67
890.55	9800.82
890.866	9873.58
891.182	9805.34
891.498	9745.22
891.815	9724.21
892.131	9716.75
892.447	9688.28
892.763	9627.04
893.079	9577.09
893.395	9605.79
893.71	9532.12
894.026	9590.2
894.342	9479.24
894.657	9453.48
894.973	9435.63
895.289	9456.64
895.604	9391.11
895.92	9392.24
896.235	9274.95
896.55	9308.85
896.865	9218.23
897.181	9247.16
897.496	9259.59
897.811	9178.69
898.126	9181.17
898.441	9044.23
898.756	9034.96
899.071	9006.26
899.386	9025.69
899.7	8921.74
900.015	8873.83
900.33	8862.76
900.644	8832.25
900.959	8893.27
901.273	8784.35
901.588	8723.33
901.902	8733.73
902.216	8695.31
902.531	8671.81
902.845	8634.74
903.159	8604.01
903.473	8546.16
903.787	8546.16
904.101	8468.65
904.415	8457.57
904.729	8534.18
905.042	8383.45
905.356	8305.49
905.67	8349.55
905.984	8324.7
906.297	8304.81
906.611	8265.71
906.924	8241.53
907.237	8239.5
907.551	8143.91
907.864	8091.48
908.177	8146.4
908.491	8034.53
908.804	8016
909.117	8034.53
909.43	7924.71
909.743	7899.85
910.056	7903.92
910.368	7856.46
910.681	7819.4
910.994	7818.72
911.307	7768.78
911.619	7750.47
911.932	7733.75
912.244	7689.01
912.557	7701.66
912.869	7578.95
913.181	7533.08
913.494	7566.98
913.806	7499.86
914.118	7482.01
914.43	7428.67
914.742	7459.63
915.054	7361.56
915.366	7374.21
915.678	7333.99
915.99	7316.59
916.302	7289.24
916.613	7249.92
916.925	7247.21
917.236	7221.9
917.548	7178.06
917.859	7142.13
918.171	7163.6
918.482	7074.33
918.794	7065.07
919.105	7030.04
919.416	7017.61
919.727	6954.11
920.038	6896.03
920.349	6877.5
920.66	6857.16
920.971	6825.98
921.282	6813.78
921.593	6823.72
921.903	6718.18
922.214	6688.81
922.525	6683.16
922.835	6635.93
923.146	6665.53
923.456	6631.18
923.767	6574.01
924.077	6575.14
924.387	6561.13
924.697	6468.7
925.008	6462.6
925.318	6451.98
925.628	6473.67
925.938	6435.71
926.248	6355.71
926.558	6334.01
926.867	6350.29
927.177	6335.14
927.487	6265.32
927.796	6170.63
928.106	6230.29
928.416	6146.22
928.725	6214.24
929.034	6160.01
929.344	6120.01
929.653	6126.34
929.962	6074.59
930.271	5979.9
930.581	6011.99
930.89	5990.29
931.199	5956.4
931.508	5970.41
931.817	5917.08
932.125	5890.18
932.434	5894.48
932.743	5836.4
933.051	5810.86
933.36	5813.12
933.669	5809.06
933.977	5765.89
934.286	5757.98
934.594	5760.02
934.902	5649.51
935.21	5670.08
935.519	5643.41
935.827	5627.14
936.135	5580.36
936.443	5534.04
936.751	5548.72
937.059	5511.66
937.367	5480.93
937.674	5485.67
937.982	5464.66
938.29	5456.98
938.597	5435.73
938.905	5379.46
939.213	5350.76
939.52	5301.73
939.827	5325.23
940.135	5296.53
940.442	5280.03
940.749	5267.83
941.056	5211.56
941.363	5223.08
941.67	5176.98
941.977	5109.64
942.284	5126.14
942.591	5118.23
942.898	5115.52
943.205	5095.85
943.511	5028.74
943.818	5035.74
944.125	5008.4
944.431	4927.05
944.738	5010.43
945.044	4932.24
945.35	4912.13
945.657	4874.17
945.963	4839.59
946.269	4831.68
946.575	4821.51
946.881	4748.75
947.187	4763.21
947.493	4753.26
947.799	4688.63
948.105	4681.4
948.41	4697.67
948.716	4677.11
949.022	4582.2
949.327	4655.19
949.633	4585.59
949.938	4624.91
950.244	4588.75
950.549	4544.68
950.854	4570.9
951.16	4520.95
951.465	4484.8
951.77	4490.9
952.075	4474.4
952.38	4466.94
952.685	4476.66
952.99	4397.57
953.294	4406.38
953.599	4365.48
953.904	4347.63
954.209	4387.17
954.513	4292.26
954.818	4296.33
955.122	4285.48
955.426	4256.33
955.731	4259.49
956.035	4234.86
956.339	4235.54
956.643	4181.75
956.948	4182.43
957.252	4129.33
957.556	4158.7
957.86	4122.32
958.163	4106.73
958.467	4043.68
958.771	4081.19
959.075	4065.15
959.378	4048.88
959.682	4015.21
959.985	4000.74
960.289	4015.66
960.592	3975.66
960.896	3993.28
961.199	3928.43
961.502	3921.87
961.805	3886.39
962.108	3901.99
962.411	3854.53
962.714	3861.54
963.017	3831.26
963.32	3827.64
963.623	3777.47
963.926	3823.12
964.228	3757.58
964.531	3731.37
964.833	3739.51
965.136	3704.03
965.438	3723.24
965.741	3705.16
966.043	3657.47
966.345	3655.89
966.648	3600.53
966.95	3643.46
967.252	3621.77
967.554	3592.39
967.856	3579.96
968.158	3553.3
968.46	3582
968.761	3544.48
969.063	3510.81
969.365	3480.98
969.666	3487.08
969.968	3451.83
970.269	3486.41
970.571	3477.37
970.872	3388.33
971.174	3414.09
971.475	3403.7
971.776	3338.84
972.077	3357.6
972.378	3329.57
972.679	3316.47
972.98	3312.85
973.281	3295.9
973.582	3273.98
973.883	3281.44
974.183	3259.07
974.484	3254.32
974.785	3214.55
975.085	3225.62
975.386	3210.48
975.686	3194.89
975.986	3164.38
976.287	3163.7
976.587	3148.11
976.887	3102.23
977.187	3144.95
977.487	3170.71
977.787	3084.61
978.087	3029.92
978.387	3085.29
978.687	3038.06
978.987	3016.81
979.286	3012.07
979.586	2973.88
979.885	2979.07
980.185	2947.66
980.484	2963.26
980.784	2962.8
981.083	2931.17
981.382	2912.41
981.682	2928.23
981.981	2873.09
982.28	2919.87
982.579	2875.12
982.878	2906.76
983.177	2852.98
983.475	2850.72
983.774	2836.25
984.073	2796.25
984.372	2813.43
984.67	2793.77
984.969	2777.27
985.267	2774.11
985.566	2739.76
985.864	2732.08
986.162	2728.91
986.461	2720.55
986.759	2697.5
987.057	2702.92
987.355	2647.11
987.653	2660.89
987.951	2693.43
988.249	2664.51
988.547	2647.78
988.844	2629.7
989.142	2623.38
989.44	2569.14
989.737	2557.16
990.035	2593.32
990.332	2544.51
990.63	2563.27
990.927	2531.18
991.224	2550.84
991.521	2525.98
991.819	2494.34
992.116	2485.98
992.413	2493.44
992.71	2476.26
993.006	2441.69
993.303	2419.54
993.6	2469.26
993.897	2405.53
994.193	2396.26
994.49	2409.37
994.787	2357.17
995.083	2391.75
995.379	2382.71
995.676	2358.3
995.972	2323.5
996.268	2315.59
996.565	2317.85
996.861	2329.6
997.157	2288.02
997.453	2250.05
997.749	2266.55
998.044	2251.86
998.34	2231.52
998.636	2227.46
998.932	2224.52
999.227	2200.56
999.523	2214.12
999.818	2217.96
1000.114	2184.52
1000.409	2163.5
1000.704	2151.07
1001	2114.92
1001.295	2134.58
1001.59	2146.33
1001.885	2123.73
1002.18	2110.4
1002.475	2048.7
1002.77	2100.91
1003.065	2070.62
1003.359	2066.56
1003.654	2091.19
1003.949	2066.33
1004.243	2011.42
1004.538	2027.91
1004.832	2010.74
1005.127	2000.12
1005.421	1957.63
1005.715	1952.21
1006.009	1946.33
1006.304	1947.24
1006.598	1922.38
1006.892	1900.46
1007.186	1913.57
1007.48	1907.24
1007.773	1867.01
1008.067	1908.82
1008.361	1869.95
1008.655	1846.9
1008.948	1855.26
1009.242	1838.77
1009.535	1844.87
1009.829	1839.22
1010.122	1794.92
1010.415	1828.37
1010.708	1801.93
1011.001	1758.99
1011.295	1763.96
1011.588	1767.13
1011.881	1751.08
1012.173	1769.61
1012.466	1727.81
1012.759	1708.37
1013.052	1695.72
1013.344	1669.73
1013.637	1718.09
1013.93	1656.17
1014.222	1679.9
1014.514	1652.56
1014.807	1620.92
1015.099	1626.34
1015.391	1639.45
1015.683	1629.73
1015.976	1605.1
1016.268	1606
1016.56	1581.37
1016.851	1582.05
1017.143	1544.99
1017.435	1557.19
1017.727	1542.28
1018.018	1546.12
1018.31	1513.8
1018.602	1510.19
1018.893	1479.23
1019.185	1504.76
1019.476	1497.98
1019.767	1504.76
1020.058	1484.42
1020.35	1463.63
1020.641	1434.71
1020.932	1456.18
1021.223	1431.77
1021.514	1399
1021.804	1420.92
1022.095	1421.6
1022.386	1383.86
1022.677	1388.38
1022.967	1396.52
1023.258	1363.98
1023.548	1377.99
1023.839	1358.78
1024.129	1320.13
1024.419	1318.1
1024.709	1319.23
1025	1319.23
1025.29	1279.01
1025.58	1293.02
1025.87	1305.22
1026.16	1286.01
1026.449	1264.54
1026.739	1286.69
1027.029	1257.31
1027.319	1267.93
1027.608	1229.97
1027.898	1237.88
1028.187	1224.32
1028.477	1217.31
1028.766	1208.73
1029.055	1211.21
1029.344	1185.22
1029.634	1160.14
1029.923	1211.66
1030.212	1162.62
1030.501	1164.21
1030.79	1164.43
1031.078	1154.49
1031.367	1141.16
1031.656	1124.21
1031.945	1107.71
1032.233	1105.9
1032.522	1121.5
1032.81	1072.91
1033.099	1083.76
1033.387	1096.19
1033.675	1079.92
1033.963	1074.94
1034.251	1077.43
1034.54	1067.71
1034.828	1069.75
1035.116	1050.99
1035.403	1022.74
1035.691	1038.56
1035.979	1025.68
1036.267	1052.57
1036.554	1025.45
1036.842	1016.41
1037.129	1012.12
1037.417	995.62
1037.704	987.04
1037.992	973.48
1038.279	983.65
1038.566	982.52
1038.853	982.52
1039.14	982.52
