Data from hue_320_FLMS001491_6.txt Node
Date: Mon Feb 06 15:46:37 GMT 2017
User: dcchb
Spectrometer: FLMS00149
Trigger mode: 0
Integration Time (sec): 2.000000E-2
Scans to average: 10
Electric dark correction enabled: true
Nonlinearity correction enabled: false
Boxcar width: 0
XAxis mode: Wavelengths
Number of Pixels in Spectrum: 2048
>>>>>Begin Spectral Data<<<<<
341.393	-18.91
341.776	-18.91
342.16	-18.91
342.543	-38.35
342.927	-59.36
343.31	-65.24
343.693	-67.27
344.077	-79.93
344.46	-52.81
344.843	-54.84
345.226	-61.85
345.61	-26.6
345.993	-8.29
346.376	10.47
346.759	10.24
347.142	42.33
347.525	45.95
347.908	74.64
348.291	60.41
348.674	73.06
349.057	99.73
349.44	112.84
349.823	136.34
350.206	163
350.588	191.03
350.971	212.49
351.354	217.47
351.737	223.57
352.119	228.77
352.502	256.11
352.884	253.85
353.267	290.01
353.65	280.29
354.032	304.24
354.414	320.97
354.797	291.14
355.179	321.19
355.562	325.03
355.944	335.66
356.326	341.53
356.709	322.77
357.091	324.58
357.473	342.89
357.855	342.66
358.238	341.3
358.62	363
359.002	350.8
359.384	354.19
359.766	347.41
360.148	335.88
360.53	353.51
360.912	340.63
361.294	334.07
361.676	332.04
362.057	311.25
362.439	338.37
362.821	328.42
363.203	320.51
363.584	333.85
363.966	323.68
364.348	315.32
364.729	330.91
365.111	330.46
365.493	335.66
365.874	305.6
366.256	320.06
366.637	292.94
367.019	331.59
367.4	295.2
367.781	311.7
368.163	295.43
368.544	297.46
368.925	305.37
369.306	318.25
369.688	324.58
370.069	304.47
370.45	308.31
370.831	308.09
371.212	296.56
371.593	297.69
371.974	308.31
372.355	309.44
372.736	311.25
373.117	312.6
373.498	302.44
373.879	289.78
374.26	316.9
374.641	315.09
375.021	313.06
375.402	315.77
375.783	304.7
376.163	332.04
376.544	324.13
376.925	296.11
377.305	326.84
377.686	330.23
378.066	331.36
378.447	315.54
378.827	344.02
379.208	348.76
379.588	337.01
379.968	333.4
380.349	341.53
380.729	326.62
381.109	314.64
381.489	344.24
381.87	328.42
382.25	346.5
382.63	325.71
383.01	353.96
383.39	341.98
383.77	336.56
384.15	328.65
384.53	342.21
384.91	356.9
385.29	335.43
385.67	340.17
386.049	372.72
386.429	342.66
386.809	335.88
387.189	346.05
387.568	365.94
387.948	357.8
388.328	366.39
388.707	356.22
389.087	355.77
389.466	375.88
389.846	348.99
390.225	369.78
390.605	381.76
390.984	376.56
391.363	373.17
391.743	373.39
392.122	361.19
392.501	376.11
392.881	380.85
393.26	391.47
393.639	396.44
394.018	368.65
394.397	374.75
394.776	372.49
395.155	361.87
395.534	375.65
395.913	384.02
396.292	377.24
396.671	381.98
397.05	401.19
397.429	397.57
397.808	389.66
398.186	399.61
398.565	386.5
398.944	396.9
399.323	391.02
399.701	403.45
400.08	391.7
400.458	382.89
400.837	419.27
401.215	439.61
401.594	414.97
401.972	406.84
402.351	400.06
402.729	412.26
403.107	419.95
403.486	408.65
403.864	424.92
404.242	413.85
404.62	428.99
404.999	434.41
405.377	438.03
405.755	438.93
406.133	445.26
406.511	444.58
406.889	448.19
407.267	433.96
407.645	451.58
408.023	459.95
408.401	471.7
408.779	461.53
409.156	484.58
409.534	489.1
409.912	490.45
410.29	473.5
410.667	489.78
411.045	515.31
411.422	499.04
411.8	505.37
412.178	491.36
412.555	509.21
412.933	510.79
413.31	529.77
413.687	531.81
414.065	554.18
414.442	590.79
414.819	578.36
415.197	591.47
415.574	575.42
415.951	588.3
416.328	609.32
416.705	585.14
417.082	605.25
417.46	586.95
417.837	617.68
418.214	610.22
418.591	618.59
418.967	634.4
419.344	630.11
419.721	650.22
420.098	633.95
420.475	651.8
420.852	669.66
421.228	663.56
421.605	662.65
421.982	705.59
422.358	693.84
422.735	712.37
423.111	700.17
423.488	720.28
423.864	715.53
424.241	743.55
424.617	732.48
424.994	721.18
425.37	760.05
425.746	773.16
426.123	772.48
426.499	755.3
426.875	775.64
427.251	778.81
427.627	792.37
428.003	748.98
428.379	800.95
428.756	823.55
429.132	827.17
429.507	849.54
429.883	867.39
430.259	847.73
430.635	854.29
431.011	867.84
431.387	905.36
431.763	881.63
432.138	885.92
432.514	921.63
432.89	885.92
433.265	938.13
433.641	918.24
434.016	960.5
434.392	964.79
434.767	985.13
435.143	950.78
435.518	984
435.894	985.81
436.269	1014.73
436.644	1018.35
437.02	1028.29
437.395	1033.72
437.77	1053.83
438.145	1070.32
438.52	1054.73
438.895	1081.85
439.271	1071.68
439.646	1092.7
440.021	1127.95
440.395	1106.03
440.77	1096.09
441.145	1114.84
441.52	1130.21
441.895	1143.32
442.27	1141.74
442.645	1131.34
443.019	1144.9
443.394	1169.53
443.769	1155.52
444.143	1165.01
444.518	1160.04
444.892	1165.24
445.267	1173.83
445.641	1187.38
446.016	1162.75
446.39	1200.04
446.764	1207.95
447.139	1191
447.513	1208.17
447.887	1197.78
448.262	1204.11
448.636	1199.14
449.01	1218.8
449.384	1243.43
449.758	1219.7
450.132	1226.48
450.506	1233.26
450.88	1259.92
451.254	1226.93
451.628	1265.8
452.002	1257.66
452.376	1264.44
452.75	1262.86
453.123	1303.31
453.497	1299.25
453.871	1296.08
454.244	1340.83
454.618	1329.75
454.992	1349.41
455.365	1375.18
455.739	1379.47
456.112	1385.57
456.486	1416.98
456.859	1389.41
457.232	1424.89
457.606	1384.44
457.979	1419.47
458.352	1440.03
458.725	1442.07
459.099	1457.66
459.472	1458.11
459.845	1512.35
460.218	1485.23
460.591	1491.1
460.964	1528.39
461.337	1529.52
461.71	1539.92
462.083	1550.09
462.456	1554.38
462.829	1560.03
463.201	1628.5
463.574	1586.92
463.947	1581.05
464.32	1641.61
464.692	1649.52
465.065	1653.81
465.438	1642.06
465.81	1672.79
466.183	1677.99
466.555	1707.82
466.928	1734.94
467.3	1716.86
467.672	1742.4
468.045	1756.63
468.417	1798.44
468.789	1793.92
469.161	1799.57
469.534	1827.37
469.906	1836.41
470.278	1870.76
470.65	1873.92
471.022	1894.03
471.394	1937.42
471.766	1915.5
472.138	1964.09
472.51	2004.09
472.882	1993.92
473.253	2020.36
473.625	2051.99
473.997	2081.15
474.369	2077.98
474.74	2103.29
475.112	2091.54
475.484	2147.81
475.855	2186.45
476.227	2175.83
476.598	2276.85
476.97	2260.8
477.341	2283.85
477.713	2310.97
478.084	2291.99
478.455	2365.43
478.827	2382.38
479.198	2450.85
479.569	2433.23
479.94	2469.16
480.311	2520.68
480.682	2540.34
481.053	2559.33
481.424	2582.83
481.795	2638.19
482.166	2652.2
482.537	2665.99
482.908	2731.52
483.279	2716.84
483.65	2770.39
484.021	2815.36
484.391	2824.18
484.762	2865.76
485.133	2859.43
485.503	2905.3
485.874	2932.65
486.244	2973.55
486.615	3026.66
486.985	3055.36
487.356	3050.16
487.726	3133.1
488.097	3152.98
488.467	3164.51
488.837	3211.29
489.207	3235.01
489.578	3245.86
489.948	3311.85
490.318	3337.61
490.688	3312.07
491.058	3333.99
491.428	3392.07
491.798	3453.09
492.168	3517.49
492.538	3452.86
492.908	3508.68
493.278	3549.13
493.648	3534.21
494.017	3576.47
494.387	3598.85
494.757	3685.17
495.126	3690.6
495.496	3664.38
495.866	3690.6
496.235	3697.15
496.605	3775.34
496.974	3704.38
497.344	3779.63
497.713	3845.39
498.082	3849.23
498.452	3853.08
498.821	3867.77
499.19	3875.22
499.559	3942.79
499.928	3963.36
500.298	3973.75
500.667	4010.59
501.036	3998.16
501.405	4031.6
501.774	4015.33
502.143	4023.47
502.512	4071.38
502.88	4076.35
503.249	4110.47
503.618	4100.3
503.987	4112.05
504.356	4158.38
504.724	4146.18
505.093	4185.05
505.462	4199.96
505.83	4197.93
506.199	4232.5
506.567	4263.69
506.936	4306.17
507.304	4313.86
507.672	4319.73
508.041	4341.88
508.409	4314.53
508.777	4359.28
509.145	4360.63
509.514	4359.73
509.882	4420.07
510.25	4406.73
510.618	4400.86
510.986	4419.39
511.354	4407.41
511.722	4530.57
512.09	4512.95
512.458	4511.59
512.826	4531.25
513.193	4538.48
513.561	4523.34
513.929	4544.36
514.297	4568.09
514.664	4624.58
515.032	4595.43
515.4	4639.5
515.767	4660.74
516.135	4659.84
516.502	4599.95
516.869	4694.86
517.237	4727.4
517.604	4700.96
517.972	4676.78
518.339	4723.56
518.706	4719.04
519.073	4704.81
519.44	4747.74
519.808	4789.1
520.175	4804.46
520.542	4839.94
520.909	4852.6
521.276	4842.66
521.643	4896.67
522.009	4897.12
522.376	4878.81
522.743	4986.61
523.11	4957.68
523.477	4974.4
523.843	5036.32
524.21	5052.82
524.577	5091.24
524.943	5102.54
525.31	5084.91
525.676	5137.79
526.043	5126.72
526.409	5100.73
526.776	5235.19
527.142	5248.75
527.508	5263.44
527.874	5305.24
528.241	5337.11
528.607	5270.44
528.973	5336.2
529.339	5347.05
529.705	5408.06
530.071	5432.47
530.437	5483.32
530.803	5498.68
531.169	5556.99
531.535	5473.15
531.901	5521.73
532.267	5548.17
532.632	5523.32
532.998	5622.3
533.364	5586.36
533.73	5683.99
534.095	5697.32
534.461	5664.55
534.826	5728.51
535.192	5746.81
535.557	5728.73
535.923	5751.78
536.288	5800.37
536.653	5794.49
537.019	5825.23
537.384	5886.47
537.749	5896.64
538.114	5896.41
538.479	5920.59
538.845	5930.08
539.21	5935.96
539.575	5976.64
539.94	6008.95
540.305	6082.85
540.67	6029.29
541.034	6030.87
541.399	6105.9
541.764	6153.81
542.129	6116.97
542.494	6198.78
542.858	6248.27
543.223	6229.74
543.587	6314.03
543.952	6290.3
544.316	6318.77
544.681	6323.75
545.045	6339.56
545.41	6410.98
545.774	6436.96
546.138	6390.19
546.503	6451.65
546.867	6433.35
547.231	6505.44
547.595	6494.36
547.959	6554.7
548.324	6601.93
548.688	6579.56
549.052	6625.66
549.416	6641.7
549.779	6685.77
550.143	6680.35
550.507	6751.31
550.871	6728.48
551.235	6696.17
551.599	6767.8
551.962	6739.78
552.326	6848.7
552.689	6883.28
553.053	6848.25
553.417	6851.87
553.78	6950.62
554.143	6910.62
554.507	6939.55
554.87	6914.69
555.234	7062.48
555.597	6984.07
555.96	6998.98
556.323	7043.73
556.686	7050.51
557.05	7107.23
557.413	7116.27
557.776	7117.17
558.139	7210.28
558.502	7198.3
558.865	7193.78
559.228	7175.93
559.59	7283.27
559.953	7257.73
560.316	7289.6
560.679	7295.47
561.041	7349.93
561.404	7369.82
561.767	7427.22
562.129	7424.51
562.492	7455.24
562.854	7479.87
563.217	7519.42
563.579	7485.3
563.941	7535.01
564.304	7625.41
564.666	7566.88
565.028	7612.75
565.39	7638.97
565.753	7631.28
566.115	7664.5
566.477	7708.12
566.839	7696.82
567.201	7801
567.563	7712.41
567.925	7879.86
568.287	7834.21
568.648	7838.06
569.01	7894.1
569.372	8017.26
569.734	7950.37
570.095	8014.78
570.457	8063.59
570.819	8041.22
571.18	8080.31
571.542	8183.13
571.903	8168.44
572.265	8179.06
572.626	8287.08
572.987	8267.42
573.349	8361.43
573.71	8439.4
574.071	8485.95
574.432	8523.69
574.794	8569.34
575.155	8614.99
575.516	8689.33
575.877	8676
576.238	8813.17
576.599	8878.48
576.96	8935.2
577.32	9065.14
577.681	9064.92
578.042	9186.72
578.403	9283.22
578.763	9349.43
579.124	9384.68
579.485	9619.93
579.845	9655.64
580.206	9719.82
580.566	9866.48
580.927	9999.36
581.287	10080.03
581.648	10258.33
582.008	10430.76
582.368	10454.94
582.728	10750.75
583.089	10866.45
583.449	10994.81
583.809	11185.31
584.169	11308.47
584.529	11469.37
584.889	11777.61
585.249	11913.66
585.609	12079.08
585.969	12325.4
586.329	12549.12
586.688	12818.04
587.048	13085.83
587.408	13226.39
587.768	13490.11
588.127	13823.21
588.487	13963.32
588.846	14394.04
589.206	14516.3
589.565	14841.26
589.925	15154.25
590.284	15458.42
590.643	15691.18
591.003	15998.29
591.362	16319.42
591.721	16668.78
592.08	16934.31
592.44	17285.49
592.799	17603.45
593.158	17793.05
593.517	18113.94
593.876	18546.02
594.235	18719.58
594.593	19090.64
594.952	19432.1
595.311	19686.11
595.67	20012.65
596.029	20498.74
596.387	20892.85
596.746	21171.49
597.104	21379.17
597.463	21647.19
597.822	22138.7
598.18	22359.93
598.538	22767.61
598.897	23126.47
599.255	23143.42
599.613	23838.09
599.972	24011.64
600.33	24329.6
600.688	24611.85
601.046	25002.35
601.404	25414.09
601.762	25610.47
602.12	25938.82
602.478	26214.52
602.836	26615.19
603.194	26793.26
603.552	27182.63
603.91	27288.39
604.268	27867.81
604.625	27860.58
604.983	28407.91
605.341	28408.36
605.698	28846.77
606.056	29256.25
606.413	29382.35
606.771	29775.33
607.128	29968.32
607.485	30159.96
607.843	30351.59
608.2	30879.48
608.557	31116.99
608.914	31234.05
609.272	31637.88
609.629	31885.11
609.986	32182.28
610.343	32195.83
610.7	32677.18
611.057	32900.67
611.414	33003.95
611.771	33259.54
612.127	33640.09
612.484	33719.41
612.841	33965.73
613.198	34005.05
613.554	34263.58
613.911	34719.16
614.267	34774.3
614.624	34811.13
614.98	35008.19
615.337	35319.14
615.693	35534.05
616.05	35652.47
616.406	35908.96
616.762	36040.93
617.118	36248.16
617.475	36150.31
617.831	36480.02
618.187	36659.22
618.543	36775.37
618.899	37245.42
619.255	37265.98
619.611	37200.67
619.967	37533.55
620.323	37919.98
620.678	37644.05
621.034	37710.49
621.39	37959.3
621.746	37988.22
622.101	38546.85
622.457	38242.91
622.812	38467.53
623.168	38667.75
623.523	38756.34
623.879	38957.92
624.234	38673.86
624.589	38844.02
624.945	39030.91
625.3	39162.88
625.655	39284.69
626.01	39248.98
626.365	39500.5
626.72	39417.57
627.075	39434.29
627.43	39610.33
627.785	39613.72
628.14	39871.56
628.495	39799.25
628.85	39827.5
629.205	39807.84
629.559	40194.04
629.914	40040.83
630.269	39984.33
630.623	39967.16
630.978	39996.08
631.332	40182.97
631.687	40359.24
632.041	40066.14
632.396	40321.27
632.75	40227.49
633.104	40243.53
633.459	40178.45
633.813	40229.75
634.167	40184.32
634.521	40184.32
634.875	40304.1
635.229	40395.39
635.583	40164.89
635.937	40320.59
636.291	40286.47
636.645	40361.04
636.999	40234.94
637.352	40334.6
637.706	40110.65
638.06	40297.99
638.413	40251.22
638.767	40182.52
639.121	40305.68
639.474	40038.11
639.828	40123.31
640.181	40171.22
640.534	40238.79
640.888	40174.16
641.241	40000.37
641.594	40194.72
641.947	40236.75
642.301	40128.28
642.654	40240.14
643.007	40109.3
643.36	40174.38
643.713	40157.43
644.066	40210.09
644.419	39937.1
644.771	39806.71
645.124	39410.79
645.477	39366.27
645.83	39178.02
646.182	39092.15
646.535	39015.54
646.888	38945.04
647.24	38881.99
647.593	39125.82
647.945	39081.3
648.298	38861.87
648.65	38875.21
649.002	38672.05
649.355	38891.48
649.707	38789.79
650.059	38997.46
650.411	39535.98
650.763	39382.99
651.115	39871.11
651.467	39736.43
651.819	39759.48
652.171	39705.24
652.523	39640.61
652.875	39679.71
653.227	39456.21
653.578	39802.41
653.93	39656.88
654.282	39456.66
654.633	39398.58
654.985	39560.61
655.337	39585.47
655.688	39531.46
656.039	39634.96
656.391	39277.91
656.742	39451.46
657.094	39384.57
657.445	39636.99
657.796	39371.24
658.147	39425.47
658.498	39527.84
658.849	39537.11
659.2	39460.95
659.551	39316.55
659.902	39452.59
660.253	39371.69
660.604	39440.62
660.955	39116.33
661.306	39271.35
661.656	39203.33
662.007	39213.95
662.358	39257.57
662.708	39221.64
663.059	39312.48
663.409	38941.87
663.76	39328.08
664.11	39308.64
664.461	39338.7
664.811	39259.15
665.161	39279.26
665.511	39187.06
665.862	39112.49
666.212	39432.93
666.562	39192.26
666.912	39164.01
667.262	39202.43
667.612	39136.22
667.962	39305.03
668.312	39101.64
668.662	39224.8
669.011	39126.73
669.361	39148.42
669.711	39090.12
670.06	39159.94
670.41	39026.16
670.76	39055.31
671.109	39139.15
671.459	38980.51
671.808	39031.13
672.157	39124.47
672.507	38924.92
672.856	38824.81
673.205	38917.69
673.554	39115.2
673.904	38871.82
674.253	39126.95
674.602	39060.29
674.951	38487.65
675.3	38227.77
675.649	38851.03
675.998	38794.98
676.346	38858.26
676.695	38957.92
677.044	38484.71
677.393	38650.35
677.741	38703.46
678.09	38578.27
678.438	38540.98
678.787	38640.86
679.135	38563.12
679.484	38400.64
679.832	38536.68
680.181	38215.56
680.529	38516.35
680.877	38239.74
681.225	38344.37
681.573	38517.02
681.922	38150.93
682.27	38082.91
682.618	38164.94
682.966	38060.76
683.314	38066.41
683.661	38007.66
684.009	37840.43
684.357	37766.08
684.705	37773.77
685.053	37760.43
685.4	37767.67
685.748	37591.85
686.095	37489.25
686.443	37475.92
686.79	37369.71
687.138	37469.14
687.485	37310.95
687.832	37231.18
688.18	37369.94
688.527	37129.49
688.874	37180.11
689.221	37049.27
689.568	36994.58
689.915	36971.53
690.262	36834.36
690.609	36813.34
690.956	36730.18
691.303	36724.08
691.65	36367.7
691.997	36411.99
692.344	36242.06
692.69	36204.77
693.037	36288.16
693.383	35986.24
693.73	36163.64
694.077	35854.27
694.423	35912.57
694.769	35797.77
695.116	35754.16
695.462	35588.06
695.808	35582.64
696.155	35591.23
696.501	35270.1
696.847	35324.11
697.193	35076.44
697.539	35348.52
697.885	34926.84
698.231	34987.63
698.577	34900.85
698.923	34739.5
699.269	34701.08
699.614	34499.5
699.96	34415.21
700.306	34471.25
700.651	34301.09
700.997	34231.94
701.342	34062.9
701.688	34100.87
702.033	34007.76
702.379	33919.4
702.724	33904.49
703.069	33944.04
703.415	33534.56
703.76	33485.52
704.105	33528
704.45	33481.22
704.795	33255.24
705.14	33243.72
705.485	33188.35
705.83	33052.53
706.175	33093.21
706.52	32963.05
706.865	32792.88
707.209	32785.2
707.554	32694.13
707.899	32805.31
708.243	32644.18
708.588	32518.31
708.932	32427.01
709.277	32366.23
709.621	32354.93
709.966	32271.54
710.31	32187.47
710.654	32005.1
710.998	32048.27
711.342	32176.85
711.687	31970.08
712.031	31823.41
712.375	31675.85
712.719	31684.66
713.063	31606.92
713.407	31763.98
713.75	31596.98
714.094	31541.16
714.438	31437.21
714.782	31411
715.125	31185.24
715.469	31450.32
715.812	31133.72
716.156	31017.56
716.499	31094.39
716.843	31119.25
717.186	30891.69
717.53	31102.53
717.873	30935.53
718.216	30980.05
718.559	30828.64
718.902	30512.94
719.246	30737.57
719.589	30603.79
719.932	30443.34
720.275	30305.94
720.617	30382.55
720.96	30242.89
721.303	30352.72
721.646	30340.29
721.989	30145.72
722.331	30213.29
722.674	30125.61
723.016	30150.24
723.359	29994.99
723.701	30047.19
724.044	29763.58
724.386	29794.09
724.729	29822.34
725.071	29721.32
725.413	29731.94
725.755	29730.59
726.097	29631.38
726.439	29426.64
726.782	29467.54
727.124	29635.68
727.465	29438.39
727.807	29371.95
728.149	29295.8
728.491	29357.26
728.833	29215.35
729.175	29287.66
729.516	29196.14
729.858	29152.98
730.199	29094.45
730.541	29006.31
730.882	29004.51
731.224	29067.1
731.565	28821.69
731.906	28826.66
732.248	28853.32
732.589	28744.4
732.93	28614.69
733.271	28663.27
733.612	28585.53
733.953	28485.42
734.294	28454.46
734.635	28453.33
734.976	28474.35
735.317	28351.19
735.658	28450.4
735.999	28367.01
736.339	28211.08
736.68	28337.4
737.021	28230.97
737.361	28094.25
737.702	28296.05
738.042	28133.12
738.383	28101.25
738.723	28219.22
739.063	27987.81
739.404	28012.22
739.744	28006.11
740.084	27892.22
740.424	27942.84
740.764	27834.59
741.104	27877.98
741.444	27767.48
741.784	27672.11
742.124	27761.37
742.464	27633.02
742.804	27642.96
743.143	27482.06
743.483	27529.06
743.823	27440.71
744.162	27401.38
744.502	27453.36
744.841	27260.14
745.181	27397.99
745.52	27289.97
745.86	27253.82
746.199	27087.27
746.538	27133.59
746.877	27229.64
747.216	27122.3
747.556	27118.68
747.895	26977.21
748.234	26916.65
748.573	26881.4
748.911	26806.6
749.25	26800.5
749.589	26653.83
749.928	26680.73
750.267	26746.71
750.605	26562.99
750.944	26670.56
751.283	26508.07
751.621	26579.03
751.96	26392.82
752.298	26354.86
752.636	26443.9
752.975	26231.02
753.313	26179.27
753.651	26236.89
753.989	26063.57
754.327	26026.73
754.666	25922.78
755.004	26005.71
755.342	26066.5
755.679	25917.13
756.017	25802.33
756.355	25756.91
756.693	25753.07
757.031	25730.69
757.368	25639.4
757.706	25551.04
758.044	25453.86
758.381	25497.48
758.719	25421.78
759.056	25383.13
759.394	25338.84
759.731	25154.66
760.068	25005.06
760.405	24970.71
760.743	24970.94
761.08	25031.73
761.417	24798.29
761.754	24833.09
762.091	24714.9
762.428	24692.3
762.765	24508.35
763.102	24608.46
763.438	24457.28
763.775	24262.94
764.112	24237.63
764.449	24312.88
764.785	24178.42
765.122	24121.92
765.458	23962.6
765.795	23956.05
766.131	23864.75
766.467	23915.15
766.804	23678.09
767.14	23527.59
767.476	23551.32
767.812	23507.48
768.148	23501.15
768.485	23351.32
768.821	23192.91
769.157	23275.39
769.492	23086.47
769.828	23096.64
770.164	22986.81
770.5	22791.11
770.836	22779.58
771.171	22705.46
771.507	22684.45
771.842	22488.29
772.178	22489.42
772.513	22415.75
772.849	22345.7
773.184	22205.14
773.519	22243.1
773.855	22154.97
774.19	21966.05
774.525	22013.96
774.86	22022.99
775.195	21868.2
775.53	21811.7
775.865	21687.41
776.2	21397.02
776.535	21303.24
776.87	21407.42
777.205	21287.65
777.539	21174.88
777.874	21261.21
778.209	21061.89
778.543	21004.04
778.878	20812.18
779.212	20852.63
779.547	20756.14
779.881	20801.56
780.215	20552.52
780.55	20619.64
780.884	20462.36
781.218	20436.14
781.552	20363.38
781.886	20311.4
782.22	20212.42
782.554	20101.91
782.888	20029.15
783.222	19869.15
783.556	19795.93
783.889	19741.92
784.223	19640.91
784.557	19605.88
784.89	19627.13
785.224	19489.05
785.557	19536.51
785.891	19438.2
786.224	19287.93
786.558	19260.13
786.891	19108.04
787.224	19018.1
787.557	19054.48
787.891	18964.54
788.224	18953.92
788.557	18908.27
788.89	18912.12
789.223	18906.24
789.556	18743.53
789.888	18595.51
790.221	18593.25
790.554	18397.55
790.887	18440.72
791.219	18230.78
791.552	18256.31
791.884	18257.44
792.217	18202.98
792.549	18120.72
792.882	17964.57
793.214	17864.01
793.546	17911.92
793.879	17744.91
794.211	17690.23
794.543	17755.54
794.875	17713.05
795.207	17781.07
795.539	17677.35
795.871	17627.86
796.203	17454.53
796.535	17410.91
796.867	17372.95
797.198	17259.5
797.53	17218.37
797.862	17238.26
798.193	17183.12
798.525	17003.92
798.856	17155.1
799.188	16881.66
799.519	16831.94
799.85	16730.48
800.182	16753.98
800.513	16802.79
800.844	16575
801.175	16736.35
801.506	16688.22
801.837	16554.66
802.168	16461.78
802.499	16539.75
802.83	16367.1
803.161	16378.17
803.491	16323.03
803.822	16308.57
804.153	16215.69
804.483	16021.57
804.814	16057.5
805.145	15970.72
805.475	15974.34
805.805	15920.78
806.136	15940.44
806.466	15892.99
806.796	15782.03
807.126	15688.02
807.457	15757.17
807.787	15642.82
808.117	15626.78
808.447	15590.62
808.777	15580
809.107	15446.44
809.436	15422.26
809.766	15401.93
810.096	15434.69
810.426	15291.42
810.755	15330.51
811.085	15327.35
811.414	15253.23
811.744	15161.25
812.073	15135.27
812.403	15085.78
812.732	14999.68
813.061	14942.73
813.39	14902.73
813.719	14870.64
814.049	14977.3
814.378	14909.74
814.707	14815.73
815.036	14763.98
815.365	14775.95
815.693	14672.91
816.022	14628.84
816.351	14576.41
816.68	14445.57
817.008	14444.89
817.337	14382.07
817.665	14433.36
817.994	14397.88
818.322	14446.47
818.651	14311.33
818.979	14312.69
819.307	14292.58
819.636	14308.17
819.964	14179.36
820.292	14331.45
820.62	14330.54
820.948	14238.57
821.276	14118.8
821.604	14170.77
821.932	14237.66
822.259	14123.54
822.587	14076.08
822.915	14133.94
823.243	14109.53
823.57	14073.6
823.898	14125.35
824.225	14037.67
824.553	14012.81
824.88	14100.04
825.207	14096.88
825.535	13952.92
825.862	14103.65
826.189	14042.87
826.516	14152.69
826.843	14128.96
827.17	14114.95
827.497	14088.74
827.824	14073.6
828.151	14067.5
828.478	14034.73
828.805	14060.04
829.131	14024.56
829.458	14033.83
829.785	13948.86
830.111	13983.66
830.438	13998.35
830.764	13953.83
831.09	14042.19
831.417	13921.96
831.743	13993.6
832.069	13976.2
832.395	13894.39
832.722	13984.56
833.048	13847.84
833.374	13919.48
833.7	13893.94
834.026	13850.1
834.351	13956.09
834.677	13884.68
835.003	13933.04
835.329	13806.26
835.654	13782.99
835.98	13761.97
836.306	13874.51
836.631	13714.06
836.956	13847.84
837.282	13785.24
837.607	13703.44
837.932	13661.63
838.258	13612.14
838.583	13606.49
838.908	13542.77
839.233	13530.56
839.558	13516.55
839.883	13476.78
840.208	13539.15
840.533	13533.05
840.858	13472.94
841.182	13507.06
841.507	13434.75
841.832	13339.61
842.156	13335.09
842.481	13313.84
842.805	13280.63
843.13	13280.85
843.454	13300.06
843.778	13179.61
844.103	13168.09
844.427	13132.61
844.751	13262.32
845.075	13094.87
845.399	13037.92
845.723	12984.81
846.047	13049.67
846.371	12898.04
846.695	12907.75
847.019	12820.98
847.343	12743.24
847.666	12688.78
847.99	12689.68
848.313	12621.21
848.637	12534.2
848.96	12453.53
849.284	12432.51
849.607	12369.69
849.931	12433.42
850.254	12274.55
850.577	12189.35
850.9	12156.81
851.223	12096.7
851.546	12110.71
851.869	11952.75
852.192	12025.97
852.515	11897.38
852.838	11832.98
853.161	11873.66
853.483	11806.09
853.806	11744.62
854.129	11735.36
854.451	11656.94
854.774	11619.43
855.096	11557.51
855.419	11574.91
855.741	11516.6
856.063	11463.05
856.385	11492.42
856.708	11412.2
857.03	11303.05
857.352	11373.1
857.674	11323.61
857.996	11254.92
858.318	11143.05
858.64	11272.99
858.961	11148.48
859.283	11145.77
859.605	11106.22
859.926	11104.86
860.248	11066.45
860.57	11049.72
860.891	11038.2
861.212	10964.3
861.534	11018.09
861.855	10935.38
862.176	10898.09
862.498	10894.47
862.819	10917.98
863.14	10854.02
863.461	10830.75
863.782	10818.77
864.103	10784.87
864.424	10849.95
864.745	10772.22
865.065	10695.61
865.386	10696.74
865.707	10648.38
866.027	10675.27
866.348	10718.43
866.668	10688.6
866.989	10641.37
867.309	10521.6
867.63	10549.85
867.95	10583.52
868.27	10456.29
868.59	10515.05
868.91	10444.77
869.23	10505.78
869.55	10358.44
869.87	10450.19
870.19	10392.34
870.51	10514.14
870.83	10421.72
871.15	10326.13
871.469	10382.85
871.789	10385.79
872.109	10337.2
872.428	10277.31
872.748	10286.35
873.067	10298.1
873.386	10280.48
873.706	10216.75
874.025	10199.12
874.344	10182.63
874.663	10167.94
874.982	10167.94
875.301	10195.28
875.62	10170.2
875.939	10077.55
876.258	10067.83
876.577	10022.63
876.896	10052.69
877.214	10027.38
877.533	9991.9
877.852	10060.37
878.17	10001.39
878.489	9931.33
878.807	10013.14
879.125	9914.61
879.444	9979.7
879.762	9940.15
880.08	9898.79
880.398	9908.96
880.716	9894.95
881.034	9758.46
881.352	9810.21
881.67	9737.67
881.988	9815.86
882.306	9676.2
882.624	9764.79
882.941	9706.03
883.259	9688.4
883.577	9716.2
883.894	9664
884.212	9606.37
884.529	9613.83
884.846	9556.43
885.164	9520.95
885.481	9494.96
885.798	9534.51
886.115	9505.81
886.432	9458.35
886.75	9447.73
887.067	9396.89
887.383	9393.95
887.7	9451.57
888.017	9301.29
888.334	9349.2
888.651	9318.7
888.967	9231.92
889.284	9242.09
889.6	9232.82
889.917	9169.1
890.233	9182.65
890.55	9137.68
890.866	9194.86
891.182	9039.15
891.498	9076.67
891.815	9027.18
892.131	9063.34
892.447	9022.21
892.763	8939.72
893.079	8895.43
893.395	8970.68
893.71	8876.22
894.026	8894.75
894.342	8808.2
894.657	8799.16
894.973	8796
895.289	8745.6
895.604	8729.33
895.92	8686.62
896.235	8691.37
896.55	8653.4
896.865	8641.65
897.181	8585.38
897.496	8590.81
897.811	8501.99
898.126	8494.54
898.441	8433.3
898.756	8458.61
899.071	8423.13
899.386	8385.61
899.7	8270.36
900.015	8342.22
900.33	8258.38
900.644	8238.27
900.959	8276.24
901.273	8209.8
901.588	8185.84
901.902	8171.38
902.216	8120.31
902.531	8064.72
902.845	8089.35
903.159	8020.65
903.473	7962.8
903.787	8000.09
904.101	7982.91
904.415	7876.7
904.729	7859.75
905.042	7826.76
905.356	7802.58
905.67	7767.55
905.984	7802.35
906.297	7789.47
906.611	7683.71
906.924	7688.91
907.237	7615.92
907.551	7619.31
907.864	7587.22
908.177	7597.38
908.491	7598.97
908.804	7511.74
909.117	7447.11
909.43	7391.97
909.743	7395.81
910.056	7365.53
910.368	7297.28
910.681	7251.18
910.994	7235.81
911.307	7248.47
911.619	7268.35
911.932	7216.83
912.244	7182.25
912.557	7183.16
912.869	7052.09
913.181	7090.51
913.494	7095.7
913.806	7036.72
914.118	6994.69
914.43	6937.06
914.742	6980.68
915.054	6890.28
915.366	6910.17
915.678	6861.36
915.99	6834.47
916.302	6790.4
916.613	6703.4
916.925	6716.96
917.236	6719.22
917.548	6731.65
917.859	6649.39
918.171	6631.76
918.482	6591.54
918.794	6576.62
919.105	6522.61
919.416	6501.82
919.727	6479.22
920.038	6493.91
920.349	6435.83
920.66	6394.48
920.971	6409.85
921.282	6355.61
921.593	6303.18
921.903	6278.32
922.214	6280.36
922.525	6276.97
922.835	6231.09
923.146	6179.34
923.456	6227.93
923.767	6154.94
924.077	6125.33
924.387	6069.29
924.697	6060.25
925.008	6047.6
925.318	6067.26
925.628	5975.96
925.938	5963.98
926.248	5926.02
926.558	5912.01
926.867	5904.77
927.177	5875.62
927.487	5806.25
927.796	5775.29
928.106	5789.52
928.416	5807.38
928.725	5774.83
929.034	5723.54
929.344	5727.38
929.653	5653.93
929.962	5664.78
930.271	5611.9
930.581	5567.16
930.89	5567.16
931.199	5499.59
931.508	5539.13
931.817	5517.21
932.125	5458.23
932.434	5489.42
932.743	5436.31
933.051	5401.74
933.36	5391.79
933.669	5340.5
933.977	5372.36
934.286	5338.69
934.594	5338.01
934.902	5224.11
935.21	5312.7
935.519	5232.93
935.827	5230.67
936.135	5185.02
936.443	5114.74
936.751	5137.11
937.059	5087.62
937.367	5062.99
937.674	5100.05
937.982	5070.45
938.29	4980.73
938.597	5040.16
938.905	4975.98
939.213	4978.02
939.52	4959.49
939.827	4903.9
940.135	4913.84
940.442	4873.61
940.749	4861.86
941.056	4898.25
941.363	4866.16
941.67	4804.01
941.977	4764.47
942.284	4754.07
942.591	4733.28
942.898	4718.82
943.205	4727.86
943.511	4667.52
943.818	4654.64
944.125	4594.98
944.431	4579.39
944.738	4612.83
945.044	4553.62
945.35	4577.35
945.657	4541.42
945.963	4516.56
946.269	4491.93
946.575	4500.07
946.881	4433.85
947.187	4441.54
947.493	4472.27
947.799	4419.62
948.105	4382.1
948.41	4391.82
948.716	4356.11
949.022	4369.67
949.327	4320.63
949.633	4268.88
949.938	4251.26
950.244	4291.71
950.549	4215.55
950.854	4207.42
951.16	4215.55
951.465	4173.29
951.77	4164.25
952.075	4109.57
952.38	4131.94
952.685	4123.8
952.99	4041.09
953.294	4092.39
953.599	4049.68
953.904	4040.42
954.209	3995.67
954.513	3998.38
954.818	3997.03
955.122	3981.89
955.426	3993.41
955.731	3959.06
956.035	3927.88
956.339	3886.07
956.643	3843.59
956.948	3863.92
957.252	3841.78
957.556	3861.21
957.86	3828.9
958.163	3806.3
958.467	3809.46
958.771	3769.24
959.075	3761.55
959.378	3760.2
959.682	3708.22
959.985	3679.3
960.289	3675.45
960.592	3646.75
960.896	3646.53
961.199	3673.42
961.502	3661.9
961.805	3632.29
962.108	3573.76
962.411	3565.63
962.714	3554.1
963.017	3560.43
963.32	3586.64
963.623	3532.41
963.926	3492.41
964.228	3500.09
964.531	3468.23
964.833	3486.76
965.136	3442.01
965.438	3421.9
965.741	3430.49
966.043	3397.5
966.345	3322.92
966.648	3369.47
966.95	3375.58
967.252	3341.45
967.554	3338.97
967.856	3318.18
968.158	3310.49
968.46	3306.42
968.761	3272.98
969.063	3277.27
969.365	3225.3
969.666	3270.27
969.968	3183.94
970.269	3184.17
970.571	3161.34
970.872	3170.38
971.174	3144.39
971.475	3133.77
971.776	3131.97
972.077	3140.55
972.378	3120.21
972.679	3084.51
972.98	3093.32
973.281	3049.03
973.582	3000.44
973.883	3031.4
974.183	3051.52
974.484	3020.1
974.785	3004.51
975.085	2973.1
975.386	2982.59
975.686	2947.11
975.986	2947.56
976.287	2953.21
976.587	2906.43
976.887	2891.75
977.187	2873.22
977.487	2890.84
977.787	2833.89
978.087	2841.58
978.387	2818.08
978.687	2860.79
978.987	2827.11
979.286	2813.1
979.586	2781.69
979.885	2797.96
980.185	2757.96
980.484	2709.6
980.784	2732.88
981.083	2740.11
981.382	2719.77
981.682	2675.48
981.981	2691.07
982.28	2687.01
982.579	2656.95
982.878	2686.1
983.177	2636.84
983.475	2665.54
983.774	2640.91
984.073	2642.94
984.372	2620.11
984.67	2556.39
984.969	2604.3
985.267	2623.05
985.566	2567.23
985.864	2560.46
986.162	2532.89
986.461	2503.28
986.759	2490.85
987.057	2488.82
987.355	2497.63
987.653	2496.5
987.951	2477.97
988.249	2447.92
988.547	2433.23
988.844	2426.9
989.142	2422.61
989.44	2406.79
989.737	2425.32
990.035	2375.6
990.332	2373.79
990.63	2346.9
990.927	2379.44
991.224	2347.58
991.521	2365.88
991.819	2314.81
992.116	2314.59
992.413	2294.7
992.71	2301.25
993.006	2307.13
993.303	2273.91
993.6	2267.81
993.897	2249.73
994.193	2247.47
994.49	2231.88
994.787	2200.69
995.083	2223.29
995.379	2177.19
995.676	2196.17
995.972	2182.84
996.268	2197.75
996.565	2164.53
996.861	2161.82
997.157	2145.32
997.453	2142.61
997.749	2095.83
998.044	2094.03
998.34	2104.87
998.636	2089.06
998.932	2109.62
999.227	2068.26
999.523	2101.48
999.818	2059.68
1000.114	2049.73
1000.409	2023.07
1000.704	2012.45
1001	1993.46
1001.295	2007.02
1001.59	1974.93
1001.885	1972.9
1002.18	1973.8
1002.475	1945.1
1002.77	1951.88
1003.065	1933.58
1003.359	1925.22
1003.654	1939
1003.949	1905.33
1004.243	1911.88
1004.538	1871.43
1004.832	1866.91
1005.127	1832.34
1005.421	1834.37
1005.715	1813.81
1006.009	1841.15
1006.304	1819.91
1006.598	1790.31
1006.892	1806.8
1007.186	1783.3
1007.48	1768.39
1007.773	1773.81
1008.067	1764.54
1008.361	1731.32
1008.655	1739.01
1008.948	1740.59
1009.242	1702.85
1009.535	1733.36
1009.829	1718.44
1010.122	1673.02
1010.415	1697.43
1010.708	1661.27
1011.001	1699.69
1011.295	1640.71
1011.588	1638.45
1011.881	1609.52
1012.173	1635.06
1012.466	1631.89
1012.759	1592.8
1013.052	1620.82
1013.344	1571.1
1013.637	1573.36
1013.93	1588.96
1014.222	1577.43
1014.514	1544.66
1014.807	1545.79
1015.099	1527.26
1015.391	1535.85
1015.683	1507.38
1015.976	1525.23
1016.268	1500.14
1016.56	1487.94
1016.851	1481.39
1017.143	1475.51
1017.435	1467.15
1017.727	1449.75
1018.018	1449.3
1018.31	1450.65
1018.602	1395.51
1018.893	1431.67
1019.185	1406.14
1019.476	1366.14
1019.767	1397.32
1020.058	1356.42
1020.35	1371.56
1020.641	1359.58
1020.932	1346.25
1021.223	1349.41
1021.514	1343.31
1021.804	1341.73
1022.095	1331.56
1022.386	1317.32
1022.677	1319.36
1022.967	1290.43
1023.258	1283.2
1023.548	1269.42
1023.839	1301.73
1024.129	1254.73
1024.419	1242.52
1024.709	1235.97
1025	1238.46
1025.29	1236.2
1025.58	1221.51
1025.87	1172.92
1026.16	1196.88
1026.449	1229.87
1026.739	1185.12
1027.029	1190.32
1027.319	1184.9
1027.608	1174.73
1027.898	1159.81
1028.187	1163.88
1028.477	1142.87
1028.766	1140.15
1029.055	1127.95
1029.344	1134.05
1029.634	1124.33
1029.923	1098.12
1030.212	1105.13
1030.501	1118.69
1030.79	1112.13
1031.078	1080.95
1031.367	1058.12
1031.656	1071.23
1031.945	1069.42
1032.233	1047.73
1032.522	1054.51
1032.81	1052.92
1033.099	1038.24
1033.387	1009.54
1033.675	1009.99
1033.963	1019.7
1034.251	1009.08
1034.54	1002.76
1034.828	994.17
1035.116	991.91
1035.403	982.87
1035.691	984.68
1035.979	983.55
1036.267	964.11
1036.554	965.02
1036.842	949.88
1037.129	955.98
1037.417	935.41
1037.704	946.94
1037.992	927.73
1038.279	927.73
1038.566	909.88
1038.853	909.88
1039.14	909.88
