Data from hue_330_FLMS001491_58.txt Node
Date: Mon Feb 06 15:45:36 GMT 2017
User: dcchb
Spectrometer: FLMS00149
Trigger mode: 0
Integration Time (sec): 2.000000E-2
Scans to average: 10
Electric dark correction enabled: true
Nonlinearity correction enabled: false
Boxcar width: 0
XAxis mode: Wavelengths
Number of Pixels in Spectrum: 2048
>>>>>Begin Spectral Data<<<<<
341.393	-19.34
341.776	-19.34
342.16	-19.34
342.543	-58.43
342.927	-71.99
343.31	-62.95
343.693	-75.38
344.077	-63.85
344.46	-60.01
344.843	-46
345.226	-54.14
345.61	-33.57
345.993	-16.17
346.376	-1.48
346.759	15.24
347.142	24.05
347.525	36.93
347.908	54.79
348.291	88.46
348.674	81
349.057	113.09
349.44	132.98
349.823	134.56
350.206	148.34
350.588	173.43
350.971	201.9
351.354	217.72
351.737	211.62
352.119	224.5
352.502	255.46
352.884	265.63
353.267	280.77
353.65	257.95
354.032	285.52
354.414	308.79
354.797	304.95
355.179	298.85
355.562	302.92
355.944	309.7
356.326	318.06
356.709	322.12
357.091	316.7
357.473	361.67
357.855	330.26
358.238	332.07
358.62	311.5
359.002	347.43
359.384	340.88
359.766	324.84
360.148	336.59
360.53	334.1
360.912	336.59
361.294	328.45
361.676	323.93
362.057	319.41
362.439	329.58
362.821	326.42
363.203	316.93
363.584	313.54
363.966	292.97
364.348	322.12
364.729	315.34
365.111	317.15
365.493	322.58
365.874	307.66
366.256	316.47
366.637	296.59
367.019	295.68
367.4	308.79
367.781	301.33
368.163	290.94
368.544	301.56
368.925	291.62
369.306	328.23
369.688	289.81
370.069	289.58
370.45	306.53
370.831	304.5
371.212	303.59
371.593	299.53
371.974	304.5
372.355	315.12
372.736	290.03
373.117	309.24
373.498	310.83
373.879	317.38
374.26	316.93
374.641	294.1
375.021	311.73
375.402	302.24
375.783	318.73
376.163	307.66
376.544	324.84
376.925	328.68
377.305	312.63
377.686	330.26
378.066	326.87
378.447	330.71
378.827	306.53
379.208	310.83
379.588	339.98
379.968	342.46
380.349	335.01
380.729	328
381.109	306.08
381.489	337.94
381.87	341.11
382.25	321.22
382.63	342.69
383.01	314.21
383.39	345.17
383.77	328.9
384.15	345.63
384.53	333.2
384.91	332.29
385.29	345.4
385.67	342.24
386.049	345.85
386.429	359.41
386.809	372.52
387.189	362.8
387.568	355.57
387.948	351.05
388.328	350.15
388.707	354.67
389.087	350.15
389.466	346.08
389.846	349.69
390.225	344.04
390.605	356.02
390.984	356.93
391.363	340.2
391.743	376.13
392.122	343.82
392.501	370.48
392.881	357.38
393.26	356.02
393.639	352.86
394.018	387.43
394.397	378.39
394.776	373.87
395.155	363.93
395.534	370.03
395.913	371.84
396.292	376.81
396.671	381.56
397.05	378.85
397.429	394.21
397.808	368
398.186	359.41
398.565	377.72
398.944	377.49
399.323	399.64
399.701	399.86
400.08	404.83
400.458	391.05
400.837	418.62
401.215	399.86
401.594	377.04
401.972	409.58
402.351	389.47
402.729	418.39
403.107	404.38
403.486	394.66
403.864	413.87
404.242	418.39
404.62	403.48
404.999	408.9
405.377	408.9
405.755	421.56
406.133	420.43
406.511	415.46
406.889	427.43
407.267	446.64
407.645	460.2
408.023	410.03
408.401	439.18
408.779	462.01
409.156	463.59
409.534	454.32
409.912	453.87
410.29	477.83
410.667	468.34
411.045	455
411.422	482.57
411.8	464.49
412.178	499.97
412.555	503.59
412.933	496.58
413.31	520.31
413.687	520.31
414.065	508.11
414.442	523.7
414.819	557.6
415.197	530.71
415.574	549.24
415.951	549.24
416.328	567.09
416.705	561.67
417.082	561.44
417.46	574.32
417.837	591.04
418.214	569.58
418.591	582.91
418.967	607.09
419.344	617.26
419.721	604.15
420.098	590.14
420.475	616.35
420.852	602.79
421.228	618.84
421.605	623.81
421.982	650.48
422.358	639.4
422.735	629.01
423.111	663.36
423.488	660.42
423.864	646.64
424.241	674.21
424.617	672.4
424.994	685.96
425.37	695.67
425.746	703.81
426.123	699.29
426.499	683.02
426.875	713.75
427.251	707.2
427.627	739.29
428.003	746.29
428.379	747.88
428.756	730.02
429.132	769.8
429.507	732.96
429.883	779.06
430.259	755.56
430.635	799.4
431.011	805.28
431.387	805.73
431.763	826.07
432.138	797.82
432.514	831.72
432.89	813.86
433.265	848.89
433.641	863.58
434.016	849.57
434.392	865.39
434.767	916.23
435.143	902.22
435.518	902.45
435.894	923.24
436.269	930.24
436.644	922.11
437.02	924.59
437.395	924.37
437.77	958.27
438.145	967.98
438.52	984.71
438.895	979.96
439.271	972.28
439.646	982.22
440.021	981.32
440.395	1005.5
440.77	999.17
441.145	994.42
441.52	1041.43
441.895	1024.48
442.27	1037.81
442.645	1010.02
443.019	1006.85
443.394	1049.79
443.769	1047.3
444.143	1040.3
444.518	1068.09
444.892	1068.77
445.267	1061.77
445.641	1083.01
446.016	1090.69
446.39	1091.14
446.764	1077.36
447.139	1130.01
447.513	1087.75
447.887	1096.79
448.262	1119.17
448.636	1066.96
449.01	1121.65
449.384	1144.93
449.758	1145.61
450.132	1131.37
450.506	1153.51
450.88	1183.57
451.254	1132.72
451.628	1180.41
452.002	1188.09
452.376	1169.33
452.75	1196.68
453.123	1214.76
453.497	1194.87
453.871	1183.34
454.244	1205.72
454.618	1238.94
454.992	1249.11
455.365	1271.48
455.739	1263.12
456.112	1296.34
456.486	1248.88
456.859	1299.05
457.232	1315.77
457.606	1304.92
457.979	1354.19
458.352	1316.9
458.725	1348.31
459.099	1368.65
459.472	1384.92
459.845	1369.78
460.218	1374.98
460.591	1393.06
460.964	1394.86
461.337	1416.56
461.71	1449.78
462.083	1464.24
462.456	1463.56
462.829	1443
463.201	1479.16
463.574	1504.01
463.947	1449.78
464.32	1516.22
464.692	1538.59
465.065	1569.55
465.438	1557.12
465.81	1573.39
466.183	1595.09
466.555	1623.78
466.928	1637.57
467.3	1626.27
467.672	1644.12
468.045	1688.87
468.417	1677.79
468.789	1696.78
469.161	1720.51
469.534	1764.57
469.906	1753.05
470.278	1786.49
470.65	1783.55
471.022	1817.45
471.394	1832.82
471.766	1853.84
472.138	1864.46
472.51	1913.27
472.882	1937.45
473.253	1915.08
473.625	1965.92
473.997	1976.09
474.369	1988.97
474.74	2012.02
475.112	2056.54
475.484	2063.32
475.855	2090.89
476.227	2111.91
476.598	2158.69
476.97	2166.6
477.341	2233.26
477.713	2226.93
478.084	2240.27
478.455	2321.85
478.827	2341.28
479.198	2406.14
479.569	2377.21
479.94	2416.98
480.311	2450.2
480.682	2515.74
481.053	2574.49
481.424	2557.32
481.795	2621.72
482.166	2632.57
482.537	2652.46
482.908	2679.35
483.279	2688.39
483.65	2744.66
484.021	2808.39
484.391	2852.68
484.762	2855.62
485.133	2858.55
485.503	2914.6
485.874	2979.91
486.244	2985.33
486.615	3046.8
486.985	3033.69
487.356	3106.91
487.726	3147.36
488.097	3177.64
488.467	3185.33
488.837	3240.01
489.207	3255.38
489.578	3335.6
489.948	3291.54
490.318	3338.09
490.688	3364.3
491.058	3436.62
491.428	3427.58
491.798	3523.62
492.168	3553.68
492.538	3564.52
492.908	3561.81
493.278	3659.66
493.648	3615.82
494.017	3698.53
494.387	3723.62
494.757	3732.2
495.126	3759.1
495.496	3766.33
495.866	3775.14
496.235	3858.75
496.605	3873.67
496.974	3899.21
497.344	3936.27
497.713	3894.46
498.082	3906.89
498.452	3968.36
498.821	4000.67
499.19	4016.26
499.559	4045.19
499.928	4072.99
500.298	4105.75
500.667	4112.53
501.036	4124.06
501.405	4148.46
501.774	4110.95
502.143	4159.31
502.512	4195.47
502.88	4218.97
503.249	4243.15
503.618	4251.51
503.987	4220.1
504.356	4287.67
504.724	4260.1
505.093	4330.61
505.462	4312.53
505.83	4321.34
506.199	4376.48
506.567	4387.78
506.936	4393.66
507.304	4371.51
507.672	4450.6
508.041	4470.49
508.409	4497.61
508.777	4480.89
509.145	4494.44
509.514	4521.79
509.882	4528.57
510.25	4577.15
510.618	4599.75
510.986	4603.37
511.354	4605.4
511.722	4674.33
512.09	4678.62
512.458	4667.32
512.826	4755.68
513.193	4748.67
513.561	4756.13
513.929	4785.28
514.297	4818.73
514.664	4787.09
515.032	4812.18
515.4	4870.03
515.767	4857.37
516.135	4840.65
516.502	4816.7
516.869	4928.33
517.237	4970.82
517.604	4884.72
517.972	4938.95
518.339	4916.13
518.706	4928.1
519.073	4957.93
519.44	4966.07
519.808	5030.48
520.175	4969.69
520.542	5041.32
520.909	5091.04
521.276	5051.27
521.643	5121.55
522.009	5120.19
522.376	5130.36
522.743	5168.55
523.11	5206.06
523.477	5236.35
523.843	5222.79
524.21	5294.87
524.577	5334.65
524.943	5350.92
525.31	5364.03
525.676	5418.49
526.043	5452.84
526.409	5424.59
526.776	5489.67
527.142	5469.33
527.508	5524.7
527.874	5549.11
528.241	5561.08
528.607	5580.74
528.973	5638.82
529.339	5663
529.705	5675.2
530.071	5711.36
530.437	5721.98
530.803	5792.04
531.169	5818.7
531.535	5782.32
531.901	5769.89
532.267	5845.59
532.632	5898.93
532.998	5896.22
533.364	5986.38
533.73	5971.69
534.095	5970.34
534.461	6017.12
534.826	6062.09
535.192	6070.22
535.557	6117.23
535.923	6101.86
536.288	6106.6
536.653	6192.03
537.019	6146.6
537.384	6212.59
537.749	6256.21
538.114	6203.55
538.479	6217.11
538.845	6305.24
539.21	6290.78
539.575	6330.55
539.94	6372.36
540.305	6392.47
540.67	6401.74
541.034	6366.71
541.399	6421.85
541.764	6529.19
542.129	6489.42
542.494	6584.78
542.858	6606.93
543.223	6584.33
543.587	6639.7
543.952	6619.13
544.316	6689.87
544.681	6679.92
545.045	6648.06
545.41	6783.88
545.774	6742.07
546.138	6735.29
546.503	6789.07
546.867	6817.77
547.231	6861.84
547.595	6889.41
547.959	6881.05
548.324	6917.88
548.688	6974.6
549.052	6982.29
549.416	6975.28
549.779	6996.53
550.143	7068.16
550.507	7040.14
550.871	7142.06
551.235	7066.58
551.599	7103.87
551.962	7147.03
552.326	7158.55
552.689	7243.75
553.053	7240.59
553.417	7229.29
553.78	7326.69
554.143	7268.16
554.507	7302.28
554.87	7347.02
555.234	7414.59
555.597	7362.17
555.96	7372.56
556.323	7433.12
556.686	7428.83
557.05	7479.68
557.413	7483.29
557.776	7546.34
558.139	7564.65
558.502	7544.08
558.865	7612.55
559.228	7638.09
559.59	7723.74
559.953	7641.48
560.316	7698.65
560.679	7729.84
561.041	7777.07
561.404	7833.79
561.767	7860.46
562.129	7833.11
562.492	7909.27
562.854	7881.02
563.217	7895.03
563.579	7933.68
563.941	7951.3
564.304	7989.04
564.666	7973
565.028	8046.44
565.39	8061.36
565.753	8109.72
566.115	8119.66
566.477	8132.54
566.839	8188.58
567.201	8239.66
567.563	8143.39
567.925	8248.47
568.287	8282.82
568.648	8359.88
569.01	8358.75
569.372	8390.84
569.734	8398.07
570.095	8485.3
570.457	8516.49
570.819	8599.87
571.18	8548.57
571.542	8636.26
571.903	8678.51
572.265	8679.64
572.626	8779.98
572.987	8799.19
573.349	8826.08
573.71	8851.62
574.071	8912.86
574.432	8994.44
574.794	9058.62
575.155	9086.19
575.516	9205.73
575.877	9253.41
576.238	9248.44
576.599	9328.22
576.96	9417.7
577.32	9502.67
577.681	9544.93
578.042	9630.13
578.403	9767.98
578.763	9747.41
579.124	9820.41
579.485	9945.6
579.845	10157.57
580.206	10173.39
580.566	10302.65
580.927	10396.21
581.287	10574.28
581.648	10677.56
582.008	10827.61
582.368	11021.05
582.728	11101.28
583.089	11260.59
583.449	11335.17
583.809	11550.53
584.169	11711.43
584.529	11914.36
584.889	12236.39
585.249	12246.33
585.609	12390.51
585.969	12629.37
586.329	12873.88
586.688	13013.09
587.048	13357.04
587.408	13451.95
587.768	13745.5
588.127	13873.18
588.487	14101.87
588.846	14558.36
589.206	14604.01
589.565	14890.78
589.925	15237.44
590.284	15434.5
590.643	15745.9
591.003	16043.97
591.362	16319.67
591.721	16498.2
592.08	16748.36
592.44	17178.18
592.799	17398.74
593.158	17628.79
593.517	17843.92
593.876	18331.59
594.235	18523.68
594.593	18886.61
594.952	19058.58
595.311	19470.32
595.67	19773.82
596.029	20062.4
596.387	20457.87
596.746	20633.91
597.104	20877.74
597.463	21128.81
597.822	21578.06
598.18	21701.45
598.538	22046.52
598.897	22490.13
599.255	22481.54
599.613	23143.67
599.972	23160.85
600.33	23610.1
600.688	23773.26
601.046	24237.2
601.404	24483.07
601.762	24750.18
602.12	25194.92
602.478	25389.26
602.836	25675.58
603.194	25805.75
603.552	26045.52
603.91	26319.41
604.268	26739.73
604.625	26908.32
604.983	27216.56
605.341	27356.89
605.698	27598.02
606.056	28041.62
606.413	28186.7
606.771	28469.86
607.128	28750.98
607.485	28859.68
607.843	29098.99
608.2	29408.14
608.557	29692.43
608.914	29852.65
609.272	30271.17
609.629	30348.91
609.986	30700.31
610.343	30689.01
610.7	31079.73
611.057	31351.82
611.414	31450.57
611.771	31808.3
612.127	32018.01
612.484	32200.38
612.841	32356.31
613.198	32472.69
613.554	32705.68
613.911	33019.57
614.267	33185.67
614.624	33278.77
614.98	33394.25
615.337	33879.43
615.693	33897.51
616.05	34020.45
616.406	34196.04
616.762	34230.84
617.118	34394
617.475	34576.14
617.831	34881.22
618.187	34878.96
618.543	35142.23
618.899	35399.17
619.255	35360.53
619.611	35428.32
619.967	35638.94
620.323	35872.15
620.678	35943.33
621.034	36052.48
621.39	36103.56
621.746	36043.22
622.101	36684.56
622.457	36419.03
622.812	36635.52
623.168	36779.7
623.523	36844.33
623.879	36932.69
624.234	36844.55
624.589	37009.97
624.945	37172.68
625.3	37361.38
625.655	37336.52
626.01	37438.66
626.365	37493.58
626.72	37430.98
627.075	37606.57
627.43	37633.91
627.785	37691.09
628.14	37750.97
628.495	37917.52
628.85	37801.14
629.205	37849.95
629.559	38176.27
629.914	37974.92
630.269	38099.44
630.623	38170.17
630.978	38117.29
631.332	38428.92
631.687	38328.36
632.041	38212.2
632.396	38407.9
632.75	38268.92
633.104	38482.93
633.459	38304.85
633.813	38381.69
634.167	38377.17
634.521	38299.2
634.875	38418.3
635.229	38439.54
635.583	38273.22
635.937	38435.02
636.291	38265.08
636.645	38459.43
636.999	38357.06
637.352	38472.08
637.706	38319.32
638.06	38337.62
638.413	38269.15
638.767	38303.27
639.121	38455.13
639.474	38091.3
639.828	38347.57
640.181	38347.34
640.534	38293.56
640.888	38226.89
641.241	38114.35
641.594	38193.22
641.947	38303.72
642.301	38228.92
642.654	38312.76
643.007	38176.27
643.36	38314.8
643.713	38289.71
644.066	38417.62
644.419	38150.51
644.771	37867.35
645.124	37647.02
645.477	37612.67
645.83	37402.51
646.182	37340.59
646.535	37100.82
646.888	37350.53
647.24	36978.34
647.593	37275.05
647.945	37186.69
648.298	37092.68
648.65	36885.46
649.002	36957.09
649.355	37190.08
649.707	37008.84
650.059	37189.86
650.411	37583.07
650.763	37535.38
651.115	38011.75
651.467	37856.73
651.819	37960.68
652.171	37941.93
652.523	37856.5
652.875	37690.41
653.227	37580.13
653.578	37850.63
653.93	37813.79
654.282	37602.95
654.633	37506.91
654.985	37621.03
655.337	37666.68
655.688	37577.64
656.039	37869.84
656.391	37375.84
656.742	37489.73
657.094	37689.73
657.445	37773.57
657.796	37630.75
658.147	37556.4
658.498	37677.75
658.849	37525.21
659.2	37543.74
659.551	37438.21
659.902	37547.36
660.253	37446.57
660.604	37518.21
660.955	37312.79
661.306	37515.95
661.656	37430.08
662.007	37503.07
662.358	37499.9
662.708	37571.77
663.059	37417.42
663.409	37278.89
663.76	37500.81
664.11	37432.11
664.461	37536.96
664.811	37517.53
665.161	37482.5
665.511	37382.62
665.862	37459.45
666.212	37483.41
666.562	37446.12
666.912	37503.29
667.262	37451.77
667.612	37338.33
667.962	37605.44
668.312	37295.84
668.662	37482.5
669.011	37342.17
669.361	37240.25
669.711	37351.89
670.06	37382.39
670.41	37296.07
670.76	37209.74
671.109	37285.45
671.459	37313.92
671.808	37233.7
672.157	37457.65
672.507	37048.62
672.856	37192.12
673.205	37160.03
673.554	37133.81
673.904	37011.56
674.253	37194.83
674.602	37171.1
674.951	36530.21
675.3	36559.36
675.649	37177.43
675.998	37094.72
676.346	36975.4
676.695	37141.04
677.044	36855.18
677.393	37077.99
677.741	36919.35
678.09	36991.44
678.438	36821.05
678.787	36929.98
679.135	37009.07
679.484	36719.13
679.832	36779.24
680.181	36612.02
680.529	36782.86
680.877	36631.68
681.225	36608.18
681.573	36781.28
681.922	36496.77
682.27	36451.8
682.618	36345.81
682.966	36219.71
683.314	36465.58
683.661	36415.41
684.009	36146.72
684.357	36077.57
684.705	36053.39
685.053	36033.95
685.4	36144.01
685.748	35919.38
686.095	35919.38
686.443	35750.35
686.79	35740.18
687.138	35852.04
687.485	35843
687.832	35646.39
688.18	35586.96
688.527	35577.69
688.874	35497.7
689.221	35409.56
689.568	35404.59
689.915	35195.56
690.262	35217.03
690.609	35154.88
690.956	34959.41
691.303	34885.51
691.65	34801.67
691.997	34894.32
692.344	34603.93
692.69	34533.65
693.037	34512.64
693.383	34430.61
693.73	34520.1
694.077	34269.03
694.423	34215.02
694.769	34131.18
695.116	34093.67
695.462	33999.88
695.808	33880.11
696.155	33941.35
696.501	33805.31
696.847	33773.45
697.193	33524.64
697.539	33696.61
697.885	33417.07
698.231	33264.08
698.577	33280.81
698.923	33161.94
699.269	33035.84
699.614	32948.84
699.96	32917.65
700.306	32820.93
700.651	32744.77
700.997	32691.44
701.342	32712.91
701.688	32561.05
702.033	32476.53
702.379	32470.88
702.724	32402.41
703.069	32450.77
703.415	32020.73
703.76	32172.36
704.105	32035.64
704.45	32060.72
704.795	31909.77
705.14	31660.96
705.485	31750
705.83	31616.67
706.175	31706.38
706.52	31575.99
706.865	31454.64
707.209	31368.09
707.554	31316.56
707.899	31322.44
708.243	31131.26
708.588	31084.71
708.932	30912.28
709.277	30967.19
709.621	30804.03
709.966	30730.36
710.31	30793.87
710.654	30592.29
710.998	30600.42
711.342	30641.1
711.687	30406.76
712.031	30419.41
712.375	30393.42
712.719	30341
713.063	30234.11
713.407	30407.66
713.75	30269.81
714.094	30130.83
714.438	29996.82
714.782	30131.06
715.125	29846.55
715.469	29889.71
715.812	29711.41
716.156	29633.67
716.499	29633.9
716.843	29654.46
717.186	29556.84
717.53	29505.54
717.873	29507.35
718.216	29415.14
718.559	29414.24
718.902	29274.81
719.246	29350.97
719.589	29106.45
719.932	29025.32
720.275	29093.8
720.617	29045.66
720.96	28933.8
721.303	29009.28
721.646	28982.61
721.989	28738.78
722.331	28942.16
722.674	28836.4
723.016	28756.86
723.359	28798.66
723.701	28719.8
724.044	28543.53
724.386	28367.26
724.729	28504.21
725.071	28332.46
725.413	28372.46
725.755	28433.93
726.097	28265.12
726.439	28201.17
726.782	28176.99
727.124	28285.46
727.465	28143.54
727.807	28096.54
728.149	28054.28
728.491	27952.13
728.833	28104.67
729.175	27978.35
729.516	27835.07
729.858	27871.23
730.199	27859.03
730.541	27809.54
730.882	27748.75
731.224	27823.1
731.565	27619.71
731.906	27643.89
732.248	27657.22
732.589	27475.99
732.93	27277.8
733.271	27429.21
733.612	27369.77
733.953	27471.01
734.294	27382.2
734.635	27266.73
734.976	27201.42
735.317	27205.71
735.658	27080.29
735.999	26996.68
736.339	27053.4
736.68	27061.99
737.021	26948.09
737.361	26895.89
737.702	26982.89
738.042	26928.43
738.383	26839.62
738.723	26844.36
739.063	26641.66
739.404	26814.31
739.744	26620.87
740.084	26493.41
740.424	26500.19
740.764	26504.03
741.104	26607.76
741.444	26469.23
741.784	26292.29
742.124	26456.8
742.464	26429.01
742.804	26389.69
743.143	26240.99
743.483	26379.52
743.823	26173.42
744.162	26124.84
744.502	26224.27
744.841	26098.62
745.181	26137.26
745.52	26004.16
745.86	26097.27
746.199	26124.38
746.538	26029.47
746.877	26002.58
747.216	25799.87
747.556	25930.72
747.895	25884.16
748.234	25760.55
748.573	25795.13
748.911	25801.23
749.25	25667.45
749.589	25439.43
749.928	25579.99
750.267	25623.61
750.605	25414.35
750.944	25407.11
751.283	25286.89
751.621	25456.6
751.96	25243.95
752.298	25259.32
752.636	25147.69
752.975	25106.78
753.313	25028.59
753.651	25152.66
753.989	24917.41
754.327	25012.55
754.666	24830.18
755.004	24749.05
755.342	24897.52
755.679	24818.43
756.017	24629.06
756.355	24699.34
756.693	24585.67
757.031	24608.27
757.368	24481.49
757.706	24479.91
758.044	24440.81
758.381	24377.54
758.719	24380.02
759.056	24307.93
759.394	24182.97
759.731	23978.68
760.068	23922.86
760.405	23926.93
760.743	23902.97
761.08	23872.92
761.417	23691.23
761.754	23833.37
762.091	23755.63
762.428	23569.42
762.765	23492.59
763.102	23505.47
763.438	23297.34
763.775	23189.77
764.112	23346.38
764.449	23296.66
764.785	23145.25
765.122	23048.08
765.458	22928.08
765.795	22960.4
766.131	22833.4
766.467	22695.55
766.804	22694.42
767.14	22606.06
767.476	22585.72
767.812	22541.65
768.148	22467.53
768.485	22314.31
768.821	22117.26
769.157	22200.19
769.492	22115
769.828	22027.77
770.164	21963.36
770.5	21864.16
770.836	21773.99
771.171	21798.4
771.507	21644.73
771.842	21524.28
772.178	21522.92
772.513	21555.24
772.849	21311.4
773.184	21288.58
773.519	21375.81
773.855	21124.29
774.19	21087.23
774.525	20968.14
774.86	20978.98
775.195	20858.76
775.53	20778.08
775.865	20676.84
776.2	20632.32
776.535	20468.04
776.87	20322.28
777.205	20357.08
777.539	20354.37
777.874	20346.23
778.209	20120.47
778.543	19978.33
778.878	19927.48
779.212	19984.88
779.547	19823.53
779.881	19823.31
780.215	19748.28
780.55	19695.63
780.884	19572.47
781.218	19570.66
781.552	19659.47
781.886	19487.95
782.22	19390.1
782.554	19272.59
782.888	19133.38
783.222	19059.26
783.556	18921.18
783.889	18913.5
784.223	18852.26
784.557	18819.04
784.89	18790.79
785.224	18715.99
785.557	18612.72
785.891	18529.33
786.224	18422.89
786.558	18518.03
786.891	18321.2
787.224	18251.14
787.557	18253.4
787.891	18193.52
788.224	18240.52
788.557	18179.51
788.89	18021.32
789.223	18059.74
789.556	17897.71
789.888	17781.78
790.221	17747.65
790.554	17628.56
790.887	17681.22
791.219	17546.98
791.552	17499.3
791.884	17578.39
792.217	17367.55
792.549	17339.98
792.882	17236.93
793.214	17169.14
793.546	17173.66
793.879	17123.49
794.211	16989.26
794.543	17064.06
794.875	16888.92
795.207	17010.5
795.539	16932.31
795.871	16731.64
796.203	16760.34
796.535	16617.52
796.867	16512.43
797.198	16631.07
797.53	16535.48
797.862	16388.59
798.193	16404.87
798.525	16307.47
798.856	16291.2
799.188	16260.69
799.519	16063.41
799.85	16089.39
800.182	15990.86
800.513	16066.57
800.844	15908.38
801.175	15912
801.506	15977.98
801.837	15750.42
802.168	15744.77
802.499	15722.62
802.83	15667.71
803.161	15601.95
803.491	15610.31
803.822	15567.83
804.153	15479.01
804.483	15413.48
804.814	15327.38
805.145	15339.36
805.475	15305.69
805.805	15270.43
806.136	15232.92
806.466	15119.25
806.796	15122.41
807.126	14966.26
807.457	14979.14
807.787	14999.93
808.117	14966.71
808.447	14871.35
808.777	14841.74
809.107	14908.41
809.436	14816.88
809.766	14773.04
810.096	14686.27
810.426	14691.24
810.755	14706.83
811.085	14595.87
811.414	14566.5
811.744	14450.11
812.073	14408.76
812.403	14422.77
812.732	14364.24
813.061	14271.81
813.39	14246.28
813.719	14223.68
814.049	14298.25
814.378	14249.67
814.707	14202.66
815.036	14176.9
815.365	14150.69
815.693	13938.04
816.022	14061.2
816.351	13936.91
816.68	13886.51
817.008	13870.92
817.337	13728.33
817.665	13851.94
817.994	13787.53
818.322	13723.58
818.651	13707.76
818.979	13683.81
819.307	13689.23
819.636	13633.19
819.964	13465.51
820.292	13619.18
820.62	13559.29
820.948	13535.56
821.276	13593.64
821.604	13511.83
821.932	13528.56
822.259	13549.35
822.587	13583.92
822.915	13467.99
823.243	13540.99
823.57	13500.76
823.898	13477.26
824.225	13415.34
824.553	13487.88
824.88	13452.17
825.207	13500.53
825.535	13418.73
825.862	13482.23
826.189	13403.81
826.516	13487.2
826.843	13484.49
827.17	13486.3
827.497	13554.09
827.824	13477.03
828.151	13436.58
828.478	13453.08
828.805	13516.58
829.131	13458.05
829.458	13396.36
829.785	13386.19
830.111	13396.81
830.438	13517.71
830.764	13407.2
831.09	13425.51
831.417	13353.87
831.743	13446.75
832.069	13350.48
832.395	13274.55
832.722	13349.35
833.048	13342.35
833.374	13327.66
833.7	13264.61
834.026	13340.31
834.351	13306.64
834.677	13352.06
835.003	13323.36
835.329	13372.85
835.654	13215.8
835.98	13134.89
836.306	13180.54
836.631	13211.73
836.956	13090.15
837.282	13176.48
837.607	13117.27
837.932	13057.61
838.258	13102.35
838.583	13029.13
838.908	12988.91
839.233	13001.79
839.558	12936.93
839.883	12964.05
840.208	12934.45
840.533	12804.51
840.858	12905.3
841.182	12851.51
841.507	12866.88
841.832	12816.71
842.156	12772.87
842.481	12759.76
842.805	12736.26
843.13	12699.43
843.454	12625.98
843.778	12694.91
844.103	12691.29
844.427	12608.13
844.751	12552.54
845.075	12499.66
845.399	12498.3
845.723	12481.58
846.047	12434.57
846.371	12349.83
846.695	12310.74
847.019	12266.89
847.343	12159.33
847.666	12150.29
847.99	11972.67
848.313	12013.12
848.637	12041.36
848.96	11981.7
849.284	11983.51
849.607	11829.84
849.931	11783.29
850.254	11731.54
850.577	11693.35
850.9	11617.19
851.223	11620.58
851.546	11544.43
851.869	11482.28
852.192	11481.38
852.515	11325
852.838	11359.8
853.161	11378.78
853.483	11340.14
853.806	11231.44
854.129	11245.45
854.451	11159.81
854.774	11058.79
855.096	11033.03
855.419	11006.14
855.741	11084.1
856.063	10910.09
856.385	10901.73
856.708	10900.15
857.03	10855.86
857.352	10834.39
857.674	10885.24
857.996	10769.76
858.318	10747.61
858.64	10794.62
858.961	10694.28
859.283	10673.72
859.605	10631.91
859.926	10677.78
860.248	10595.98
860.57	10521.18
860.891	10637.56
861.212	10455.87
861.534	10470.33
861.855	10517.34
862.176	10492.93
862.498	10448.19
862.819	10459.03
863.14	10413.38
863.461	10368.64
863.782	10309.43
864.103	10352.37
864.424	10290
864.745	10332.03
865.065	10241.41
865.386	10331.58
865.707	10258.13
866.027	10270.56
866.348	10237.34
866.668	10196.89
866.989	10174.97
867.309	10092.49
867.63	10222.2
867.95	10139.95
868.27	10035.54
868.59	10063.34
868.91	10044.58
869.23	9954.19
869.55	10013.39
869.87	10121.87
870.19	10002.55
870.51	10041.87
870.83	9988.08
871.15	9900.4
871.469	9962.32
871.789	9947.41
872.109	9974.3
872.428	9928.43
872.748	9838.71
873.067	9850.91
873.386	9830.57
873.706	9798.03
874.025	9846.85
874.344	9748.32
874.663	9790.12
874.982	9757.81
875.301	9742.22
875.62	9704.93
875.939	9707.87
876.258	9676.23
876.577	9655.21
876.896	9637.36
877.214	9621.54
877.533	9603.91
877.852	9612.5
878.17	9624.7
878.489	9657.25
878.807	9536.57
879.125	9570.69
879.444	9563.24
879.762	9567.08
880.08	9494.99
880.398	9518.72
880.716	9457.48
881.034	9440.3
881.352	9386.07
881.67	9372.28
881.988	9393.3
882.306	9400.76
882.624	9338.84
882.941	9301.78
883.259	9305.62
883.577	9257.26
883.894	9258.61
884.212	9219.29
884.529	9176.13
884.846	9160.54
885.164	9149.24
885.481	9147.43
885.798	9166.41
886.115	9093.42
886.432	9090.03
886.75	9090.26
887.067	9054.55
887.383	8946.53
887.7	8973.2
888.017	8935.46
888.334	8944.72
888.651	8894.1
888.967	8870.37
889.284	8891.39
889.6	8831.51
889.917	8786.99
890.233	8813.2
890.55	8760.77
890.866	8772.98
891.182	8708.12
891.498	8671.28
891.815	8649.81
892.131	8670.15
892.447	8656.82
892.763	8598.74
893.079	8644.17
893.395	8587.44
893.71	8514
894.026	8444.17
894.342	8461.12
894.657	8405.3
894.973	8387
895.289	8411.63
895.604	8441.91
895.92	8359.2
896.235	8297.73
896.55	8268.58
896.865	8239.2
897.181	8168.47
897.496	8251.86
897.811	8207.79
898.126	8136.16
898.441	8099.77
898.756	8118.08
899.071	8142.26
899.386	8052.77
899.7	7993.56
900.015	7958.08
900.33	7893.45
900.644	7999.21
900.959	7879.89
901.273	7888.48
901.588	7805.32
901.902	7822.94
902.216	7811.64
902.531	7773.45
902.845	7663.85
903.159	7654.59
903.473	7656.62
903.787	7602.84
904.101	7573.69
904.415	7562.84
904.729	7567.13
905.042	7516.96
905.356	7530.52
905.67	7389.96
905.984	7427.02
906.297	7444.87
906.611	7422.05
906.924	7356.97
907.237	7352.45
907.551	7301.38
907.864	7334.14
908.177	7277.65
908.491	7222.06
908.804	7193.58
909.117	7169.18
909.43	7149.06
909.743	7088.73
910.056	7079.01
910.368	7080.82
910.681	7005.56
910.994	7009.63
911.307	6931.22
911.619	6913.36
911.932	6874.72
912.244	6878.79
912.557	6863.2
912.869	6796.76
913.181	6796.98
913.494	6747.49
913.806	6767.38
914.118	6699.36
914.43	6709.53
914.742	6655.97
915.054	6588.17
915.366	6601.73
915.678	6566.71
915.99	6496.2
916.302	6518.12
916.613	6545.46
916.925	6462.98
917.236	6451.45
917.548	6390.89
917.859	6369.87
918.171	6338.01
918.482	6322.19
918.794	6319.25
919.105	6294.62
919.416	6258.92
919.727	6207.17
920.038	6223.21
920.349	6182.54
920.66	6204.68
920.971	6089.43
921.282	6141.86
921.593	6092.37
921.903	6035.19
922.214	6015.08
922.525	6031.35
922.835	5990.22
923.146	5975.99
923.456	5918.59
923.767	5853.28
924.077	5913.84
924.387	5870.68
924.697	5855.76
925.008	5830
925.318	5768.53
925.628	5730.57
925.938	5765.37
926.248	5740.96
926.558	5669.1
926.867	5686.28
927.177	5653.74
927.487	5545.04
927.796	5551.59
928.106	5572.38
928.416	5583.45
928.725	5551.14
929.034	5495.77
929.344	5500.52
929.653	5459.16
929.962	5440.18
930.271	5395.89
930.581	5400.18
930.89	5351.14
931.199	5316.12
931.508	5327.19
931.817	5316.8
932.125	5237.93
932.434	5215.33
932.743	5191.37
933.051	5200.87
933.36	5192.28
933.669	5098.27
933.977	5147.53
934.286	5135.56
934.594	5108.67
934.902	5047.2
935.21	5039.97
935.519	5006.07
935.827	5036.12
936.135	4977.37
936.443	4929.91
936.751	4971.27
937.059	4892.85
937.367	4893.3
937.674	4869.12
937.982	4867.99
938.29	4828.22
938.597	4843.81
938.905	4766.53
939.213	4729.69
939.52	4739.18
939.827	4711.84
940.135	4728.11
940.442	4660.77
940.749	4696.92
941.056	4646.53
941.363	4643.59
941.67	4559.98
941.977	4577.38
942.284	4551.39
942.591	4584.16
942.898	4547.55
943.205	4530.83
943.511	4467.55
943.818	4465.52
944.125	4411.73
944.431	4459.19
944.738	4376.93
945.044	4410.83
945.35	4387.33
945.657	4336.03
945.963	4364.73
946.269	4318.4
946.575	4349.82
946.881	4336.03
947.187	4265.98
947.493	4216.49
947.799	4242.47
948.105	4185.3
948.41	4183.04
948.716	4192.98
949.022	4167.67
949.327	4174.68
949.633	4082.7
949.938	4100.1
950.244	4070.5
950.549	4056.26
950.854	4064.85
951.16	4014.23
951.465	3967.45
951.77	4021.24
952.075	3970.62
952.38	4002.03
952.685	3997.73
952.99	3933.78
953.294	3903.5
953.599	3914.8
953.904	3876.61
954.209	3810.62
954.513	3885.19
954.818	3880
955.122	3830.51
955.426	3784.18
955.731	3790.73
956.035	3762.03
956.339	3752.77
956.643	3700.11
956.948	3745.76
957.252	3676.61
957.556	3708.48
957.86	3682.94
958.163	3641.36
958.467	3641.81
958.771	3660.79
959.075	3611.08
959.378	3590.51
959.682	3582.15
959.985	3539.89
960.289	3585.77
960.592	3547.35
960.896	3538.76
961.199	3507.13
961.502	3494.92
961.805	3448.6
962.108	3439.78
962.411	3481.82
962.714	3408.14
963.017	3418.09
963.32	3431.2
963.623	3360.01
963.926	3359.78
964.228	3393.23
964.531	3326.11
964.833	3325.21
965.136	3297.87
965.438	3290.41
965.741	3272.33
966.043	3282.95
966.345	3280.92
966.648	3248.6
966.95	3227.81
967.252	3236.62
967.554	3195.72
967.856	3223.06
968.158	3162.05
968.46	3138.32
968.761	3111.43
969.063	3098.77
969.365	3122.05
969.666	3108.27
969.968	3058.1
970.269	3080.02
970.571	3023.3
970.872	3036.86
971.174	3021.94
971.475	3004.09
971.776	3023.75
972.077	2979.46
972.378	2994.82
972.679	2954.6
972.98	2990.3
973.281	2945.78
973.582	2933.81
973.883	2900.36
974.183	2937.42
974.484	2901.94
974.785	2882.28
975.085	2866.46
975.386	2871.44
975.686	2879.12
975.986	2830.76
976.287	2813.13
976.587	2792.79
976.887	2788.73
977.187	2787.82
977.487	2776.98
977.787	2758.22
978.087	2717.99
978.387	2728.16
978.687	2746.69
978.987	2704.89
979.286	2726.81
979.586	2658.56
979.885	2678.67
980.185	2647.26
980.484	2665.79
980.784	2603.65
981.083	2653.36
981.382	2623.31
981.682	2605.23
981.981	2638.45
982.28	2543.76
982.579	2581.73
982.878	2556.87
983.177	2553.25
983.475	2560.48
983.774	2533.82
984.073	2518.9
984.372	2523.2
984.67	2481.62
984.969	2482.29
985.267	2472.58
985.566	2463.31
985.864	2447.94
986.162	2427.15
986.461	2410.43
986.759	2398.23
987.057	2411.79
987.355	2415.4
987.653	2388.51
987.951	2337.21
988.249	2379.02
988.547	2347.61
988.844	2343.54
989.142	2329.98
989.44	2308.51
989.737	2306.48
990.035	2268.06
990.332	2294.73
990.63	2264.9
990.927	2230.77
991.224	2255.63
991.521	2229.19
991.819	2257.21
992.116	2230.77
992.413	2256.31
992.71	2212.7
993.006	2208.4
993.303	2201.62
993.6	2182.64
993.897	2187.61
994.193	2170.66
994.49	2154.17
994.787	2137.22
995.083	2141.29
995.379	2090.89
995.676	2111.91
995.972	2125.47
996.268	2089.99
996.565	2081.85
996.861	2048.63
997.157	2069.65
997.453	2033.72
997.749	2023.32
998.044	2014.96
998.34	2027.84
998.636	2008.18
998.932	2014.06
999.227	2013.38
999.523	1990.78
999.818	1955.3
1000.114	1952.82
1000.409	1976.54
1000.704	1908.52
1001	1944.45
1001.295	1893.61
1001.59	1885.25
1001.885	1900.16
1002.18	1884.34
1002.475	1849.99
1002.77	1865.81
1003.065	1875.53
1003.359	1863.55
1003.654	1833.27
1003.949	1841.18
1004.243	1814.29
1004.538	1809.32
1004.832	1816.1
1005.127	1804.57
1005.421	1757.34
1005.715	1795.76
1006.009	1754.4
1006.304	1748.3
1006.598	1742.88
1006.892	1725.03
1007.186	1715.53
1007.48	1734.52
1007.773	1715.08
1008.067	1693.39
1008.361	1667.85
1008.655	1656.33
1008.948	1671.02
1009.242	1675.99
1009.535	1664.01
1009.829	1639.83
1010.122	1636.21
1010.415	1635.76
1010.708	1597.35
1011.001	1613.62
1011.295	1577.68
1011.588	1584.92
1011.881	1586.05
1012.173	1576.1
1012.466	1583.33
1012.759	1522.32
1013.052	1549.44
1013.344	1561.19
1013.637	1568.19
1013.93	1507.63
1014.222	1505.14
1014.514	1504.24
1014.807	1480.96
1015.099	1479.83
1015.391	1482.32
1015.683	1462.21
1015.976	1487.07
1016.268	1452.72
1016.56	1446.84
1016.851	1421.76
1017.143	1431.47
1017.435	1405.71
1017.727	1422.21
1018.018	1386.96
1018.31	1369.55
1018.602	1384.24
1018.893	1382.44
1019.185	1359.16
1019.476	1341.53
1019.767	1353.28
1020.058	1320.52
1020.35	1320.06
1020.641	1343.34
1020.932	1356.67
1021.223	1295.43
1021.514	1312.15
1021.804	1293.85
1022.095	1274.42
1022.386	1288.65
1022.677	1273.51
1022.967	1269.67
1023.258	1248.65
1023.548	1219.05
1023.839	1247.52
1024.129	1218.6
1024.419	1208.88
1024.709	1197.81
1025	1186.96
1025.29	1217.24
1025.58	1164.81
1025.87	1172.72
1026.16	1188.09
1026.449	1193.97
1026.739	1156.9
1027.029	1169.33
1027.319	1148.09
1027.608	1137.92
1027.898	1130.01
1028.187	1111.48
1028.477	1119.39
1028.766	1104.7
1029.055	1126.85
1029.344	1078.26
1029.634	1074.19
1029.923	1062.9
1030.212	1079.39
1030.501	1059.73
1030.79	1073.74
1031.078	1050.47
1031.367	1036.46
1031.656	1040.75
1031.945	1017.47
1032.233	1050.24
1032.522	993.29
1032.81	986.51
1033.099	994.42
1033.387	974.76
1033.675	983.35
1033.963	993.52
1034.251	966.4
1034.54	964.59
1034.828	975.44
1035.116	962.79
1035.403	931.6
1035.691	925.27
1035.979	956.68
1036.267	933.18
1036.554	909.68
1036.842	904.93
1037.129	953.29
1037.417	916.68
1037.704	901.09
1037.992	905.84
1038.279	899.06
1038.566	891.6
1038.853	891.6
1039.14	891.6
