Data from hue_38_FLMS001491_00010.txt Node
Date: Tue Feb 07 17:30:59 GMT 2017
User: dcchb
Spectrometer: FLMS00149
Trigger mode: 0
Integration Time (sec): 2.000000E-2
Scans to average: 10
Electric dark correction enabled: true
Nonlinearity correction enabled: false
Boxcar width: 0
XAxis mode: Wavelengths
Number of Pixels in Spectrum: 2048
>>>>>Begin Spectral Data<<<<<
341.393	-11.68
341.776	-11.68
342.16	-11.68
342.543	-51.45
342.927	-68.63
343.31	-78.12
343.693	-67.05
344.077	-60.49
344.46	-58.91
344.843	-65.46
345.226	-28.86
345.61	-27.05
345.993	-26.6
346.376	-12.58
346.759	11.37
347.142	49.11
347.525	49.11
347.908	52.27
348.291	78.49
348.674	89.11
349.057	95.66
349.44	154.42
349.823	149.22
350.206	171.14
350.588	191.25
350.971	219.73
351.354	228.77
351.737	237.58
352.119	252.04
352.502	254.08
352.884	279.16
353.267	284.13
353.65	295.66
354.032	294.53
354.414	301.53
354.797	306.96
355.179	313.28
355.562	324.36
355.944	324.81
356.326	347.41
356.709	340.85
357.091	343.34
357.473	341.3
357.855	325.49
358.238	358.03
358.62	347.18
359.002	339.72
359.384	334.53
359.766	352.83
360.148	344.69
360.53	356.9
360.912	329.1
361.294	345.37
361.676	347.63
362.057	337.24
362.439	344.47
362.821	328.88
363.203	330.01
363.584	320.74
363.966	338.37
364.348	309.44
364.729	311.7
365.111	335.66
365.493	341.76
365.874	314.41
366.256	332.27
366.637	323.9
367.019	331.36
367.4	323
367.781	317.35
368.163	316.22
368.544	321.42
368.925	314.86
369.306	316.22
369.688	320.74
370.069	333.4
370.45	301.53
370.831	296.11
371.212	323.45
371.593	308.31
371.974	323
372.355	315.54
372.736	317.58
373.117	311.02
373.498	334.53
373.879	331.14
374.26	319.61
374.641	318.93
375.021	317.12
375.402	319.38
375.783	337.91
376.163	333.4
376.544	328.88
376.925	306.28
377.305	331.14
377.686	324.13
378.066	333.85
378.447	338.14
378.827	349.21
379.208	328.42
379.588	330.46
379.968	340.4
380.349	341.98
380.729	336.56
381.109	339.27
381.489	346.5
381.87	343.56
382.25	345.37
382.63	372.94
383.01	354.19
383.39	350.34
383.77	366.84
384.15	356.22
384.53	348.54
384.91	367.52
385.29	358.03
385.67	351.25
386.049	334.3
386.429	361.19
386.809	351.02
387.189	359.16
387.568	354.41
387.948	362.09
388.328	354.19
388.707	361.19
389.087	370
389.466	365.48
389.846	355.32
390.225	349.21
390.605	356.9
390.984	393.05
391.363	376.78
391.743	385.6
392.122	355.54
392.501	374.07
392.881	381.98
393.26	371.81
393.639	367.07
394.018	378.82
394.397	380.85
394.776	367.07
395.155	394.41
395.534	384.69
395.913	396.44
396.292	385.82
396.671	372.04
397.05	397.8
397.429	388.08
397.808	394.18
398.186	395.54
398.565	387.41
398.944	409.55
399.323	370.46
399.701	392.83
400.08	411.13
400.458	417.23
400.837	403.68
401.215	395.99
401.594	398.7
401.972	402.55
402.351	417.69
402.729	425.82
403.107	407.74
403.486	407.97
403.864	420.17
404.242	417.23
404.62	433.51
404.999	416.78
405.377	422.66
405.755	416.33
406.133	433.05
406.511	432.15
406.889	413.85
407.267	443.9
407.645	453.17
408.023	455.2
408.401	419.72
408.779	459.04
409.156	460.62
409.534	455.43
409.912	467.85
410.29	479.38
410.667	466.5
411.045	484.13
411.422	473.5
411.8	469.89
412.178	474.41
412.555	463.79
412.933	476.67
413.31	484.35
413.687	490.45
414.065	504.46
414.442	496.33
414.819	494.52
415.197	486.61
415.574	504.46
415.951	515.54
416.328	508.76
416.705	501.07
417.082	498.14
417.46	528.42
417.837	536.1
418.214	522.77
418.591	535.42
418.967	518.7
419.344	536.1
419.721	512.15
420.098	530.9
420.475	552.15
420.852	546.27
421.228	538.81
421.605	541.53
421.982	543.79
422.358	562.99
422.735	538.59
423.111	548.76
423.488	583.78
423.864	575.42
424.241	600.51
424.617	573.16
424.994	587.4
425.37	588.76
425.746	591.47
426.123	589.21
426.499	593.73
426.875	599.15
427.251	608.64
427.627	616.78
428.003	606.38
428.379	612.48
428.756	615.87
429.132	624.01
429.507	635.31
429.883	622.65
430.259	640.73
430.635	667.4
431.011	656.1
431.387	666.27
431.763	666.27
432.138	670.56
432.514	689.54
432.89	665.14
433.265	688.64
433.641	688.87
434.016	716.21
434.392	705.59
434.767	708.3
435.143	698.81
435.518	718.24
435.894	736.77
436.269	718.24
436.644	736.55
437.02	741.75
437.395	728.64
437.77	762.76
438.145	762.54
438.52	758.92
438.895	745.81
439.271	771.12
439.646	784
440.021	798.02
440.395	782.87
440.77	776.77
441.145	792.14
441.52	811.8
441.895	790.33
442.27	788.3
442.645	812.48
443.019	813.16
443.394	826.94
443.769	816.77
444.143	830.33
444.518	833.5
444.892	846.83
445.267	829.43
445.641	869.65
446.016	837.56
446.39	847.96
446.764	900.84
447.139	862.65
447.513	865.58
447.887	884.79
448.262	853.61
448.636	861.06
449.01	896.32
449.384	905.81
449.758	907.17
450.132	904.91
450.506	931.35
450.88	922.76
451.254	926.83
451.628	938.13
452.002	930.44
452.376	950.55
452.75	956.66
453.123	971.12
453.497	975.86
453.871	966.37
454.244	991.91
454.618	992.13
454.992	1007.95
455.365	988.75
455.739	1021.51
456.112	1042.08
456.486	1063.55
456.859	1049.53
457.232	1056.54
457.606	1042.08
457.979	1070.32
458.352	1120.95
458.725	1120.27
459.099	1109.42
459.472	1144.22
459.845	1159.36
460.218	1166.59
460.591	1159.59
460.964	1168.4
461.337	1188.29
461.71	1232.13
462.083	1224.67
462.456	1229.42
462.829	1233.03
463.201	1258.79
463.574	1259.7
463.947	1284.56
464.32	1320.94
464.692	1329.08
465.065	1334.72
465.438	1349.64
465.81	1376.08
466.183	1396.19
466.555	1409.07
466.928	1410.65
467.3	1441.61
467.672	1456.53
468.045	1499.92
468.417	1478.68
468.789	1529.52
469.161	1527.71
469.534	1577.88
469.906	1627.82
470.278	1630.54
470.65	1644.32
471.022	1657.88
471.394	1684.32
471.766	1708.5
472.138	1724.32
472.51	1767.48
472.882	1819.46
473.253	1846.35
473.625	1892.22
473.997	1943.07
474.369	1912.79
474.74	2008.38
475.112	2017.87
475.484	2054.93
475.855	2081.82
476.227	2106
476.598	2172.67
476.97	2261.48
477.341	2266.45
477.713	2350.97
478.084	2417.86
478.455	2460.34
478.827	2486.33
479.198	2539.89
479.569	2582.15
479.94	2691.53
480.311	2747.12
480.682	2781.01
481.053	2890.62
481.424	2950.5
481.795	3003.38
482.166	3075.02
482.537	3127.22
482.908	3211.29
483.279	3293.32
483.65	3373.77
484.021	3476.36
484.391	3520.88
484.762	3620.54
485.133	3694.21
485.503	3752.29
485.874	3889.91
486.244	3935.33
486.615	4061.43
486.985	4146.63
487.356	4222.33
487.726	4297.13
488.097	4439.28
488.467	4510.91
488.837	4611.93
489.207	4723.34
489.578	4853.28
489.948	4895.76
490.318	4981.18
490.688	5062.99
491.058	5250.1
491.428	5318.8
491.798	5426.59
492.168	5560.38
492.538	5600.15
492.908	5744.55
493.278	5830.43
493.648	5920.82
494.017	6008.5
494.387	6159.23
494.757	6220.02
495.126	6300.02
495.496	6365.1
495.866	6476.96
496.235	6601.7
496.605	6680.35
496.974	6714.24
497.344	6838.53
497.713	6939.32
498.082	7034.91
498.452	7148.58
498.821	7194.46
499.19	7262.25
499.559	7395.58
499.928	7486.65
500.298	7589.25
500.667	7689.13
501.036	7688.68
501.405	7808.9
501.774	7841.45
502.143	7951.05
502.512	8007.32
502.88	8153.53
503.249	8140.42
503.618	8292.51
503.987	8352.17
504.356	8403.24
504.724	8484.14
505.093	8491.15
505.462	8613.18
505.83	8680.07
506.199	8794.64
506.567	8942.66
506.936	8979.5
507.304	9058.82
507.672	9150.34
508.041	9166.61
508.409	9250.67
508.777	9348.75
509.145	9477.34
509.514	9499.93
509.882	9570.89
510.25	9601.4
510.618	9682.53
510.986	9728.85
511.354	9817.67
511.722	9985.34
512.09	10011.33
512.458	9972.92
512.826	10101.95
513.193	10144.66
513.561	10230.08
513.929	10341.72
514.297	10476.41
514.664	10473.47
515.032	10495.39
515.4	10605.67
515.767	10687.93
516.135	10755.49
516.502	10702.39
516.869	10869.84
517.237	10922.5
517.604	10900.35
517.972	11052.21
518.339	11126.78
518.706	11161.81
519.073	11202.71
519.44	11268.25
519.808	11516.6
520.175	11432.09
520.542	11609.03
520.909	11575.81
521.276	11645.41
521.643	11740.33
522.009	11806.09
522.376	11873.66
522.743	11958.4
523.11	12101.45
523.477	12162.01
523.843	12293.31
524.21	12344.83
524.577	12455.79
524.943	12490.36
525.31	12540.53
525.676	12715.67
526.043	12724.03
526.409	12775.33
526.776	12952.72
527.142	12929
527.508	12995.89
527.874	13121.08
528.241	13147.52
528.607	13229.1
528.973	13338.02
529.339	13344.35
529.705	13527.17
530.071	13582.76
530.437	13547.74
530.803	13635.19
531.169	13797
531.535	13738.92
531.901	13905.69
532.267	13924.45
532.632	14053.03
532.998	14127.61
533.364	14115.41
533.73	14129.42
534.095	14301.62
534.461	14310.43
534.826	14476.75
535.192	14550.87
535.557	14603.53
535.923	14590.2
536.288	14714.03
536.653	14794.71
537.019	14760.81
537.384	14783.64
537.749	14865.89
538.114	14911.99
538.479	14984.08
538.845	15036.51
539.21	14989.06
539.575	15130.52
539.94	15145.21
540.305	15278.76
540.67	15223.17
541.034	15302.27
541.399	15417.74
541.764	15462.71
542.129	15537.29
542.494	15660.45
542.858	15674.01
543.223	15623.39
543.587	15763.5
543.952	15732.09
544.316	15843.27
544.681	15904.74
545.045	15999.88
545.41	15994.68
545.774	16094.79
546.138	16129.14
546.503	16293.2
546.867	16245.75
547.231	16384.05
547.595	16360.77
547.959	16472.18
548.324	16437.15
548.688	16524.83
549.052	16577.49
549.416	16674.66
549.779	16697.94
550.143	16698.84
550.507	16877.82
550.871	16908.33
551.235	16837.82
551.599	16989.91
551.962	17069.68
552.326	17099.06
552.689	17251.82
553.053	17135.21
553.417	17177.92
553.78	17429.89
554.143	17366.39
554.507	17388.77
554.87	17556.67
555.234	17690.45
555.597	17604.81
555.96	17657.01
556.323	17718.25
556.686	17727.06
557.05	17859.94
557.413	17899.04
557.776	17993.27
558.139	18134.06
558.502	18136.77
558.865	18152.59
559.228	18294.96
559.59	18331.79
559.953	18390.1
560.316	18560.94
560.679	18511.45
561.041	18736.75
561.404	18708.96
561.767	18856.52
562.129	18828.28
562.492	18981.94
562.854	18958.89
563.217	18982.17
563.579	19092.45
563.941	19119.57
564.304	19155.05
564.666	19380.58
565.028	19316.17
565.39	19445.89
565.753	19566.11
566.115	19576.28
566.477	19622.61
566.839	19748.48
567.201	19808.36
567.563	19902.6
567.925	20032.31
568.287	20001.58
568.648	20135.81
569.01	20177.17
569.372	20436.82
569.734	20347.78
570.095	20316.6
570.457	20553.65
570.819	20557.5
571.18	20522.69
571.542	20777.6
571.903	20745.97
572.265	20903.7
572.626	20913.65
572.987	21058.95
573.349	21171.27
573.71	21345.72
574.071	21296.01
574.432	21409.23
574.794	21577.58
575.155	21653.06
575.516	21663
575.877	21832.72
576.238	21913.39
576.599	22092.15
576.96	22195.42
577.32	22306.38
577.681	22445.58
578.042	22570.55
578.403	22690.32
578.763	22779.58
579.124	22912.01
579.485	23134.15
579.845	23256.86
580.206	23308.84
580.566	23401.49
580.927	23656.17
581.287	23707.02
581.648	23802.83
582.008	24222.03
582.368	24248.25
582.728	24475.81
583.089	24534.11
583.449	24660.89
583.809	24866.54
584.169	25011.84
584.529	25196.92
584.889	25504.26
585.249	25557.14
585.609	25566.86
585.969	26222.21
586.329	26136.56
586.688	26319.38
587.048	26609.31
587.408	26628.52
587.768	26858.57
588.127	27082.3
588.487	27280.94
588.846	27685.44
589.206	27753.92
589.565	27931.54
589.925	28268.71
590.284	28357.52
590.643	28548.02
591.003	28984.85
591.362	29175.8
591.721	29375.8
592.08	29438.84
592.44	29758.84
592.799	30003.35
593.158	30023.01
593.517	30392.72
593.876	30557.23
594.235	30782.09
594.593	30996.77
594.952	31240.15
595.311	31383.88
595.67	31726.69
596.029	31909.06
596.387	32310.41
596.746	32438.77
597.104	32451.65
597.463	32650.29
597.822	32988.36
598.18	33090.5
598.538	33164.85
598.897	33597.15
599.255	33508.12
599.613	34041.44
599.972	34105.16
600.33	34348.55
600.688	34261.54
601.046	34656.56
601.404	34833.28
601.762	34929.55
602.12	35136.55
602.478	35351.23
602.836	35520.04
603.194	35595.74
603.552	35602.75
603.91	35740.6
604.268	36063.3
604.625	36165.22
604.983	36408.83
605.341	36448.83
605.698	36727.69
606.056	36974.24
606.413	36920.46
606.771	37120
607.128	37344.63
607.485	37287
607.843	37490.61
608.2	37813.99
608.557	38080.43
608.914	37971.95
609.272	38242
609.629	38333.07
609.986	38633.18
610.343	38530.13
610.7	38855.32
611.057	39012.83
611.414	38978.25
611.771	39082.43
612.127	39361.97
612.484	39430.22
612.841	39703.66
613.198	39574.17
613.554	39629.54
613.911	39971.9
614.267	39950.43
614.624	40056.87
614.98	40221.16
615.337	40342.51
615.693	40282.85
616.05	40396.52
616.406	40820.01
616.762	40543.64
617.118	40848.71
617.475	40793.57
617.831	40925.1
618.187	41116.5
618.543	41107.01
618.899	41413.22
619.255	41365.54
619.611	41355.59
619.967	41600.56
620.323	41797.84
620.678	41766.88
621.034	41585.64
621.39	41775.7
621.746	41704.96
622.101	42246.87
622.457	41912.41
622.812	42000.1
623.168	42328.22
623.523	42227.21
623.879	42429.24
624.234	42071.96
624.589	42252.52
624.945	42339.97
625.3	42470.14
625.655	42473.98
626.01	42502.23
626.365	42682.56
626.72	42478.05
627.075	42664.71
627.43	42611.38
627.785	42606.63
628.14	42701.09
628.495	42832.84
628.85	42683.69
629.205	42456.81
629.559	42836.01
629.914	42632.17
630.269	42845.27
630.623	42684.15
630.978	42677.82
631.332	42825.39
631.687	42909.45
632.041	42826.06
632.396	42844.59
632.75	42732.28
633.104	42869.9
633.459	42731.15
633.813	42774.54
634.167	42727.53
634.521	42727.99
634.875	42938.83
635.229	42798.27
635.583	42719.63
635.937	42657.25
636.291	42647.08
636.645	42656.35
636.999	42551.04
637.352	42763.24
637.706	42445.96
638.06	42580.42
638.413	42513.3
638.767	42429.69
639.121	42646.18
639.474	42439.86
639.828	42316.7
640.181	42449.35
640.534	42408.9
640.888	42337.04
641.241	42178.85
641.594	42258.17
641.947	42598.72
642.301	42244.84
642.654	42236.02
643.007	42386.53
643.36	42295.68
643.713	42135.91
644.066	42492.29
644.419	42218.17
644.771	41873.32
645.124	41495.93
645.477	41479.88
645.83	41275.37
646.182	41129.38
646.535	40968.94
646.888	41149.05
647.24	40897.3
647.593	41199.89
647.945	41114.24
648.298	40807.81
648.65	40805.33
649.002	40707.02
649.355	40869.28
649.707	40912.89
650.059	41193.56
650.411	41681.23
650.763	41598.3
651.115	41963.49
651.467	41739.31
651.819	41812.76
652.171	41704.06
652.523	41641.46
652.875	41643.5
653.227	41422.94
653.578	41711.06
653.93	41660.44
654.282	41406.67
654.633	41448.7
654.985	41460.45
655.337	41453.9
655.688	41435.82
656.039	41650.95
656.391	41330.06
656.742	41257.29
657.094	41500.9
657.445	41623.83
657.796	41546.77
658.147	41456.83
658.498	41427
658.849	41413.9
659.2	41337.97
659.551	41333.45
659.902	41391.98
660.253	41274.69
660.604	41199.21
660.955	41245.09
661.306	41368.02
661.656	41319.44
662.007	41335.48
662.358	41212.32
662.708	41208.25
663.059	41173.45
663.409	40961.03
663.76	41320.34
664.11	41268.59
664.461	41253.22
664.811	41165.09
665.161	41205.31
665.511	41116.96
665.862	41185.2
666.212	41185.65
666.562	41267.69
666.912	41125.32
667.262	41097.3
667.612	41079.44
667.962	41006
668.312	40948.6
668.662	41169.61
669.011	41260.68
669.361	41020.01
669.711	41019.56
670.06	40927.13
670.41	40869.96
670.76	40874.25
671.109	41012.78
671.459	41020.46
671.808	40839.9
672.157	40980.46
672.507	40745.89
672.856	40769.62
673.205	40805.1
673.554	40863.85
673.904	40716.97
674.253	40848.04
674.602	40811.88
674.951	40386.13
675.3	40198.56
675.649	40636.29
675.998	40708.15
676.346	40779.79
676.695	40699.34
677.044	40498.89
677.393	40712.67
677.741	40744.76
678.09	40710.41
678.438	40472.45
678.787	40562.39
679.135	40523.75
679.484	40278.33
679.832	40483.3
680.181	40221.16
680.529	40404.66
680.877	40217.77
681.225	40182.52
681.573	40436.75
681.922	40185.23
682.27	39978.68
682.618	40056.42
682.966	39935.29
683.314	39909.3
683.661	39969.42
684.009	39786.6
684.357	39681.51
684.705	39662.3
685.053	39686.03
685.4	39602.87
685.748	39399.26
686.095	39481.29
686.443	39370.11
686.79	39262.32
687.138	39333.95
687.485	39310.22
687.832	39210.57
688.18	39238.59
688.527	38942.55
688.874	38895.55
689.221	38963.57
689.568	38845.15
689.915	38733.06
690.262	38717.02
690.609	38558.6
690.956	38401.55
691.303	38354.09
691.65	38347.54
691.997	38296.92
692.344	38020.99
692.69	38077.94
693.037	38023.03
693.383	37724.28
693.73	37722.02
694.077	37517.28
694.423	37594.11
694.769	37520.44
695.116	37461.01
695.462	37378.75
695.808	37283.16
696.155	37370.61
696.501	36955.03
696.847	37131.07
697.193	36732.44
697.539	36885.65
697.885	36725.66
698.231	36720.46
698.577	36635.27
698.923	36573.12
699.269	36305.56
699.614	36296.74
699.96	36274.82
700.306	36212.23
700.651	36033.47
700.997	35945.57
701.342	35946.92
701.688	35834.16
702.033	35648.85
702.379	35623.54
702.724	35541.51
703.069	35614.28
703.415	35366.82
703.76	35276.88
704.105	35179.94
704.45	35268.52
704.795	35050.45
705.14	34901.53
705.485	34930.68
705.83	34698.59
706.175	34876.89
706.52	34647.52
706.865	34537.92
707.209	34436.68
707.554	34421.31
707.899	34504.25
708.243	34284.59
708.588	34302.22
708.932	34050.7
709.277	33915.56
709.621	34027.88
709.966	33788.33
710.31	33749.92
710.654	33594.44
710.998	33621.79
711.342	33661.78
711.687	33564.84
712.031	33392.86
712.375	33405.75
712.719	33292.3
713.063	33306.09
713.407	33325.52
713.75	33223.38
714.094	33161.91
714.438	33002.82
714.782	32947.45
715.125	32882.14
715.469	32917.4
715.812	32700
716.156	32623.17
716.499	32713.11
716.843	32648.03
717.186	32316.06
717.53	32588.82
717.873	32518.31
718.216	32443.06
718.559	32354.25
718.902	32099.11
719.246	32158.1
719.589	32069.96
719.932	32016.18
720.275	32094.59
720.617	31836.52
720.96	31844.43
721.303	31960.13
721.646	31906.58
721.989	31648.5
722.331	31696.64
722.674	31678.33
723.016	31731.21
723.359	31608.96
723.701	31638.56
724.044	31407.15
724.386	31245.35
724.729	31432.69
725.071	31264.33
725.413	31247.16
725.755	31194.28
726.097	31121.51
726.439	30927.84
726.782	30982.08
727.124	31200.15
727.465	30944.12
727.807	30893.95
728.149	30778.7
728.491	30792.93
728.833	30759.71
729.175	30721.07
729.516	30638.59
729.858	30643.33
730.199	30641.52
730.541	30562.88
730.882	30484.69
731.224	30550.68
731.565	30300.29
731.906	30411.25
732.248	30387.75
732.589	30204.02
732.93	30067.98
733.271	30173.51
733.612	30287.64
733.953	30234.08
734.294	30220.07
734.635	30012.84
734.976	30102.78
735.317	29834.31
735.658	29883.8
735.999	29868.89
736.339	29848.78
736.68	29933.07
737.021	29806.07
737.361	29589.58
737.702	29734.43
738.042	29745.5
738.383	29479.97
738.723	29667.09
739.063	29465.06
739.404	29432.29
739.744	29449.01
740.084	29407.21
740.424	29459.86
740.764	29361.11
741.104	29255.35
741.444	29103.26
741.784	29004.05
742.124	29284.72
742.464	29215.8
742.804	29047.22
743.143	29019.19
743.483	29031.4
743.823	28857.16
744.162	28965.18
744.502	28953.89
744.841	28726.32
745.181	28898.07
745.52	28722.93
745.86	28801.35
746.199	28760.44
746.538	28580.79
746.877	28564.07
747.216	28678.86
747.556	28429.15
747.895	28426.89
748.234	28367.01
748.573	28317.52
748.911	28274.58
749.25	28279.55
749.589	28253.79
749.928	28222.61
750.267	28191.19
750.605	28140.57
750.944	27959.56
751.283	28044.76
751.621	27907.81
751.96	27762.73
752.298	27786.23
752.636	27847.25
752.975	27641.83
753.313	27582.17
753.651	27750.53
753.989	27636.63
754.327	27572.68
754.666	27440.48
755.004	27540.36
755.342	27507.82
755.679	27393.25
756.017	27213.82
756.355	27329.07
756.693	27176.08
757.031	27244.55
757.368	26956.2
757.706	26985.8
758.044	27045.01
758.381	27082.3
758.719	26825.13
759.056	26911.91
759.394	26894.05
759.731	26579.71
760.068	26611.35
760.405	26573.61
760.743	26284.8
761.08	26453.16
761.417	26278.93
761.754	26148.54
762.091	26168.87
762.428	26090.23
762.765	25807.53
763.102	25996
763.438	25829.22
763.775	25691.37
764.112	25740.64
764.449	25732.73
764.785	25702.45
765.122	25335.45
765.458	25348.33
765.795	25347.2
766.131	25215.9
766.467	25176.58
766.804	25146.3
767.14	24871.73
767.476	24888
767.812	24880.32
768.148	24802.36
768.485	24669.7
768.821	24615.47
769.157	24558.75
769.492	24496.6
769.828	24359.88
770.164	24227.91
770.5	24199.89
770.836	24139.32
771.171	24001.25
771.507	23960.57
771.842	23789.95
772.178	23752.89
772.513	23711.31
772.849	23647.58
773.184	23500.02
773.519	23532.33
773.855	23374.37
774.19	23336.63
774.525	23054.15
774.86	23088.05
775.195	23093.02
775.53	23097.09
775.865	22818.91
776.2	22689.19
776.535	22709.98
776.87	22627.72
777.205	22517.67
777.539	22428.41
777.874	22509.08
778.209	22262.54
778.543	22203.1
778.878	22126.27
779.212	22171.24
779.547	21974.41
779.881	21985.26
780.215	21885.14
780.55	21898.03
780.884	21682.21
781.218	21652.61
781.552	21668.43
781.886	21583.68
782.22	21423.91
782.554	21339.62
782.888	21208.1
783.222	21048.33
783.556	21054.21
783.889	20973.3
784.223	20777.38
784.557	20881.1
784.89	20780.99
785.224	20671.84
785.557	20684.5
785.891	20594.56
786.224	20424.39
786.558	20414
786.891	20322.7
787.224	20322.7
787.557	20205.19
787.891	20138.3
788.224	20129.48
788.557	20051.29
788.89	20017.62
789.223	19987.34
789.556	19823.73
789.888	19785.09
790.221	19696.28
790.554	19448.6
790.887	19551.42
791.219	19452.44
791.552	19448.37
791.884	19356.85
792.217	19230.53
792.549	19179.91
792.882	19093.81
793.214	18938.1
793.546	18974.71
793.879	18901.95
794.211	18821.95
794.543	18841.16
794.875	18763.87
795.207	18867.37
795.539	18627.6
795.871	18600.94
796.203	18407.72
796.535	18376.31
796.867	18393.03
797.198	18352.36
797.53	18374.73
797.862	18195.3
798.193	18114.85
798.525	18018.81
798.856	18076.66
799.188	17897.68
799.519	17827.85
799.85	17710.79
800.182	17760.96
800.513	17762.32
800.844	17595.09
801.175	17670.79
801.506	17731.58
801.837	17542.43
802.168	17514.86
802.499	17405.04
802.83	17364.81
803.161	17330.91
803.491	17242.1
803.822	17271.48
804.153	17205.49
804.483	17029
804.814	17026.74
805.145	16995.56
805.475	16996.46
805.805	16902.9
806.136	16864.49
806.466	16840.53
806.796	16846.41
807.126	16639.41
807.457	16659.29
807.787	16647.32
808.117	16551.5
808.447	16524.61
808.777	16513.53
809.107	16477.6
809.436	16332.3
809.766	16353.31
810.096	16276.25
810.426	16267.67
810.755	16267.44
811.085	16194.22
811.414	16147.22
811.744	16076.26
812.073	15965.98
812.403	15986.32
812.732	15872.2
813.061	15896.6
813.39	15840.56
813.719	15761.46
814.049	15850.05
814.378	15899.77
814.707	15769.15
815.036	15678.98
815.365	15587.23
815.693	15446.44
816.022	15422.04
816.351	15447.57
816.68	15335.03
817.008	15431.76
817.337	15216.17
817.665	15180.69
817.994	15234.47
818.322	15216.62
818.651	15102.27
818.979	15055.95
819.307	15135.94
819.636	15098.88
819.964	14994.7
820.292	15067.92
820.62	15108.15
820.948	14986.8
821.276	15028.38
821.604	14963.29
821.932	14974.59
822.259	15071.99
822.587	14966.68
822.915	14981.37
823.243	14965.33
823.57	14852.11
823.898	14854.6
824.225	14878.1
824.553	14796.52
824.88	14875.84
825.207	14971.65
825.535	14912.22
825.862	14976.17
826.189	14902.73
826.516	14917.87
826.843	15047.13
827.17	14874.48
827.497	14948.15
827.824	14901.6
828.151	14930.07
828.478	14936.85
828.805	14943.63
829.131	14813.24
829.458	14835.16
829.785	14749.29
830.111	14828.16
830.438	14914.03
830.764	14839.68
831.09	14840.13
831.417	14736.86
831.743	14806.46
832.069	14744.99
832.395	14668.61
832.722	14768.04
833.048	14674.04
833.374	14792.68
833.7	14697.31
834.026	14810.98
834.351	14690.08
834.677	14656.41
835.003	14676.29
835.329	14741.83
835.654	14673.58
835.98	14585.45
836.306	14708.61
836.631	14535.28
836.956	14606.24
837.282	14613.92
837.607	14538.22
837.932	14461.16
838.258	14441.5
838.583	14342.74
838.908	14488.5
839.233	14390.43
839.558	14282.63
839.883	14370.31
840.208	14243.31
840.533	14241.28
840.858	14243.54
841.182	14207.61
841.507	14268.17
841.832	14128.29
842.156	14212.13
842.481	14187.04
842.805	14089.19
843.13	14039.48
843.454	13977.33
843.778	13937.78
844.103	13983.88
844.427	13938.91
844.751	13895.07
845.075	13824.79
845.399	13833.61
845.723	13787.05
846.047	13816.43
846.371	13724
846.695	13648.53
847.019	13506.38
847.343	13525.36
847.666	13436.33
847.99	13409.21
848.313	13396.33
848.637	13308.42
848.96	13200.18
849.284	13226.84
849.607	13180.97
849.931	13051.25
850.254	12910.92
850.577	12898.71
850.9	12792.95
851.223	12819.17
851.546	12818.26
851.869	12695.56
852.192	12805.16
852.515	12715.22
852.838	12600.42
853.161	12652.17
853.483	12486.3
853.806	12431.61
854.129	12371.72
854.451	12427.54
854.774	12373.3
855.096	12288.56
855.419	12290.14
855.741	12146.64
856.063	12169.92
856.385	12157.04
856.708	12035.91
857.03	12069.13
857.352	12118.17
857.674	12013.54
857.996	11897.38
858.318	11908.91
858.64	11887.67
858.961	11806.99
859.283	11861
859.605	11740.33
859.926	11778.07
860.248	11727.9
860.57	11665.07
860.891	11677.73
861.212	11642.02
861.534	11508.47
861.855	11525.19
862.176	11584.85
862.498	11528.81
862.819	11553.44
863.14	11480.67
863.461	11515.47
863.782	11390.05
864.103	11494.01
864.424	11422.6
864.745	11454.91
865.065	11318.64
865.386	11291.53
865.707	11247.91
866.027	11338.08
866.348	11268.47
866.668	11330.39
866.989	11295.14
867.309	11153.45
867.63	11172.88
867.95	11181.25
868.27	11120.23
868.59	11134.92
868.91	11118.2
869.23	11075.71
869.55	11067.8
869.87	11130.4
870.19	11035.49
870.51	11093.79
870.83	11031.87
871.15	10978.09
871.469	10977.64
871.789	10954.13
872.109	10951.2
872.428	10915.04
872.748	10884.3
873.067	10923.17
873.386	10904.64
873.706	10888.15
874.025	10837.3
874.344	10791.43
874.663	10898.54
874.982	10818.77
875.301	10766.57
875.62	10689.06
875.939	10652.67
876.258	10757.53
876.577	10679.79
876.896	10678.66
877.214	10600.92
877.533	10655.84
877.852	10554.82
878.17	10605.89
878.489	10566.57
878.807	10595.95
879.125	10513.92
879.444	10530.19
879.762	10505.78
880.08	10520.47
880.398	10399.35
880.716	10480.47
881.034	10418.33
881.352	10416.29
881.67	10371.78
881.988	10343.75
882.306	10393.02
882.624	10357.09
882.941	10271.66
883.259	10220.37
883.577	10202.06
883.894	10239.58
884.212	10145.11
884.529	10198.22
884.846	10147.6
885.164	10045
885.481	10124.32
885.798	10108.28
886.115	10020.82
886.432	10098.56
886.75	9957.1
887.067	10005.01
887.383	9970.66
887.7	9973.14
888.017	9946.02
888.334	9863.99
888.651	9893.82
888.967	9847.04
889.284	9796.65
889.6	9765.01
889.917	9690.44
890.233	9748.06
890.55	9696.09
890.866	9696.99
891.182	9664.22
891.498	9625.35
891.815	9557.56
892.131	9521.4
892.447	9526.37
892.763	9546.03
893.079	9490.67
893.395	9434.4
893.71	9418.81
894.026	9367.96
894.342	9431.69
894.657	9350.56
894.973	9313.5
895.289	9313.72
895.604	9300.39
895.92	9150.56
896.235	9185.37
896.55	9148.76
896.865	9098.81
897.181	9065.82
897.496	9111.02
897.811	9061.3
898.126	8939.27
898.441	8966.39
898.756	8906.28
899.071	8895.66
899.386	8874.87
899.7	8894.53
900.015	8780.86
900.33	8742.21
900.644	8721.88
900.959	8766.62
901.273	8714.42
901.588	8671.93
901.902	8592.16
902.216	8618.6
902.531	8564.82
902.845	8588.55
903.159	8494.76
903.473	8465.16
903.787	8385.61
904.101	8451.15
904.415	8398.27
904.729	8340.19
905.042	8297.71
905.356	8320.3
905.67	8299.06
905.984	8255.45
906.297	8225.17
906.611	8149.91
906.924	8192.4
907.237	8127.54
907.551	8061.33
907.864	8058.84
908.177	8028.56
908.491	7980.65
908.804	7927.55
909.117	7899.98
909.43	7905.85
909.743	7818.62
910.056	7778.4
910.368	7751.51
910.681	7743.6
910.994	7730.26
911.307	7691.62
911.619	7671.96
911.932	7644.84
912.244	7598.74
912.557	7544.73
912.869	7540.44
913.181	7503.83
913.494	7496.37
913.806	7483.04
914.118	7381.12
914.43	7348.58
914.742	7327.56
915.054	7337.73
915.366	7312.19
915.678	7268.35
915.99	7223.16
916.302	7197.85
916.613	7147
916.925	7172.31
917.236	7135.93
917.548	7118.53
917.859	7088.47
918.171	7015.25
918.482	7006.67
918.794	6986.1
919.105	6975.48
919.416	6878.31
919.727	6824.3
920.038	6910.62
920.349	6814.81
920.66	6801.7
920.971	6771.64
921.282	6761.47
921.593	6712.66
921.903	6723.06
922.214	6641.03
922.525	6612.78
922.835	6587.24
923.146	6512.44
923.456	6506.79
923.767	6510.86
924.077	6485.78
924.387	6513.8
924.697	6480.13
925.008	6450.97
925.318	6404.65
925.628	6359.9
925.938	6359.68
926.248	6264.76
926.558	6269.74
926.867	6243.75
927.177	6226.57
927.487	6154.94
927.796	6171.89
928.106	6134.15
928.416	6093.47
928.725	6058.44
929.034	6046.24
929.344	6072.68
929.653	5989.74
929.962	5954.49
930.271	5930.99
930.581	5947.94
930.89	5843.98
931.199	5845.57
931.508	5830.43
931.817	5801.95
932.125	5817.09
932.434	5772.12
932.743	5688.96
933.051	5741.61
933.36	5700.94
933.669	5645.8
933.977	5581.62
934.286	5634.27
934.594	5647.38
934.902	5564.9
935.21	5505.01
935.519	5537.1
935.827	5498.46
936.135	5505.91
936.443	5460.72
936.751	5415.52
937.059	5389.08
937.367	5408.52
937.674	5345.69
937.982	5366.71
938.29	5358.12
938.597	5317.44
938.905	5262.76
939.213	5285.36
939.52	5195.87
939.827	5234.74
940.135	5188.41
940.442	5193.83
940.749	5137.56
941.056	5173.04
941.363	5065.02
941.67	5090.11
941.977	5055.3
942.284	4987.96
942.591	5037.68
942.898	4944.57
943.205	4971.24
943.511	4919.04
943.818	4934.4
944.125	4907.29
944.431	4900.05
944.738	4895.54
945.044	4829.1
945.35	4773.5
945.657	4801.3
945.963	4761.98
946.269	4721.3
946.575	4772.83
946.881	4733.28
947.187	4701.64
947.493	4691.47
947.799	4614.64
948.105	4611.93
948.41	4592.04
948.716	4603.11
949.022	4600.85
949.327	4529.67
949.633	4538.26
949.938	4518.37
950.244	4531.7
950.549	4467.52
950.854	4452.61
951.16	4446.96
951.465	4468.2
951.77	4393.63
952.075	4386.85
952.38	4353.18
952.685	4393.85
952.99	4305.72
953.294	4321.76
953.599	4289
953.904	4249.22
954.209	4220.98
954.513	4246.51
954.818	4249.68
955.122	4184.37
955.426	4168.32
955.731	4156.57
956.035	4148.66
956.339	4133.52
956.643	4086.97
956.948	4108.66
957.252	4066.18
957.556	4044.94
957.86	4023.69
958.163	4032.28
958.467	4039.96
958.771	4003.58
959.075	3977.14
959.378	3997.03
959.682	3943.24
959.985	3936.01
960.289	3903.7
960.592	3858.5
960.896	3874.32
961.199	3844.49
961.502	3811.04
961.805	3821.89
962.108	3840.42
962.411	3774.43
962.714	3784.38
963.017	3737.83
963.32	3770.37
963.623	3729.46
963.926	3680.43
964.228	3707.54
964.531	3659.64
964.833	3664.16
965.136	3585.97
965.438	3601.11
965.741	3620.31
966.043	3567.43
966.345	3570.82
966.648	3536.7
966.95	3530.6
967.252	3519.75
967.554	3522.92
967.856	3481.11
968.158	3446.31
968.46	3460.77
968.761	3445.4
969.063	3448.12
969.365	3442.69
969.666	3396.59
969.968	3365.86
970.269	3384.16
970.571	3336.93
970.872	3348.23
971.174	3354.33
971.475	3320.66
971.776	3306.65
972.077	3296.03
972.378	3232.08
972.679	3270.49
972.98	3289.48
973.281	3270.49
973.582	3257.61
973.883	3222.13
974.183	3225.97
974.484	3179.42
974.785	3160.89
975.085	3180.33
975.386	3133.1
975.686	3113.66
975.986	3141.68
976.287	3089.71
976.587	3053.55
976.887	3051.97
977.187	3073.44
977.487	3064.85
977.787	3015.58
978.087	2994.34
978.387	2995.7
978.687	2998.41
978.987	2973.55
979.286	2989.37
979.586	2985.98
979.885	2962.7
980.185	2912.31
980.484	2895.81
980.784	2928.58
981.083	2858.3
981.382	2865.76
981.682	2837.51
981.981	2868.02
982.28	2817.85
982.579	2791.64
982.878	2828.02
983.177	2792.77
983.475	2813.78
983.774	2749.83
984.073	2741.24
984.372	2717.06
984.67	2719.1
984.969	2711.86
985.267	2702.82
985.566	2689.27
985.864	2696.95
986.162	2714.35
986.461	2666.67
986.759	2666.44
987.057	2612.66
987.355	2599.1
987.653	2585.99
987.951	2592.32
988.249	2576.95
988.547	2610.85
988.844	2568.14
989.142	2576.05
989.44	2543.51
989.737	2532.21
990.035	2514.81
990.332	2500.8
990.63	2490.85
990.927	2478.65
991.224	2481.36
991.521	2476.39
991.819	2450.85
992.116	2416.28
992.413	2435.71
992.71	2405.66
993.006	2408.59
993.303	2422.83
993.6	2400.46
993.897	2336.96
994.193	2354.36
994.49	2320.46
994.787	2330.86
995.083	2313.23
995.379	2300.35
995.676	2298.77
995.972	2296.96
996.268	2263.29
996.565	2267.81
996.861	2267.36
997.157	2268.26
997.453	2247.24
997.749	2208.83
998.044	2195.72
998.34	2188.26
998.636	2215.61
998.932	2171.31
999.227	2177.64
999.523	2155.95
999.818	2135.83
1000.114	2146.68
1000.409	2111.88
1000.704	2101.94
1001	2098.09
1001.295	2116.85
1001.59	2099.9
1001.885	2070.3
1002.18	2082.73
1002.475	2072.33
1002.77	2067.81
1003.065	2050.86
1003.359	2005.22
1003.654	2024.42
1003.949	1992.11
1004.243	1970.41
1004.538	1974.03
1004.832	1962.28
1005.127	1949.85
1005.421	1921.38
1005.715	1917.99
1006.009	1891.09
1006.304	1921.15
1006.598	1894.48
1006.892	1895.84
1007.186	1880.25
1007.48	1887.7
1007.773	1851.32
1008.067	1840.25
1008.361	1825.79
1008.655	1852.45
1008.948	1839.12
1009.242	1807.25
1009.535	1783.75
1009.829	1802.28
1010.122	1791.66
1010.415	1790.31
1010.708	1746.01
1011.001	1756.63
1011.295	1717.54
1011.588	1720.93
1011.881	1720.93
1012.173	1727.48
1012.466	1675.51
1012.759	1704.66
1013.052	1645.68
1013.344	1667.6
1013.637	1660.37
1013.93	1648.84
1014.222	1648.16
1014.514	1662.63
1014.807	1608.62
1015.099	1625.56
1015.391	1629.63
1015.683	1574.27
1015.976	1600.03
1016.268	1602.97
1016.56	1565.45
1016.851	1556.41
1017.143	1545.11
1017.435	1515.29
1017.727	1534.04
1018.018	1532.01
1018.31	1494.27
1018.602	1499.69
1018.893	1514.83
1019.185	1475.29
1019.476	1476.64
1019.767	1471.9
1020.058	1434.61
1020.35	1416.53
1020.641	1421.05
1020.932	1452.24
1021.223	1414.27
1021.514	1406.14
1021.804	1387.6
1022.095	1391.22
1022.386	1389.19
1022.677	1376.76
1022.967	1364.33
1023.258	1338.11
1023.548	1366.81
1023.839	1354.16
1024.129	1326.82
1024.419	1307.15
1024.709	1309.19
1025	1310.32
1025.29	1309.41
1025.58	1301.73
1025.87	1253.82
1026.16	1250.66
1026.449	1269.64
1026.739	1272.35
1027.029	1249.53
1027.319	1215.86
1027.608	1241.62
1027.898	1219.47
1028.187	1199.14
1028.477	1192.81
1028.766	1188.06
1029.055	1205.46
1029.344	1178.57
1029.634	1174.73
1029.923	1142.64
1030.212	1137.89
1030.501	1167.05
1030.79	1149.87
1031.078	1128.85
1031.367	1130.21
1031.656	1107.84
1031.945	1149.19
1032.233	1108.29
1032.522	1086.6
1032.81	1094.28
1033.099	1104.22
1033.387	1086.82
1033.675	1062.19
1033.963	1058.57
1034.251	1071.45
1034.54	1047.27
1034.828	1044.56
1035.116	1023.55
1035.403	1033.72
1035.691	1010.89
1035.979	1032.59
1036.267	1012.47
1036.554	1011.12
1036.842	1020.16
1037.129	1018.35
1037.417	969.99
1037.704	980.16
1037.992	969.99
1038.279	965.92
1038.566	952.59
1038.853	952.59
1039.14	952.59
