Data from hue_90_FLMS001491_90.txt Node
Date: Mon Feb 06 15:25:49 GMT 2017
User: dcchb
Spectrometer: FLMS00149
Trigger mode: 0
Integration Time (sec): 2.000000E-2
Scans to average: 10
Electric dark correction enabled: true
Nonlinearity correction enabled: false
Boxcar width: 0
XAxis mode: Wavelengths
Number of Pixels in Spectrum: 2048
>>>>>Begin Spectral Data<<<<<
341.393	-10.25
341.776	-10.25
342.16	-10.25
342.543	-52.29
342.927	-58.39
343.31	-63.13
343.693	-79.4
344.077	-49.35
344.46	-56.13
344.843	-48.67
345.226	-45.73
345.61	-24.72
345.993	-9.12
346.376	-5.96
346.759	-6.64
347.142	36.52
347.525	47.37
347.908	60.25
348.291	43.3
348.674	86.24
349.057	115.17
349.44	121.72
349.823	136.41
350.206	168.5
350.588	194.49
350.971	199.68
351.354	226.8
351.737	239.46
352.119	252.11
352.502	254.82
352.884	256.41
353.267	288.27
353.65	276.97
354.032	284.43
354.414	297.99
354.797	302.73
355.179	333.47
355.562	337.53
355.944	325.33
356.326	327.14
356.709	342.96
357.091	340.7
357.473	326.46
357.855	351.77
358.238	339.79
358.62	342.51
359.002	340.25
359.384	343.41
359.766	341.15
360.148	325.56
360.53	322.62
360.912	339.79
361.294	338.66
361.676	337.53
362.057	331.21
362.439	330.3
362.821	332.34
363.203	339.34
363.584	322.84
363.966	317.87
364.348	346.57
364.729	334.82
365.111	322.62
365.493	316.74
365.874	328.72
366.256	322.84
366.637	314.03
367.019	316.97
367.4	326.01
367.781	323.07
368.163	302.73
368.544	297.08
368.925	328.49
369.306	338.44
369.688	328.49
370.069	309.06
370.45	311.77
370.831	297.53
371.212	321.04
371.593	320.36
371.974	320.58
372.355	317.65
372.736	344.31
373.117	317.87
373.498	319.23
373.879	323.52
374.26	330.98
374.641	315.61
375.021	306.8
375.402	323.97
375.783	338.44
376.163	331.66
376.544	342.28
376.925	336.63
377.305	332.56
377.686	337.53
378.066	337.76
378.447	328.04
378.827	344.31
379.208	324.65
379.588	334.14
379.968	322.17
380.349	345.67
380.729	339.57
381.109	358.78
381.489	332.11
381.87	353.58
382.25	341.15
382.63	338.89
383.01	328.95
383.39	347.02
383.77	345.44
384.15	352.67
384.53	373.69
384.91	343.64
385.29	352.45
385.67	342.51
386.049	356.29
386.429	361.26
386.809	367.82
387.189	351.54
387.568	349.28
387.948	373.01
388.328	355.61
388.707	350.87
389.087	367.36
389.466	357.87
389.846	369.62
390.225	389.96
390.605	370.53
390.984	385.44
391.363	380.7
391.743	373.24
392.122	371.2
392.501	359
392.881	376.4
393.26	380.92
393.639	368.95
394.018	385.44
394.397	390.41
394.776	399.68
395.155	384.09
395.534	406.91
395.913	393.8
396.292	381.6
396.671	394.48
397.05	392.45
397.429	407.81
397.808	413.46
398.186	402.39
398.565	386.35
398.944	405.33
399.323	414.37
399.701	410.98
400.08	409.85
400.458	423.18
400.837	429.73
401.215	425.21
401.594	427.25
401.972	406.23
402.351	414.37
402.729	402.62
403.107	433.35
403.486	431.99
403.864	418.21
404.242	404.88
404.62	438.1
404.999	432.67
405.377	435.61
405.755	436.06
406.133	452.33
406.511	439.68
406.889	467.93
407.267	439.68
407.645	461.15
408.023	454.37
408.401	446.01
408.779	452.56
409.156	464.31
409.534	463.63
409.912	464.99
410.29	474.48
410.667	469.51
411.045	461.6
411.422	481.71
411.8	483.52
412.178	500.92
412.555	492.11
412.933	518.55
413.31	500.69
413.687	502.95
414.065	509.96
414.442	500.47
414.819	512.9
415.197	503.63
415.574	514.25
415.951	512.67
416.328	531.43
416.705	532.33
417.082	523.74
417.46	549.05
417.837	528.71
418.214	548.38
418.591	547.02
418.967	534.14
419.344	544.31
419.721	550.86
420.098	540.01
420.475	552.22
420.852	562.16
421.228	549.28
421.605	566.91
421.982	562.61
422.358	572.56
422.735	588.15
423.111	588.83
423.488	582.5
423.864	604.87
424.241	608.03
424.617	600.8
424.994	601.48
425.37	603.52
425.746	609.16
426.123	624.53
426.499	628.83
426.875	602.61
427.251	627.24
427.627	627.24
428.003	622.05
428.379	634.02
428.756	648.26
429.132	654.36
429.507	660.91
429.883	665.43
430.259	674.25
430.635	683.97
431.011	685.55
431.387	702.27
431.763	697.75
432.138	715.83
432.514	723.74
432.89	709.28
433.265	716.51
433.641	751.53
434.016	731.42
434.392	751.99
434.767	758.77
435.143	742.72
435.518	750.63
435.894	749.05
436.269	763.74
436.644	779.1
437.02	783.4
437.395	778.43
437.77	810.52
438.145	808.03
438.52	808.03
438.895	794.47
439.271	805.54
439.646	840.57
440.021	842.6
440.395	830.18
440.77	816.84
441.145	845.32
441.52	860.23
441.895	846.67
442.27	875.37
442.645	846.22
443.019	864.98
443.394	878.99
443.769	893.9
444.143	906.33
444.518	905.88
444.892	895.26
445.267	902.49
445.641	932.55
446.016	931.64
446.39	929.83
446.764	930.29
447.139	905.43
447.513	940.23
447.887	921.47
448.262	941.59
448.636	958.31
449.01	960.12
449.384	973
449.758	977.29
450.132	990.17
450.506	1014.8
450.88	999.66
451.254	1008.93
451.628	1005.09
452.002	1013
452.376	1032.88
452.75	1031.07
453.123	1026.33
453.497	1051.41
453.871	1052.54
454.244	1088.93
454.618	1073.56
454.992	1107.23
455.365	1092.32
455.739	1124.41
456.112	1168.92
456.486	1161.47
456.859	1146.55
457.232	1199.66
457.606	1180.22
457.979	1172.77
458.352	1231.75
458.725	1230.84
459.099	1267
459.472	1254.8
459.845	1261.58
460.218	1279.66
460.591	1291.63
460.964	1288.24
461.337	1316.72
461.71	1327.79
462.083	1358.3
462.456	1360.11
462.829	1403.27
463.201	1424.51
463.574	1433.32
463.947	1418.41
464.32	1459.09
464.692	1493.21
465.065	1491.85
465.438	1535.69
465.81	1570.27
466.183	1591.29
466.555	1592.19
466.928	1619.31
467.3	1617.73
467.672	1656.82
468.045	1706.99
468.417	1662.24
468.789	1695.01
469.161	1729.59
469.534	1767.1
469.906	1795.57
470.278	1815.01
470.65	1854.78
471.022	1887.78
471.394	1947.21
471.766	1959.64
472.138	1978.39
472.51	1994.21
472.882	2109.46
473.253	2102.68
473.625	2158.28
473.997	2230.59
474.369	2213.19
474.74	2271.49
475.112	2348.1
475.484	2380.64
475.855	2468.55
476.227	2481.66
476.598	2547.42
476.97	2576.34
477.341	2700.41
477.713	2725.72
478.084	2775.66
478.455	2887.07
478.827	2950.35
479.198	3016.79
479.569	3065.82
479.94	3182.2
480.311	3196.44
480.682	3293.39
481.053	3442.31
481.424	3496.77
481.795	3570.89
482.166	3661.74
482.537	3752.36
482.908	3853.15
483.279	3938.79
483.65	4059.24
484.021	4156.19
484.391	4251.33
484.762	4329.29
485.133	4431.66
485.503	4508.27
485.874	4699.23
486.244	4757.3
486.615	4897.87
486.985	5005.89
487.356	5176.05
487.726	5192.77
488.097	5387.8
488.467	5473.44
488.837	5650.61
489.207	5698.97
489.578	5883.83
489.948	6021
490.318	6151.39
490.688	6230.94
491.058	6363.82
491.428	6488.33
491.798	6650.59
492.168	6847.42
492.538	6865.05
492.908	7012.84
493.278	7253.28
493.648	7288.54
494.017	7382.09
494.387	7539.83
494.757	7645.82
495.126	7778.92
495.496	7858.92
495.866	7948.86
496.235	8093.71
496.605	8328.28
496.974	8412.8
497.344	8493.48
497.713	8617.09
498.082	8653.92
498.452	8841.26
498.821	8902.73
499.19	9054.37
499.559	9124.42
499.928	9238.32
500.298	9354.25
500.667	9486.45
501.036	9501.81
501.405	9586.56
501.774	9714.46
502.143	9803.5
502.512	9841.92
502.88	10034.68
503.249	10032.65
503.618	10159.2
503.987	10281
504.356	10277.39
504.724	10396.25
505.093	10454.56
505.462	10534.55
505.83	10650.48
506.199	10735.68
506.567	10857.71
506.936	10879.63
507.304	11044.14
507.672	11047.53
508.041	11089.57
508.409	11297.02
508.777	11238.04
509.145	11338.37
509.514	11413.85
509.882	11534.3
510.25	11464.25
510.618	11573.85
510.986	11649.1
511.354	11798.02
511.722	11811.58
512.09	11964.35
512.458	11933.39
512.826	12032.82
513.193	12077.34
513.561	12084.12
513.929	12293.6
514.297	12263.1
514.664	12264
515.032	12333.15
515.4	12414.28
515.767	12471.45
516.135	12529.98
516.502	12495.63
516.869	12685.46
517.237	12675.51
517.604	12604.1
517.972	12763.2
518.339	12750.09
518.706	12819.92
519.073	12852.46
519.44	12898.33
519.808	12987.14
520.175	12976.07
520.542	13124.32
520.909	13291.54
521.276	13143.52
521.643	13241.83
522.009	13272.33
522.376	13298.1
522.743	13397.98
523.11	13501.71
523.477	13562.27
523.843	13517.3
524.21	13709.61
524.577	13699.44
524.943	13693.79
525.31	13760.01
525.676	13854.01
526.043	13825.99
526.409	13836.84
526.776	13884.52
527.142	13938.31
527.508	13944.86
527.874	14084.97
528.241	14087.45
528.607	14151.86
528.973	14101.47
529.339	14087.45
529.705	14185.3
530.071	14251.97
530.437	14298.75
530.803	14281.8
531.169	14336.04
531.535	14215.36
531.901	14270.27
532.267	14229.15
532.632	14272.76
532.998	14222.14
533.364	14308.47
533.73	14367.9
534.095	14419.65
534.461	14381.01
534.826	14401.57
535.192	14323.83
535.557	14448.35
535.923	14345.98
536.288	14319.09
536.653	14354.34
537.019	14186.89
537.384	14360.67
537.749	14305.08
538.114	14354.79
538.479	14288.13
538.845	14265.98
539.21	14130.17
539.575	14256.49
539.94	14204.97
540.305	14239.31
540.67	14199.77
541.034	14143.95
541.399	14303.04
541.764	14233.89
542.129	14228.24
542.494	14173.78
542.858	14158.41
543.223	14143.72
543.587	14148.24
543.952	14021.24
544.316	14026.44
544.681	14025.31
545.045	13995.48
545.41	13919.1
545.774	13982.82
546.138	13993.9
546.503	13936.95
546.867	13845.65
547.231	14010.39
547.595	13962.49
547.959	13855.37
548.324	13961.81
548.688	13851.98
549.052	13824.64
549.416	13775.82
549.779	13763.85
550.143	13818.99
550.507	13836.84
550.871	13762.27
551.235	13706.22
551.599	13798.2
551.962	13794.58
552.326	13673
552.689	13722.94
553.053	13676.84
553.417	13630.07
553.78	13755.03
554.143	13732.21
554.507	13633.23
554.87	13649.95
555.234	13762.04
555.597	13639.56
555.96	13624.19
556.323	13561.82
556.686	13683.85
557.05	13675.94
557.413	13648.6
557.776	13627.13
558.139	13675.26
558.502	13612.21
558.865	13663.51
559.228	13655.38
559.59	13745.32
559.953	13663.06
560.316	13799.55
560.679	13671.19
561.041	13701.93
561.404	13810.63
561.767	13829.61
562.129	13695.15
562.492	13809.72
562.854	13826.22
563.217	13776.73
563.579	13839.1
563.941	13860.34
564.304	13882.94
564.666	13937.63
565.028	13860.12
565.39	13910.06
565.753	13927.01
566.115	13879.1
566.477	14040.45
566.839	13930.62
567.201	14048.36
567.563	14076.61
567.925	14093.1
568.287	14105.31
568.648	14052.88
569.01	14173.1
569.372	14124.52
569.734	14127.68
570.095	14202.03
570.457	14275.25
570.819	14218.52
571.18	14156.61
571.542	14352.98
571.903	14200.45
572.265	14236.38
572.626	14333.1
572.987	14275.92
573.349	14381.01
573.71	14367.67
574.071	14339.88
574.432	14471.63
574.794	14516.14
575.155	14454.45
575.516	14428.01
575.877	14488.35
576.238	14431.17
576.599	14523.6
576.96	14470.04
577.32	14525.41
577.681	14529.93
578.042	14575.8
578.403	14463.94
578.763	14488.57
579.124	14515.01
579.485	14602.02
579.845	14596.59
580.206	14500.1
580.566	14479.08
580.927	14537.84
581.287	14625.97
581.648	14545.75
582.008	14545.75
582.368	14604.05
582.728	14599.53
583.089	14539.42
583.449	14610.83
583.809	14576.48
584.169	14579.19
584.529	14510.04
584.889	14687.21
585.249	14538.52
585.609	14461.46
585.969	14488.57
586.329	14437.95
586.688	14521.34
587.048	14557.95
587.408	14435.47
587.768	14492.64
588.127	14368.8
588.487	14433.43
588.846	14525.18
589.206	14415.58
589.565	14424.17
589.925	14424.17
590.284	14433.66
590.643	14431.17
591.003	14394.11
591.362	14389.59
591.721	14418.52
592.08	14340.78
592.44	14397.73
592.799	14360.22
593.158	14414.45
593.517	14336.94
593.876	14461.23
594.235	14382.59
594.593	14339.65
594.952	14381.68
595.311	14305.75
595.67	14284.96
596.029	14327
596.387	14392.98
596.746	14425.75
597.104	14362.25
597.463	14357.28
597.822	14291.29
598.18	14323.61
598.538	14301.23
598.897	14321.57
599.255	14287.22
599.613	14480.44
599.972	14352.98
600.33	14360.67
600.688	14349.37
601.046	14342.14
601.404	14444.51
601.762	14359.54
602.12	14419.65
602.478	14372.42
602.836	14370.61
603.194	14244.96
603.552	14296.49
603.91	14338.07
604.268	14282.48
604.625	14327
604.983	14355.7
605.341	14213.33
605.698	14359.09
606.056	14368.13
606.413	14390.05
606.771	14419.42
607.128	14368.13
607.485	14336.04
607.843	14355.47
608.2	14392.98
608.557	14432.53
608.914	14413.55
609.272	14426.43
609.629	14434.56
609.986	14474.34
610.343	14467.11
610.7	14506.88
611.057	14488.8
611.414	14532.87
611.771	14573.09
612.127	14604.73
612.484	14529.93
612.841	14631.39
613.198	14586.65
613.554	14579.87
613.911	14595.92
614.267	14646.76
614.624	14634.78
614.98	14619.64
615.337	14701.22
615.693	14681.79
616.05	14618.74
616.406	14703.48
616.762	14683.14
617.118	14625.07
617.475	14665.07
617.831	14703.94
618.187	14750.71
618.543	14687.44
618.899	14739.41
619.255	14734.67
619.611	14675.01
619.967	14861.67
620.323	14849.92
620.678	14777.83
621.034	14743.48
621.39	14725.63
621.746	14749.13
622.101	14900.77
622.457	14810.15
622.812	14858.96
623.168	14821.9
623.523	14715.01
623.879	14893.53
624.234	14731.73
624.589	14749.81
624.945	14836.59
625.3	14856.47
625.655	14777.38
626.01	14847.89
626.365	14806.53
626.72	14841.33
627.075	14755.01
627.43	14800.66
627.785	14776.25
628.14	14734.9
628.495	14873.42
628.85	14765.4
629.205	14693.31
629.559	14734.22
629.914	14715.91
630.269	14747.55
630.623	14774.67
630.978	14599.53
631.332	14706.2
631.687	14702.58
632.041	14625.29
632.396	14702.81
632.75	14585.75
633.104	14662.13
633.459	14559.08
633.813	14506.65
634.167	14530.83
634.521	14563.37
634.875	14538.06
635.229	14565.86
635.583	14411.74
635.937	14437.73
636.291	14485.86
636.645	14411.29
636.999	14456.48
637.352	14514.34
637.706	14370.84
638.06	14386.43
638.413	14293.1
638.767	14332.87
639.121	14402.47
639.474	14346.43
639.828	14353.89
640.181	14358.18
640.534	14350.95
640.888	14273.66
641.241	14222.82
641.594	14266.21
641.947	14208.13
642.301	14197.73
642.654	14265.08
643.007	14200.45
643.36	14162.93
643.713	14092.65
644.066	14103.95
644.419	14067.34
644.771	14082.93
645.124	13949.83
645.477	13914.35
645.83	13822.83
646.182	13713.23
646.535	13705.77
646.888	13702.38
647.24	13645.66
647.593	13683.85
647.945	13638.43
648.298	13677.75
648.65	13635.04
649.002	13630.52
649.355	13641.82
649.707	13621.7
650.059	13724.53
650.411	13851.08
650.763	13847.23
651.115	14065.08
651.467	13937.85
651.819	13962.26
652.171	13884.07
652.523	13936.5
652.875	13900.11
653.227	13938.31
653.578	13931.53
653.93	13988.93
654.282	13935.59
654.633	13868.25
654.985	13806.78
655.337	13909.38
655.688	13809.04
656.039	13977.85
656.391	13835.94
656.742	13863.28
657.094	13856.95
657.445	13903.5
657.796	13903.28
658.147	13895.6
658.498	13891.53
658.849	13940.57
659.2	13882.94
659.551	13916.61
659.902	13979.43
660.253	13934.92
660.604	13966.33
660.955	13920.91
661.306	14021.69
661.656	13971.75
662.007	13916.84
662.358	13974.69
662.708	13855.37
663.059	13870.29
663.409	13836.39
663.76	13936.5
664.11	14036.83
664.461	13920
664.811	13960.9
665.161	13962.71
665.511	13969.04
665.862	13952.77
666.212	13966.33
666.562	13974.46
666.912	13980.11
667.262	13937.85
667.612	13908.25
667.962	14011.3
668.312	13942.6
668.662	14065.31
669.011	13905.99
669.361	13946.22
669.711	13932.66
670.06	13870.74
670.41	13857.4
670.76	13829.16
671.109	13848.59
671.459	13858.76
671.808	13821.7
672.157	13869.83
672.507	13730.63
672.856	13737.86
673.205	13786.45
673.554	13838.65
673.904	13721.14
674.253	13819.21
674.602	13820.79
674.951	13553.46
675.3	13556.85
675.649	13712.55
675.998	13724.98
676.346	13720.01
676.695	13703.06
677.044	13703.51
677.393	13661.25
677.741	13637.07
678.09	13705.09
678.438	13668.26
678.787	13666.9
679.135	13603.63
679.484	13492.22
679.832	13558.43
680.181	13527.02
680.529	13569.05
680.877	13457.41
681.225	13487.92
681.573	13501.93
681.922	13368.83
682.27	13505.77
682.618	13463.52
682.966	13326.8
683.314	13437.98
683.661	13401.82
684.009	13275.95
684.357	13222.17
684.705	13166.35
685.053	13233.92
685.4	13187.37
685.748	13149.17
686.095	13086.35
686.443	13129.97
686.79	13056.52
687.138	13079.57
687.485	13091.55
687.832	13016.3
688.18	12967.71
688.527	12892.46
688.874	12935.85
689.221	12925
689.568	12864.66
689.915	12863.98
690.262	12790.54
690.609	12758
690.956	12691.56
691.303	12676.42
691.65	12502.41
691.997	12585.12
692.344	12499.93
692.69	12477.33
693.037	12454.73
693.383	12438.01
693.73	12474.84
694.077	12297.9
694.423	12311.46
694.769	12218.35
695.116	12231.01
695.462	12254.51
695.808	12164.79
696.155	12219.03
696.501	12069.65
696.847	12082.08
697.193	11951.92
697.539	12047.06
697.885	11965.02
698.231	11846.84
698.577	11779.72
698.923	11831.69
699.269	11756.67
699.614	11719.61
699.96	11612.49
700.306	11617.01
700.651	11645.48
700.997	11537.24
701.342	11542.44
701.688	11525.94
702.033	11422.44
702.379	11398.26
702.724	11451.37
703.069	11403.01
703.415	11344.02
703.76	11316
704.105	11308.54
704.45	11236.23
704.795	11194.65
705.14	11090.25
705.485	11112.39
705.83	11042.56
706.175	11062
706.52	11088.89
706.865	10934.09
707.209	10946.97
707.554	10828.56
707.899	10887.31
708.243	10819.97
708.588	10838.27
708.932	10793.3
709.277	10658.39
709.621	10779.74
709.966	10672.18
710.31	10698.84
710.654	10613.42
710.998	10584.95
711.342	10593.76
711.687	10465.18
712.031	10544.5
712.375	10469.47
712.719	10533.42
713.063	10420.88
713.407	10490.71
713.75	10426.99
714.094	10404.16
714.438	10344.5
714.782	10361.45
715.125	10355.35
715.469	10367.78
715.812	10283.49
716.156	10253.43
716.499	10234.22
716.843	10269.7
717.186	10198.74
717.53	10316.03
717.873	10262.02
718.216	10248.23
718.559	10153.32
718.902	10042.82
719.246	10165.98
719.589	10151.74
719.932	10047.11
720.275	10025.87
720.617	10055.02
720.96	10008.69
721.303	10015.25
721.646	10076.94
721.989	10006.21
722.331	10026.32
722.674	10080.55
723.016	9953.78
723.359	9912.65
723.701	9877.4
724.044	9868.81
724.386	9796.95
724.729	9902.93
725.071	9882.59
725.413	9876.72
725.755	9833.1
726.097	9874.46
726.439	9741.13
726.782	9795.36
727.124	9849.83
727.465	9738.19
727.807	9758.75
728.149	9777.74
728.491	9803.05
728.833	9760.79
729.175	9728.7
729.516	9680.79
729.858	9670.4
730.199	9747.46
730.541	9728.02
730.882	9740.9
731.224	9748.13
731.565	9664.29
731.906	9689.6
732.248	9735.03
732.589	9673.56
732.93	9697.51
733.271	9629.72
733.612	9679.66
733.953	9715.82
734.294	9681.69
734.635	9672.66
734.976	9701.58
735.317	9639.89
735.658	9705.2
735.999	9678.08
736.339	9649.15
736.68	9732.31
737.021	9674.92
737.361	9607.35
737.702	9640.57
738.042	9677.63
738.383	9702.71
738.723	9713.78
739.063	9643.05
739.404	9668.14
739.744	9713.11
740.084	9695.25
740.424	9628.81
740.764	9663.84
741.104	9744.07
741.444	9689.83
741.784	9706.78
742.124	9759.43
742.464	9735.03
742.804	9728.25
743.143	9831.52
743.483	9809.83
743.823	9789.71
744.162	9735.7
744.502	9850.5
744.841	9855.7
745.181	9841.46
745.52	9901.58
745.86	9972.08
746.199	9951.29
746.538	9991.29
746.877	10117.39
747.216	10043.72
747.556	10142.25
747.895	10157.39
748.234	10134.79
748.573	10235.13
748.911	10230.61
749.25	10293.43
749.589	10404.16
749.928	10460.21
750.267	10484.39
750.605	10510.6
750.944	10542.24
751.283	10640.54
751.621	10739.52
751.96	10752.17
752.298	10776.13
752.636	10937.48
752.975	10942
753.313	10985.16
753.651	11180.64
753.989	11185.84
754.327	11330.92
754.666	11375.21
755.004	11459.95
755.342	11645.48
755.679	11711.02
756.017	11818.14
756.355	11935.42
756.693	12056.1
757.031	12115.75
757.368	12165.92
757.706	12356.88
758.044	12471.68
758.381	12670.99
758.719	12724.33
759.056	12929.52
759.394	13002.74
759.731	13076.18
760.068	13290.87
760.405	13299.45
760.743	13434.82
761.08	13586.45
761.417	13686.11
761.754	13831.87
762.091	13967.23
762.428	14054.01
762.765	14141.01
763.102	14405.86
763.438	14463.04
763.775	14555.69
764.112	14665.97
764.449	14903.7
764.785	14967.66
765.122	15014.89
765.458	15174.43
765.795	15371.49
766.131	15387.53
766.467	15513.18
766.804	15592.27
767.14	15599.28
767.476	15831.59
767.812	15861.87
768.148	16095.54
768.485	16102.99
768.821	16109.1
769.157	16302.54
769.492	16380.73
769.828	16475.41
770.164	16459.6
770.5	16578.24
770.836	16664.34
771.171	16675.41
771.507	16800.6
771.842	16644.45
772.178	16922.18
772.513	16962.18
772.849	17041.73
773.184	17097.54
773.519	17204.66
773.855	17150.88
774.19	17255.28
774.525	17263.42
774.86	17393.13
775.195	17401.27
775.53	17426.35
775.865	17383.64
776.2	17320.14
776.535	17275.85
776.87	17389.06
777.205	17338.89
777.539	17413.92
777.874	17485.11
778.209	17350.87
778.543	17366.01
778.878	17384.32
779.212	17547.48
779.547	17491.88
779.881	17457.31
780.215	17528.95
780.55	17495.05
780.884	17500.7
781.218	17510.19
781.552	17520.81
781.886	17468.38
782.22	17450.3
782.554	17522.62
782.888	17280.14
783.222	17293.47
783.556	17220.03
783.889	17299.8
784.223	17221.61
784.557	17302.29
784.89	17367.82
785.224	17237.65
785.557	17207.37
785.891	17265
786.224	17179.12
786.558	17195.4
786.891	17112.46
787.224	16991.78
787.557	17062.97
787.891	17048.96
788.224	17104.55
788.557	17152.23
788.89	17058.45
789.223	16981.84
789.556	16856.2
789.888	16924.67
790.221	16849.87
790.554	16682.41
790.887	16861.17
791.219	16706.59
791.552	16669.76
791.884	16705.46
792.217	16640.61
792.549	16641.96
792.882	16410.78
793.214	16438.58
793.546	16504.11
793.879	16387.96
794.211	16303.89
794.543	16492.81
794.875	16346.6
795.207	16404.23
795.539	16363.55
795.871	16307.06
796.203	16211.01
796.535	16106.38
796.867	16091.7
797.198	16054.63
797.53	16123.79
797.862	15967.18
798.193	15989.78
798.525	15875.2
798.856	15956.11
799.188	15803.57
799.519	15820.97
799.85	15674.31
800.182	15606.28
800.513	15707.98
800.844	15607.19
801.175	15630.92
801.506	15608.54
801.837	15532.16
802.168	15507.98
802.499	15404.26
802.83	15399.28
803.161	15421.2
803.491	15356.57
803.822	15364.93
804.153	15277.93
804.483	15182.34
804.814	15112.96
805.145	15142.34
805.475	15174.88
805.805	15025.96
806.136	14998.16
806.466	15115
806.796	15064.83
807.126	14982.8
807.457	14917.26
807.787	14874.55
808.117	14761.34
808.447	14819.19
808.777	14813.09
809.107	14712.75
809.436	14731.28
809.766	14714.1
810.096	14570.83
810.426	14533.32
810.755	14655.58
811.085	14585.29
811.414	14615.12
811.744	14482.47
812.073	14420.55
812.403	14381.46
812.732	14346.43
813.061	14349.14
813.39	14294.68
813.719	14276.38
814.049	14337.17
814.378	14310.95
814.707	14222.59
815.036	14288.81
815.365	14141.01
815.693	14039.77
816.022	14045.65
816.351	14028.7
816.68	13923.84
817.008	14028.92
817.337	13896.5
817.665	13914.13
817.994	13917.52
818.322	13913.67
818.651	13774.47
818.979	13703.96
819.307	13905.76
819.636	13727.92
819.964	13696.28
820.292	13803.85
820.62	13688.59
820.948	13695.37
821.276	13701.02
821.604	13667.35
821.932	13752.32
822.259	13714.81
822.587	13651.53
822.915	13649.5
823.243	13648.82
823.57	13701.02
823.898	13684.3
824.225	13612.66
824.553	13581.25
824.88	13583.06
825.207	13653.57
825.535	13650.63
825.862	13629.39
826.189	13584.42
826.516	13724.07
826.843	13731.98
827.17	13646.56
827.497	13686.11
827.824	13670.97
828.151	13721.14
828.478	13636.84
828.805	13790.29
829.131	13686.34
829.458	13662.15
829.785	13614.02
830.111	13648.14
830.438	13610.4
830.764	13627.81
831.09	13597.75
831.417	13597.75
831.743	13613.57
832.069	13637.97
832.395	13649.5
832.722	13667.58
833.048	13598.43
833.374	13637.52
833.7	13536.96
834.026	13564.3
834.351	13529.28
834.677	13648.82
835.003	13546.23
835.329	13531.31
835.654	13549.39
835.98	13477.98
836.306	13528.15
836.631	13477.98
836.956	13435.04
837.282	13376.51
837.607	13456.96
837.932	13342.16
838.258	13414.03
838.583	13368.6
838.908	13267.59
839.233	13279.57
839.558	13247.7
839.883	13211.09
840.208	13174.03
840.533	13216.52
840.858	13215.39
841.182	13152.79
841.507	13184.88
841.832	13108.05
842.156	12992.12
842.481	13150.08
842.805	13037.76
843.13	13067.59
843.454	12946.47
843.778	12957.31
844.103	12907.6
844.427	12863.53
844.751	12947.6
845.075	12860.82
845.399	12824.89
845.723	12790.31
846.047	12791.44
846.371	12585.57
846.695	12667.38
847.019	12560.04
847.343	12535.4
847.666	12444.79
847.99	12352.36
848.313	12387.39
848.637	12285.69
848.96	12255.64
849.284	12247.05
849.607	12147.84
849.931	12131.35
850.254	12019.49
850.577	11934.29
850.9	11828.3
851.223	11893.39
851.546	11862.43
851.869	11733.17
852.192	11811.36
852.515	11733.17
852.838	11625.82
853.161	11639.16
853.483	11609.78
853.806	11578.37
854.129	11440.97
854.451	11505.15
854.774	11467.86
855.096	11457.02
855.419	11419.95
855.741	11388.09
856.063	11218.6
856.385	11269.9
856.708	11233.52
857.03	11226.29
857.352	11151.03
857.674	11161.88
857.996	11108.1
858.318	10981.32
858.64	11049.12
858.961	11042.11
859.283	10955.33
859.605	10874.66
859.926	10952.62
860.248	10871.49
860.57	10880.99
860.891	10869.23
861.212	10817.94
861.534	10779.52
861.855	10701.33
862.176	10787.65
862.498	10750.14
862.819	10710.37
863.14	10656.13
863.461	10667.21
863.782	10616.59
864.103	10598.96
864.424	10622.01
864.745	10599.64
865.065	10500.66
865.386	10463.59
865.707	10494.33
866.027	10513.09
866.348	10440.09
866.668	10398.74
866.989	10488.23
867.309	10421.11
867.63	10398.29
867.95	10393.54
868.27	10299.98
868.59	10356.48
868.91	10318.06
869.23	10353.99
869.55	10274
869.87	10321.9
870.19	10272.19
870.51	10306.76
870.83	10245.3
871.15	10180.66
871.469	10263.15
871.789	10207.33
872.109	10196.03
872.428	10155.35
872.748	10196.26
873.067	10185.18
873.386	10125.75
873.706	10142.25
874.025	10087.33
874.344	10040.78
874.663	10101.8
874.982	10056.37
875.301	10037.62
875.62	9956.49
875.939	9900.67
876.258	9893.21
876.577	9893.21
876.896	9923.5
877.214	9895.7
877.533	9942.03
877.852	9903.16
878.17	9857.06
878.489	9813.67
878.807	9899.32
879.125	9859.54
879.444	9805.08
879.762	9735.48
880.08	9794.91
880.398	9746.78
880.716	9765.76
881.034	9678.08
881.352	9681.02
881.67	9679.43
881.988	9623.39
882.306	9639.89
882.624	9599.44
882.941	9551.98
883.259	9578.19
883.577	9583.39
883.894	9522.6
884.212	9457.52
884.529	9482.6
884.846	9460.91
885.164	9421.36
885.481	9406.22
885.798	9330.97
886.115	9382.04
886.432	9370.52
886.75	9324.19
887.067	9353.34
887.383	9275.6
887.7	9273.34
888.017	9229.73
888.334	9216.17
888.651	9210.97
888.967	9206.45
889.284	9082.16
889.6	9061.82
889.917	9050.98
890.233	9107.7
890.55	8986.57
890.866	9050.98
891.182	9007.14
891.498	8942.5
891.815	8911.09
892.131	8920.81
892.447	8915.84
892.763	8837.42
893.079	8779.35
893.395	8779.35
893.71	8744.09
894.026	8825.67
894.342	8736.41
894.657	8649.86
894.973	8638.56
895.289	8601.5
895.604	8591.78
895.92	8545.45
896.235	8516.98
896.55	8592.23
896.865	8507.26
897.181	8515.17
897.496	8436.53
897.811	8424.1
898.126	8377.77
898.441	8391.78
898.756	8262.52
899.071	8266.82
899.386	8264.56
899.7	8181.4
900.015	8208.96
900.33	8103.21
900.644	8153.6
900.959	8135.07
901.273	8098.69
901.588	8069.08
901.902	8075.18
902.216	7976.43
902.531	7971.46
902.845	7949.08
903.159	7922.42
903.473	7874.96
903.787	7805.13
904.101	7769.65
904.415	7787.96
904.729	7754.74
905.042	7724.46
905.356	7717.23
905.67	7712.93
905.984	7711.58
906.297	7643.78
906.611	7590.9
906.924	7506.61
907.237	7568.08
907.551	7491.02
907.864	7498.7
908.177	7465.03
908.491	7376.9
908.804	7353.17
909.117	7318.37
909.43	7254.87
909.743	7241.76
910.056	7245.15
910.368	7260.06
910.681	7211.25
910.994	7159.5
911.307	7079.73
911.619	7097.36
911.932	7059.16
912.244	7011.93
912.557	7038.6
912.869	6970.35
913.181	6926.96
913.494	6917.25
913.806	6874.54
914.118	6898.04
914.43	6830.92
914.742	6857.81
915.054	6772.62
915.366	6754.31
915.678	6768.1
915.99	6663.47
916.302	6637.03
916.613	6649.01
916.925	6700.3
917.236	6586.63
917.548	6579.86
917.859	6572.62
918.171	6531.27
918.482	6564.71
918.794	6416.02
919.105	6452.63
919.416	6438.16
919.727	6393.65
920.038	6453.53
920.349	6290.6
920.66	6312.97
920.971	6288.11
921.282	6233.88
921.593	6242.46
921.903	6218.28
922.214	6139.19
922.525	6225.06
922.835	6122.01
923.146	6081.79
923.456	6108.46
923.767	6096.25
924.077	6105.29
924.387	6029.59
924.697	5974.67
925.008	5955.69
925.318	5988.68
925.628	5924.96
925.938	5899.42
926.248	5861.46
926.558	5822.81
926.867	5814.9
927.177	5798.86
927.487	5789.82
927.796	5701.46
928.106	5687.68
928.416	5705.08
928.725	5718.41
929.034	5646.55
929.344	5650.16
929.653	5636.38
929.962	5575.81
930.271	5567.23
930.581	5553.67
930.89	5565.87
931.199	5497.85
931.508	5457.85
931.817	5512.54
932.125	5438.19
932.434	5414.91
932.743	5386.67
933.051	5385.76
933.36	5367.91
933.669	5288.82
933.977	5283.62
934.286	5287.01
934.594	5282.49
934.902	5184.86
935.21	5167.46
935.519	5154.36
935.827	5145.54
936.135	5129.95
936.443	5082.95
936.751	5091.08
937.059	5113.68
937.367	4987.81
937.674	4977.86
937.982	4979.9
938.29	4982.38
938.597	4975.6
938.905	4904.65
939.213	4924.98
939.52	4896.74
939.827	4887.02
940.135	4883.4
940.442	4828.04
940.749	4809.73
941.056	4860.35
941.363	4742.39
941.67	4768.83
941.977	4736.29
942.284	4714.59
942.591	4706.23
942.898	4667.82
943.205	4701.26
943.511	4638.66
943.818	4651.09
944.125	4602.05
944.431	4596.18
944.738	4591.88
945.044	4528.16
945.35	4559.34
945.657	4497.65
945.963	4507.37
946.269	4492.23
946.575	4464.88
946.881	4458.56
947.187	4436.41
947.493	4386.69
947.799	4377.2
948.105	4338.56
948.41	4316.41
948.716	4360.7
949.022	4312.34
949.327	4259.92
949.633	4238.67
949.938	4298.33
950.244	4246.81
950.549	4188.73
950.854	4183.99
951.16	4153.48
951.465	4195.06
951.77	4141.5
952.075	4120.71
952.38	4096.3
952.685	4161.61
952.99	4087.72
953.294	4047.94
953.599	4036.87
953.904	4010.43
954.209	3990.77
954.513	3940.15
954.818	3939.47
955.122	3949.42
955.426	3904.22
955.731	3880.49
956.035	3883.65
956.339	3852.92
956.643	3907.61
956.948	3857.89
957.252	3807.5
957.556	3839.36
957.86	3809.76
958.163	3790.1
958.467	3805.92
958.771	3790.78
959.075	3719.82
959.378	3726.14
959.682	3720.5
959.985	3657.22
960.289	3713.26
960.592	3614.74
960.896	3666.49
961.199	3621.51
961.502	3599.37
961.805	3609.99
962.108	3570.67
962.411	3577.9
962.714	3565.25
963.017	3550.78
963.32	3551.46
963.623	3494.51
963.926	3490.22
964.228	3444.34
964.531	3502.42
964.833	3452.71
965.136	3484.57
965.438	3408.19
965.741	3402.09
966.043	3409.32
966.345	3368.64
966.648	3343.33
966.95	3353.27
967.252	3331.35
967.554	3308.53
967.856	3316.89
968.158	3287.51
968.46	3274.86
968.761	3256.55
969.063	3236.21
969.365	3259.94
969.666	3231.02
969.968	3224.92
970.269	3153.96
970.571	3161.41
970.872	3169.55
971.174	3150.79
971.475	3151.02
971.776	3122.55
972.077	3116.44
972.378	3099.95
972.679	3052.26
972.98	3058.14
973.281	3080.51
973.582	3032.15
973.883	3050.91
974.183	3039.38
974.484	3042.32
974.785	2971.14
975.085	2976.33
975.386	2965.49
975.686	2937.92
975.986	2972.04
976.287	2919.39
976.587	2891.59
976.887	2881.87
977.187	2899.73
977.487	2872.38
977.787	2844.13
978.087	2830.58
978.387	2845.04
978.687	2821.08
978.987	2845.49
979.286	2805.49
979.586	2793.97
979.885	2794.87
980.185	2766.62
980.484	2765.04
980.784	2733.4
981.083	2746.74
981.382	2759.39
981.682	2708.32
981.981	2709
982.28	2677.13
982.579	2659.96
982.878	2686.4
983.177	2647.76
983.475	2622.45
983.774	2620.64
984.073	2611.6
984.372	2615.21
984.67	2567.53
984.969	2561.43
985.267	2601.43
985.566	2581.54
985.864	2535.22
986.162	2555.33
986.461	2514.2
986.759	2494.76
987.057	2502.9
987.355	2483.47
987.653	2472.17
987.951	2475.1
988.249	2457.48
988.547	2439.4
988.844	2435.56
989.142	2436.01
989.44	2395.33
989.737	2413.86
990.035	2398.04
990.332	2377.93
990.63	2405.73
990.927	2358.27
991.224	2379.74
991.521	2334.77
991.819	2368.44
992.116	2327.09
992.413	2317.14
992.71	2277.37
993.006	2304.49
993.303	2292.96
993.6	2239.86
993.897	2247.09
994.193	2243.02
994.49	2244.6
994.787	2243.7
995.083	2231.04
995.379	2176.81
995.676	2186.3
995.972	2164.15
996.268	2180.65
996.565	2116.02
996.861	2134.32
997.157	2117.37
997.453	2098.84
997.749	2114.66
998.044	2086.64
998.34	2101.33
998.636	2075.11
998.932	2065.4
999.227	2066.53
999.523	2050.93
999.818	2048
1000.114	2046.87
1000.409	2025.62
1000.704	1980.2
1001	2000.09
1001.295	1985.63
1001.59	1986.53
1001.885	1960.09
1002.18	1965.06
1002.475	1971.84
1002.77	1956.7
1003.065	1904.27
1003.359	1946.98
1003.654	1918.06
1003.949	1891.84
1004.243	1899.75
1004.538	1895.46
1004.832	1852.3
1005.127	1866.31
1005.421	1857.49
1005.715	1858.4
1006.009	1823.37
1006.304	1828.79
1006.598	1818.85
1006.892	1798.29
1007.186	1796.93
1007.48	1787.66
1007.773	1789.02
1008.067	1721.45
1008.361	1746.99
1008.655	1743.37
1008.948	1732.53
1009.242	1714.9
1009.535	1702.24
1009.829	1711.06
1010.122	1695.46
1010.415	1642.58
1010.708	1652.98
1011.001	1686.65
1011.295	1652.08
1011.588	1666.31
1011.881	1636.93
1012.173	1579.31
1012.466	1614.79
1012.759	1589.7
1013.052	1621.34
1013.344	1587.44
1013.637	1571.17
1013.93	1555.13
1014.222	1537.73
1014.514	1547.9
1014.807	1565.07
1015.099	1526.65
1015.391	1519.65
1015.683	1514.9
1015.976	1514.45
1016.268	1492.98
1016.56	1499.08
1016.851	1473.32
1017.143	1469.93
1017.435	1468.13
1017.727	1434.45
1018.018	1442.82
1018.31	1429.03
1018.602	1436.71
1018.893	1419.54
1019.185	1416.15
1019.476	1426.77
1019.767	1403.49
1020.058	1392.87
1020.35	1337.96
1020.641	1332.76
1020.932	1365.08
1021.223	1351.74
1021.514	1309.03
1021.804	1341.12
1022.095	1326.43
1022.386	1309.26
1022.677	1304.74
1022.967	1279.88
1023.258	1294.8
1023.548	1273.1
1023.839	1269.26
1024.129	1260.9
1024.419	1250.96
1024.709	1248.02
1025	1253.22
1025.29	1263.38
1025.58	1245.31
1025.87	1205.76
1026.16	1194.23
1026.449	1186.1
1026.739	1178.87
1027.029	1158.98
1027.319	1175.25
1027.608	1175.25
1027.898	1153.56
1028.187	1167.79
1028.477	1155.14
1028.766	1132.77
1029.055	1140
1029.344	1108.59
1029.634	1121.69
1029.923	1113.56
1030.212	1090.73
1030.501	1112.65
1030.79	1084.18
1031.078	1079.66
1031.367	1063.84
1031.656	1083.05
1031.945	1057.51
1032.233	1062.03
1032.522	1069.72
1032.81	1035.82
1033.099	1024.75
1033.387	1028.14
1033.675	1033.11
1033.963	1029.49
1034.251	998.76
1034.54	1016.16
1034.828	1000.34
1035.116	1003.28
1035.403	992.21
1035.691	990.17
1035.979	967.8
1036.267	990.4
1036.554	970.96
1036.842	971.19
1037.129	943.62
1037.417	943.85
1037.704	938.65
1037.992	941.59
1038.279	912.43
1038.566	935.48
1038.853	935.48
1039.14	935.48
