Data from hue_170_FLMS001491_00069.txt Node
Date: Tue Feb 07 16:49:02 GMT 2017
User: dcchb
Spectrometer: FLMS00149
Trigger mode: 0
Integration Time (sec): 2.000000E-2
Scans to average: 10
Electric dark correction enabled: true
Nonlinearity correction enabled: false
Boxcar width: 0
XAxis mode: Wavelengths
Number of Pixels in Spectrum: 2048
>>>>>Begin Spectral Data<<<<<
341.393	-21.52
341.776	-21.52
342.16	-21.52
342.543	-53.16
342.927	-81.86
343.31	-68.53
343.693	-71.69
344.077	-53.16
344.46	-52.03
344.843	-40.73
345.226	-33.5
345.61	-26.5
345.993	-38.47
346.376	-2.54
346.759	19.15
347.142	19.6
347.525	40.85
347.908	50.56
348.291	70.9
348.674	71.13
349.057	114.97
349.44	113.16
349.823	141.41
350.206	159.94
350.588	215.31
350.971	217.11
351.354	235.42
351.737	250.56
352.119	246.49
352.502	251.69
352.884	248.07
353.267	301.86
353.65	286.94
354.032	287.39
354.414	289.88
354.797	324
355.179	305.25
355.562	308.18
355.944	330.1
356.326	330.33
356.709	322.19
357.091	340.95
357.473	346.15
357.855	319.94
358.238	330.33
358.62	316.77
359.002	343.66
359.384	336.66
359.766	327.84
360.148	324.23
360.53	340.5
360.912	330.1
361.294	353.83
361.676	309.09
362.057	330.1
362.439	318.35
362.821	323.55
363.203	339.6
363.584	309.09
363.966	322.65
364.348	322.19
364.729	314.06
365.111	317.45
365.493	315.64
365.874	302.99
366.256	334.62
366.637	314.06
367.019	327.39
367.4	313.61
367.781	297.11
368.163	314.06
368.544	309.31
368.925	328.07
369.306	320.61
369.688	304.57
370.069	293.72
370.45	286.26
370.831	305.47
371.212	291.69
371.593	321.52
371.974	312.7
372.355	304.79
372.736	315.87
373.117	308.86
373.498	324.91
373.879	304.12
374.26	337.11
374.641	316.55
375.021	315.87
375.402	317.45
375.783	309.99
376.163	309.54
376.544	316.32
376.925	333.04
377.305	341.63
377.686	328.52
378.066	329.43
378.447	336.43
378.827	331.46
379.208	349.99
379.588	331.23
379.968	336.88
380.349	337.79
380.729	320.61
381.109	323.1
381.489	342.53
381.87	335.3
382.25	324.68
382.63	321.74
383.01	323.1
383.39	331.01
383.77	362.87
384.15	330.33
384.53	351.35
384.91	356.09
385.29	359.93
385.67	354.51
386.049	342.31
386.429	345.92
386.809	361.97
387.189	340.73
387.568	351.57
387.948	356.54
388.328	353.61
388.707	364.91
389.087	340.27
389.466	367.84
389.846	376.88
390.225	374.62
390.605	371.91
390.984	374.4
391.363	358.58
391.743	358.58
392.122	369.88
392.501	374.85
392.881	379.37
393.26	381.18
393.639	382.76
394.018	382.98
394.397	388.18
394.776	397.9
395.155	382.31
395.534	384.57
395.913	403.55
396.292	382.98
396.671	404.45
397.05	392.7
397.429	392.02
397.808	387.28
398.186	392.7
398.565	406.03
398.944	407.39
399.323	386.83
399.701	401.29
400.08	391.35
400.458	425.47
400.837	428.18
401.215	433.15
401.594	420.5
401.972	427.95
402.351	440.84
402.729	434.28
403.107	419.37
403.486	431.12
403.864	416.43
404.242	456.43
404.62	421.63
404.999	448.97
405.377	458.46
405.755	439.93
406.133	448.07
406.511	458.91
406.889	448.97
407.267	455.52
407.645	470.67
408.023	457.33
408.401	460.95
408.779	469.08
409.156	480.38
409.534	460.5
409.912	479.25
410.29	496.2
410.667	488.74
411.045	493.49
411.422	514.96
411.8	527.39
412.178	505.69
412.555	521.29
412.933	508.18
413.31	512.25
413.687	521.06
414.065	527.84
414.442	544.34
414.819	540.72
415.197	566.93
415.574	553.15
415.951	561.96
416.328	566.26
416.705	589.53
417.082	576.2
417.46	591.79
417.837	590.89
418.214	578.91
418.591	600.83
418.967	610.1
419.344	603.32
419.721	623.2
420.098	641.28
420.475	627.05
420.852	631.57
421.228	648.51
421.605	631.79
421.982	660.72
422.358	658.46
422.735	697.55
423.111	660.72
423.488	691.9
423.864	680.6
424.241	717.89
424.617	709.08
424.994	711.34
425.37	714.5
425.746	718.57
426.123	748.17
426.499	747.72
426.875	763.54
427.251	767.83
427.627	771.67
428.003	780.04
428.379	787.49
428.756	772.35
429.132	799.47
429.507	801.96
429.883	845.57
430.259	813.03
430.635	860.26
431.011	834.27
431.387	839.02
431.763	845.8
432.138	867.72
432.514	860.49
432.89	892.35
433.265	918.56
433.641	907.04
434.016	922.63
434.392	917.89
434.767	952.23
435.143	950.43
435.518	967.6
435.894	974.61
436.269	979.8
436.644	993.36
437.02	1007.83
437.395	1022.06
437.77	1038.33
438.145	1058.67
438.52	1072.68
438.895	1072.23
439.271	1070.88
439.646	1102.29
440.021	1105.68
440.395	1128.28
440.77	1093.25
441.145	1145
441.52	1168.73
441.895	1168.05
442.27	1144.55
442.645	1174.15
443.019	1179.8
443.394	1178.67
443.769	1224.09
444.143	1201.27
444.518	1234.49
444.892	1239.01
445.267	1241.49
445.641	1246.92
446.016	1273.13
446.39	1283.98
446.764	1313.13
447.139	1296.41
447.513	1288.72
447.887	1311.55
448.262	1294.6
448.636	1343.41
449.01	1327.14
449.384	1386.8
449.758	1374.37
450.132	1388.83
450.506	1395.39
450.88	1394.94
451.254	1393.58
451.628	1433.58
452.002	1453.01
452.376	1453.01
452.75	1472.9
453.123	1463.63
453.497	1497.08
453.871	1532.11
454.244	1545.21
454.618	1553.57
454.992	1566.46
455.365	1574.59
455.739	1616.17
456.112	1632.44
456.486	1642.61
456.859	1657.53
457.232	1697.07
457.606	1700.92
457.979	1741.82
458.352	1754.02
458.725	1738.43
459.099	1759.45
459.472	1831.76
459.845	1811.87
460.218	1861.59
460.591	1880.12
460.964	1887.58
461.337	1925.77
461.71	1969.16
462.083	2011.87
462.456	2035.14
462.829	1999.21
463.201	2058.87
463.574	2067.46
463.947	2119.21
464.32	2154.69
464.692	2181.58
465.065	2201.47
465.438	2235.59
465.81	2274.46
466.183	2290.96
466.555	2337.28
466.928	2333.22
467.3	2387.45
467.672	2414.12
468.045	2519.65
468.417	2533.89
468.789	2534.34
469.161	2568.46
469.534	2588.58
469.906	2668.57
470.278	2721.91
470.65	2758.06
471.022	2826.99
471.394	2866.99
471.766	2916.03
472.138	2910.6
472.51	3005.29
472.882	3085.96
473.253	3143.14
473.625	3215.9
473.997	3265.85
474.369	3287.31
474.74	3364.6
475.112	3443.24
475.484	3539.29
475.855	3616.35
476.227	3671.26
476.598	3784.02
476.97	3793.97
477.341	3915.55
477.713	3988.77
478.084	4030.8
478.455	4200.06
478.827	4203.9
479.198	4395.31
479.569	4423.1
479.94	4539.03
480.311	4632.82
480.682	4769.76
481.053	4898.12
481.424	5023.99
481.795	5082.97
482.166	5212.24
482.537	5294.49
482.908	5456.3
483.279	5587.14
483.65	5673.47
484.021	5804.31
484.391	5908.94
484.762	5990.75
485.133	6107.58
485.503	6237.07
485.874	6392.77
486.244	6459.66
486.615	6626.21
486.985	6777.84
487.356	6935.81
487.726	7005.41
488.097	7211.51
488.467	7250.83
488.837	7425.96
489.207	7616.92
489.578	7783.24
489.948	7817.37
490.318	8068.66
490.688	8057.58
491.058	8273.85
491.428	8386.62
491.798	8491.92
492.168	8745.7
492.538	8769.2
492.908	8832.93
493.278	9041.74
493.648	9126.26
494.017	9234.5
494.387	9350.88
494.757	9545.23
495.126	9580.93
495.496	9652.12
495.866	9811.89
496.235	9935.95
496.605	10061.83
496.974	10147.93
497.344	10209.17
497.713	10292.33
498.082	10365.09
498.452	10526.22
498.821	10563.51
499.19	10651.19
499.559	10785.2
499.928	10822.48
500.298	10949.94
500.667	11081.69
501.036	11042.37
501.405	11202.59
501.774	11272.19
502.143	11346.99
502.512	11390.15
502.88	11468.34
503.249	11516.93
503.618	11583.37
503.987	11649.58
504.356	11668.79
504.724	11758.73
505.093	11833.76
505.462	11825.62
505.83	11904.04
506.199	12061.1
506.567	12163.69
506.936	12172.05
507.304	12246.63
507.672	12329.34
508.041	12455.44
508.409	12454.08
508.777	12518.71
509.145	12581.31
509.514	12595.09
509.882	12617.46
510.25	12663.34
510.618	12714.86
510.986	12761.42
511.354	12897.46
511.722	12922.99
512.09	13022.2
512.458	12986.95
512.826	13082.76
513.193	13155.76
513.561	13133.38
513.929	13218.13
514.297	13311.91
514.664	13342.64
515.032	13400.95
515.4	13470.32
515.767	13472.58
516.135	13518.01
516.502	13389.2
516.869	13566.37
517.237	13482.07
517.604	13498.57
517.972	13550.77
518.339	13659.7
518.706	13643.65
519.073	13703.54
519.44	13757.1
519.808	13892.46
520.175	13743.54
520.542	13920.71
520.909	13981.04
521.276	13864.89
521.643	13963.19
522.009	14046.58
522.376	14006.35
522.743	14095.62
523.11	14164.99
523.477	14160.93
523.843	14213.81
524.21	14367.25
524.577	14371.09
524.943	14298.32
525.31	14351.2
525.676	14407.47
526.043	14393.69
526.409	14471.2
526.776	14530.41
527.142	14501.94
527.508	14568.15
527.874	14550.07
528.241	14572.22
528.607	14506.91
528.973	14631.65
529.339	14570.41
529.705	14660.12
530.071	14710.29
530.437	14728.37
530.803	14745.54
531.169	14647.02
531.535	14592.78
531.901	14659.45
532.267	14605.66
532.632	14694.92
532.998	14663.74
533.364	14635.94
533.73	14626
534.095	14641.14
534.461	14683.4
534.826	14663.74
535.192	14630.97
535.557	14644.98
535.923	14598.88
536.288	14418.55
536.653	14563.63
537.019	14459.68
537.384	14435.95
537.749	14443.18
538.114	14463.52
538.479	14387.81
538.845	14476.17
539.21	14281.38
539.575	14279.57
539.94	14316.86
540.305	14337.65
540.67	14198.21
541.034	14229.63
541.399	14189.63
541.764	14133.36
542.129	14189.17
542.494	14120.48
542.858	14031.66
543.223	13932.68
543.587	14050.42
543.952	13951.67
544.316	13886.36
544.681	13844.78
545.045	13842.52
545.41	13849.07
545.774	13869.86
546.138	13718.45
546.503	13728.85
546.867	13702.86
547.231	13738.11
547.595	13670.54
547.959	13660.15
548.324	13599.13
548.688	13471.91
549.052	13543.32
549.416	13520.04
549.779	13478.01
550.143	13445.92
550.507	13399.59
550.871	13361.17
551.235	13360.95
551.599	13357.11
551.962	13226.04
552.326	13244.79
552.689	13239.14
553.053	13135.87
553.417	13094.29
553.78	13161.63
554.143	13109.66
554.507	13094.06
554.87	13045.02
555.234	13116.43
555.597	13047.96
555.96	13109.66
556.323	13060.39
556.686	13023.33
557.05	13043.22
557.413	13060.62
557.776	12965.03
558.139	13061.29
558.502	13002.99
558.865	13006.16
559.228	13054.29
559.59	12981.52
559.953	12927.29
560.316	13022.65
560.679	12926.38
561.041	13012.48
561.404	13090.45
561.767	12929.32
562.129	12855.42
562.492	13020.62
562.854	12958.47
563.217	12949.43
563.579	13013.61
563.941	13046.15
564.304	13023.1
564.666	12980.85
565.028	13033.05
565.39	13052.71
565.753	13017.23
566.115	13024.46
566.477	13007.96
566.839	13028.08
567.201	13124.12
567.563	13057.68
567.925	13112.82
568.287	13164.57
568.648	13084.57
569.01	13181.52
569.372	13155.53
569.734	13126.38
570.095	13205.02
570.457	13228.97
570.819	13208.64
571.18	13261.29
571.542	13290.89
571.903	13217.9
572.265	13299.71
572.626	13221.74
572.987	13258.58
573.349	13209.54
573.71	13228.97
574.071	13233.72
574.432	13381.96
574.794	13328.18
575.155	13373.6
575.516	13242.76
575.877	13280.5
576.238	13286.83
576.599	13332.47
576.96	13263.55
577.32	13357.11
577.681	13318.01
578.042	13334.51
578.403	13288.63
578.763	13284.34
579.124	13350.55
579.485	13397.78
579.845	13441.4
580.206	13322.31
580.566	13445.69
580.927	13270.78
581.287	13407.5
581.648	13354.85
582.008	13413.15
582.368	13374.06
582.728	13354.62
583.089	13246.15
583.449	13245.02
583.809	13260.61
584.169	13339.48
584.529	13237.56
584.889	13300.84
585.249	13189.65
585.609	13293.38
585.969	13284.34
586.329	13176.55
586.688	13239.82
587.048	13229.43
587.408	13157.56
587.768	13238.92
588.127	13131.35
588.487	13145.59
588.846	13253.83
589.206	13091.12
589.565	13105.81
589.925	13042.99
590.284	13149.2
590.643	13145.36
591.003	13106.49
591.362	13135.87
591.721	13122.99
592.08	13172.93
592.44	13146.26
592.799	13103.1
593.158	13107.4
593.517	13066.27
593.876	13061.75
594.235	13006.83
594.593	13017
594.952	13057.23
595.311	12963.9
595.67	13025.36
596.029	13080.5
596.387	13104.68
596.746	13085.93
597.104	12954.86
597.463	12932.26
597.822	13119.15
598.18	12975.87
598.538	12949.21
598.897	12970
599.255	12860.62
599.613	13012.03
599.972	13028.98
600.33	12968.42
600.688	12907.4
601.046	12959.83
601.404	13044.8
601.762	12925.71
602.12	13029.21
602.478	12986.49
602.836	13015.87
603.194	12875.31
603.552	12988.98
603.91	12958.7
604.268	12954.63
604.625	12901.98
604.983	12988.75
605.341	12901.75
605.698	12975.87
606.056	13006.61
606.413	12966.83
606.771	12986.49
607.128	12945.82
607.485	12898.81
607.843	12865.14
608.2	12975.87
608.557	13077.57
608.914	12950.79
609.272	13047.06
609.629	13025.14
609.986	13069.43
610.343	13060.62
610.7	13162.99
611.057	13129.54
611.414	13033.73
611.771	13064.01
612.127	13156.66
612.484	13111.92
612.841	13180.16
613.198	13059.71
613.554	13044.57
613.911	13145.81
614.267	13187.62
614.624	13104.23
614.98	13153.95
615.337	13198.24
615.693	13241.18
616.05	13253.83
616.406	13263.78
616.762	13257
617.118	13227.17
617.475	13254.96
617.831	13219.03
618.187	13303.32
618.543	13297
618.899	13381.51
619.255	13362.3
619.611	13288.86
619.967	13308.75
620.323	13416.31
620.678	13343.55
621.034	13319.37
621.39	13353.94
621.746	13254.06
622.101	13368.86
622.457	13310.1
622.812	13315.53
623.168	13338.35
623.523	13295.64
623.879	13328.63
624.234	13291.12
624.589	13298.8
624.945	13325.92
625.3	13297.22
625.655	13291.12
626.01	13232.59
626.365	13314.17
626.72	13351.91
627.075	13306.26
627.43	13284.34
627.785	13252.7
628.14	13278.24
628.495	13260.84
628.85	13242.08
629.205	13238.24
629.559	13212.48
629.914	13171.12
630.269	13249.99
630.623	13169.09
630.978	13149.88
631.332	13227.39
631.687	13225.13
632.041	13114.63
632.396	13164.12
632.75	13093.16
633.104	13132.71
633.459	13066.94
633.813	13137.23
634.167	13082.09
634.521	13032.37
634.875	13119.82
635.229	13004.57
635.583	12972.71
635.937	12964.35
636.291	12953.05
636.645	12976.33
636.999	12968.64
637.352	12985.59
637.706	12891.13
638.06	12938.59
638.413	12964.35
638.767	12829.66
639.121	12812.94
639.474	12778.14
639.828	12756.44
640.181	12793.96
640.534	12824.24
640.888	12807.97
641.241	12674.19
641.594	12725.94
641.947	12762.77
642.301	12736.78
642.654	12777.91
643.007	12739.04
643.36	12747.4
643.713	12665.6
644.066	12737.01
644.419	12626.28
644.771	12644.13
645.124	12511.48
645.477	12431.26
645.83	12339.96
646.182	12268.32
646.535	12265.16
646.888	12238.49
647.24	12218.15
647.593	12265.61
647.945	12315.78
648.298	12271.03
648.65	12215.44
649.002	12144.48
649.355	12266.74
649.707	12325.72
650.059	12335.44
650.411	12536.79
650.763	12497.69
651.115	12590.35
651.467	12514.42
651.819	12520.29
652.171	12486.17
652.523	12455.66
652.875	12423.35
653.227	12443.46
653.578	12541.31
653.93	12529.56
654.282	12547.41
654.633	12377.92
654.985	12544.47
655.337	12513.29
655.688	12480.75
656.039	12567.07
656.391	12455.44
656.742	12477.13
657.094	12454.31
657.445	12464.02
657.796	12508.09
658.147	12495.89
658.498	12502.67
658.849	12493.85
659.2	12565.49
659.551	12518.26
659.902	12591.7
660.253	12505.6
660.604	12485.94
660.955	12440.75
661.306	12539.27
661.656	12493.4
662.007	12545.83
662.358	12500.41
662.708	12515.09
663.059	12585.83
663.409	12504.93
663.76	12552.61
664.11	12547.18
664.461	12630.8
664.811	12571.36
665.161	12546.73
665.511	12518.48
665.862	12630.35
666.212	12677.58
666.562	12653.17
666.912	12598.71
667.262	12564.58
667.612	12563.23
667.962	12693.4
668.312	12582.66
668.662	12561.65
669.011	12612.95
669.361	12513.06
669.711	12569.1
670.06	12543.12
670.41	12544.02
670.76	12513.06
671.109	12552.16
671.459	12528.65
671.808	12543.79
672.157	12506.73
672.507	12443.46
672.856	12467.64
673.205	12411.37
673.554	12518.94
673.904	12385.15
674.253	12538.6
674.602	12469.9
674.951	12232.62
675.3	12172.96
675.649	12437.13
675.998	12380.86
676.346	12389.67
676.695	12396.68
677.044	12294.54
677.393	12379.28
677.741	12410.01
678.09	12343.57
678.438	12403.46
678.787	12362.78
679.135	12308.55
679.484	12219.96
679.832	12281.2
680.181	12189.91
680.529	12242.33
680.877	12209.57
681.225	12144.03
681.573	12318.72
681.922	12097.7
682.27	12015.45
682.618	12116.69
682.966	12036.01
683.314	12089.12
683.661	11986.3
684.009	11946.75
684.357	11954.88
684.705	11974.09
685.053	11942
685.4	11932.74
685.748	11839.63
686.095	11780.42
686.443	11766.41
686.79	11784.49
687.138	11825.4
687.485	11740.2
687.832	11767.32
688.18	11740.2
688.527	11619.98
688.874	11589.7
689.221	11517.15
689.568	11568.9
689.915	11492.97
690.262	11495.46
690.609	11479.42
690.956	11369.81
691.303	11408.91
691.65	11337.5
691.997	11370.27
692.344	11252.3
692.69	11245.3
693.037	11163.27
693.383	11121.46
693.73	11108.8
694.077	11088.24
694.423	10987.9
694.769	11014.34
695.116	10911.97
695.462	10988.36
695.808	10897.28
696.155	10883.05
696.501	10789.94
696.847	10799.21
697.193	10728.47
697.539	10791.3
697.885	10663.39
698.231	10668.82
698.577	10657.29
698.923	10590.85
699.269	10506.56
699.614	10489.84
699.96	10439.44
700.306	10447.8
700.651	10352.44
700.997	10348.6
701.342	10356.06
701.688	10303.18
702.033	10198.09
702.379	10158.55
702.724	10204.19
703.069	10239.45
703.415	10100.24
703.76	10134.59
704.105	10143.63
704.45	10033.8
704.795	9965.56
705.14	9939.34
705.485	9959
705.83	9913.58
706.175	9880.36
706.52	9864.09
706.865	9822.74
707.209	9801.27
707.554	9657.77
707.899	9806.92
708.243	9699.8
708.588	9707.94
708.932	9522.18
709.277	9565.57
709.621	9589.52
709.966	9523.53
710.31	9535.74
710.654	9475.85
710.998	9483.76
711.342	9426.36
711.687	9420.03
712.031	9361.28
712.375	9324.22
712.719	9336.42
713.063	9346.59
713.407	9353.14
713.75	9311.34
714.094	9287.61
714.438	9204
714.782	9263.65
715.125	9230.89
715.469	9216.2
715.812	9202.41
716.156	9124.45
716.499	9137.56
716.843	9126.71
717.186	9070.67
717.53	9100.95
717.873	9100.95
718.216	9122.87
718.559	8995.19
718.902	9049.88
719.246	9008.52
719.589	9015.53
719.932	8946.37
720.275	8979.82
720.617	8883.78
720.96	8953.15
721.303	8957
721.646	8956.09
721.989	8921.52
722.331	8971.46
722.674	8928.07
723.016	8913.38
723.359	8938.01
723.701	8885.59
724.044	8787.28
724.386	8805.59
724.729	8904.79
725.071	8827.96
725.413	8801.75
725.755	8787.06
726.097	8808.53
726.439	8781.41
726.782	8732.14
727.124	8805.36
727.465	8734.86
727.807	8793.38
728.149	8726.49
728.491	8770.11
728.833	8732.82
729.175	8728.53
729.516	8742.54
729.858	8716.78
730.199	8752.48
730.541	8662.54
730.882	8714.06
731.224	8746.15
731.565	8667.96
731.906	8695.53
732.248	8755.87
732.589	8716.78
732.93	8686.72
733.271	8738.7
733.612	8690.11
733.953	8731.69
734.294	8732.37
734.635	8642.2
734.976	8705.48
735.317	8683.11
735.658	8719.71
735.999	8710.45
736.339	8646.27
736.68	8745.02
737.021	8758.81
737.361	8750
737.702	8742.09
738.042	8712.26
738.383	8749.32
738.723	8719.49
739.063	8742.54
739.404	8796.32
739.744	8792.03
740.084	8728.08
740.424	8787.06
740.764	8764.68
741.104	8767.4
741.444	8779.37
741.784	8829.32
742.124	8876.32
742.464	8879.48
742.804	8872.7
743.143	8863.44
743.483	8909.77
743.823	8885.13
744.162	8969.88
744.502	9064.79
744.841	8976.43
745.181	9145.92
745.52	9076.54
745.86	9160.38
746.199	9158.35
746.538	9206.26
746.877	9314.73
747.216	9287.38
747.556	9353.6
747.895	9346.14
748.234	9501.16
748.573	9426.36
748.911	9528.51
749.25	9573.7
749.589	9641.5
749.928	9700.03
750.267	9777.09
750.605	9822.96
750.944	9863.86
751.283	9921.49
751.621	10079.68
751.96	10106.12
752.298	10240.35
752.636	10282.61
752.975	10427.47
753.313	10513.79
753.651	10610.29
753.989	10733.9
754.327	10838.98
754.666	10916.72
755.004	11049.37
755.342	11201.46
755.679	11370.72
756.017	11360.32
756.355	11596.93
756.693	11713.53
757.031	11916.69
757.368	11991.04
757.706	12139.96
758.044	12292.05
758.381	12438.49
758.719	12519.84
759.056	12741.98
759.394	12978.81
759.731	12965.03
760.068	13172.25
760.405	13290.67
760.743	13454.73
761.08	13647.72
761.417	13819.02
761.754	13972.01
762.091	14070.31
762.428	14200.02
762.765	14317.99
763.102	14517.98
763.438	14809.72
763.775	14851.3
764.112	15045.88
764.449	15246.77
764.785	15437.05
765.122	15479.76
765.458	15586.43
765.795	15775.57
766.131	15972.4
766.467	16056.02
766.804	16136.47
767.14	16199.07
767.476	16445.84
767.812	16571.94
768.148	16780.07
768.485	16858.94
768.821	16881.53
769.157	17038.59
769.492	17211.47
769.828	17320.39
770.164	17260.51
770.5	17442.2
770.836	17566.26
771.171	17628.18
771.507	17785.01
771.842	17786.37
772.178	17875.86
772.513	17967.61
772.849	18157.66
773.184	18165.57
773.519	18190.43
773.855	18232.01
774.19	18287.37
774.525	18448.27
774.86	18450.98
775.195	18529.63
775.53	18559
775.865	18656.4
776.2	18595.84
776.535	18592.22
776.87	18690.75
777.205	18731.43
777.539	18727.36
777.874	18770.07
778.209	18807.36
778.543	18848.26
778.878	18827.92
779.212	18894.59
779.547	18874.25
779.881	18957.41
780.215	18834.7
780.55	18950.63
780.884	18890.52
781.218	18846.45
781.552	18903.85
781.886	18940.91
782.22	18951.31
782.554	18914.47
782.888	18822.73
783.222	18794.48
783.556	18705.89
783.889	18912.44
784.223	18753.12
784.557	18731.88
784.89	18863.4
785.224	18739.34
785.557	18646.46
785.891	18747.93
786.224	18687.59
786.558	18741.37
786.891	18673.35
787.224	18596.52
787.557	18616.86
787.891	18573.24
788.224	18757.64
788.557	18578.66
788.89	18627.7
789.223	18556.29
789.556	18589.06
789.888	18495.73
790.221	18385.45
790.554	18250.99
790.887	18364.21
791.219	18328.05
791.552	18238.11
791.884	18249.86
792.217	18202.4
792.549	18154.49
792.882	18140.71
793.214	18080.82
793.546	18060.49
793.879	17920.6
794.211	17959.02
794.543	18032.92
794.875	17948.4
795.207	17959.25
795.539	17815.52
795.871	17921.28
796.203	17726.94
796.535	17654.62
796.867	17683.77
797.198	17640.84
797.53	17622.76
797.862	17593.83
798.193	17495.75
798.525	17405.81
798.856	17528.52
799.188	17434.74
799.519	17175.31
799.85	17256.21
800.182	17280.39
800.513	17209.66
800.844	17040.63
801.175	17213.73
801.506	17180.51
801.837	17105.71
802.168	17028.65
802.499	16939.61
802.83	16973.73
803.161	16954.3
803.491	16944.36
803.822	16867.07
804.153	16863.23
804.483	16686.51
804.814	16770.12
805.145	16632.05
805.475	16624.37
805.805	16536.68
806.136	16590.24
806.466	16565.61
806.796	16545.72
807.126	16394.99
807.457	16474.09
807.787	16497.36
808.117	16294.88
808.447	16254.43
808.777	16343.47
809.107	16192.29
809.436	16278.39
809.766	16138.95
810.096	16153.42
810.426	16044.27
810.755	16135.11
811.085	16115.9
811.414	16093.98
811.744	15935.8
812.073	15910.03
812.403	15982.8
812.732	15869.36
813.061	15813.31
813.39	15819.64
813.719	15696.93
814.049	15812.64
814.378	15694.67
814.707	15617.61
815.036	15700.55
815.365	15567.9
815.693	15506.65
816.022	15530.38
816.351	15397.73
816.68	15315.02
817.008	15357.73
817.337	15253.55
817.665	15313.67
817.994	15345.08
818.322	15281.58
818.651	15191.18
818.979	15144.63
819.307	15207.68
819.636	15185.31
819.964	15157.29
820.292	15198.41
820.62	15178.08
820.948	15018.31
821.276	15101.92
821.604	15093.78
821.932	15178.3
822.259	15159.54
822.587	15113.22
822.915	15152.99
823.243	15114.12
823.57	15072.99
823.898	15084.97
824.225	15039.32
824.553	15094.01
824.88	15027.12
825.207	15089.94
825.535	15107.57
825.862	15117.51
826.189	15034.58
826.516	15166.1
826.843	15079.55
827.17	15127.91
827.497	15152.54
827.824	15068.7
828.151	15231.18
828.478	15113.67
828.805	15242.03
829.131	15178.98
829.458	15166.55
829.785	15076.84
830.111	15054.24
830.438	15232.09
830.764	15165.87
831.09	15185.98
831.417	15127.68
831.743	15078.87
832.069	15118.42
832.395	15005.42
832.722	15127.91
833.048	15004.52
833.374	15084.74
833.7	15015.14
834.026	15018.98
834.351	15040.45
834.677	14949.38
835.003	15032.99
835.329	14977.63
835.654	14939.89
835.98	14885.88
836.306	14933.34
836.631	14889.27
836.956	14955.03
837.282	14939.44
837.607	14905.09
837.932	14851.3
838.258	14740.8
838.583	14868.48
838.908	14745.77
839.233	14769.72
839.558	14689.27
839.883	14690.63
840.208	14650.63
840.533	14588.94
840.858	14653.12
841.182	14688.6
841.507	14624.87
841.832	14503.06
842.156	14487.47
842.481	14478.88
842.805	14461.26
843.13	14449.73
843.454	14348.72
843.778	14296.74
844.103	14234.37
844.427	14196.63
844.751	14179.68
845.075	14174.94
845.399	14188.05
845.723	14174.26
846.047	14083.19
846.371	14019.24
846.695	14027.15
847.019	13915.28
847.343	13753.25
847.666	13770.65
847.99	13704.22
848.313	13767.49
848.637	13635.74
848.96	13573.6
849.284	13554.62
849.607	13524.79
849.931	13469.42
850.254	13367.73
850.577	13243.21
850.9	13237.34
851.223	13198.69
851.546	13163.44
851.869	13001.86
852.192	13099.71
852.515	12965.7
852.838	12815.2
853.161	12906.95
853.483	12876.44
853.806	12715.99
854.129	12773.39
854.451	12725.48
854.774	12732.26
855.096	12604.13
855.419	12667.63
855.741	12523.46
856.063	12489.33
856.385	12511.48
856.708	12394.19
857.03	12327.75
857.352	12415.89
857.674	12362.78
857.996	12355.78
858.318	12270.58
858.64	12293.86
858.961	12159.85
859.283	12106.52
859.605	12118.04
859.926	12092.05
860.248	12026.75
860.57	12027.2
860.891	12011.38
861.212	11969.35
861.534	11994.43
861.855	11860.2
862.176	11923.7
862.498	11902.68
862.819	11879.18
863.14	11820.42
863.461	11828.33
863.782	11804.6
864.103	11765.51
864.424	11701.78
864.745	11760.99
865.065	11735.45
865.386	11614.1
865.707	11626.76
866.027	11613.2
866.348	11646.42
866.668	11611.62
866.989	11602.12
867.309	11508.34
867.63	11528.45
867.95	11589.24
868.27	11438.06
868.59	11452.3
868.91	11491.17
869.23	11381.11
869.55	11302.47
869.87	11444.84
870.19	11385.86
870.51	11405.29
870.83	11394.22
871.15	11397.61
871.469	11300.21
871.789	11335.24
872.109	11253.43
872.428	11215.69
872.748	11324.62
873.067	11208.69
873.386	11202.81
873.706	11195.13
874.025	11065.87
874.344	11153.1
874.663	11165.98
874.982	11014.34
875.301	11080.78
875.62	11041.01
875.939	11124.4
876.258	11028.13
876.577	10945.64
876.896	10962.82
877.214	10963.27
877.533	10892.76
877.852	10967.56
878.17	10890.73
878.489	10897.28
878.807	10940.22
879.125	10849.6
879.444	10854.12
879.762	10791.07
880.08	10844.63
880.398	10813.67
880.716	10766.21
881.034	10726.67
881.352	10709.49
881.67	10632.88
881.988	10640.34
882.306	10657.97
882.624	10686.67
882.941	10547.01
883.259	10574.58
883.577	10528.71
883.894	10524.41
884.212	10506.33
884.529	10491.19
884.846	10547.91
885.164	10545.2
885.481	10422.04
885.798	10448.48
886.115	10370.97
886.432	10331.42
886.75	10327.13
887.067	10369.61
887.383	10271.31
887.7	10286.9
888.017	10224.08
888.334	10243.29
888.651	10181.14
888.967	10161.26
889.284	10068.61
889.6	10100.69
889.917	10081.49
890.233	10014.6
890.55	9978.44
890.866	9969.17
891.182	9973.24
891.498	9886.46
891.815	9836.75
892.131	9843.98
892.447	9825.45
892.763	9821.38
893.079	9730.31
893.395	9740.25
893.71	9685.11
894.026	9676.75
894.342	9624.32
894.657	9657.32
894.973	9613.93
895.289	9564.66
895.604	9523.08
895.92	9433.14
896.235	9491.67
896.55	9454.84
896.865	9423.42
897.181	9311.34
897.496	9394.95
897.811	9317.66
898.126	9389.98
898.441	9290.09
898.756	9210.32
899.071	9129.42
899.386	9184.56
899.7	9061.63
900.015	9060.95
900.33	8978.69
900.644	9027.5
900.959	8952.48
901.273	8943.89
901.588	8933.04
901.902	8852.37
902.216	8861.86
902.531	8819.37
902.845	8835.19
903.159	8722.88
903.473	8672.48
903.787	8639.26
904.101	8612.82
904.415	8653.28
904.729	8601.98
905.042	8528.76
905.356	8550.45
905.67	8451.25
905.984	8497.8
906.297	8414.64
906.611	8372.83
906.924	8430
907.237	8340.97
907.551	8273.62
907.864	8284.25
908.177	8281.99
908.491	8184.81
908.804	8167.41
909.117	8094.19
909.43	8052.61
909.743	8040.18
910.056	8052.61
910.368	7952.5
910.681	7983.01
910.994	7887.19
911.307	7934.2
911.619	7868.21
911.932	7821.88
912.244	7838.38
912.557	7765.16
912.869	7686.07
913.181	7730.36
913.494	7664.83
913.806	7576.92
914.118	7617.14
914.43	7522.91
914.742	7574.89
915.054	7534.66
915.366	7498.05
915.678	7467.32
915.99	7429.35
916.302	7445.62
916.613	7337.15
916.925	7357.72
917.236	7321.33
917.548	7250.37
917.859	7252.41
918.171	7198.4
918.482	7160.66
918.794	7111.62
919.105	7149.36
919.416	7079.76
919.727	7084.95
920.038	7065.29
920.349	6978.52
920.66	6995.92
920.971	6953.88
921.282	6886.77
921.593	6880.67
921.903	6851.29
922.214	6865.53
922.525	6845.64
922.835	6790.05
923.146	6797.73
923.456	6722.7
923.767	6712.08
924.077	6662.14
924.387	6637.28
924.697	6635.02
925.008	6531.52
925.318	6529.04
925.628	6558.42
925.938	6532.65
926.248	6416.27
926.558	6465.08
926.867	6404.52
927.177	6409.04
927.487	6380.11
927.796	6283.17
928.106	6363.84
928.416	6304.64
928.725	6289.72
929.034	6193.9
929.344	6233.9
929.653	6195.03
929.962	6105.77
930.271	6103.06
930.581	6054.47
930.89	6065.09
931.199	6054.25
931.508	6096.51
931.817	6044.76
932.125	5954.59
932.434	5988.03
932.743	5927.92
933.051	5912.1
933.36	5923.86
933.669	5863.74
933.977	5802.05
934.286	5802.5
934.594	5802.28
934.902	5763.63
935.21	5712.56
935.519	5693.35
935.827	5675.05
936.135	5723.18
936.443	5607.93
936.751	5631.66
937.059	5597.54
937.367	5556.63
937.674	5583.3
937.982	5549.4
938.29	5485.22
938.597	5510.08
938.905	5449.29
939.213	5416.98
939.52	5408.61
939.827	5409.74
940.135	5416.07
940.442	5336.53
940.749	5311.44
941.056	5326.36
941.363	5240.71
941.67	5215.85
941.977	5191.45
942.284	5188.73
942.591	5184.67
942.898	5153.25
943.205	5171.56
943.511	5134.05
943.818	5120.49
944.125	5085.01
944.431	5054.5
944.738	5011.79
945.044	5016.53
945.35	4994.39
945.657	4976.99
945.963	4879.14
946.269	4878.01
946.575	4882.08
946.881	4853.38
947.187	4868.52
947.493	4780.38
947.799	4808.86
948.105	4786.48
948.41	4756.88
948.716	4771.34
949.022	4761.17
949.327	4720.95
949.633	4707.16
949.938	4675.75
950.244	4666.71
950.549	4638.01
950.854	4628.97
951.16	4602.99
951.465	4599.14
951.77	4552.59
952.075	4507.62
952.38	4478.7
952.685	4547.39
952.99	4451.35
953.294	4448.41
953.599	4419.94
953.904	4455.65
954.209	4412.71
954.513	4391.69
954.818	4313.95
955.122	4348.98
955.426	4325.48
955.731	4310.56
956.035	4267.4
956.339	4303.33
956.643	4301.53
956.948	4213.84
957.252	4228.76
957.556	4183.79
957.86	4182.21
958.163	4148.31
958.467	4126.16
958.771	4097.24
959.075	4085.71
959.378	4029.67
959.682	4081.19
959.985	4081.42
960.289	4027.18
960.592	4006.17
960.896	4005.94
961.199	4001.65
961.502	4008.43
961.805	3980.63
962.108	3938.82
962.411	3883.23
962.714	3902.21
963.017	3892.04
963.32	3908.77
963.623	3821.31
963.926	3860.41
964.228	3816.79
964.531	3791.26
964.833	3813.4
965.136	3796.45
965.438	3751.94
965.741	3701.09
966.043	3731.37
966.345	3710.58
966.648	3671.71
966.95	3701.09
967.252	3647.98
967.554	3656.57
967.856	3635.55
968.158	3595.56
968.46	3600.07
968.761	3553.07
969.063	3573.86
969.365	3551.04
969.666	3570.47
969.968	3512.17
970.269	3492.96
970.571	3489.34
970.872	3468.78
971.174	3495.44
971.475	3375.9
971.776	3387.2
972.077	3385.84
972.378	3390.59
972.679	3387.65
972.98	3375.67
973.281	3319.86
973.582	3339.29
973.883	3344.94
974.183	3300.65
974.484	3302.23
974.785	3282.8
975.085	3309.91
975.386	3275.34
975.686	3224.04
975.986	3235.56
976.287	3213.42
976.587	3182.23
976.887	3191.27
977.187	3140.2
977.487	3172.97
977.787	3140.65
978.087	3129.13
978.387	3112.18
978.687	3136.58
978.987	3103.14
979.286	3113.31
979.586	3046.19
979.885	3010.49
980.185	3041.45
980.484	2989.02
980.784	3001.45
981.083	3019.3
981.382	2960.77
981.682	2928.68
981.981	2944.95
982.28	2934.33
982.579	2911.05
982.878	2890.94
983.177	2918.28
983.475	2861.56
983.774	2864.27
984.073	2853.65
984.372	2811.85
984.67	2837.38
984.969	2826.54
985.267	2818.63
985.566	2795.35
985.864	2755.13
986.162	2761.23
986.461	2747.67
986.759	2751.74
987.057	2673.77
987.355	2709.25
987.653	2701.57
987.951	2690.49
988.249	2637.84
988.547	2636.26
988.844	2666.09
989.142	2663.15
989.44	2616.37
989.737	2594.23
990.035	2629.03
990.332	2603.04
990.63	2604.85
990.927	2589.03
991.224	2525.53
991.521	2526.2
991.819	2561.01
992.116	2490.95
992.413	2499.54
992.71	2475.58
993.006	2494.79
993.303	2452.76
993.6	2488.01
993.897	2446.66
994.193	2444.4
994.49	2414.57
994.787	2429.03
995.083	2390.39
995.379	2401.91
995.676	2374.8
995.972	2375.25
996.268	2363.05
996.565	2349.26
996.861	2304.97
997.157	2344.74
997.453	2330.28
997.749	2299.54
998.044	2262.71
998.34	2272.2
998.636	2272.88
998.932	2242.37
999.227	2258.19
999.523	2213.67
999.818	2192.88
1000.114	2209.6
1000.409	2229.49
1000.704	2176.61
1001	2185.2
1001.295	2130.73
1001.59	2142.26
1001.885	2134.35
1002.18	2114.01
1002.475	2097.06
1002.77	2108.14
1003.065	2075.37
1003.359	2094.8
1003.654	2063.17
1003.949	2052.09
1004.243	2061.58
1004.538	2051.87
1004.832	2021.59
1005.127	2030.85
1005.421	1957.18
1005.715	1980.23
1006.009	1964.86
1006.304	1964.19
1006.598	1970.06
1006.892	1929.61
1007.186	1930.97
1007.48	1937.29
1007.773	1905.88
1008.067	1909.27
1008.361	1893.23
1008.655	1892.1
1008.948	1850.06
1009.242	1863.17
1009.535	1813.23
1009.829	1818.88
1010.122	1822.27
1010.415	1821.36
1010.708	1799.22
1011.001	1797.18
1011.295	1782.5
1011.588	1784.53
1011.881	1759.9
1012.173	1735.04
1012.466	1747.02
1012.759	1720.58
1013.052	1736.85
1013.344	1723.97
1013.637	1692.55
1013.93	1709.28
1014.222	1655.95
1014.514	1661.59
1014.807	1676.74
1015.099	1664.08
1015.391	1648.04
1015.683	1659.11
1015.976	1604.42
1016.268	1629.51
1016.56	1608.94
1016.851	1603.29
1017.143	1626.12
1017.435	1584.99
1017.727	1593.35
1018.018	1559.22
1018.31	1547.47
1018.602	1535.95
1018.893	1536.4
1019.185	1515.61
1019.476	1483.52
1019.767	1505.67
1020.058	1497.53
1020.35	1476.74
1020.641	1484.2
1020.932	1442.62
1021.223	1420.7
1021.514	1432.9
1021.804	1421.6
1022.095	1393.58
1022.386	1385.9
1022.677	1385.9
1022.967	1389.96
1023.258	1375.73
1023.548	1364.43
1023.839	1348.83
1024.129	1359.68
1024.419	1342.51
1024.709	1323.52
1025	1304.09
1025.29	1302.51
1025.58	1294.82
1025.87	1310.42
1026.16	1286.46
1026.449	1316.75
1026.739	1294.15
1027.029	1250.53
1027.319	1256.86
1027.608	1236.3
1027.898	1230.19
1028.187	1248.72
1028.477	1232.23
1028.766	1261.15
1029.055	1206.01
1029.344	1220.93
1029.634	1198.1
1029.923	1193.58
1030.212	1156.3
1030.501	1175.05
1030.79	1185.45
1031.078	1171.21
1031.367	1128.73
1031.656	1185.9
1031.945	1150.2
1032.233	1138.22
1032.522	1118.56
1032.81	1130.76
1033.099	1111.1
1033.387	1108.16
1033.675	1082.4
1033.963	1084.89
1034.251	1086.69
1034.54	1072.68
1034.828	1072.23
1035.116	1074.72
1035.403	1016.41
1035.691	1022.06
1035.979	1039.46
1036.267	1030.88
1036.554	1022.97
1036.842	1034.27
1037.129	996.3
1037.417	984.1
1037.704	995.17
1037.992	986.81
1038.279	973.48
1038.566	967.38
1038.853	967.38
1039.14	967.38
