Data from hue_40_FLMS001491_16.txt Node
Date: Mon Feb 06 15:07:31 GMT 2017
User: dcchb
Spectrometer: FLMS00149
Trigger mode: 0
Integration Time (sec): 2.000000E-2
Scans to average: 10
Electric dark correction enabled: true
Nonlinearity correction enabled: false
Boxcar width: 0
XAxis mode: Wavelengths
Number of Pixels in Spectrum: 2048
>>>>>Begin Spectral Data<<<<<
341.393	-39.11
341.776	-39.11
342.16	-39.11
342.543	-61.93
342.927	-46.57
343.31	-66.91
343.693	-70.52
344.077	-62.61
344.46	-54.48
344.843	-46.57
345.226	-50.18
345.61	-37.08
345.993	-14.03
346.376	2.25
346.759	0.44
347.142	42.47
347.525	35.47
347.908	49.25
348.291	55.58
348.674	100.32
349.057	116.59
349.44	118.17
349.823	137.38
350.206	176.93
350.588	172.41
350.971	209.92
351.354	227.55
351.737	232.52
352.119	257.61
352.502	264.61
352.884	277.27
353.267	274.33
353.65	284.05
354.032	288.11
354.414	325.85
354.797	319.98
355.179	321.79
355.562	341.22
355.944	317.04
356.326	338.06
356.709	343.48
357.091	326.98
357.473	352.07
357.855	295.8
358.238	363.82
358.62	339.64
359.002	333.08
359.384	347.77
359.766	338.51
360.148	343.93
360.53	341.45
360.912	349.36
361.294	313.2
361.676	333.08
362.057	333.99
362.439	318.62
362.821	319.98
363.203	321.56
363.584	302.58
363.966	312.75
364.348	326.98
364.729	325.85
365.111	323.14
365.493	313.65
365.874	316.81
366.256	309.81
366.637	304.38
367.019	326.53
367.4	317.94
367.781	313.42
368.163	333.76
368.544	313.2
368.925	303.25
369.306	302.8
369.688	329.47
370.069	316.59
370.45	312.29
370.831	313.65
371.212	315.46
371.593	312.52
371.974	294.44
372.355	318.62
372.736	315.46
373.117	312.07
373.498	313.2
373.879	327.43
374.26	310.49
374.641	306.19
375.021	313.42
375.402	326.98
375.783	342.12
376.163	312.75
376.544	325.4
376.925	348.23
377.305	325.63
377.686	321.11
378.066	308.68
378.447	336.47
378.827	319.98
379.208	351.16
379.588	331.5
379.968	327.89
380.349	326.08
380.729	323.59
381.109	318.85
381.489	333.08
381.87	339.86
382.25	333.76
382.63	308.9
383.01	328.34
383.39	323.59
383.77	336.02
384.15	352.74
384.53	336.02
384.91	347.32
385.29	354.55
385.67	350.03
386.049	352.29
386.429	355
386.809	350.71
387.189	350.03
387.568	355.23
387.948	331.28
388.328	347.77
388.707	361.33
389.087	317.94
389.466	357.04
389.846	347.77
390.225	369.69
390.605	365.17
390.984	351.84
391.363	364.95
391.743	375.34
392.122	357.49
392.501	366.53
392.881	359.52
393.26	362.46
393.639	375.57
394.018	368.34
394.397	360.2
394.776	365.17
395.155	348.68
395.534	354.78
395.913	389.35
396.292	362.01
396.671	384.16
397.05	385.29
397.429	372.18
397.808	369.02
398.186	380.09
398.565	403.37
398.944	388.22
399.323	366.08
399.701	365.85
400.08	391.61
400.458	393.87
400.837	383.48
401.215	387.77
401.594	409.92
401.972	399.52
402.351	400.2
402.729	399.98
403.107	395.46
403.486	416.92
403.864	390.48
404.242	420.09
404.62	406.08
404.999	395
405.377	406.75
405.755	408.79
406.133	420.09
406.511	392.97
406.889	394.55
407.267	430.03
407.645	429.81
408.023	399.07
408.401	428.22
408.779	436.36
409.156	422.12
409.534	417.83
409.912	446.3
410.29	437.71
410.667	435.45
411.045	442.91
411.422	446.08
411.8	454.66
412.178	433.42
412.555	456.7
412.933	468.22
413.31	474.55
413.687	476.58
414.065	448.79
414.442	462.12
414.819	475.68
415.197	501.89
415.574	481.33
415.951	476.13
416.328	479.07
416.705	467.32
417.082	479.75
417.46	489.01
417.837	485.4
418.214	493.08
418.591	491.5
418.967	486.75
419.344	500.09
419.721	528.56
420.098	517.71
420.475	498.5
420.852	522.68
421.228	542.34
421.605	511.61
421.982	529.69
422.358	540.08
422.735	533.08
423.111	513.42
423.488	534.44
423.864	539.41
424.241	552.29
424.617	531.72
424.994	555
425.37	543.7
425.746	560.42
426.123	554.1
426.499	577.82
426.875	555.23
427.251	546.86
427.627	570.14
428.003	599.29
428.379	591.83
428.756	586.86
429.132	598.84
429.507	580.99
429.883	579.86
430.259	635.22
430.635	615.11
431.011	633.87
431.387	628.22
431.763	624.38
432.138	616.92
432.514	623.7
432.89	625.05
433.265	651.04
433.641	649.46
434.016	657.37
434.392	646.75
434.767	679.97
435.143	665.51
435.518	670.25
435.894	660.76
436.269	675.9
436.644	683.13
437.02	691.49
437.395	679.29
437.77	699.63
438.145	704.83
438.52	718.39
438.895	717.48
439.271	708.44
439.646	716.13
440.021	741.44
440.395	737.82
440.77	727.2
441.145	727.88
441.52	745.5
441.895	765.16
442.27	753.19
442.645	774.43
443.019	770.81
443.394	759.29
443.769	778.72
444.143	769.01
444.518	757.93
444.892	783.02
445.267	792.28
445.641	773.98
446.016	791.6
446.39	785.73
446.764	793.86
447.139	788.44
447.513	806.74
447.887	800.87
448.262	815.78
448.636	811.26
449.01	856.23
449.384	861.88
449.758	825.27
450.132	849.68
450.506	860.08
450.88	836.57
451.254	861.21
451.628	886.06
452.002	878.83
452.376	883.58
452.75	884.48
453.123	883.8
453.497	904.59
453.871	907.76
454.244	907.53
454.618	922.22
454.992	921.54
455.365	939.17
455.739	935.33
456.112	963.35
456.486	961.09
456.859	964.93
457.232	999.96
457.606	981.65
457.979	991.6
458.352	1051.48
458.725	1030.02
459.099	1000.19
459.472	1051.03
459.845	1040.64
460.218	1070.01
460.591	1068.21
460.964	1082.67
461.337	1105.95
461.71	1099.84
462.083	1142.33
462.456	1121.09
462.829	1153.4
463.201	1136
463.574	1152.05
463.947	1170.12
464.32	1198.82
464.692	1209.22
465.065	1227.75
465.438	1267.75
465.81	1248.99
466.183	1280.4
466.555	1309.33
466.928	1301.19
467.3	1312.49
467.672	1315.21
468.045	1376.45
468.417	1351.14
468.789	1401.08
469.161	1420.97
469.534	1444.24
469.906	1478.37
470.278	1476.11
470.65	1499.83
471.022	1557.69
471.394	1548.87
471.766	1587.51
472.138	1616.67
472.51	1646.95
472.882	1716.32
473.253	1729.88
473.625	1730.34
473.997	1774.85
474.369	1829.32
474.74	1843.55
475.112	1878.58
475.484	1938.47
475.855	1947.51
476.227	2014.62
476.598	2089.65
476.97	2107.95
477.341	2160.16
477.713	2176.2
478.084	2215.52
478.455	2258.91
478.827	2371.9
479.198	2421.39
479.569	2479.92
479.94	2556.3
480.311	2590.88
480.682	2693.25
481.053	2755.62
481.424	2812.79
481.795	2854.37
482.166	2958.33
482.537	3015.05
482.908	3077.19
483.279	3165.78
483.65	3266.57
484.021	3348.15
484.391	3419.11
484.762	3472.66
485.133	3589.5
485.503	3660.45
485.874	3792.2
486.244	3841.24
486.615	3949.49
486.985	4038.3
487.356	4132.98
487.726	4274.22
488.097	4372.75
488.467	4408.01
488.837	4587.89
489.207	4680.54
489.578	4805.74
489.948	4870.59
490.318	4977.26
490.688	5042.79
491.058	5148.78
491.428	5332.73
491.798	5385.38
492.168	5544.47
492.538	5650.23
492.908	5747.18
493.278	5862.88
493.648	5934.29
494.017	6026.04
494.387	6161.18
494.757	6280.72
495.126	6369.31
495.496	6429.42
495.866	6561.4
496.235	6647.49
496.605	6713.71
496.974	6817.43
497.344	7002.29
497.713	7028.05
498.082	7139.91
498.452	7225.78
498.821	7364.09
499.19	7383.52
499.559	7515.49
499.928	7658.99
500.298	7703.51
500.667	7784.41
501.036	7832.77
501.405	8069.6
501.774	8022.15
502.143	8174.69
502.512	8204.97
502.88	8319.54
503.249	8379.65
503.618	8538.74
503.987	8569.7
504.356	8614.22
504.724	8723.82
505.093	8757.04
505.462	8815.12
505.83	8956.81
506.199	9043.14
506.567	9200.42
506.936	9172.4
507.304	9333.53
507.672	9366.97
508.041	9434.09
508.409	9501.66
508.777	9600.64
509.145	9738.71
509.514	9713.63
509.882	9867.75
510.25	9874.3
510.618	9984.58
510.986	10045.37
511.354	10161.3
511.722	10264.35
512.09	10296.44
512.458	10357.23
512.826	10416.66
513.193	10474.06
513.561	10567.62
513.929	10635.86
514.297	10696.2
514.664	10773.71
515.032	10941.17
515.4	10985.23
515.767	11061.62
516.135	11041.96
516.502	11049.19
516.869	11183.42
517.237	11298.67
517.604	11278.79
517.972	11420.25
518.339	11518.33
518.706	11562.39
519.073	11581.15
519.44	11678.77
519.808	11802.16
520.175	11862.5
520.542	11984.98
520.909	11987.92
521.276	12036.73
521.643	12269.27
522.009	12224.3
522.376	12298.19
522.743	12401.02
523.11	12498.41
523.477	12574.8
523.843	12655.92
524.21	12743.61
524.577	12803.04
524.943	12919.65
525.31	13060.43
525.676	13116.48
526.043	13233.99
526.409	13196.48
526.776	13436.24
527.142	13446.41
527.508	13491.61
527.874	13585.39
528.241	13739.96
528.607	13757.59
528.973	13874.88
529.339	13936.12
529.705	14010.92
530.071	14181.76
530.437	14147.18
530.803	14265.6
531.169	14399.38
531.535	14385.6
531.901	14428.08
532.267	14520.51
532.632	14544.69
532.998	14561.64
533.364	14646.83
533.73	14787.62
534.095	14891.12
534.461	14888.18
534.826	14982.87
535.192	15043.66
535.557	15125.92
535.923	15122.75
536.288	15159.14
536.653	15261.73
537.019	15350.77
537.384	15389.41
537.749	15496.3
538.114	15584.21
538.479	15605.9
538.845	15705.11
539.21	15629.63
539.575	15778.78
539.94	15753.47
540.305	15934.03
540.67	15866.24
541.034	15927.48
541.399	16110.52
541.764	16104.65
542.129	16153.69
542.494	16154.14
542.858	16282.95
543.223	16318.43
543.587	16428.48
543.952	16435.94
544.316	16547.12
544.681	16435.94
545.045	16645.65
545.41	16714.35
545.774	16776.04
546.138	16745.53
546.503	16826.21
546.867	16857.4
547.231	16965.64
547.595	17099.42
547.959	16992.08
548.324	17114.34
548.688	17146.43
549.052	17238.4
549.416	17251.74
549.779	17312.3
550.143	17372.86
550.507	17484.05
550.871	17544.61
551.235	17586.19
551.599	17761.78
551.962	17729.01
552.326	17715.23
552.689	17827.99
553.053	17853.53
553.417	17915
553.78	18071.6
554.143	18112.96
554.507	18091.94
554.87	18264.82
555.234	18348.88
555.597	18279.05
555.96	18218.72
556.323	18460.07
556.686	18404.93
557.05	18569.89
557.413	18649.44
557.776	18652.6
558.139	18804.69
558.502	18825.25
558.865	18884.46
559.228	19016.44
559.59	19094.85
559.953	19101.86
560.316	19217.79
560.679	19310.44
561.041	19414.39
561.404	19353.6
561.767	19583.65
562.129	19451.23
562.492	19758.34
562.854	19710.88
563.217	19758.11
563.579	19879.69
563.941	19946.58
564.304	20154.03
564.666	20142.51
565.028	20237.65
565.39	20225.44
565.753	20431.54
566.115	20485.1
566.477	20610.52
566.839	20582.95
567.201	20707.92
567.563	20725.54
567.925	20947.68
568.287	20875.6
568.648	20975.25
569.01	21036.04
569.372	21103.39
569.734	21167.11
570.095	21271.06
570.457	21356.49
570.819	21416.15
571.18	21442.13
571.542	21682.81
571.903	21670.6
572.265	21867.43
572.626	21821.11
572.987	21889.13
573.349	21930.26
573.71	22052.97
574.071	22129.35
574.432	22224.49
574.794	22531.37
575.155	22519.62
575.516	22443.46
575.877	22638.49
576.238	22821.08
576.599	22849.33
576.96	22944.24
577.32	23038.48
577.681	23205.93
578.042	23364.8
578.403	23360.73
578.763	23568.63
579.124	23620.38
579.485	23835.29
579.845	24002.97
580.206	23988.96
580.566	24075.74
580.927	24080.93
581.287	24514.14
581.648	24450.42
582.008	24883.63
582.368	24909.16
582.728	25049.04
583.089	25138.53
583.449	25307.12
583.809	25509.37
584.169	25790.49
584.529	25691.97
584.889	26063.71
585.249	26170.15
585.609	26152.07
585.969	26456.01
586.329	26611.26
586.688	26775.1
587.048	26923.8
587.408	27087.18
587.768	27259.83
588.127	27412.37
588.487	27679.26
588.846	27898.69
589.206	27965.35
589.565	28185.46
589.925	28484.66
590.284	28636.07
590.643	28768.72
591.003	28995.38
591.362	29319.67
591.721	29399.66
592.08	29576.84
592.44	29741.8
592.799	29995.81
593.158	30085.52
593.517	30172.3
593.876	30536.58
594.235	30565.96
594.593	30921.43
594.952	31045.05
595.311	31176.12
595.67	31380.18
596.029	31782.65
596.387	31843.22
596.746	32166.6
597.104	32129.08
597.463	32193.04
597.822	32432.35
598.18	32701.5
598.538	32778.11
598.897	33035.05
599.255	32930.42
599.613	33628.03
599.972	33447.92
600.33	33698.99
600.688	33784.86
601.046	34109.6
601.404	34204.96
601.762	34354.56
602.12	34660.32
602.478	34571.51
602.836	34742.12
603.194	34799.52
603.552	34960.87
603.91	35061.21
604.268	35328.32
604.625	35238.38
604.983	35486.28
605.341	35434.53
605.698	35787.07
606.056	35948.65
606.413	36093.27
606.771	36264.12
607.128	36415.07
607.485	36247.85
607.843	36387.5
608.2	36779.36
608.557	36881.73
608.914	36994.72
609.272	37050.54
609.629	37407.14
609.986	37634.93
610.343	37427.25
610.7	37825.21
611.057	37909.05
611.414	37847.8
611.771	37927.58
612.127	38163.5
612.484	38306.78
612.841	38357.17
613.198	38272.88
613.554	38426.09
613.911	38653.88
614.267	38549.25
614.624	38681.68
614.98	38867.21
615.337	39086.42
615.693	39064.27
616.05	39140.2
616.406	39346.52
616.762	39294.55
617.118	39342.23
617.475	39456.35
617.831	39710.81
618.187	39640.75
618.543	39764.82
618.899	40160.51
619.255	39977.47
619.611	40040.74
619.967	40309.43
620.323	40298.81
620.678	40119.83
621.034	40291.36
621.39	40267.4
621.746	40273.5
622.101	40707.84
622.457	40337.23
622.812	40488.41
623.168	40706.03
623.523	40678.46
623.879	40910.55
624.234	40583.55
624.589	40881.85
624.945	40954.84
625.3	40878.01
625.655	40951.23
626.01	40941.51
626.365	41071.67
626.72	40921.85
627.075	41102.18
627.43	41108.74
627.785	41121.84
628.14	41292.01
628.495	41190.77
628.85	41223.31
629.205	41055.4
629.559	41227.38
629.914	41231.22
630.269	41172.01
630.623	41167.04
630.978	41176.3
631.332	41235.51
631.687	41442.06
632.041	41240.94
632.396	41277.09
632.75	41190.77
633.104	41161.16
633.459	41002.07
633.813	41115.06
634.167	41098.34
634.521	41069.64
634.875	41162.07
635.229	41234.16
635.583	41021.51
635.937	40992.81
636.291	41017.44
636.645	40897.22
636.999	40893.6
637.352	40997.33
637.706	40842.08
638.06	40923.66
638.413	40961.85
638.767	40994.84
639.121	41016.99
639.474	40693.83
639.828	40766.37
640.181	40797.56
640.534	40840.95
640.888	40767.05
641.241	40520.28
641.594	40767.5
641.947	40771.8
642.301	40716.43
642.654	40822.42
643.007	40654.96
643.36	40608.41
643.713	40600.27
644.066	40795.98
644.419	40529.09
644.771	40277.57
645.124	39962.55
645.477	39895.89
645.83	39641.66
646.182	39569.34
646.535	39365.73
646.888	39419.74
647.24	39256.81
647.593	39480.76
647.945	39399.4
648.298	39237.15
648.65	39126.41
649.002	39120.09
649.355	39277.82
649.707	39175.68
650.059	39434.43
650.411	39702.67
650.763	39822.89
651.115	40195.54
651.467	40066.5
651.819	40132.72
652.171	40040.29
652.523	39905.38
652.875	39861.08
653.227	39795.1
653.578	40018.82
653.93	39944.25
654.282	39728.21
654.633	39860.63
654.985	39697.7
655.337	39662.45
655.688	39727.75
656.039	39798.94
656.391	39473.3
656.742	39612.05
657.094	39622.45
657.445	39757.58
657.796	39539.96
658.147	39664.48
658.498	39580.87
658.849	39685.27
659.2	39583.13
659.551	39471.72
659.902	39672.84
660.253	39464.94
660.604	39563.24
660.955	39375.9
661.306	39473.3
661.656	39419.97
662.007	39457.03
662.358	39408.22
662.708	39388.55
663.059	39423.81
663.409	39211.16
663.76	39436.69
664.11	39570.24
664.461	39494.09
664.811	39490.7
665.161	39302.91
665.511	39413.41
665.862	39483.69
666.212	39347.65
666.562	39499.29
666.912	39399.18
667.262	39407.09
667.612	39427.42
667.962	39477.59
668.312	39388.1
668.662	39565.5
669.011	39302.68
669.361	39340.87
669.711	39200.99
670.06	39191.27
670.41	39207.32
670.76	39098.39
671.109	39179.52
671.459	39115.12
671.808	39084.16
672.157	39238.28
672.507	38877.83
672.856	38951.05
673.205	39059.07
673.554	39121.9
673.904	39046.64
674.253	39208.45
674.602	39052.52
674.951	38363.04
675.3	38419.31
675.649	38952.86
675.998	38884.39
676.346	38867.89
676.695	38999.19
677.044	38635.58
677.393	38878.29
677.741	38908.12
678.09	38748.12
678.438	38553.55
678.787	38763.26
679.135	38642.13
679.484	38506.77
679.832	38766.88
680.181	38482.59
680.529	38528.46
680.877	38409.6
681.225	38511.52
681.573	38654.11
681.922	38467.9
682.27	38192.65
682.618	38367.56
682.966	38091.19
683.314	38271.3
683.661	38217.96
684.009	38101.36
684.357	37927.8
684.705	37879.89
685.053	37990.4
685.4	37749.73
685.748	37740.01
686.095	37601.48
686.443	37556.74
686.79	37479.9
687.138	37473.58
687.485	37519
687.832	37459.34
688.18	37392
688.527	37188.39
688.874	37178.67
689.221	37040.37
689.568	36899.35
689.915	36802.41
690.262	36882.18
690.609	36710.21
690.956	36754.73
691.303	36671.56
691.65	36379.37
691.997	36507.05
692.344	36204.68
692.69	36271.8
693.037	36283.33
693.383	36067.96
693.73	36046.27
694.077	35911.36
694.423	35990.23
694.769	35807.86
695.116	35794.07
695.462	35745.26
695.808	35638.6
696.155	35758.82
696.501	35387.53
696.847	35514.08
697.193	35179.85
697.539	35195.22
697.885	35055.34
698.231	34843.59
698.577	34871.16
698.923	34788.68
699.269	34516.14
699.614	34552.75
699.96	34446.09
700.306	34490.38
700.651	34350.72
700.997	34240.22
701.342	34189.82
701.688	34124.74
702.033	34019.88
702.379	34054.91
702.724	33847.01
703.069	34058.3
703.415	33614.24
703.76	33673.68
704.105	33721.36
704.45	33515.71
704.795	33243.41
705.14	33197.53
705.485	33278.66
705.83	33024.2
706.175	33164.76
706.52	32969.06
706.865	32791.67
707.209	32959.8
707.554	32737.2
707.899	32866.92
708.243	32623.31
708.588	32666.02
708.932	32516.19
709.277	32422.18
709.621	32442.75
709.966	32175.64
710.31	32300.38
710.654	31947.17
710.998	32122.98
711.342	32117.79
711.687	31893.16
712.031	31804.35
712.375	31690.45
712.719	31784.46
713.063	31670.79
713.407	31727.97
713.75	31539.72
714.094	31656.55
714.438	31443
714.782	31517.58
715.125	31296.34
715.469	31399.16
715.812	31236.9
716.156	31047.98
716.499	30997.14
716.843	31092.05
717.186	30887.76
717.53	30935.44
717.873	30940.87
718.216	30809.35
718.559	30835.11
718.902	30543.82
719.246	30672.85
719.589	30415.91
719.932	30398.06
720.275	30340.66
720.617	30409.36
720.96	30341.79
721.303	30296.36
721.646	30267.89
721.989	30045.52
722.331	30212.98
722.674	30125.75
723.016	30095.47
723.359	30139.76
723.701	30021.57
724.044	29980.44
724.386	29700.67
724.729	29888.24
725.071	29765.76
725.413	29743.16
725.755	29768.02
726.097	29654.8
726.439	29460.23
726.782	29475.82
727.124	29621.58
727.465	29375.71
727.807	29344.3
728.149	29366.22
728.491	29280.8
728.833	29374.13
729.175	29257.97
729.516	29112.21
729.858	29102.27
730.199	29118.54
730.541	28947.25
730.882	28968.72
731.224	28982.5
731.565	28857.76
731.906	28997.87
732.248	28916.29
732.589	28686.24
732.93	28671.77
733.271	28643.3
733.612	28677.88
733.953	28695.28
734.294	28629.97
734.635	28516.98
734.976	28505.45
735.317	28428.62
735.658	28316.08
735.999	28434.04
736.339	28386.13
736.68	28427.49
737.021	28229.3
737.361	28127.38
737.702	28294.16
738.042	28208.51
738.383	28061.39
738.723	28183.65
739.063	28071.56
739.404	28055.07
739.744	28037.44
740.084	27809.65
740.424	27797.9
740.764	27849.2
741.104	27961.51
741.444	27699.14
741.784	27542.99
742.124	27711.35
742.464	27680.61
742.804	27680.84
743.143	27583.67
743.483	27575.31
743.823	27377.35
744.162	27428.64
744.502	27465.48
744.841	27239.27
745.181	27279.72
745.52	27267.97
745.86	27236.78
746.199	27132.15
746.538	27123.34
746.877	27224.58
747.216	27137.58
747.556	26945.94
747.895	27030.24
748.234	26963.57
748.573	26899.62
748.911	26794.99
749.25	26836.12
749.589	26640.42
749.928	26707.53
750.267	26692.17
750.605	26683.35
750.944	26526.75
751.283	26524.26
751.621	26654.65
751.96	26335.56
752.298	26341.21
752.636	26432.51
752.975	26375.34
753.313	26231.39
753.651	26280.65
753.989	26055.35
754.327	26024.61
754.666	25974.44
755.004	25952.07
755.342	25921.11
755.679	25871.85
756.017	25728.8
756.355	25885.18
756.693	25691.06
757.031	25691.74
757.368	25553.44
757.706	25566.09
758.044	25464.63
758.381	25444.29
758.719	25397.06
759.056	25387.11
759.394	25257.17
759.731	25138.31
760.068	25083.85
760.405	25005.88
760.743	24900.57
761.08	24928.6
761.417	24830.52
761.754	24794.59
762.091	24692.44
762.428	24630.07
762.765	24543.97
763.102	24584.65
763.438	24352.34
763.775	24209.74
764.112	24276.41
764.449	24369.06
764.785	24209.97
765.122	23998.68
765.458	23845.46
765.795	23840.49
766.131	23852.01
766.467	23713.03
766.804	23685.69
767.14	23519.14
767.476	23557.33
767.812	23370.22
768.148	23425.81
768.485	23285.48
768.821	23136.55
769.157	23112.37
769.492	23024.24
769.828	22980.85
770.164	22920.29
770.5	22840.74
770.836	22889.1
771.171	22617.02
771.507	22594.65
771.842	22393.52
772.178	22421.32
772.513	22329.12
772.849	22258.61
773.184	22156.47
773.519	22161.44
773.855	22118.73
774.19	21972.06
774.525	21916.02
774.86	21904.27
775.195	21838.96
775.53	21700.88
775.865	21702.24
776.2	21499.99
776.535	21322.14
776.87	21457.95
777.205	21304.06
777.539	21123.95
777.874	21261.8
778.209	20991.07
778.543	20949.94
778.878	20862.04
779.212	20848.93
779.547	20768.71
779.881	20852.09
780.215	20629.73
780.55	20661.59
780.884	20484.42
781.218	20380.69
781.552	20425.66
781.886	20324.42
782.22	20223.41
782.554	20151.55
782.888	19999.91
783.222	19893.7
783.556	19813.7
783.889	19646.02
784.223	19702.29
784.557	19662.97
784.89	19692.8
785.224	19560.6
785.557	19373.26
785.891	19361.28
786.224	19350.66
786.558	19295.07
786.891	19146.6
787.224	19029.99
787.557	18962.2
787.891	19032.71
788.224	19027.96
788.557	18861.86
788.89	18869.55
789.223	18825.71
789.556	18650.34
789.888	18620.29
790.221	18634.07
790.554	18438.15
790.887	18467.97
791.219	18371.03
791.552	18244.7
791.884	18161.99
792.217	18142.56
792.549	18096.46
792.882	18013.07
793.214	17945.5
793.546	17888.1
793.879	17767.2
794.211	17712.06
794.543	17767.43
794.875	17683.81
795.207	17698.5
795.539	17559.52
795.871	17600.43
796.203	17402.47
796.535	17255.35
796.867	17345.97
797.198	17315.91
797.53	17304.39
797.862	17060.1
798.193	17100.1
798.525	16945.53
798.856	16990.27
799.188	16725.42
799.519	16783.05
799.85	16645.42
800.182	16703.5
800.513	16732.2
800.844	16674.8
801.175	16660.79
801.506	16506.9
801.837	16514.81
802.168	16384.87
802.499	16371.08
802.83	16358.43
803.161	16311.65
803.491	16263.51
803.822	16188.94
804.153	16107.58
804.483	15992.56
804.814	16019.68
805.145	16000.24
805.475	16003.41
805.805	15821.49
806.136	15847.93
806.466	15914.14
806.796	15845.67
807.126	15636.18
807.457	15711.89
807.787	15583.08
808.117	15628.95
808.447	15623.3
808.777	15605.68
809.107	15448.62
809.436	15443.42
809.766	15483.19
810.096	15362.29
810.426	15347.83
810.755	15398
811.085	15236.65
811.414	15299.7
811.744	15065.13
812.073	14985.58
812.403	15093.6
812.732	14985.81
813.061	14965.69
813.39	14872.36
813.719	14889.31
814.049	14881.18
814.378	14842.76
814.707	14743.78
815.036	14689.77
815.365	14668.07
815.693	14521.64
816.022	14550.11
816.351	14509.43
816.68	14439.83
817.008	14446.16
817.337	14337.24
817.665	14334.75
817.994	14312.6
818.322	14360.74
818.651	14251.59
818.979	14168.88
819.307	14281.42
819.636	14185.83
819.964	14168.88
820.292	14159.61
820.62	14168.43
820.948	14067.64
821.276	14142.44
821.604	14068.09
821.932	14008.66
822.259	14061.31
822.587	14064.02
822.915	13999.84
823.243	14143.79
823.57	13953.52
823.898	14086.85
824.225	13927.76
824.553	14071.03
824.88	14030.13
825.207	14049.11
825.535	14005.95
825.862	14099.5
826.189	13951.71
826.516	14049.56
826.843	14045.94
827.17	14010.01
827.497	13974.99
827.824	14036.45
828.151	14048.88
828.478	14038.49
828.805	14031.71
829.131	13967.75
829.458	14030.58
829.785	13919.17
830.111	13977.7
830.438	14104.7
830.764	14022.44
831.09	14046.85
831.417	13907.87
831.743	14000.07
832.069	13998.04
832.395	13880.07
832.722	13984.7
833.048	13953.29
833.374	13833.97
833.7	13842.56
834.026	13905.83
834.351	13886.17
834.677	13850.47
835.003	13853.18
835.329	13814.76
835.654	13782
835.98	13696.12
836.306	13734.09
836.631	13735.44
836.956	13754.65
837.282	13735.67
837.607	13569.8
837.932	13617.93
838.258	13619.06
838.583	13606.63
838.908	13485.06
839.233	13433.76
839.558	13492.29
839.883	13510.14
840.208	13393.98
840.533	13400.76
840.858	13460.2
841.182	13351.05
841.507	13305.17
841.832	13334.55
842.156	13307.43
842.481	13258.85
842.805	13259.98
843.13	13211.16
843.454	13151.96
843.778	13161.67
844.103	13158.28
844.427	13076.03
844.751	13092.75
845.075	13064.73
845.399	12998.51
845.723	13046.2
846.047	12906.77
846.371	12916.26
846.695	12866.99
847.019	12729.82
847.343	12689.37
847.666	12660.22
847.99	12638.07
848.313	12637.85
848.637	12482.6
848.96	12387.46
849.284	12494.8
849.607	12312.2
849.931	12295.71
850.254	12221.13
850.577	12160.8
850.9	12064.98
851.223	12046.67
851.546	12022.27
851.869	11887.36
852.192	12005.55
852.515	11928.94
852.838	11828.38
853.161	11813.23
853.483	11719.9
853.806	11738.21
854.129	11686.68
854.451	11566.69
854.774	11588.61
855.096	11549.51
855.419	11577.99
855.741	11525.56
856.063	11467.93
856.385	11425.9
856.708	11446.46
857.03	11357.88
857.352	11396.97
857.674	11209.18
857.996	11245.57
858.318	11169.86
858.64	11205.79
858.961	11198.79
859.283	11211.89
859.605	11124.44
859.926	11069.3
860.248	11029.53
860.57	10974.84
860.891	10960.83
861.212	10976.87
861.534	10891
861.855	10891.9
862.176	10821.62
862.498	10862.98
862.819	10881.28
863.14	10736.2
863.461	10773.71
863.782	10785.69
864.103	10745.69
864.424	10693.49
864.745	10760.38
865.065	10756.54
865.386	10604.23
865.707	10666.6
866.027	10702.76
866.348	10602.64
866.668	10589.54
866.989	10540.5
867.309	10476.32
867.63	10477.45
867.95	10539.82
868.27	10531.91
868.59	10505.25
868.91	10431.58
869.23	10457.34
869.55	10370.33
869.87	10426.15
870.19	10423.67
870.51	10387.74
870.83	10425.7
871.15	10348.64
871.469	10329.88
871.789	10390.67
872.109	10324.69
872.428	10285.14
872.748	10308.64
873.067	10267.74
873.386	10221.41
873.706	10233.16
874.025	10215.76
874.344	10199.72
874.663	10190
874.982	10130.57
875.301	10185.48
875.62	10129.66
875.939	10094.41
876.258	10040.85
876.577	10106.16
876.896	10066.16
877.214	9944.81
877.533	9991.81
877.852	9980.29
878.17	10024.58
878.489	9990.68
878.807	9922.21
879.125	9901.65
879.444	9926.05
879.762	9881.99
880.08	9899.84
880.398	9804.93
880.716	9851.03
881.034	9819.39
881.352	9814.87
881.67	9801.54
881.988	9770.35
882.306	9731.03
882.624	9740.97
882.941	9698.26
883.259	9644.93
883.577	9614.2
883.894	9523.13
884.212	9561.99
884.529	9523.35
884.846	9545.95
885.164	9555.21
885.481	9486.52
885.798	9536.68
886.115	9417.14
886.432	9471.38
886.75	9415.78
887.067	9427.53
887.383	9329.91
887.7	9288.1
888.017	9276.58
888.334	9342.57
888.651	9222.12
888.967	9239.74
889.284	9276.35
889.6	9224.6
889.917	9113.19
890.233	9183.7
890.55	9049.92
890.866	9153.42
891.182	9112.29
891.498	9076.36
891.815	9041.78
892.131	8944.84
892.447	8935.57
892.763	8968.56
893.079	8921.56
893.395	8908.45
893.71	8880.43
894.026	8864.39
894.342	8850.37
894.657	8763.37
894.973	8688.12
895.289	8756.37
895.604	8773.54
895.92	8666.65
896.235	8589.82
896.55	8569.03
896.865	8562.92
897.181	8636.14
897.496	8556.82
897.811	8499.65
898.126	8478.41
898.441	8530.61
898.756	8391.63
899.071	8386.43
899.386	8324.51
899.7	8279.54
900.015	8275.7
900.33	8242.48
900.644	8218.07
900.959	8225.53
901.273	8196.61
901.588	8181.92
901.902	8095.59
902.216	8104.18
902.531	8107.57
902.845	8064.63
903.159	8041.13
903.473	7957.52
903.787	7875.26
904.101	7920
904.415	7890.85
904.729	7866.45
905.042	7801.81
905.356	7853.34
905.67	7768.37
905.984	7742.83
906.297	7706
906.611	7678.43
906.924	7687.47
907.237	7607.24
907.551	7618.77
907.864	7557.75
908.177	7555.72
908.491	7482.28
908.804	7478.43
909.117	7533.57
909.43	7419.68
909.743	7397.53
910.056	7416.51
910.368	7242.73
910.681	7272.11
910.994	7242.28
911.307	7190.08
911.619	7200.02
911.932	7196.86
912.244	7140.59
912.557	7120.7
912.869	7087.03
913.181	7063.3
913.494	7047.48
913.806	6984.89
914.118	6981.72
914.43	6937.66
914.742	6921.39
915.054	6854.49
915.366	6864.44
915.678	6807.72
915.99	6807.49
916.302	6678.45
916.613	6757.32
916.925	6723.88
917.236	6648.62
917.548	6666.7
917.859	6707.83
918.171	6600.26
918.482	6583.99
918.794	6522.07
919.105	6532.47
919.416	6398.24
919.727	6444.11
920.038	6495.18
920.349	6413.83
920.66	6382.19
920.971	6372.93
921.282	6341.51
921.593	6309.65
921.903	6276.66
922.214	6297.22
922.525	6211.57
922.835	6198.24
923.146	6188.98
923.456	6182.2
923.767	6188.3
924.077	6163.89
924.387	6100.39
924.697	6044.35
925.008	6042.76
925.318	5963.22
925.628	5965.48
925.938	5964.12
926.248	5892.71
926.558	5874.86
926.867	5868.08
927.177	5814.75
927.487	5835.76
927.796	5763.22
928.106	5791.92
928.416	5710.34
928.725	5730.46
929.034	5710.12
929.344	5709.21
929.653	5657.46
929.962	5600.97
930.271	5581.31
930.581	5574.98
930.89	5567.98
931.199	5517.13
931.508	5540.86
931.817	5503.12
932.125	5501.54
932.434	5456.34
932.743	5418.15
933.051	5363.01
933.36	5359.17
933.669	5356
933.977	5310.81
934.286	5302.67
934.594	5303.8
934.902	5254.31
935.21	5224.48
935.519	5207.31
935.827	5193.97
936.135	5206.4
936.443	5120.53
936.751	5154.43
937.059	5125.27
937.367	5058.61
937.674	5092.73
937.982	5036.69
938.29	5008.44
938.597	5045.05
938.905	4979.06
939.213	4919.18
939.52	4924.15
939.827	4945.62
940.135	4850.93
940.442	4833.53
940.749	4882.8
941.056	4851.84
941.363	4809.12
941.67	4770.93
941.977	4758.28
942.284	4715.57
942.591	4684.83
942.898	4698.17
943.205	4677.38
943.511	4648.23
943.818	4649.58
944.125	4614.55
944.431	4607.1
944.738	4558.96
945.044	4572.97
945.35	4569.58
945.657	4470.6
945.963	4495.91
946.269	4462.02
946.575	4479.42
946.881	4420.21
947.187	4421.34
947.493	4406.2
947.799	4425.63
948.105	4404.84
948.41	4344.5
948.716	4360.1
949.022	4361.45
949.327	4308.8
949.633	4281.46
949.938	4311.96
950.244	4225.41
950.549	4259.53
950.854	4203.72
951.16	4182.47
951.465	4149.71
951.77	4152.65
952.075	4129.59
952.38	4171.4
952.685	4147
952.99	4034.68
953.294	4066.09
953.599	4051.63
953.904	4036.49
954.209	4021.12
954.513	3975.02
954.818	3972.08
955.122	4005.08
955.426	3909.04
955.731	3972.31
956.035	3918.07
956.339	3888.7
956.643	3858.19
956.948	3874.01
957.252	3848.25
957.556	3836.04
957.86	3816.83
958.163	3796.5
958.467	3739.1
958.771	3784.29
959.075	3738.64
959.378	3728.02
959.682	3719.21
959.985	3696.61
960.289	3667.23
960.592	3650.51
960.896	3681.92
961.199	3618.2
961.502	3607.35
961.805	3586.56
962.108	3588.59
962.411	3539.1
962.714	3573.45
963.017	3552.89
963.32	3524.19
963.623	3504.3
963.926	3486.67
964.228	3464.3
964.531	3485.32
964.833	3467.69
965.136	3409.39
965.438	3405.55
965.741	3396.51
966.043	3392.21
966.345	3367.58
966.648	3391.08
966.95	3335.27
967.252	3329.62
967.554	3305.89
967.856	3276.96
968.158	3279.67
968.46	3306.11
968.761	3239
969.063	3252.78
969.365	3193.57
969.666	3226.12
969.968	3218.88
970.269	3174.14
970.571	3165.33
970.872	3187.92
971.174	3162.84
971.475	3127.59
971.776	3126.46
972.077	3101.6
972.378	3112.45
972.679	3101.37
972.98	3059.34
973.281	3056.18
973.582	3026.8
973.883	3053.46
974.183	3032.45
974.484	3016.86
974.785	2987.25
975.085	2959.68
975.386	2950.87
975.686	2973.69
975.986	2981.15
976.287	2957.87
976.587	2887.59
976.887	2901.15
977.187	2908.61
977.487	2881.04
977.787	2856.41
978.087	2825.45
978.387	2779.12
978.687	2822.28
978.987	2808.73
979.286	2787.03
979.586	2768.05
979.885	2765.79
980.185	2775.96
980.484	2748.39
980.784	2749.52
981.083	2715.85
981.382	2717.43
981.682	2725.79
981.981	2702.74
982.28	2651.22
982.579	2633.81
982.878	2666.36
983.177	2632.91
983.475	2652.12
983.774	2606.92
984.073	2624.78
984.372	2528.28
984.67	2593.36
984.969	2575.96
985.267	2581.39
985.566	2558.11
985.864	2549.75
986.162	2513.37
986.461	2500.71
986.759	2473.37
987.057	2467.04
987.355	2490.32
987.653	2436.08
987.951	2497.77
988.249	2437.21
988.547	2422.07
988.844	2448.06
989.142	2446.7
989.44	2415.52
989.737	2396.53
990.035	2388.4
990.332	2387.95
990.63	2395.86
990.927	2344.78
991.224	2334.84
991.521	2332.58
991.819	2296.65
992.116	2283.77
992.413	2312.24
992.71	2298.46
993.006	2266.59
993.303	2265.24
993.6	2219.81
993.897	2255.75
994.193	2251
994.49	2243.54
994.787	2226.59
995.083	2197.89
995.379	2185.24
995.676	2206.48
995.972	2172.81
996.268	2154.96
996.565	2162.64
996.861	2130.1
997.157	2123.55
997.453	2106.82
997.749	2098.69
998.044	2093.04
998.34	2095.98
998.636	2088.52
998.932	2080.84
999.227	2078.12
999.523	2036.54
999.818	2035.64
1000.114	2025.7
1000.409	2018.01
1000.704	1992.93
1001	1969.43
1001.295	1979.82
1001.59	1968.97
1001.885	1961.97
1002.18	1939.14
1002.475	1950.9
1002.77	1939.37
1003.065	1937.56
1003.359	1920.16
1003.654	1901.63
1003.949	1871.8
1004.243	1874.51
1004.538	1874.06
1004.832	1843.55
1005.127	1849.2
1005.421	1839.94
1005.715	1841.07
1006.009	1823.21
1006.304	1810.56
1006.598	1788.87
1006.892	1793.39
1007.186	1779.6
1007.48	1768.75
1007.773	1776.44
1008.067	1767.62
1008.361	1763.78
1008.655	1733.73
1008.948	1721.52
1009.242	1710.22
1009.535	1677
1009.829	1690.79
1010.122	1697.79
1010.415	1662.54
1010.708	1663.67
1011.001	1652.82
1011.295	1626.38
1011.588	1602.2
1011.881	1622.32
1012.173	1623.67
1012.466	1606.5
1012.759	1603.56
1013.052	1618.25
1013.344	1567.85
1013.637	1544.58
1013.93	1563.56
1014.222	1549.55
1014.514	1532.83
1014.807	1549.32
1015.099	1539.61
1015.391	1491.47
1015.683	1505.71
1015.976	1480.4
1016.268	1463.45
1016.56	1457.35
1016.851	1475.65
1017.143	1462.55
1017.435	1460.06
1017.727	1455.31
1018.018	1440.85
1018.31	1446.05
1018.602	1445.82
1018.893	1428.42
1019.185	1407.63
1019.476	1387.07
1019.767	1380.97
1020.058	1413.51
1020.35	1386.62
1020.641	1390.46
1020.932	1359.95
1021.223	1328.54
1021.514	1325.15
1021.804	1352.49
1022.095	1277.01
1022.386	1310.23
1022.677	1298.48
1022.967	1280.86
1023.258	1247.18
1023.548	1253.74
1023.839	1252.83
1024.129	1270.46
1024.419	1260.97
1024.709	1264.59
1025	1240.18
1025.29	1225.49
1025.58	1214.42
1025.87	1193.63
1026.16	1209.9
1026.449	1174.64
1026.739	1189.56
1027.029	1199.5
1027.319	1165.83
1027.608	1150.46
1027.898	1173.06
1028.187	1167.19
1028.477	1141.65
1028.766	1121.76
1029.055	1130.58
1029.344	1125.61
1029.634	1105.72
1029.923	1100.97
1030.212	1091.48
1030.501	1098.04
1030.79	1098.26
1031.078	1081.99
1031.367	1062.1
1031.656	1083.12
1031.945	1067.53
1032.233	1063.46
1032.522	1024.37
1032.81	1057.13
1033.099	1025.95
1033.387	1025.95
1033.675	1004.03
1033.963	1027.53
1034.251	998.6
1034.54	993.41
1034.828	989.56
1035.116	998.15
1035.403	960.86
1035.691	990.47
1035.979	979.17
1036.267	939.4
1036.554	953.41
1036.842	937.81
1037.129	962.22
1037.417	931.94
1037.704	936.23
1037.992	925.39
1038.279	954.99
1038.566	905.72
1038.853	905.72
1039.14	905.72
