Data from hue_270_FLMS001491_00061.txt Node
Date: Tue Feb 07 15:57:32 GMT 2017
User: dcchb
Spectrometer: FLMS00149
Trigger mode: 0
Integration Time (sec): 2.000000E-2
Scans to average: 10
Electric dark correction enabled: true
Nonlinearity correction enabled: false
Boxcar width: 0
XAxis mode: Wavelengths
Number of Pixels in Spectrum: 2048
>>>>>Begin Spectral Data<<<<<
341.393	-3.97
341.776	-3.97
342.16	-3.97
342.543	-44.65
342.927	-50.97
343.31	-60.92
343.693	-65.66
344.077	-58.43
344.46	-61.82
344.843	-38.77
345.226	-37.19
345.61	-30.18
345.993	-24.99
346.376	-13.46
346.759	-7.58
347.142	31.06
347.525	42.81
347.908	53.2
348.291	90.04
348.674	75.58
349.057	106.31
349.44	133.2
349.823	155.35
350.206	164.39
350.588	180.66
350.971	202.58
351.354	204.16
351.737	229.92
352.119	234.44
352.502	242.13
352.884	283.48
353.267	279.64
353.65	270.37
354.032	307.44
354.414	303.59
354.797	320.77
355.179	332.29
355.562	311.5
355.944	321.22
356.326	319.41
356.709	338.85
357.091	347.43
357.473	344.72
357.855	328.45
358.238	308.57
358.62	328.9
359.002	323.25
359.384	360.54
359.766	326.42
360.148	352.18
360.53	332.97
360.912	324.16
361.294	316.25
361.676	360.77
362.057	330.26
362.439	327.77
362.821	332.29
363.203	326.64
363.584	331.84
363.966	324.84
364.348	328.23
364.729	330.26
365.111	333.88
365.493	305.18
365.874	311.5
366.256	325.06
366.637	309.7
367.019	300.66
367.4	306.31
367.781	322.8
368.163	321.67
368.544	313.76
368.925	301.11
369.306	315.57
369.688	313.99
370.069	323.48
370.45	315.34
370.831	303.59
371.212	304.72
371.593	306.98
371.974	332.75
372.355	321.22
372.736	331.16
373.117	319.86
373.498	309.7
373.879	324.61
374.26	327.55
374.641	303.14
375.021	324.16
375.402	314.21
375.783	327.1
376.163	321.45
376.544	309.92
376.925	319.86
377.305	351.28
377.686	330.71
378.066	329.81
378.447	348.34
378.827	323.03
379.208	329.13
379.588	329.81
379.968	344.72
380.349	344.72
380.729	325.29
381.109	332.52
381.489	356.02
381.87	323.48
382.25	346.98
382.63	328.23
383.01	347.43
383.39	352.18
383.77	354.21
384.15	361.67
384.53	339.52
384.91	350.15
385.29	362.58
385.67	331.39
386.049	354.44
386.429	333.65
386.809	359.64
387.189	346.76
387.568	352.86
387.948	354.44
388.328	348.11
388.707	365.51
389.087	354.44
389.466	374.33
389.846	366.64
390.225	362.58
390.605	374.78
390.984	374.1
391.363	380.65
391.743	369.58
392.122	377.72
392.501	385.4
392.881	381.56
393.26	394.66
393.639	377.94
394.018	381.11
394.397	398.51
394.776	372.97
395.155	399.86
395.534	359.86
395.913	378.62
396.292	394.44
396.671	390.15
397.05	404.16
397.429	381.56
397.808	409.58
398.186	383.59
398.565	411.84
398.944	426.75
399.323	408
399.701	415
400.08	410.71
400.458	424.04
400.837	439.64
401.215	426.53
401.594	407.55
401.972	411.61
402.351	434.89
402.729	445.96
403.107	441.22
403.486	445.96
403.864	442.35
404.242	442.8
404.62	419.52
404.999	444.83
405.377	465.85
405.755	442.35
406.133	474.21
406.511	466.3
406.889	465.17
407.267	466.08
407.645	473.31
408.023	485.96
408.401	499.75
408.779	507.43
409.156	503.36
409.534	506.75
409.912	517.83
410.29	501.78
410.667	493.87
411.045	532.51
411.422	525.96
411.8	557.15
412.178	542.91
412.555	539.52
412.933	558.5
413.31	550.82
413.687	582.23
414.065	542.68
414.442	579.97
414.819	577.71
415.197	615.45
415.574	599.41
415.951	609.57
416.328	594.43
416.705	635.34
417.082	610.48
417.46	627.2
417.837	633.53
418.214	622.91
418.591	672.4
418.967	655.22
419.344	651.16
419.721	665.17
420.098	656.35
420.475	684.83
420.852	676.24
421.228	685.73
421.605	708.55
421.982	715.79
422.358	721.89
422.735	748.33
423.111	740.87
423.488	745.39
423.864	757.14
424.241	793.07
424.617	793.07
424.994	779.97
425.37	808.67
425.746	804.82
426.123	828.1
426.499	819.29
426.875	818.16
427.251	873.75
427.627	860.87
428.003	853.41
428.379	869.45
428.756	890.7
429.132	903.8
429.507	907.19
429.883	922.33
430.259	941.32
430.635	942
431.011	931.6
431.387	973.41
431.763	971.82
432.138	960.3
432.514	990.13
432.89	1012.73
433.265	1026.74
433.641	1039.39
434.016	1029.22
434.392	1065.16
434.767	1096.34
435.143	1084.14
435.518	1120.07
435.894	1111.93
436.269	1148.09
436.644	1175.89
437.02	1158.49
437.395	1175.44
437.77	1233.74
438.145	1231.25
438.52	1251.14
438.895	1264.25
439.271	1247.3
439.646	1292.72
440.021	1310.8
440.395	1277.13
440.77	1312.15
441.145	1348.54
441.52	1365.49
441.895	1379.05
442.27	1378.82
442.645	1352.83
443.019	1387.18
443.394	1418.59
443.769	1406.39
444.143	1424.92
444.518	1450.23
444.892	1455.2
445.267	1461.76
445.641	1446.61
446.016	1480.29
446.39	1492.04
446.764	1473.73
447.139	1499.04
447.513	1518.93
447.887	1518.7
448.262	1500.62
448.636	1535.43
449.01	1528.65
449.384	1552.37
449.758	1562.32
450.132	1576.1
450.506	1584.24
450.88	1591.02
451.254	1595.54
451.628	1634.41
452.002	1652.26
452.376	1664.01
452.75	1658.36
453.123	1645.71
453.497	1658.13
453.871	1699.04
454.244	1725.03
454.618	1743.33
454.992	1765.02
455.365	1772.93
455.739	1776.1
456.112	1800.96
456.486	1780.17
456.859	1835.76
457.232	1847.73
457.606	1861.07
457.979	1859.26
458.352	1915.53
458.725	1904.46
459.099	1937.45
459.472	1979.71
459.845	2005.92
460.218	1985.36
460.591	1974.51
460.964	2000.5
461.337	2026.94
461.71	2072.81
462.083	2097.22
462.456	2101.51
462.829	2098.35
463.201	2167.27
463.574	2128.86
463.947	2146.26
464.32	2195.52
464.692	2186.26
465.065	2226.03
465.438	2259.7
465.81	2287.95
466.183	2300.15
466.555	2323.65
466.928	2400.04
467.3	2349.42
467.672	2410.43
468.045	2408.85
468.417	2456.08
468.789	2446.81
469.161	2477.77
469.534	2546.02
469.906	2553.03
470.278	2560.94
470.65	2588.51
471.022	2612.69
471.394	2646.81
471.766	2671.89
472.138	2677.99
472.51	2741.95
472.882	2747.6
473.253	2795.28
473.625	2830.76
473.997	2856.07
474.369	2893.13
474.74	2910.98
475.112	2958.21
475.484	2973.13
475.855	2991.66
476.227	3059.68
476.598	3110.98
476.97	3133.8
477.341	3185.33
477.713	3223.06
478.084	3224.87
478.455	3316.17
478.827	3317.53
479.198	3379.9
479.569	3387.58
479.94	3469.16
480.311	3499.44
480.682	3536.5
481.053	3630.96
481.424	3663.96
481.795	3722.71
482.166	3745.09
482.537	3811.3
482.908	3813.56
483.279	3888.81
483.65	3911.41
484.021	4008.36
484.391	4019.2
484.762	4018.52
485.133	4060.78
485.503	4099.43
485.874	4188.92
486.244	4168.8
486.615	4274.56
486.985	4274.34
487.356	4385.97
487.726	4428.01
488.097	4475.24
488.467	4453.99
488.837	4562.46
489.207	4556.82
489.578	4631.84
489.948	4637.27
490.318	4713.87
490.688	4746.64
491.058	4804.94
491.428	4810.37
491.798	4876.13
492.168	4936.01
492.538	4933.53
492.908	4941.44
493.278	5012.85
493.648	5004.49
494.017	5063.02
494.387	5153.41
494.757	5131.04
495.126	5193.18
495.496	5237.25
495.866	5277.47
496.235	5282.45
496.605	5303.24
496.974	5263.01
497.344	5341.2
497.713	5392.73
498.082	5367.87
498.452	5441.99
498.821	5458.03
499.19	5477.92
499.559	5540.97
499.928	5583.91
500.298	5597.24
500.667	5630.91
501.036	5648.54
501.405	5595.88
501.774	5623.91
502.143	5665.03
502.512	5646.05
502.88	5740.06
503.249	5731.47
503.618	5761.98
503.987	5745.48
504.356	5779.61
504.724	5796.1
505.093	5860.74
505.462	5781.64
505.83	5861.19
506.199	5906.84
506.567	5964.24
506.936	5990.22
507.304	6006.95
507.672	6018.47
508.041	5999.72
508.409	6027.51
508.777	6041.07
509.145	6062.31
509.514	6118.36
509.882	6099.15
510.25	6116.77
510.618	6149.54
510.986	6113.38
511.354	6156.32
511.722	6194.51
512.09	6186.6
512.458	6147.96
512.826	6251.01
513.193	6265.24
513.561	6220.27
513.929	6355.64
514.297	6355.19
514.664	6338.01
515.032	6343.21
515.4	6349.99
515.767	6413.49
516.135	6430.21
516.502	6323.77
516.869	6477.22
517.237	6456.2
517.604	6406.26
517.972	6475.18
518.339	6472.02
518.706	6465.47
519.073	6469.31
519.44	6515.86
519.808	6512.24
520.175	6542.3
520.542	6611.22
520.909	6598.34
521.276	6621.39
521.643	6628.17
522.009	6608.51
522.376	6686.48
522.743	6681.28
523.11	6707.04
523.477	6777.1
523.843	6771.45
524.21	6783.88
524.577	6809.41
524.943	6864.55
525.31	6878.79
525.676	6962.4
526.043	6943.42
526.409	6909.3
526.776	6994.72
527.142	6953.59
527.508	7000.59
527.874	7015.28
528.241	7111.1
528.607	7021.84
528.973	7111.55
529.339	7080.14
529.705	7102.96
530.071	7163.53
530.437	7180.02
530.803	7138.22
531.169	7221.15
531.535	7244.43
531.901	7182.51
532.267	7224.77
532.632	7313.58
532.998	7281.72
533.364	7306.12
533.73	7319.45
534.095	7309.96
534.461	7341.15
534.826	7331.66
535.192	7369.17
535.557	7383.86
535.923	7365.55
536.288	7394.48
536.653	7363.97
537.019	7382.5
537.384	7342.96
537.749	7374.59
538.114	7428.15
538.479	7411.43
538.845	7440.81
539.21	7411.66
539.575	7471.31
539.94	7519.45
540.305	7495.5
540.67	7462.5
541.034	7513.8
541.399	7533.01
541.764	7528.94
542.129	7530.07
542.494	7480.81
542.858	7504.08
543.223	7541.6
543.587	7575.27
543.952	7563.29
544.316	7610.75
544.681	7566
545.045	7600.58
545.41	7629.28
545.774	7613.23
546.138	7608.49
546.503	7574.36
546.867	7550.41
547.231	7681.93
547.595	7654.81
547.959	7647.36
548.324	7643.97
548.688	7658.88
549.052	7690.97
549.416	7758.54
549.779	7711.08
550.143	7719.67
550.507	7776.39
550.871	7776.17
551.235	7745.66
551.599	7756.28
551.962	7758.99
552.326	7731.87
552.689	7792.21
553.053	7701.82
553.417	7777.52
553.78	7872.21
554.143	7839.67
554.507	7830.18
554.87	7841.25
555.234	7875.82
555.597	7863.39
555.96	7860.01
556.323	7915.82
556.686	7908.59
557.05	7987.91
557.413	7966.22
557.776	7951.75
558.139	8032.2
558.502	7951.75
558.865	7983.17
559.228	8077.4
559.59	8057.97
559.953	8108.81
560.316	8171.41
560.679	8081.02
561.041	8183.16
561.404	8178.87
561.767	8292.76
562.129	8242.14
562.492	8312.42
562.854	8244.63
563.217	8258.86
563.579	8301.58
563.941	8335.92
564.304	8394.23
564.666	8384.96
565.028	8465.41
565.39	8470.61
565.753	8414.11
566.115	8557.16
566.477	8516.94
566.839	8601.68
567.201	8683.71
567.563	8645.3
567.925	8654.33
568.287	8731.62
568.648	8714.45
569.01	8707.89
569.372	8824.05
569.734	8745.86
570.095	8857.95
570.457	8924.84
570.819	8889.58
571.18	8935.46
571.542	8916.47
571.903	9000.54
572.265	9031.05
572.626	9007.55
572.987	9054.1
573.349	9121.21
573.71	9125.06
574.071	9089.13
574.432	9188.33
574.794	9173.64
575.155	9206.18
575.516	9208.44
575.877	9281.89
576.238	9290.7
576.599	9358.5
576.96	9287.76
577.32	9381.32
577.681	9342
578.042	9411.83
578.403	9458.38
578.763	9462.45
579.124	9505.61
579.485	9578.83
579.845	9597.36
580.206	9579.28
580.566	9649.34
580.927	9686.85
581.287	9664.25
581.648	9658.6
582.008	9806.62
582.368	9756
582.728	9833.29
583.089	9763.46
583.449	9808.43
583.809	9856.79
584.169	9915.77
584.529	9954.64
584.889	9942.44
585.249	9940.4
585.609	9973.85
585.969	10044.81
586.329	10032.15
586.688	10058.37
587.048	10120.74
587.408	10070.12
587.768	10140.62
588.127	10125.03
588.487	10136.33
588.846	10219.49
589.206	10134.97
589.565	10225.59
589.925	10281.86
590.284	10284.12
590.643	10322.31
591.003	10359.83
591.362	10405.25
591.721	10377.23
592.08	10391.24
592.44	10428.53
592.799	10521.63
593.158	10475.53
593.517	10519.37
593.876	10588.97
594.235	10608.18
594.593	10537.67
594.952	10660.16
595.311	10527.73
595.67	10633.04
596.029	10760.27
596.387	10661.29
596.746	10779.7
597.104	10636.66
597.463	10715.52
597.822	10765.92
598.18	10748.74
598.538	10758.23
598.897	10838.91
599.255	10782.19
599.613	10889.98
599.972	10878.23
600.33	10858.8
600.688	10809.53
601.046	10928.4
601.404	10918.23
601.762	10887.5
602.12	10970.43
602.478	10955.07
602.836	11012.46
603.194	10957.55
603.552	10945.35
603.91	10891.79
604.268	11021.5
604.625	10946.93
604.983	10996.65
605.341	10972.01
605.698	11005.69
606.056	11022.63
606.413	11004.33
606.771	11096.98
607.128	11130.2
607.485	11040.49
607.843	11033.93
608.2	11081.16
608.557	11149.64
608.914	11084.1
609.272	11258.33
609.629	11228.5
609.986	11275.28
610.343	11136.3
610.7	11312.57
611.057	11262.85
611.414	11155.74
611.771	11261.27
612.127	11283.64
612.484	11259.24
612.841	11317.32
613.198	11240.26
613.554	11262.63
613.911	11362.29
614.267	11329.74
614.624	11277.09
614.98	11396.41
615.337	11372
615.693	11344.66
616.05	11402.51
616.406	11577.87
616.762	11412.68
617.118	11417.2
617.475	11455.39
617.831	11464.2
618.187	11480.93
618.543	11479.12
618.899	11583.3
619.255	11519.8
619.611	11510.53
619.967	11512.11
620.323	11503.98
620.678	11505.33
621.034	11504.88
621.39	11535.39
621.746	11555.28
622.101	11656.74
622.457	11487.71
622.812	11589.17
623.168	11576.52
623.523	11552.11
623.879	11605.44
624.234	11582.85
624.589	11601.38
624.945	11579.68
625.3	11537.42
625.655	11522.51
626.01	11518.89
626.365	11537.2
626.72	11468.95
627.075	11512.11
627.43	11616.74
627.785	11529.51
628.14	11523.41
628.495	11543.07
628.85	11533.35
629.205	11488.84
629.559	11572.45
629.914	11458.33
630.269	11496.07
630.623	11480.02
630.978	11487.03
631.332	11507.82
631.687	11506.69
632.041	11435.73
632.396	11497.2
632.75	11386.47
633.104	11467.14
633.459	11444.54
633.813	11350.08
634.167	11385.34
634.521	11354.15
634.875	11371.55
635.229	11357.99
635.583	11327.71
635.937	11304.21
636.291	11259.46
636.645	11288.62
636.999	11195.06
637.352	11237.77
637.706	11169.52
638.06	11235.51
638.413	11213.14
638.767	11192.8
639.121	11184.89
639.474	11138.79
639.828	11158.45
640.181	11153.93
640.534	11172.23
640.888	11060.82
641.241	11101.95
641.594	11125.46
641.947	11116.19
642.301	11089.98
642.654	11152.12
643.007	11150.31
643.36	11034.16
643.713	11114.38
644.066	11058.79
644.419	11022.86
644.771	10946.93
645.124	10877.1
645.477	10856.08
645.83	10800.94
646.182	10778.8
646.535	10734.05
646.888	10652.02
647.24	10673.04
647.593	10741.51
647.945	10704.22
648.298	10676.88
648.65	10659.71
649.002	10623.1
649.355	10619.25
649.707	10633.27
650.059	10718.69
650.411	10903.77
650.763	10813.15
651.115	10888.17
651.467	10884.11
651.819	10903.09
652.171	10830.1
652.523	10867.84
652.875	10919.13
653.227	10800.27
653.578	10929.53
653.93	10871
654.282	10835.07
654.633	10861.06
654.985	10856.31
655.337	10885.46
655.688	10828.06
656.039	10848.85
656.391	10781.74
656.742	10786.93
657.094	10854.28
657.445	10880.49
657.796	10873.26
658.147	10918.46
658.498	10873.49
658.849	10847.27
659.2	10830.32
659.551	10883.43
659.902	10812.7
660.253	10864.45
660.604	10838.01
660.955	10740.61
661.306	10921.62
661.656	10807.27
662.007	10898.34
662.358	10845.69
662.708	10899.47
663.059	10894.5
663.409	10762.3
663.76	10856.99
664.11	10910.77
664.461	10871.68
664.811	10873.94
665.161	10910.77
665.511	10811.11
665.862	10854.95
666.212	10870.1
666.562	10855.63
666.912	10802.07
667.262	10871.23
667.612	10918.91
667.962	10861.51
668.312	10844.79
668.662	10889.98
669.011	10885.01
669.361	10837.78
669.711	10836.88
670.06	10807.05
670.41	10735.64
670.76	10836.2
671.109	10801.85
671.459	10783.54
671.808	10818.8
672.157	10873.94
672.507	10708.74
672.856	10713.49
673.205	10744.22
673.554	10774.05
673.904	10678.24
674.253	10725.92
674.602	10734.28
674.951	10606.15
675.3	10535.87
675.649	10663.55
675.998	10682.98
676.346	10717.11
676.695	10718.91
677.044	10725.92
677.393	10678.46
677.741	10659.48
678.09	10563.89
678.438	10545.58
678.787	10619.25
679.135	10646.6
679.484	10508.52
679.832	10592.14
680.181	10444.34
680.529	10560.73
680.877	10419.71
681.225	10401.41
681.573	10512.82
681.922	10444.8
682.27	10389.88
682.618	10381.52
682.966	10492.7
683.314	10432.59
683.661	10397.57
684.009	10285.93
684.357	10296.1
684.705	10358.7
685.053	10325.03
685.4	10272.6
685.748	10217.46
686.095	10287.74
686.443	10181.53
686.79	10208.64
687.138	10197.8
687.485	10129.55
687.832	10099.04
688.18	10093.62
688.527	10055.65
688.874	10129.55
689.221	10090.68
689.568	9928.65
689.915	9953.51
690.262	9945.83
690.609	9915.77
690.956	9831.03
691.303	9836.45
691.65	9752.38
691.997	9838.48
692.344	9797.81
692.69	9730.69
693.037	9718.71
693.383	9679.17
693.73	9664.7
694.077	9626.29
694.423	9604.14
694.769	9553.75
695.116	9503.58
695.462	9474.43
695.808	9515.1
696.155	9528.66
696.501	9384.48
696.847	9388.1
697.193	9316.01
697.539	9399.85
697.885	9316.24
698.231	9226.75
698.577	9241.44
698.923	9267.2
699.269	9191.5
699.614	9118.28
699.96	9116.47
700.306	9119.41
700.651	9001.9
700.997	8973.65
701.342	8992.86
701.688	9010.71
702.033	8967.09
702.379	8920.32
702.724	8912.18
703.069	8883.03
703.415	8804.16
703.76	8801
704.105	8808
704.45	8779.53
704.795	8736.37
705.14	8705.86
705.485	8719.42
705.83	8676.71
706.175	8652.75
706.52	8627.89
706.865	8582.92
707.209	8556.03
707.554	8562.81
707.899	8490.95
708.243	8415.47
708.588	8464.96
708.932	8345.19
709.277	8421.35
709.621	8418.63
709.966	8287.56
710.31	8342.03
710.654	8356.94
710.998	8297.28
711.342	8289.15
711.687	8286.43
712.031	8258.19
712.375	8214.12
712.719	8204.18
713.063	8206.89
713.407	8204.18
713.75	8159.66
714.094	8131.18
714.438	8100.45
714.782	8104.74
715.125	8058.64
715.469	8090.51
715.812	8085.76
716.156	8018.19
716.499	7990.17
716.843	8029.27
717.186	8048.93
717.53	8024.97
717.873	8039.44
718.216	7966.67
718.559	8006.44
718.902	7855.26
719.246	7999.89
719.589	7965.77
719.932	7931.64
720.275	7882.38
720.617	7876.28
720.96	7914.92
721.303	7879.44
721.646	7858.65
721.989	7842.38
722.331	7909.27
722.674	7863.62
723.016	7871.08
723.359	7861.14
723.701	7839.21
724.044	7726.9
724.386	7722.38
724.729	7805.54
725.071	7790.18
725.413	7722.61
725.755	7751.31
726.097	7833.57
726.439	7711.31
726.782	7737.07
727.124	7766.22
727.465	7721.03
727.807	7766.67
728.149	7707.47
728.491	7685.77
728.833	7708.14
729.175	7702.95
729.516	7702.72
729.858	7726.9
730.199	7631.54
730.541	7692.78
730.882	7657.07
731.224	7729.16
731.565	7627.02
731.906	7611.65
732.248	7653
732.589	7613.91
732.93	7667.02
733.271	7621.59
733.612	7635.15
733.953	7701.14
734.294	7629.05
734.635	7621.59
734.976	7657.98
735.317	7663.85
735.658	7610.29
735.999	7624.76
736.339	7641.25
736.68	7661.37
737.021	7627.69
737.361	7615.94
737.702	7625.21
738.042	7568.71
738.383	7609.62
738.723	7690.74
739.063	7596.51
739.404	7640.8
739.744	7690.52
740.084	7647.36
740.424	7688.71
740.764	7700.91
741.104	7723.74
741.444	7689.61
741.784	7679.22
742.124	7674.47
742.464	7742.04
742.804	7701.59
743.143	7730.97
743.483	7790.4
743.823	7742.72
744.162	7781.59
744.502	7760.57
744.841	7838.54
745.181	7888.25
745.52	7869.04
745.86	7833.57
746.199	7888.71
746.538	7916.95
746.877	7941.13
747.216	8009.61
747.556	8019.55
747.895	8088.93
748.234	8113.78
748.573	8150.39
748.911	8113.78
749.25	8227.68
749.589	8256.6
749.928	8278.3
750.267	8394.23
750.605	8439.65
750.944	8473.55
751.283	8541.34
751.621	8665.18
751.96	8730.72
752.298	8777.72
752.636	8866.31
752.975	8883.03
753.313	8952.63
753.651	9115.34
753.989	9132.06
754.327	9208.9
754.666	9281.89
755.004	9478.27
755.342	9523.01
755.679	9709.9
756.017	9744.7
756.355	9908.54
756.693	10005.26
757.031	10139.49
757.368	10208.64
757.706	10381.97
758.044	10441.41
758.381	10650.67
758.719	10762.08
759.056	10933.14
759.394	10978.79
759.731	11124.33
760.068	11249.97
760.405	11368.84
760.743	11490.42
761.08	11694.25
761.417	11748.49
761.754	12003.4
762.091	12078.65
762.428	12289.95
762.765	12355.03
763.102	12642.93
763.438	12699.65
763.775	12899.19
764.112	13002.02
764.449	13315.23
764.785	13394.55
765.122	13495.11
765.458	13660.76
765.795	13725.84
766.131	13954.53
766.467	14126.73
766.804	14136.68
767.14	14269.78
767.476	14503.22
767.812	14558.81
768.148	14718.36
768.485	14792.48
768.821	14956.54
769.157	15001.29
769.492	15232.01
769.828	15277.89
770.164	15320.83
770.5	15560.59
770.836	15553.36
771.171	15700.93
771.507	15833.58
771.842	15797.65
772.178	15972.56
772.513	16090.07
772.849	16097.53
773.184	16219.33
773.519	16298.2
773.855	16407.8
774.19	16424.07
774.525	16476.28
774.86	16697.51
775.195	16724.63
775.53	16737.51
775.865	16732.77
776.2	16727.79
776.535	16753.56
776.87	16964.85
777.205	16875.14
777.539	16906.32
777.874	17158.07
778.209	16984.74
778.543	17069.93
778.878	17007.11
779.212	17132.53
779.547	17159.87
779.881	17341.34
780.215	17226.54
780.55	17361.45
780.884	17202.58
781.218	17378.4
781.552	17303.15
781.886	17271.96
782.22	17278.29
782.554	17334.33
782.888	17172.98
783.222	17315.35
783.556	17167.56
783.889	17161.91
784.223	17214.34
784.557	17156.71
784.89	17343.37
785.224	17214.34
785.557	17123.04
785.891	17220.89
786.224	17194.22
786.558	17301.79
786.891	17112.42
787.224	17118.52
787.557	17117.39
787.891	17106.54
788.224	17179.31
788.557	17150.38
788.89	17130.04
789.223	17158.74
789.556	16933.21
789.888	16976.83
790.221	16882.82
790.554	16932.08
790.887	16887.79
791.219	16882.59
791.552	16825.19
791.884	16870.62
792.217	16796.27
792.549	16729.15
792.882	16743.84
793.214	16678.53
793.546	16771.41
793.879	16618.19
794.211	16523.51
794.543	16699.09
794.875	16581.81
795.207	16654.58
795.539	16493.9
795.871	16554.24
796.203	16438.99
796.535	16307.24
796.867	16397.63
797.198	16303.85
797.53	16348.82
797.862	16227.24
798.193	16290.74
798.525	16187.47
798.856	16191.54
799.188	16135.72
799.519	16020.47
799.85	15996.29
800.182	15992.22
800.513	15999.45
800.844	15894.14
801.175	16051.2
801.506	15962.62
801.837	15906.12
802.168	15891.43
802.499	15850.53
802.83	15766.92
803.161	15728.95
803.491	15718.56
803.822	15744.77
804.153	15640.59
804.483	15587.94
804.814	15514.72
805.145	15449.18
805.475	15522.85
805.805	15361.95
806.136	15437.89
806.466	15362.41
806.796	15335.51
807.126	15268.85
807.457	15272.69
807.787	15282.18
808.117	15171.68
808.447	15121.74
808.777	15192.24
809.107	15164.22
809.436	15148.4
809.766	15098.46
810.096	14995.86
810.426	15034.51
810.755	14990.89
811.085	14994.51
811.414	14930.1
811.744	14927.62
812.073	14836.77
812.403	14880.39
812.732	14741.86
813.061	14758.58
813.39	14725.14
813.719	14681.75
814.049	14731.24
814.378	14659.15
814.707	14648.53
815.036	14563.78
815.365	14619.83
815.693	14407.4
816.022	14545.71
816.351	14581.18
816.68	14366.27
817.008	14525.59
817.337	14323.11
817.665	14275.43
817.994	14304.81
818.322	14339.61
818.651	14213.96
818.979	14208.99
819.307	14263.68
819.636	14211.7
819.964	14117.69
820.292	14248.76
820.62	14192.49
820.948	14157.92
821.276	14191.14
821.604	14088.77
821.932	14164.47
822.259	14129.67
822.587	14152.04
822.915	14172.61
823.243	14146.17
823.57	14171.7
823.898	14113.63
824.225	14098.49
824.553	14091.48
824.88	14156.56
825.207	14152.72
825.535	14140.52
825.862	14265.49
826.189	14103.68
826.516	14171.48
826.843	14185.04
827.17	14218.48
827.497	14234.75
827.824	14150.46
828.151	14204.47
828.478	14258.03
828.805	14242.66
829.131	14239.95
829.458	14114.08
829.785	14131.7
830.111	14139.84
830.438	14231.36
830.764	14206.96
831.09	14212.83
831.417	14174.42
831.743	14239.95
832.069	14216.67
832.395	14124.93
832.722	14025.72
833.048	14146.62
833.374	14076.34
833.7	14012.61
834.026	14073.4
834.351	14084.25
834.677	14034.08
835.003	14045.15
835.329	14063.01
835.654	14047.87
835.98	13909.79
836.306	13944.36
836.631	13943.01
836.956	13943.01
837.282	13938.49
837.607	13884.71
837.932	13872.5
838.258	13844.93
838.583	13845.61
838.908	13766.06
839.233	13790.7
839.558	13833.18
839.883	13773.3
840.208	13721.32
840.533	13698.04
840.858	13703.69
841.182	13667.99
841.507	13731.04
841.832	13609.91
842.156	13623.47
842.481	13537.37
842.805	13514.09
843.13	13578.27
843.454	13472.51
843.778	13475
844.103	13423.7
844.427	13364.27
844.751	13374.66
845.075	13328.56
845.399	13294.21
845.723	13152.52
846.047	13230.26
846.371	13010.38
846.695	13170.6
847.019	12998.63
847.343	12920.66
847.666	12847.67
847.99	12851.74
848.313	12819.65
848.637	12761.35
848.96	12759.31
849.284	12724.96
849.607	12610.61
849.931	12531.75
850.254	12547.57
850.577	12503.5
850.9	12331.75
851.223	12362.26
851.546	12293.33
851.869	12224.86
852.192	12253.56
852.515	12146.22
852.838	12131.53
853.161	12155.03
853.483	12105.09
853.806	11974.93
854.129	12007.69
854.451	11988.26
854.774	11975.6
855.096	11772.9
855.419	11801.14
855.741	11803.63
856.063	11783.97
856.385	11741.49
856.708	11685.89
857.03	11694.03
857.352	11648.83
857.674	11552.79
857.996	11483.41
858.318	11440.7
858.64	11484.99
858.961	11439.57
859.283	11464.88
859.605	11345.56
859.926	11365.45
860.248	11428.05
860.57	11292.01
860.891	11348.73
861.212	11223.76
861.534	11169.3
861.855	11228.05
862.176	11186.92
862.498	11204.32
862.819	11186.47
863.14	11108.28
863.461	11103.54
863.782	11053.59
864.103	11061.95
864.424	11024.89
864.745	11026.93
865.065	10915.52
865.386	10936.08
865.707	10925.91
866.027	10927.72
866.348	10927.04
866.668	10913.03
866.989	10818.35
867.309	10802.75
867.63	10873.71
867.95	10751
868.27	10736.99
868.59	10788.29
868.91	10734.28
869.23	10692.02
869.55	10670.33
869.87	10708.07
870.19	10687.28
870.51	10704.45
870.83	10615.86
871.15	10629.65
871.469	10561.63
871.789	10604.57
872.109	10604.11
872.428	10574.06
872.748	10587.17
873.067	10560.73
873.386	10572.02
873.706	10596.2
874.025	10506.49
874.344	10369.54
874.663	10432.37
874.982	10417.9
875.301	10419.94
875.62	10415.19
875.939	10307.17
876.258	10384.23
876.577	10299.04
876.896	10307.62
877.214	10300.62
877.533	10251.35
877.852	10272.82
878.17	10268.53
878.489	10348.75
878.807	10293.16
879.125	10205.25
879.444	10125.71
879.762	10215.2
880.08	10162.09
880.398	10133.84
880.716	10179.27
881.034	10040.51
881.352	10084.81
881.67	10105.37
881.988	10004.36
882.306	10002.32
882.624	9969.1
882.941	9950.57
883.259	9909.44
883.577	9887.3
883.894	9889.56
884.212	9828.99
884.529	9847.3
884.846	9862.44
885.164	9824.93
885.481	9791.25
885.798	9736.34
886.115	9731.37
886.432	9745.61
886.75	9722.1
887.067	9752.38
887.383	9637.81
887.7	9649.79
888.017	9538.38
888.334	9575.67
888.651	9545.38
888.967	9540.64
889.284	9503.8
889.6	9453.18
889.917	9437.14
890.233	9351.49
890.55	9408.21
890.866	9338.16
891.182	9326.86
891.498	9321.66
891.815	9271.72
892.131	9236.92
892.447	9202.12
892.763	9159.63
893.079	9220.2
893.395	9144.72
893.71	9091.16
894.026	9079.41
894.342	9087.09
894.657	9042.12
894.973	9014.78
895.289	8980.88
895.604	8976.13
895.92	8952.18
896.235	8811.62
896.55	8851.84
896.865	8817.95
897.181	8763.71
897.496	8758.06
897.811	8761.45
898.126	8706.99
898.441	8679.87
898.756	8593.32
899.071	8560.33
899.386	8566.88
899.7	8570.27
900.015	8487.11
900.33	8412.53
900.644	8418.63
900.959	8410.95
901.273	8350.84
901.588	8387
901.902	8261.58
902.216	8281.92
902.531	8220
902.845	8201.24
903.159	8178.64
903.473	8165.76
903.787	8112.43
904.101	8065.42
904.415	8067.46
904.729	8038.31
905.042	7939.55
905.356	7965.09
905.67	8011.64
905.984	7923.73
906.297	7898.2
906.611	7828.59
906.924	7845.77
907.237	7820.68
907.551	7802.61
907.864	7736.62
908.177	7704.98
908.491	7681.7
908.804	7662.5
909.117	7617.75
909.43	7577.07
909.743	7506.12
910.056	7563.97
910.368	7487.81
910.681	7443.74
910.994	7458.66
911.307	7391.32
911.619	7349.51
911.932	7314.03
912.244	7315.84
912.557	7258.21
912.869	7249.17
913.181	7214.37
913.494	7155.62
913.806	7145
914.118	7023.87
914.43	7020.25
914.742	7045.56
915.054	7023.19
915.366	6996.75
915.678	6930.54
915.99	6919.24
916.302	6873.82
916.613	6862.74
916.925	6874.49
917.236	6860.26
917.548	6813.48
917.859	6796.76
918.171	6698.45
918.482	6698
918.794	6698.23
919.105	6645.8
919.416	6642.18
919.727	6579.13
920.038	6606.7
920.349	6542.75
920.66	6500.94
920.971	6532.13
921.282	6494.17
921.593	6451.45
921.903	6426.82
922.214	6347.05
922.525	6383.89
922.835	6347.5
923.146	6352.93
923.456	6306.83
923.767	6257.56
924.077	6272.02
924.387	6214.62
924.697	6178.47
925.008	6139.6
925.318	6145.7
925.628	6141.86
925.938	6106.38
926.248	6022.31
926.558	6062.99
926.867	5987.96
927.177	5970.56
927.487	5923.11
927.796	5943.45
928.106	5928.76
928.416	5897.12
928.725	5879.27
929.034	5815.77
929.344	5853.73
929.653	5813.96
929.962	5806.05
930.271	5742.55
930.581	5709.33
930.89	5712.49
931.199	5674.07
931.508	5698.48
931.817	5641.98
932.125	5664.81
932.434	5671.36
932.743	5532.38
933.051	5529.9
933.36	5495.77
933.669	5511.37
933.977	5492.61
934.286	5451.93
934.594	5478.15
934.902	5418.04
935.21	5403.12
935.519	5383.46
935.827	5362.22
936.135	5280.86
936.443	5304.59
936.751	5299.17
937.059	5227.53
937.367	5249.9
937.674	5208.1
937.982	5214.65
938.29	5164.26
938.597	5196.35
938.905	5146.86
939.213	5126.74
939.52	5101.66
939.827	5065.05
940.135	5064.6
940.442	5001.32
940.749	5021.66
941.056	4986.18
941.363	4923.13
941.67	4959.97
941.977	4890.82
942.284	4855.34
942.591	4898.73
942.898	4847.66
943.205	4830.48
943.511	4765.4
943.818	4801.33
944.125	4778.28
944.431	4754.1
944.738	4723.82
945.044	4702.57
945.35	4673.87
945.657	4666.19
945.963	4660.32
946.269	4585.97
946.575	4635.01
946.881	4601.79
947.187	4616.02
947.493	4527.89
947.799	4521.79
948.105	4516.59
948.41	4497.83
948.716	4509.36
949.022	4493.09
949.327	4462.13
949.633	4373.09
949.938	4416.71
950.244	4390.94
950.549	4371.74
950.854	4357.72
951.16	4362.92
951.465	4328.8
951.77	4329.25
952.075	4294
952.38	4259.65
952.685	4226.2
952.99	4205.86
953.294	4268.46
953.599	4202.25
953.904	4119.09
954.209	4112.08
954.513	4154.11
954.818	4160.44
955.122	4113.66
955.426	4070.73
955.731	4058.75
956.035	4076.38
956.339	4025.98
956.643	4030.28
956.948	3941.46
957.252	3943.95
957.556	3929.71
957.86	3894.23
958.163	3927.23
958.467	3853.56
958.771	3890.39
959.075	3905.98
959.378	3883.39
959.682	3814.24
959.985	3818.08
960.289	3787.12
960.592	3784.86
960.896	3774.46
961.199	3795.48
961.502	3764.29
961.805	3719.55
962.108	3701.02
962.411	3670.06
962.714	3614.69
963.017	3628.93
963.32	3683.62
963.623	3626.9
963.926	3634.13
964.228	3556.84
964.531	3563.62
964.833	3557.97
965.136	3539.67
965.438	3512.1
965.741	3515.49
966.043	3487.46
966.345	3487.24
966.648	3458.76
966.95	3451.76
967.252	3450.86
967.554	3424.87
967.856	3416.28
968.158	3394.59
968.46	3372.89
968.761	3363.17
969.063	3358.43
969.365	3316.17
969.666	3332.67
969.968	3301.71
970.269	3260.58
970.571	3293.8
970.872	3264.87
971.174	3288.6
971.475	3250.86
971.776	3184.2
972.077	3189.17
972.378	3214.03
972.679	3169.06
972.98	3163.41
973.281	3174.48
973.582	3131.77
973.883	3144.2
974.183	3093.35
974.484	3110.75
974.785	3082.73
975.085	3096.06
975.386	3066.46
975.686	3054.93
975.986	3039.79
976.287	3037.53
976.587	3013.13
976.887	2972.68
977.187	2978.55
977.487	2995.95
977.787	2988.49
978.087	2962.28
978.387	2904.66
978.687	2922.51
978.987	2916.41
979.286	2847.71
979.586	2871.44
979.885	2851.32
980.185	2824.66
980.484	2812.45
980.784	2830.53
981.083	2819.23
981.382	2799.12
981.682	2787.82
981.981	2798.67
982.28	2764.09
982.579	2712.57
982.878	2734.04
983.177	2694.49
983.475	2707.15
983.774	2693.14
984.073	2708.28
984.372	2715.51
984.67	2691.55
984.969	2658.11
985.267	2625.11
985.566	2656.07
985.864	2635.06
986.162	2636.87
986.461	2594.38
986.759	2583.99
987.057	2564.78
987.355	2588.51
987.653	2530.65
987.951	2550.31
988.249	2562.52
988.547	2493.82
988.844	2469.41
989.142	2490.65
989.44	2472.8
989.737	2461.5
990.035	2450.66
990.332	2446.36
990.63	2453.59
990.927	2408.85
991.224	2431
991.521	2409.53
991.819	2368.4
992.116	2405.69
992.413	2337.66
992.71	2374.27
993.006	2336.53
993.303	2392.35
993.6	2350.09
993.897	2311
994.193	2308.29
994.49	2268.51
994.787	2259.7
995.083	2261.51
995.379	2240.94
995.676	2248.63
995.972	2228.97
996.268	2240.72
996.565	2205.01
996.861	2195.07
997.157	2195.07
997.453	2169.76
997.749	2154.62
998.044	2154.39
998.34	2134.51
998.636	2117.56
998.932	2119.82
999.227	2116.65
999.523	2116.65
999.818	2096.31
1000.114	2053.6
1000.409	2036.88
1000.704	2052.02
1001	2040.95
1001.295	2061.29
1001.59	2026.49
1001.885	2014.96
1002.18	2032.81
1002.475	1988.75
1002.77	1973.15
1003.065	1988.97
1003.359	1909.2
1003.654	1930.9
1003.949	1917.79
1004.243	1919.82
1004.538	1915.08
1004.832	1895.64
1005.127	1917.79
1005.421	1884.57
1005.715	1895.42
1006.009	1881.63
1006.304	1833.72
1006.598	1868.3
1006.892	1821.29
1007.186	1832.82
1007.48	1809.77
1007.773	1789.43
1008.067	1787.85
1008.361	1809.54
1008.655	1801.18
1008.948	1776.55
1009.242	1754.85
1009.535	1744.23
1009.829	1734.74
1010.122	1707.85
1010.415	1706.04
1010.708	1706.95
1011.001	1693.16
1011.295	1694.07
1011.588	1701.98
1011.881	1642.32
1012.173	1664.91
1012.466	1631.24
1012.759	1598.93
1013.052	1642.09
1013.344	1610.23
1013.637	1614.07
1013.93	1580.4
1014.222	1594.41
1014.514	1574.97
1014.807	1531.13
1015.099	1554.86
1015.391	1571.58
1015.683	1525.03
1015.976	1535.43
1016.268	1534.75
1016.56	1503.34
1016.851	1487.29
1017.143	1486.39
1017.435	1497.69
1017.727	1483.22
1018.018	1464.02
1018.31	1447.97
1018.602	1432.6
1018.893	1439.84
1019.185	1420.17
1019.476	1413.17
1019.767	1421.3
1020.058	1391.02
1020.35	1412.72
1020.641	1405.71
1020.932	1386.5
1021.223	1374.98
1021.514	1377.46
1021.804	1340.4
1022.095	1351.7
1022.386	1366.39
1022.677	1318.71
1022.967	1321.65
1023.258	1312.83
1023.548	1283.68
1023.839	1297.47
1024.129	1292.72
1024.419	1305.6
1024.709	1277.35
1025	1260.63
1025.29	1258.14
1025.58	1234.64
1025.87	1238.48
1026.16	1220.86
1026.449	1217.02
1026.739	1223.57
1027.029	1209.33
1027.319	1208.2
1027.608	1175.44
1027.898	1175.44
1028.187	1172.05
1028.477	1198.03
1028.766	1157.81
1029.055	1141.76
1029.344	1152.84
1029.634	1153.29
1029.923	1122.1
1030.212	1123.91
1030.501	1137.02
1030.79	1097.7
1031.078	1085.04
1031.367	1090.69
1031.656	1095.21
1031.945	1109.45
1032.233	1047.75
1032.522	1057.02
1032.81	1069
1033.099	1029.22
1033.387	1023.12
1033.675	1032.61
1033.963	1045.27
1034.251	1033.29
1034.54	1027.87
1034.828	1029.68
1035.116	993.97
1035.403	989.45
1035.691	985.84
1035.979	982.67
1036.267	984.71
1036.554	981.77
1036.842	962.33
1037.129	966.4
1037.417	965.05
1037.704	958.49
1037.992	949.45
1038.279	950.13
1038.566	932.96
1038.853	932.96
1039.14	932.96
