Data from hue_26_FLMS001491_00011.txt Node
Date: Tue Feb 07 17:13:36 GMT 2017
User: dcchb
Spectrometer: FLMS00149
Trigger mode: 0
Integration Time (sec): 2.000000E-2
Scans to average: 10
Electric dark correction enabled: true
Nonlinearity correction enabled: false
Boxcar width: 0
XAxis mode: Wavelengths
Number of Pixels in Spectrum: 2048
>>>>>Begin Spectral Data<<<<<
341.393	-12.22
341.776	-12.22
342.16	-12.22
342.543	-73.01
342.927	-60.58
343.31	-72.1
343.693	-80.69
344.077	-64.65
344.46	-77.07
344.843	-39.34
345.226	-19.9
345.61	-39.56
345.993	-26.68
346.376	-17.41
346.759	11.51
347.142	21.68
347.525	37.5
347.908	61.23
348.291	86.09
348.674	102.36
349.057	117.04
349.44	108.01
349.823	138.97
350.206	145.52
350.588	207.89
350.971	224.84
351.354	227.32
351.737	239.75
352.119	253.54
352.502	266.19
352.884	293.76
353.267	285.85
353.65	298.28
354.032	290.6
354.414	335.8
354.797	317.04
355.179	343.93
355.562	361.11
355.944	332.41
356.326	348
356.709	354.1
357.091	365.4
357.473	355
357.855	331.05
358.238	362.46
358.62	365.17
359.002	325.85
359.384	351.16
359.766	360.65
360.148	363.59
360.53	358.17
360.912	339.41
361.294	353.65
361.676	344.16
362.057	347.55
362.439	331.28
362.821	346.87
363.203	330.15
363.584	313.65
363.966	327.21
364.348	331.73
364.729	322.24
365.111	342.35
365.493	319.98
365.874	325.63
366.256	335.34
366.637	326.98
367.019	322.46
367.4	330.15
367.781	345.74
368.163	334.89
368.544	322.46
368.925	331.05
369.306	328.56
369.688	331.73
370.069	299.19
370.45	320.43
370.831	331.05
371.212	306.42
371.593	341.9
371.974	305.51
372.355	323.37
372.736	331.05
373.117	320.43
373.498	321.11
373.879	308.68
374.26	310.71
374.641	323.37
375.021	343.71
375.402	327.66
375.783	337.38
376.163	347.32
376.544	310.71
376.925	348.9
377.305	344.16
377.686	356.59
378.066	345.51
378.447	330.6
378.827	325.4
379.208	329.24
379.588	320.43
379.968	342.35
380.349	325.63
380.729	350.94
381.109	346.19
381.489	361.56
381.87	354.78
382.25	362.24
382.63	332.86
383.01	352.07
383.39	361.78
383.77	371.73
384.15	350.71
384.53	359.3
384.91	347.32
385.29	374.44
385.67	354.33
386.049	345.97
386.429	366.76
386.809	343.03
387.189	358.85
387.568	366.53
387.948	364.04
388.328	371.73
388.707	353.87
389.087	375.34
389.466	372.18
389.846	359.98
390.225	368.56
390.605	372.18
390.984	356.81
391.363	385.06
391.743	384.61
392.122	381.9
392.501	367.89
392.881	387.55
393.26	397.72
393.639	393.42
394.018	388.68
394.397	378.28
394.776	363.82
395.155	397.26
395.534	390.26
395.913	393.87
396.292	397.94
396.671	414.66
397.05	412.63
397.429	387.77
397.808	430.71
398.186	392.97
398.565	436.58
398.944	405.4
399.323	409.47
399.701	415.57
400.08	421.44
400.458	405.62
400.837	417.15
401.215	418.28
401.594	435.23
401.972	410.6
402.351	415.12
402.729	432.06
403.107	438.17
403.486	412.63
403.864	441.33
404.242	424.61
404.62	420.09
404.999	425.29
405.377	428.22
405.755	439.52
406.133	435
406.511	445.4
406.889	456.02
407.267	446.98
407.645	437.26
408.023	452.63
408.401	427.77
408.779	458.96
409.156	444.04
409.534	450.14
409.912	456.25
410.29	457.6
410.667	464.15
411.045	465.96
411.422	470.93
411.8	479.3
412.178	487.43
412.555	473.65
412.933	493.76
413.31	505.06
413.687	512.51
414.065	491.27
414.442	490.14
414.819	492.18
415.197	493.76
415.574	509.13
415.951	503.93
416.328	498.28
416.705	530.82
417.082	505.74
417.46	521.55
417.837	521.33
418.214	501.22
418.591	521.55
418.967	523.36
419.344	523.14
419.721	529.01
420.098	540.31
420.475	557.03
420.852	548.67
421.228	553.19
421.605	552.74
421.982	561.78
422.358	573.76
422.735	581.67
423.111	576.24
423.488	586.41
423.864	558.62
424.241	592.06
424.617	608.33
424.994	592.06
425.37	595.68
425.746	589.57
426.123	585.73
426.499	592.96
426.875	585.73
427.251	612.17
427.627	601.78
428.003	616.69
428.379	625.73
428.756	626.86
429.132	637.03
429.507	630.7
429.883	629.8
430.259	635.45
430.635	638.39
431.011	674.77
431.387	675.67
431.763	678.84
432.138	662.57
432.514	663.47
432.89	675
433.265	691.95
433.641	710.93
434.016	690.82
434.392	704.15
434.767	732.17
435.143	695.79
435.518	716.13
435.894	711.61
436.269	732.4
436.644	730.36
437.02	747.76
437.395	752.06
437.77	727.65
438.145	740.08
438.52	764.94
438.895	786.41
439.271	743.7
439.646	780.08
440.021	787.08
440.395	788.67
440.77	794.54
441.145	790.25
441.52	814.43
441.895	787.31
442.27	799.96
442.645	787.31
443.019	800.87
443.394	805.84
443.769	801.09
444.143	814.2
444.518	828.89
444.892	825.95
445.267	835.67
445.641	854.43
446.016	860.98
446.39	856.91
446.764	866.63
447.139	834.31
447.513	864.14
447.887	882.9
448.262	893.3
448.636	903.24
449.01	891.26
449.384	897.14
449.758	900.3
450.132	892.62
450.506	900.08
450.88	934.2
451.254	885.84
451.628	920.19
452.002	938.49
452.376	938.49
452.75	930.58
453.123	947.31
453.497	957.47
453.871	966.51
454.244	979.62
454.618	974.88
454.992	1014.65
455.365	993.41
455.739	1007.87
456.112	1058.04
456.486	1042.44
456.859	1049.68
457.232	1082.22
457.606	1078.15
457.979	1058.72
458.352	1070.24
458.725	1100.3
459.099	1117.7
459.472	1109.56
459.845	1122.89
460.218	1129.22
460.591	1142.33
460.964	1142.1
461.337	1190.24
461.71	1192.27
462.083	1222.78
462.456	1211.93
462.829	1247.64
463.201	1244.92
463.574	1233.63
463.947	1236.56
464.32	1270.01
464.692	1286.51
465.065	1293.29
465.438	1325.37
465.81	1330.57
466.183	1337.35
466.555	1340.29
466.928	1378.03
467.3	1371.93
467.672	1376.67
468.045	1410.57
468.417	1440.63
468.789	1444.69
469.161	1463.68
469.534	1473.39
469.906	1507.52
470.278	1558.14
470.65	1539.38
471.022	1541.41
471.394	1588.19
471.766	1620.73
472.138	1606.95
472.51	1675.2
472.882	1684.91
473.253	1712.26
473.625	1721.3
473.997	1763.33
474.369	1753.84
474.74	1840.84
475.112	1852.59
475.484	1845.14
475.855	1904.34
476.227	1934.85
476.598	1976.88
476.97	1993.83
477.341	2036.32
477.713	2068.86
478.084	2073.6
478.455	2152.7
478.827	2176.65
479.198	2237.67
479.569	2231.11
479.94	2310.89
480.311	2323.99
480.682	2385.69
481.053	2452.8
481.424	2510.65
481.795	2535.96
482.166	2561.05
482.537	2615.51
482.908	2637.43
483.279	2674.49
483.65	2757.43
484.021	2794.71
484.391	2845.11
484.762	2898.21
485.133	2897.99
485.503	2975.5
485.874	3076.74
486.244	3074.48
486.615	3140.02
486.985	3205.55
487.356	3267.7
487.726	3316.28
488.097	3341.82
488.467	3396.05
488.837	3461.14
489.207	3545.2
489.578	3575.03
489.948	3636.73
490.318	3677.86
490.688	3717.4
491.058	3747.01
491.428	3822.71
491.798	3847.57
492.168	3963.27
492.538	4012.31
492.908	4023.16
493.278	4061.12
493.648	4145.19
494.017	4153.1
494.387	4211.17
494.757	4289.14
495.126	4342.92
495.496	4325.52
495.866	4385.41
496.235	4465.18
496.605	4513.31
496.974	4492.75
497.344	4552.63
497.713	4586.98
498.082	4619.3
498.452	4704.72
498.821	4682.8
499.19	4708.56
499.559	4786.98
499.928	4786.75
500.298	4804.15
500.667	4867.43
501.036	4899.07
501.405	4951.49
501.774	4973.41
502.143	5000.31
502.512	5067.42
502.88	5126.4
503.249	5101.77
503.618	5146.97
503.987	5156.46
504.356	5218.15
504.724	5213.63
505.093	5236.23
505.462	5237.14
505.83	5278.94
506.199	5323.69
506.567	5401.2
506.936	5400.07
507.304	5539.05
507.672	5490.01
508.041	5491.37
508.409	5554.87
508.777	5579.95
509.145	5606.84
509.514	5639.16
509.882	5642.55
510.25	5670.8
510.618	5694.98
510.986	5742.89
511.354	5832.37
511.722	5777.91
512.09	5845.03
512.458	5798.93
512.826	5895.2
513.193	5889.77
513.561	5909.44
513.929	5953.5
514.297	5966.61
514.664	6046.83
515.032	6017
515.4	6125.25
515.767	6077.34
516.135	6109.2
516.502	6085.25
516.869	6213.16
517.237	6196.66
517.604	6162.76
517.972	6250.89
518.339	6302.87
518.706	6311.91
519.073	6359.59
519.44	6389.65
519.808	6437.1
520.175	6346.94
520.542	6478.91
520.909	6520.72
521.276	6523.2
521.643	6587.61
522.009	6597.33
522.376	6609.98
522.743	6713.93
523.11	6729.98
523.477	6753.71
523.843	6778.79
524.21	6866.7
524.577	6851.11
524.943	6893.14
525.31	6934.27
525.676	7051.33
526.043	7085.68
526.409	7071.89
526.776	7225.11
527.142	7142.62
527.508	7188.95
527.874	7193.47
528.241	7296.52
528.607	7334.26
528.973	7362.05
529.339	7390.53
529.705	7383.07
530.071	7507.36
530.437	7547.81
530.803	7567.47
531.169	7543.52
531.535	7569.96
531.901	7633.01
532.267	7680.46
532.632	7708.94
532.998	7642.72
533.364	7781.7
533.73	7766.56
534.095	7885.43
534.461	7878.42
534.826	7953.9
535.192	7960.91
535.557	8020.11
535.923	8020.57
536.288	8075.03
536.653	8074.12
537.019	8048.14
537.384	8095.59
537.749	8128.13
538.114	8158.64
538.479	8145.31
538.845	8214.01
539.21	8305.76
539.575	8214.91
539.94	8315.25
540.305	8305.3
540.67	8357.96
541.034	8403.15
541.399	8438.18
541.764	8497.16
542.129	8513.66
542.494	8569.25
542.858	8539.65
543.223	8618.97
543.587	8688.8
543.952	8634.56
544.316	8659.87
544.681	8731.73
545.045	8758.63
545.41	8813.54
545.774	8861.45
546.138	8836.59
546.503	8909.58
546.867	8944.84
547.231	9002.46
547.595	9121.1
547.959	9054.21
548.324	9037.49
548.688	9146.64
549.052	9136.24
549.416	9157.26
549.779	9184.38
550.143	9227.09
550.507	9239.97
550.871	9284.71
551.235	9266.63
551.599	9400.19
551.962	9377.82
552.326	9394.77
552.689	9505.27
553.053	9399.29
553.417	9499.4
553.78	9579.4
554.143	9508.21
554.507	9632.5
554.87	9673.18
555.234	9690.58
555.597	9623.24
555.96	9739.84
556.323	9755.44
556.686	9758.6
557.05	9830.91
557.413	9859.61
557.776	9872.04
558.139	9919.73
558.502	9928.76
558.865	9949.55
559.228	10027.07
559.59	10090.34
559.953	10068.87
560.316	10206.5
560.679	10198.81
561.041	10198.81
561.404	10229.1
561.767	10361.75
562.129	10284.91
562.492	10387.28
562.854	10387.28
563.217	10379.15
563.579	10436.1
563.941	10489.43
564.304	10564.45
564.666	10536.88
565.028	10617.33
565.39	10585.7
565.753	10674.06
566.115	10713.15
566.477	10745.47
566.839	10768.74
567.201	10861.4
567.563	10879.02
567.925	10963.31
568.287	10905.46
568.648	11047.83
569.01	11014.16
569.372	11102.97
569.734	11118.56
570.095	11187.71
570.457	11240.82
570.819	11280.82
571.18	11261.84
571.542	11383.19
571.903	11380.03
572.265	11474.03
572.626	11477.2
572.987	11469.06
573.349	11604.65
573.71	11685.78
574.071	11653.01
574.432	11774.37
574.794	11849.84
575.155	11934.14
575.516	11951.54
575.877	12001.25
576.238	12037.41
576.599	12154.47
576.96	12267.01
577.32	12393.33
577.681	12464.97
578.042	12514.01
578.403	12670.39
578.763	12752.19
579.124	12813.66
579.485	12970.94
579.845	12943.6
580.206	13150.6
580.566	13252.52
580.927	13328.45
581.287	13557.14
581.648	13655.9
582.008	13926.85
582.368	13888.21
582.728	14008.66
583.089	14186.73
583.449	14363.45
583.809	14526.61
584.169	14706.72
584.529	14904.9
584.889	15140.38
585.249	15137.44
585.609	15236.2
585.969	15654.49
586.329	15752.34
586.688	16086.57
587.048	16293.79
587.408	16321.36
587.768	16726.55
588.127	16877.51
588.487	17137.16
588.846	17370.15
589.206	17585.74
589.565	17736.69
589.925	18158.6
590.284	18314.76
590.643	18639.72
591.003	18977.11
591.362	19202.42
591.721	19505.01
592.08	19770.99
592.44	20006.69
592.799	20270.64
593.158	20657.97
593.517	20865.43
593.876	21123.27
594.235	21575.24
594.593	21728
594.952	22095.45
595.311	22327.08
595.67	22649.79
596.029	23022.88
596.387	23403.66
596.746	23664.45
597.104	23957.32
597.463	24078.22
597.822	24529.28
598.18	24699
598.538	25057.41
598.897	25449.26
599.255	25699.65
599.613	26191.16
599.972	26399.97
600.33	26706.85
600.688	26913.63
601.046	27338.25
601.404	27660.28
601.762	27877.9
602.12	28205.12
602.478	28584.77
602.836	28828.61
603.194	28940.02
603.552	29241.02
603.91	29347.46
604.268	29838.75
604.625	30078.29
604.983	30332.07
605.341	30485.29
605.698	30967.08
606.056	31303.12
606.413	31402.32
606.771	31674.41
607.128	31974.29
607.485	31909.43
607.843	32273.26
608.2	32685.45
608.557	32978.33
608.914	33131.77
609.272	33426.68
609.629	33817.18
609.986	34051.07
610.343	34143.95
610.7	34484.73
611.057	34592.52
611.414	34941.44
611.771	34899.41
612.127	35326.74
612.484	35463.69
612.841	35805.37
613.198	35951.81
613.554	36030.9
613.911	36324.23
614.267	36506.14
614.624	36705.91
614.98	36869.98
615.337	37166.01
615.693	37134.83
616.05	37287.82
616.406	37735.04
616.762	37737.98
617.118	37848.03
617.475	37906.79
617.831	38159.89
618.187	38356.04
618.543	38494.34
618.899	38784.95
619.255	38927.55
619.611	38999.41
619.967	39141.33
620.323	39395.33
620.678	39467.2
621.034	39357.6
621.39	39500.42
621.746	39552.39
622.101	40113.51
622.457	39933.63
622.812	40033.06
623.168	40377.68
623.523	40243.9
623.879	40497.23
624.234	40311.69
624.589	40573.61
624.945	40548.3
625.3	40777.22
625.655	40739.03
626.01	40798.46
626.365	41020.83
626.72	40939.02
627.075	41019.25
627.43	40941.51
627.785	41132.69
628.14	41333.14
628.495	41314.15
628.85	41416.98
629.205	41305.79
629.559	41586.46
629.914	41433.7
630.269	41475.73
630.623	41420.14
630.978	41476.18
631.332	41631.66
631.687	41892.22
632.041	41619.68
632.396	41773.58
632.75	41620.59
633.104	41760.7
633.459	41569.51
633.813	41671.88
634.167	41731.77
634.521	41637.99
634.875	41717.98
635.229	41744.2
635.583	41654.71
635.937	41629.4
636.291	41577.42
636.645	41546.01
636.999	41568.38
637.352	41722.5
637.706	41564.54
638.06	41760.7
638.413	41603.86
638.767	41726.35
639.121	41738.55
639.474	41492
639.828	41550.76
640.181	41593.02
640.534	41580.81
640.888	41548.27
641.241	41482.51
641.594	41372.68
641.947	41579.46
642.301	41657.87
642.654	41682.96
643.007	41562.06
643.36	41555.96
643.713	41501.72
644.066	41610.64
644.419	41432.34
644.771	41244.55
645.124	40758.69
645.477	40746.03
645.83	40505.81
646.182	40433.95
646.535	40343.33
646.888	40513.27
647.24	40268.98
647.593	40507.62
647.945	40437.34
648.298	40260.85
648.65	40212.49
649.002	40127.97
649.355	40159.61
649.707	40206.39
650.059	40328.42
650.411	40768.41
650.763	40921.62
651.115	41359.58
651.467	41232.8
651.819	41059.47
652.171	41213.14
652.523	40991
652.875	40937.21
653.227	40790.1
653.578	41272.35
653.93	41050.88
654.282	40875.3
654.633	40820.38
654.985	40919.59
655.337	40984.44
655.688	40916.42
656.039	41037.1
656.391	40704.9
656.742	40855.63
657.094	40756.88
657.445	41035.52
657.796	40879.59
658.147	40901.06
658.498	40767.95
658.849	40939.7
659.2	40758.01
659.551	40820.61
659.902	40988.29
660.253	40725.24
660.604	40686.6
660.955	40544
661.306	40722.76
661.656	40676.66
662.007	40640.05
662.358	40600.5
662.708	40814.51
663.059	40772.47
663.409	40469.66
663.76	40916.42
664.11	40723.66
664.461	40758.46
664.811	40683.66
665.161	40750.33
665.511	40636.21
665.862	40676.88
666.212	40705.36
666.562	40821.06
666.912	40706.49
667.262	40587.62
667.612	40553.27
667.962	40684.34
668.312	40567.28
668.662	40682.31
669.011	40653.61
669.361	40576.55
669.711	40551.91
670.06	40534.29
670.41	40428.75
670.76	40402.99
671.109	40488.19
671.459	40390.56
671.808	40394.86
672.157	40365.03
672.507	40191.47
672.856	40144.47
673.205	40345.82
673.554	40357.79
673.904	40469.66
674.253	40562.54
674.602	40469.2
674.951	39804.36
675.3	39620.86
675.649	40286.38
675.998	40242.09
676.346	40214.3
676.695	40239.38
677.044	40164.13
677.393	40281.19
677.741	40268.76
678.09	40149.89
678.438	39869.9
678.787	40037.8
679.135	40215.2
679.484	39743.57
679.832	39901.54
680.181	39858.15
680.529	39919.39
680.877	39646.18
681.225	39708.77
681.573	39879.39
681.922	39647.98
682.27	39484.82
682.618	39490.47
682.966	39409.35
683.314	39481.21
683.661	39384.49
684.009	39166.87
684.357	39159.18
684.705	39010.71
685.053	39160.54
685.4	39220.2
685.748	39020.65
686.095	38888
686.443	38796.71
686.79	38767.1
687.138	38949.7
687.485	38925.74
687.832	38671.96
688.18	38678.74
688.527	38574.34
688.874	38472.42
689.221	38377.06
689.568	38446.88
689.915	38244.18
690.262	38319.2
690.609	38090.28
690.956	37930.29
691.303	38044.86
691.65	37831.53
691.997	37882.15
692.344	37584.08
692.69	37602.16
693.037	37592.67
693.383	37269.97
693.73	37434.48
694.077	36992.46
694.423	37198.56
694.769	37034.72
695.116	36841.28
695.462	37036.07
695.808	36953.36
696.155	36847.6
696.501	36670.89
696.847	36692.58
697.193	36356.09
697.539	36571.68
697.885	36201.97
698.231	36222.31
698.577	36187.28
698.923	36113.39
699.269	35932.37
699.614	35826.16
699.96	35816.67
700.306	35757.01
700.651	35583.91
700.997	35470.24
701.342	35359.51
701.688	35359.96
702.033	35340.53
702.379	35326.29
702.724	35154.54
703.069	35068.67
703.415	34785.51
703.76	34744.84
704.105	34780.99
704.45	34625.52
704.795	34440.89
705.14	34415.13
705.485	34390.27
705.83	34183.49
706.175	34367.67
706.52	34299.2
706.865	34165.64
707.209	34128.81
707.554	33990.28
707.899	34105.3
708.243	33817.85
708.588	33810.85
708.932	33607.01
709.277	33604.3
709.621	33674.58
709.966	33401.37
710.31	33394.14
710.654	33105.78
710.998	33197.08
711.342	33278.43
711.687	33183.07
712.031	32981.27
712.375	32941.72
712.719	33062.39
713.063	32876.18
713.407	32925
713.75	32729.52
714.094	32728.39
714.438	32585.12
714.782	32668.28
715.125	32324.33
715.469	32556.19
715.812	32376.08
716.156	32098.58
716.499	32251.57
716.843	32217.22
717.186	32067.62
717.53	32088.18
717.873	32239.59
718.216	31993.04
718.559	31842.76
718.902	31786.72
719.246	31816.55
719.589	31694.75
719.932	31481.64
720.275	31606.84
720.617	31476.9
720.96	31452.27
721.303	31417.69
721.646	31436.45
721.989	31277.81
722.331	31407.3
722.674	31177.02
723.016	31271.48
723.359	31147.42
723.701	31359.39
724.044	31117.36
724.386	30887.08
724.729	31059.28
725.071	30924.6
725.413	30973.86
725.755	30965.5
726.097	30889.57
726.439	30569.13
726.782	30677.37
727.124	30654.77
727.465	30435.8
727.807	30500.43
728.149	30406.87
728.491	30371.62
728.833	30505.62
729.175	30219.53
729.516	30294.33
729.858	30269.02
730.199	30288
730.541	30240.55
730.882	30189.02
731.224	30228.57
731.565	29987.9
731.906	29961.23
732.248	30096.82
732.589	29771.18
732.93	29791.74
733.271	29735.02
733.612	29766.21
733.953	29848.47
734.294	29618.42
734.635	29631.52
734.976	29759.66
735.317	29556.04
735.658	29473.34
735.999	29544.07
736.339	29453
736.68	29610.73
737.021	29417.52
737.361	29272.66
737.702	29446.22
738.042	29301.81
738.383	29210.97
738.723	29371.64
739.063	29133.68
739.404	29296.39
739.744	29017.75
740.084	28987.47
740.424	29117.86
740.764	28975.27
741.104	29121.93
741.444	28921.03
741.784	28856.18
742.124	28881.94
742.464	28808.95
742.804	28757.2
743.143	28695.73
743.483	28664.09
743.823	28428.62
744.162	28665.45
744.502	28574.6
744.841	28498.22
745.181	28584.09
745.52	28496.41
745.86	28483.53
746.199	28367.15
746.538	28303.42
746.877	28388.84
747.216	28306.13
747.556	28098.46
747.895	28240.15
748.234	28175.06
748.573	28109.76
748.911	28097.1
749.25	28083.09
749.589	27980.72
749.928	27994.73
750.267	28009.19
750.605	27921.96
750.944	27944.34
751.283	27745.7
751.621	27819.37
751.96	27615.98
752.298	27604.23
752.636	27592.93
752.975	27620.5
753.313	27357.23
753.651	27512.93
753.989	27480.85
754.327	27396.1
754.666	27183.45
755.004	27391.58
755.342	27281.53
755.679	27164.02
756.017	26947.53
756.355	27215.32
756.693	27008.32
757.031	27063.91
757.368	26760.19
757.706	26824.37
758.044	26769
758.381	26678.83
758.719	26641.55
759.056	26688.55
759.394	26667.53
759.731	26484.26
760.068	26453.53
760.405	26218.51
760.743	26150.03
761.08	26330.59
761.417	26036.36
761.754	26105.06
762.091	26030.49
762.428	25917.27
762.765	25835.01
763.102	25927.44
763.438	25738.29
763.775	25665.07
764.112	25572.87
764.449	25593.66
764.785	25501.69
765.122	25362.03
765.458	25309.38
765.795	25246.78
766.131	25212.66
766.467	25127.91
766.804	24972.44
767.14	24835.94
767.476	24907.81
767.812	24720.47
768.148	24899.44
768.485	24642.95
768.821	24419.68
769.157	24443.86
769.492	24308.05
769.828	24233.25
770.164	24155.51
770.5	23988.51
770.836	23951.45
771.171	23899.47
771.507	23971.56
771.842	23779.25
772.178	23674.62
772.513	23598.24
772.849	23616.09
773.184	23451.57
773.519	23470.78
773.855	23296.77
774.19	23234.63
774.525	23179.72
774.86	23151.47
775.195	23085.25
775.53	23015.2
775.865	22875.77
776.2	22679.84
776.535	22600.97
776.87	22591.93
777.205	22607.08
777.539	22417.93
777.874	22443.69
778.209	22232.4
778.543	22284.82
778.878	22051.16
779.212	22096.58
779.547	21896.13
779.881	21972.74
780.215	21826.3
780.55	21830.6
780.884	21614.78
781.218	21676.93
781.552	21618.4
781.886	21416.82
782.22	21307.22
782.554	21192.42
782.888	21003.28
783.222	21061.13
783.556	20961.24
783.889	20957.85
784.223	20814.81
784.557	20644.87
784.89	20868.14
785.224	20546.34
785.557	20461.37
785.891	20405.1
786.224	20423.63
786.558	20447.13
786.891	20203.75
787.224	20170.98
787.557	20132.34
787.891	20111.55
788.224	20108.84
788.557	20046.69
788.89	19895.73
789.223	19934.83
789.556	19727.83
789.888	19645.8
790.221	19647.38
790.554	19422.98
790.887	19510.66
791.219	19441.96
791.552	19419.59
791.884	19304.34
792.217	19361.51
792.549	19153.38
792.882	19043.55
793.214	18936.66
793.546	19055.53
793.879	18813.73
794.211	18876.55
794.543	18807.17
794.875	18731.92
795.207	18851.02
795.539	18559.72
795.871	18632.94
796.203	18431.37
796.535	18397.69
796.867	18296.68
797.198	18230.92
797.53	18225.5
797.862	18082
798.193	18152.73
798.525	18052.17
798.856	18024.14
799.188	17845.17
799.519	17857.6
799.85	17690.82
800.182	17601.33
800.513	17681.33
800.844	17518.85
801.175	17719.97
801.506	17584.61
801.837	17467.32
802.168	17463.03
802.499	17417.16
802.83	17351.17
803.161	17256.48
803.491	17305.97
803.822	17275.24
804.153	17129.03
804.483	17019.43
804.814	17011.97
805.145	17021.91
805.475	16959.99
805.805	16918.19
806.136	16873.67
806.466	16822.37
806.796	16789.37
807.126	16598.65
807.457	16584.18
807.787	16640.45
808.117	16463.51
808.447	16416.5
808.777	16462.38
809.107	16364.75
809.436	16360.46
809.766	16359.56
810.096	16261.25
810.426	16278.88
810.755	16240.46
811.085	16025.78
811.414	16175.38
811.744	16051.99
812.073	16036.4
812.403	15941.71
812.732	15908.95
813.061	15894.94
813.39	15773.58
813.719	15722.28
814.049	15806.58
814.378	15724.54
814.707	15597.77
815.036	15635.51
815.365	15570.65
815.693	15433.7
816.022	15477.55
816.351	15373.37
816.68	15344.22
817.008	15375.63
817.337	15220.83
817.665	15344.89
817.994	15236.87
818.322	15197.78
818.651	15157.55
818.979	15077.56
819.307	15163.2
819.636	15103.32
819.964	14957.56
820.292	15069.42
820.62	14991.23
820.948	14923.89
821.276	15002.3
821.604	14986.94
821.932	14897.9
822.259	14993.72
822.587	14907.39
822.915	14915.75
823.243	14993.72
823.57	14940.38
823.898	14980.83
824.225	14867.62
824.553	14825.58
824.88	14881.63
825.207	14891.8
825.535	14861.52
825.862	14931.8
826.189	14883.44
826.516	14994.17
826.843	14991.68
827.17	14928.63
827.497	14941.74
827.824	14931.57
828.151	14893.83
828.478	14868.97
828.805	14977.45
829.131	14819.71
829.458	14875.98
829.785	14778.81
830.111	14879.37
830.438	14941.06
830.764	14907.62
831.09	14816.32
831.417	14815.42
831.743	14844.79
832.069	14832.36
832.395	14685.02
832.722	14821.97
833.048	14765.7
833.374	14806.15
833.7	14769.99
834.026	14742.88
834.351	14730.9
834.677	14641.86
835.003	14698.81
835.329	14708.3
835.654	14610.22
835.98	14532.26
836.306	14581.75
836.631	14609.55
836.956	14558.93
837.282	14576.78
837.607	14470.57
837.932	14476.89
838.258	14384.01
838.583	14441.64
838.908	14350.79
839.233	14394.86
839.558	14350.57
839.883	14296.33
840.208	14261.53
840.533	14313.73
840.858	14222.89
841.182	14246.16
841.507	14210.91
841.832	14157.13
842.156	14148.54
842.481	14127.98
842.805	14026.74
843.13	14103.34
843.454	14104.93
843.778	13895.89
844.103	14009.56
844.427	13917.81
844.751	13971.37
845.075	13984.48
845.399	13805.5
845.723	13822
846.047	13776.35
846.371	13636.69
846.695	13617.48
847.019	13542
847.343	13488.9
847.666	13382.91
847.99	13283.03
848.313	13351.05
848.637	13279.41
848.96	13203.48
849.284	13133.2
849.607	13110.38
849.931	13163.71
850.254	12954.67
850.577	12915.8
850.9	12829.25
851.223	12897.5
851.546	12745.41
851.869	12745.87
852.192	12725.75
852.515	12636.72
852.838	12635.81
853.161	12510.17
853.483	12573.44
853.806	12466.32
854.129	12418.87
854.451	12353.11
854.774	12323.28
855.096	12300.68
855.419	12370.28
855.741	12203.05
856.063	12224.3
856.385	12143.4
856.708	12147.92
857.03	12008.26
857.352	12114.02
857.674	11982.72
857.996	11991.99
858.318	11819.56
858.64	11871.31
858.961	11849.39
859.283	11846.91
859.605	11771.2
859.926	11784.76
860.248	11744.31
860.57	11702.73
860.891	11691.88
861.212	11610.53
861.534	11563.3
861.855	11599
862.176	11545.67
862.498	11598.32
862.819	11586.12
863.14	11523.75
863.461	11505.22
863.782	11475.39
864.103	11494.82
864.424	11446.01
864.745	11404.21
865.065	11391.78
865.386	11370.76
865.707	11337.77
866.027	11341.83
866.348	11256.87
866.668	11283.08
866.989	11265.68
867.309	11221.84
867.63	11258.67
867.95	11184.1
868.27	11139.58
868.59	11168.28
868.91	11084.21
869.23	11056.64
869.55	11000.15
869.87	11158.79
870.19	11061.62
870.51	11081.73
870.83	10987.27
871.15	11031.11
871.469	10993.6
871.789	11039.47
872.109	10935.29
872.428	10915.63
872.748	10976.42
873.067	10883.09
873.386	10890.55
873.706	10823.2
874.025	10834.28
874.344	10710.89
874.663	10797.44
874.982	10738.01
875.301	10761.28
875.62	10721.51
875.939	10691.68
876.258	10715.41
876.577	10726.94
876.896	10589.09
877.214	10652.36
877.533	10648.07
877.852	10592.48
878.17	10582.98
878.489	10604.45
878.807	10558.13
879.125	10473.83
879.444	10521.97
879.762	10517.45
880.08	10452.82
880.398	10395.87
880.716	10491.91
881.034	10412.82
881.352	10407.62
881.67	10376.66
881.988	10308.87
882.306	10371.46
882.624	10307.06
882.941	10283.78
883.259	10160.4
883.577	10247.85
883.894	10195.88
884.212	10168.08
884.529	10114.3
884.846	10079.04
885.164	10154.52
885.481	10071.81
885.798	10155.65
886.115	10018.03
886.432	10020.74
886.75	10034.07
887.067	9978.25
887.383	9935.09
887.7	9940.74
888.017	9869.78
888.334	9935.09
888.651	9921.53
888.967	9846.05
889.284	9771.03
889.6	9804.93
889.917	9750.01
890.233	9692.39
890.55	9684.25
890.866	9668.66
891.182	9610.58
891.498	9621.65
891.815	9632.95
892.131	9570.81
892.447	9603.35
892.763	9465.73
893.079	9448.78
893.395	9437.03
893.71	9448.33
894.026	9369.23
894.342	9422.34
894.657	9273.19
894.973	9319.97
895.289	9259.86
895.604	9262.34
895.92	9159.75
896.235	9159.07
896.55	9217.37
896.865	9072.97
897.181	9118.39
897.496	9118.39
897.811	9062.8
898.126	9024.38
898.441	8988
898.756	8964.72
899.071	8955.68
899.386	8933.31
899.7	8839.53
900.015	8847.66
900.33	8792.98
900.644	8733.99
900.959	8730.15
901.273	8693.77
901.588	8634.56
901.902	8605.41
902.216	8618.29
902.531	8583.71
902.845	8515.69
903.159	8489.71
903.473	8432.08
903.787	8468.46
904.101	8357.73
904.415	8407.45
904.729	8365.19
905.042	8290.84
905.356	8285.19
905.67	8303.5
905.984	8283.16
906.297	8226.66
906.611	8170.62
906.924	8189.15
907.237	8156.83
907.551	8115.25
907.864	8085.2
908.177	8086.78
908.491	8071.19
908.804	8002.94
909.117	7886.33
909.43	7850.4
909.743	7868.93
910.056	7831.42
910.368	7819.22
910.681	7738.31
910.994	7778.31
911.307	7620.8
911.619	7628.94
911.932	7650.41
912.244	7603.18
912.557	7564.76
912.869	7511.65
913.181	7493.35
913.494	7454.71
913.806	7447.02
914.118	7431.88
914.43	7367.25
914.742	7370.19
915.054	7264.88
915.366	7302.62
915.678	7225.56
915.99	7201.38
916.302	7176.07
916.613	7178.78
916.925	7134.49
917.236	7156.86
917.548	7099.46
917.859	7084.77
918.171	7009.52
918.482	6967.94
918.794	7001.38
919.105	7019.01
919.416	6939.92
919.727	6956.19
920.038	6838.22
920.349	6785.57
920.66	6810.2
920.971	6794.84
921.282	6780.15
921.593	6724.78
921.903	6751.67
922.214	6657.89
922.525	6626.25
922.835	6611.56
923.146	6531.79
923.456	6582.19
923.767	6588.74
924.077	6553.71
924.387	6420.38
924.697	6389.42
925.008	6418.8
925.318	6394.85
925.628	6354.4
925.938	6365.47
926.248	6286.83
926.558	6244.79
926.867	6223.1
927.177	6184
927.487	6197.34
927.796	6176.55
928.106	6151.24
928.416	6130.9
928.725	6118.02
929.034	6071.92
929.344	6073.05
929.653	6028.3
929.962	5938.36
930.271	5970.68
930.581	5948.98
930.89	5888.42
931.199	5848.87
931.508	5880.51
931.817	5892.49
932.125	5784.92
932.434	5809.32
932.743	5693.4
933.051	5716.9
933.36	5674.19
933.669	5681.19
933.977	5617.24
934.286	5658.14
934.594	5602.1
934.902	5606.84
935.21	5540.63
935.519	5539.5
935.827	5515.55
936.135	5527.07
936.443	5423.35
936.751	5449.56
937.059	5412.95
937.367	5412.05
937.674	5407.98
937.982	5344.25
938.29	5352.84
938.597	5303.35
938.905	5291.82
939.213	5243.46
939.52	5274.65
939.827	5253.86
940.135	5214.31
940.442	5189.91
940.749	5123.24
941.056	5127.31
941.363	5078.72
941.67	5121.21
941.977	5009.12
942.284	5025.16
942.591	5038.5
942.898	4997.82
943.205	4980.19
943.511	4930.03
943.818	4957.37
944.125	4942.68
944.431	4892.51
944.738	4875.79
945.044	4874.89
945.35	4843.93
945.657	4762.35
945.963	4808
946.269	4707.88
946.575	4752.86
946.881	4701.11
947.187	4706.98
947.493	4729.35
947.799	4682.12
948.105	4665.17
948.41	4591.28
948.716	4604.84
949.022	4596.25
949.327	4551.73
949.633	4523.26
949.938	4594.89
950.244	4518.29
950.549	4430.38
950.854	4475.35
951.16	4487.1
951.465	4458.85
951.77	4408.91
952.075	4381.57
952.38	4377.72
952.685	4382.7
952.99	4299.08
953.294	4311.28
953.599	4294.34
953.904	4229.03
954.209	4249.37
954.513	4237.61
954.818	4177.73
955.122	4246.88
955.426	4150.39
955.731	4166.43
956.035	4121.23
956.339	4117.17
956.643	4069.48
956.948	4053.21
957.252	4043.04
957.556	4065.64
957.86	4009.82
958.163	3996.26
958.467	4023.83
958.771	3991.07
959.075	4014.12
959.378	3955.14
959.682	3955.36
959.985	3865.65
960.289	3936.83
960.592	3882.37
960.896	3861.13
961.199	3844.18
961.502	3864.52
961.805	3813.44
962.108	3787.46
962.411	3795.14
962.714	3791.98
963.017	3764.63
963.32	3797.17
963.623	3720.79
963.926	3744.07
964.228	3667.46
964.531	3688.02
964.833	3668.82
965.136	3645.77
965.438	3636.73
965.741	3617.74
966.043	3601.25
966.345	3562.83
966.648	3581.13
966.95	3530.51
967.252	3506.11
967.554	3487.8
967.856	3548.82
968.158	3476.28
968.46	3464.08
968.761	3481.25
969.063	3467.69
969.365	3427.92
969.666	3405.77
969.968	3369.16
970.269	3386.79
970.571	3367.35
970.872	3368.03
971.174	3316.28
971.475	3329.84
971.776	3290.29
972.077	3289.62
972.378	3296.17
972.679	3309.96
972.98	3295.04
973.281	3267.24
973.582	3198.32
973.883	3226.34
974.183	3200.13
974.484	3189.73
974.785	3158.32
975.085	3210.07
975.386	3165.78
975.686	3120.36
975.986	3101.37
976.287	3125.78
976.587	3077.87
976.887	3056.63
977.187	3094.59
977.487	3035.16
977.787	3032.22
978.087	3034.48
978.387	3010.53
978.687	3005.1
978.987	2983.18
979.286	2996.74
979.586	2929.17
979.885	2967.14
980.185	2935.5
980.484	2889.4
980.784	2909.97
981.083	2879.46
981.382	2866.58
981.682	2855.5
981.981	2847.37
982.28	2845.56
982.579	2802.4
982.878	2815.51
983.177	2803.08
983.475	2808.95
983.774	2772.34
984.073	2752.68
984.372	2746.13
984.67	2761.95
984.969	2741.38
985.267	2728.95
985.566	2735.06
985.864	2697.09
986.162	2686.92
986.461	2621.61
986.759	2678.11
987.057	2645.34
987.355	2636.98
987.653	2629.52
987.951	2633.36
988.249	2593.59
988.547	2586.13
988.844	2556.53
989.142	2560.6
989.44	2566.92
989.737	2553.14
990.035	2550.2
990.332	2516.3
990.63	2505.91
990.927	2523.31
991.224	2506.13
991.521	2480.37
991.819	2478.11
992.116	2442.63
992.413	2418.45
992.71	2442.86
993.006	2415.74
993.303	2399.92
993.6	2362.41
993.897	2408.06
994.193	2351.34
994.49	2374.39
994.787	2365.12
995.083	2312.69
995.379	2315.86
995.676	2338.46
995.972	2283.99
996.268	2307.5
996.565	2265.24
996.861	2268.4
997.157	2261.85
997.453	2255.07
997.749	2247.38
998.044	2218.91
998.34	2206.93
998.636	2224.79
998.932	2175.75
999.227	2170.32
999.523	2167.39
999.818	2173.04
1000.114	2145.01
1000.409	2113.83
1000.704	2122.19
1001	2084.22
1001.295	2106.15
1001.59	2081.51
1001.885	2091.91
1002.18	2092.13
1002.475	2059.82
1002.77	2090.55
1003.065	2009.42
1003.359	2019.14
1003.654	2030.67
1003.949	2018.69
1004.243	1991.12
1004.538	1970.1
1004.832	1978.92
1005.127	1968.3
1005.421	1965.81
1005.715	1933.04
1006.009	1951.57
1006.304	1951.12
1006.598	1933.95
1006.892	1903.44
1007.186	1894.85
1007.48	1885.36
1007.773	1848.07
1008.067	1830.45
1008.361	1833.16
1008.655	1841.75
1008.948	1822.76
1009.242	1811.46
1009.535	1816.44
1009.829	1768.07
1010.122	1773.27
1010.415	1772.37
1010.708	1765.36
1011.001	1771.69
1011.295	1756.32
1011.588	1714.52
1011.881	1709.09
1012.173	1700.96
1012.466	1700.28
1012.759	1708.19
1013.052	1690.34
1013.344	1644.46
1013.637	1690.56
1013.93	1649.89
1014.222	1663.44
1014.514	1639.94
1014.807	1632.26
1015.099	1598.14
1015.391	1627.06
1015.683	1587.29
1015.976	1584.13
1016.268	1584.13
1016.56	1583.9
1016.851	1566.27
1017.143	1556.56
1017.435	1514.75
1017.727	1521.98
1018.018	1513.39
1018.31	1517.46
1018.602	1512.04
1018.893	1474.52
1019.185	1509.1
1019.476	1501.19
1019.767	1481.3
1020.058	1484.69
1020.35	1441.53
1020.641	1452.6
1020.932	1425.94
1021.223	1413.73
1021.514	1427.52
1021.804	1428.87
1022.095	1394.53
1022.386	1392.49
1022.677	1357.69
1022.967	1386.39
1023.258	1349.78
1023.548	1373.96
1023.839	1316.56
1024.129	1345.49
1024.419	1324.02
1024.709	1327.41
1025	1305.71
1025.29	1298.93
1025.58	1287.86
1025.87	1299.84
1026.16	1285.38
1026.449	1258.26
1026.739	1291.25
1027.029	1236.34
1027.319	1248.31
1027.608	1245.83
1027.898	1229.56
1028.187	1206.51
1028.477	1224.13
1028.766	1169.9
1029.055	1175.77
1029.344	1202.67
1029.634	1198.82
1029.923	1156.11
1030.212	1187.07
1030.501	1153.63
1030.79	1143.23
1031.078	1144.36
1031.367	1135.32
1031.656	1138.71
1031.945	1093.06
1032.233	1140.75
1032.522	1132.61
1032.81	1105.27
1033.099	1082.9
1033.387	1079.96
1033.675	1105.95
1033.963	1071.37
1034.251	1087.87
1034.54	1056
1034.828	1064.82
1035.116	1051.26
1035.403	1038.15
1035.691	1026.17
1035.979	1029.11
1036.267	1014.42
1036.554	999.06
1036.842	995.67
1037.129	982.78
1037.417	961.99
1037.704	994.99
1037.992	984.82
1038.279	952.05
1038.566	954.09
1038.853	954.09
1039.14	954.09
