Data from hue_130_FLMS001491_00028.txt Node
Date: Tue Feb 07 16:57:24 GMT 2017
User: dcchb
Spectrometer: FLMS00149
Trigger mode: 0
Integration Time (sec): 2.000000E-2
Scans to average: 10
Electric dark correction enabled: true
Nonlinearity correction enabled: false
Boxcar width: 0
XAxis mode: Wavelengths
Number of Pixels in Spectrum: 2048
>>>>>Begin Spectral Data<<<<<
341.393	-31.07
341.776	-31.07
342.16	-31.07
342.543	-58.19
342.927	-68.59
343.31	-53.22
343.693	-63.61
344.077	-66.33
344.46	-45.76
344.843	-69.49
345.226	-24.29
345.61	-39.66
345.993	-49.83
346.376	1.69
346.759	14.58
347.142	14.12
347.525	38.3
347.908	43.05
348.291	73.78
348.674	99.55
349.057	127.12
349.44	119.88
349.823	145.87
350.206	175.93
350.588	207.79
350.971	203.05
351.354	223.38
351.737	247.11
352.119	231.52
352.502	262.25
352.884	278.3
353.267	275.81
353.65	266.77
354.032	305.87
354.414	306.32
354.797	321.23
355.179	319.65
355.562	318.52
355.944	311.07
356.326	346.32
356.709	328.24
357.091	323.04
357.473	354.91
357.855	336.38
358.238	335.7
358.62	347.67
359.002	338.41
359.384	343.83
359.766	346.77
360.148	332.76
360.53	343.15
360.912	328.69
361.294	341.35
361.676	340.44
362.057	341.35
362.439	334.57
362.821	330.27
363.203	345.64
363.584	329.82
363.966	328.69
364.348	351.06
364.729	307.9
365.111	318.07
365.493	325.75
365.874	306.09
366.256	337.28
366.637	311.07
367.019	319.2
367.4	317.62
367.781	316.04
368.163	311.97
368.544	309.03
368.925	329.82
369.306	329.14
369.688	300.22
370.069	298.86
370.45	315.13
370.831	302.48
371.212	309.48
371.593	323.04
371.974	307.68
372.355	313.1
372.736	302.93
373.117	311.74
373.498	314
373.879	320.56
374.26	297.05
374.641	304.96
375.021	293.21
375.402	321.91
375.783	320.78
376.163	323.27
376.544	327.34
376.925	321.91
377.305	311.29
377.686	321.46
378.066	302.7
378.447	334.34
378.827	312.87
379.208	340.44
379.588	356.04
379.968	332.08
380.349	327.56
380.729	333.21
381.109	327.11
381.489	330.5
381.87	342.25
382.25	344.06
382.63	353.32
383.01	344.96
383.39	342.02
383.77	356.71
384.15	335.92
384.53	351.97
384.91	351.29
385.29	346.54
385.67	350.61
386.049	319.2
386.429	343.38
386.809	345.87
387.189	367.56
387.568	360.56
387.948	363.04
388.328	367.79
388.707	365.98
389.087	363.72
389.466	366.66
389.846	358.3
390.225	362.59
390.605	381.35
390.984	367.79
391.363	369.82
391.743	362.82
392.122	377.28
392.501	387
392.881	376.6
393.26	405.07
393.639	371.4
394.018	385.19
394.397	406.43
394.776	394.23
395.155	391.74
395.534	387.45
395.913	386.54
396.292	379.76
396.671	378.63
397.05	396.03
397.429	388.13
397.808	390.84
398.186	414.11
398.565	396.26
398.944	403.49
399.323	383.38
399.701	407.79
400.08	427.67
400.458	401.91
400.837	400.1
401.215	405.3
401.594	401.68
401.972	413.89
402.351	405.07
402.729	420.44
403.107	415.24
403.486	410.27
403.864	409.59
404.242	422.7
404.62	423.38
404.999	463.6
405.377	443.04
405.755	446.43
406.133	433.55
406.511	446.2
406.889	432.19
407.267	461.12
407.645	457.05
408.023	459.99
408.401	443.72
408.779	481
409.156	476.03
409.534	459.54
409.912	482.13
410.29	473.55
410.667	483.04
411.045	481.23
411.422	479.2
411.8	474.45
412.178	484.17
412.555	486.2
412.933	484.17
413.31	499.76
413.687	484.62
414.065	500.44
414.442	501.57
414.819	517.61
415.197	525.07
415.574	503.6
415.951	491.85
416.328	505.18
416.705	531.4
417.082	504.96
417.46	524.62
417.837	537.5
418.214	549.48
418.591	540.44
418.967	544.73
419.344	530.27
419.721	545.86
420.098	555.13
420.475	569.36
420.852	549.93
421.228	567.1
421.605	561.23
421.982	580.21
422.358	569.14
422.735	572.75
423.111	593.09
423.488	588.8
423.864	586.54
424.241	586.31
424.617	608.46
424.994	605.07
425.37	605.75
425.746	598.97
426.123	619.08
426.499	612.75
426.875	640.1
427.251	620.66
427.627	633.54
428.003	617.95
428.379	622.92
428.756	648.01
429.132	643.26
429.507	637.16
429.883	663.15
430.259	686.2
430.635	691.85
431.011	654.33
431.387	687.78
431.763	709.47
432.138	712.18
432.514	728.23
432.89	712.64
433.265	738.17
433.641	713.31
434.016	744.05
434.392	736.36
434.767	756.93
435.143	771.62
435.518	761.45
435.894	747.66
436.269	777.04
436.644	758.06
437.02	780.66
437.395	783.37
437.77	817.04
438.145	787.21
438.52	833.09
438.895	843.93
439.271	807.55
439.646	839.19
440.021	844.84
440.395	839.41
440.77	817.04
441.145	836.25
441.52	856.36
441.895	853.88
442.27	889.36
442.645	875.12
443.019	903.82
443.394	887.32
443.769	909.24
444.143	882.12
444.518	925.29
444.892	897.49
445.267	898.62
445.641	916.25
446.016	901.56
446.39	925.96
446.764	923.03
447.139	921.44
447.513	932.52
447.887	963.48
448.262	932.07
448.636	956.25
449.01	971.39
449.384	990.82
449.758	997.83
450.132	969.35
450.506	1006.41
450.88	986.98
451.254	1009.13
451.628	1034.89
452.002	1038.96
452.376	1030.14
452.75	1046.87
453.123	1058.16
453.497	1065.62
453.871	1068.56
454.244	1129.12
454.618	1096.36
454.992	1134.55
455.365	1137.71
455.739	1149.69
456.112	1165.96
456.486	1172.29
456.859	1160.53
457.232	1179.97
457.606	1226.75
457.979	1232.17
458.352	1251.83
458.725	1237.37
459.099	1259.29
459.472	1283.7
459.845	1303.13
460.218	1318.5
460.591	1337.25
460.964	1345.84
461.337	1371.6
461.71	1376.57
462.083	1422.45
462.456	1382.68
462.829	1445.95
463.201	1444.14
463.574	1448.21
463.947	1463.13
464.32	1490.47
464.692	1482.33
465.065	1534.54
465.438	1540.86
465.81	1588.55
466.183	1593.97
466.555	1626.28
466.928	1671.26
467.3	1656.11
467.672	1708.32
468.045	1712.38
468.417	1709.9
468.789	1772.95
469.161	1807.75
469.534	1825.38
469.906	1876.22
470.278	1892.72
470.65	1909.44
471.022	1974.98
471.394	1997.8
471.766	2027.18
472.138	2044.8
472.51	2104.69
472.882	2160.73
473.253	2158.25
473.625	2233.05
473.997	2256.78
474.369	2320.73
474.74	2400.05
475.112	2441.63
475.484	2470.33
475.855	2535.87
476.227	2577.22
476.598	2663.55
476.97	2722.3
477.341	2804.11
477.713	2838.68
478.084	2878.46
478.455	2974.95
478.827	3070.77
479.198	3192.12
479.569	3268.05
479.94	3368.84
480.311	3399.12
480.682	3517.53
481.053	3637.76
481.424	3696.74
481.795	3780.35
482.166	3876.4
482.537	3954.59
482.908	4105.99
483.279	4179.89
483.65	4321.81
484.021	4426.89
484.391	4556.83
484.762	4588.69
485.133	4694.9
485.503	4883.6
485.874	4983.26
486.244	5139.64
486.615	5240.2
486.985	5368.79
487.356	5566.97
487.726	5644.48
488.097	5757.48
488.467	5863.46
488.837	6113.85
489.207	6213.28
489.578	6380.74
489.948	6449.43
490.318	6665.7
490.688	6702.54
491.058	6868.86
491.428	7087.16
491.798	7220.04
492.168	7421.84
492.538	7456.64
492.908	7698.22
493.278	7841.26
493.648	7975.5
494.017	8093.46
494.387	8236.28
494.757	8320.8
495.126	8506.56
495.496	8571.41
495.866	8700.68
496.235	8878.52
496.605	9041.68
496.974	9149.93
497.344	9241.68
497.713	9313.54
498.082	9467.21
498.452	9675.34
498.821	9772.51
499.19	9837.14
499.559	10017.7
499.928	10105.61
500.298	10175.89
500.667	10371.59
501.036	10402.55
501.405	10502.44
501.774	10587.41
502.143	10638.25
502.512	10786.72
502.88	10906.04
503.249	10969.77
503.618	11111.01
503.987	11147.16
504.356	11226.94
504.724	11399.36
505.093	11423.09
505.462	11424.22
505.83	11614.95
506.199	11714.61
506.567	11935.84
506.936	11802.97
507.304	12011.77
507.672	12130.19
508.041	12198.66
508.409	12343.97
508.777	12390.75
509.145	12518.65
509.514	12519.78
509.882	12564.98
510.25	12618.76
510.618	12719.78
510.986	12769.49
511.354	12906.21
511.722	12949.15
512.09	13060.79
512.458	13012.65
512.826	13098.98
513.193	13203.61
513.561	13197.28
513.929	13348.91
514.297	13386.88
514.664	13469.14
515.032	13439.31
515.4	13569.25
515.767	13556.82
516.135	13696.25
516.502	13561.34
516.869	13835.46
517.237	13867.77
517.604	13832.97
517.972	13929.46
518.339	13952.97
518.706	14009.91
519.073	13975.56
519.44	14044.49
519.808	14181.21
520.175	14074.55
520.542	14232.28
520.909	14261.66
521.276	14197.71
521.643	14366.97
522.009	14436.34
522.376	14482.67
522.743	14496.68
523.11	14579.16
523.477	14692.83
523.843	14731.03
524.21	14810.8
524.577	14788.65
524.943	14874.98
525.31	14927.86
525.676	15079.94
526.043	14968.31
526.409	15012.83
526.776	15133.05
527.142	15102.09
527.508	15150.68
527.874	15196.55
528.241	15191.13
528.607	15192.26
528.973	15284.68
529.339	15220.28
529.705	15351.12
530.071	15337.34
530.437	15382.99
530.803	15378.24
531.169	15408.97
531.535	15336.66
531.901	15315.64
532.267	15326.94
532.632	15444.23
532.998	15334.17
533.364	15450.1
533.73	15362.19
534.095	15442.19
534.461	15485.36
534.826	15441.29
535.192	15493.94
535.557	15556.31
535.923	15396.09
536.288	15424.79
536.653	15351.12
537.019	15348.86
537.384	15310.67
537.749	15330.56
538.114	15337.34
538.479	15270.67
538.845	15332.14
539.21	15189.09
539.575	15293.5
539.94	15118.13
540.305	15195.87
540.67	15187.51
541.034	15123.33
541.399	15145.7
541.764	15203.1
542.129	15043.33
542.494	15128.3
542.858	15057.8
543.223	15024.58
543.587	15012.15
543.952	14960.62
544.316	14967.86
544.681	14849.89
545.045	14868.65
545.41	14867.29
545.774	14911.13
546.138	14761.98
546.503	14750.69
546.867	14733.51
547.231	14808.76
547.595	14743.45
547.959	14735.32
548.324	14645.6
548.688	14615.55
549.052	14658.48
549.416	14558.37
549.779	14580.75
550.143	14513.63
550.507	14550.01
550.871	14516.57
551.235	14490.35
551.599	14443.58
551.962	14439.96
552.326	14356.12
552.689	14445.38
553.053	14372.39
553.417	14327.65
553.78	14496.68
554.143	14310.25
554.507	14382.56
554.87	14300.3
555.234	14414.88
555.597	14299.4
555.96	14345.95
556.323	14361.32
556.686	14268.66
557.05	14305.73
557.413	14290.36
557.776	14358.61
558.139	14358.83
558.502	14290.58
558.865	14205.84
559.228	14291.04
559.59	14205.16
559.953	14312.28
560.316	14326.97
560.679	14330.13
561.041	14315.89
561.404	14386.18
561.767	14376.01
562.129	14275.22
562.492	14462.33
562.854	14278.83
563.217	14353.86
563.579	14288.55
563.941	14358.61
564.304	14388.66
564.666	14507.75
565.028	14448.09
565.39	14431.37
565.753	14456.23
566.115	14445.61
566.477	14535.1
566.839	14498.71
567.201	14578.71
567.563	14551.59
567.925	14597.47
568.287	14543.69
568.648	14578.03
569.01	14700.74
569.372	14745.04
569.734	14612.84
570.095	14716.56
570.457	14718.6
570.819	14706.62
571.18	14703
571.542	14857.8
571.903	14751.59
572.265	14793.4
572.626	14863.9
572.987	14873.39
573.349	14771.93
573.71	14845.82
574.071	14810.35
574.432	14832.49
574.794	14926.27
575.155	14898.48
575.516	14868.65
575.877	14879.04
576.238	14982.54
576.599	14919.72
576.96	14973.5
577.32	14928.76
577.681	14960.62
578.042	15065.48
578.403	15034.52
578.763	14934.18
579.124	14904.13
579.485	14999.94
579.845	15015.54
580.206	14925.37
580.566	14935.09
580.927	14927.4
581.287	15025.03
581.648	14887.41
582.008	14997.01
582.368	14974.18
582.728	14954.75
583.089	14914.98
583.449	14900.51
583.809	14997.91
584.169	14944.8
584.529	15002.66
584.889	14996.33
585.249	14960.17
585.609	14884.92
585.969	15020.51
586.329	14889.66
586.688	14936.44
587.048	14913.17
587.408	14839.72
587.768	14802.89
588.127	14853.96
588.487	14809.89
588.846	14908.65
589.206	14714.53
589.565	14729.9
589.925	14814.19
590.284	14763.79
590.643	14743.23
591.003	14828.88
591.362	14863.45
591.721	14833.4
592.08	14801.98
592.44	14873.85
592.799	14830.68
593.158	14785.26
593.517	14666.17
593.876	14804.92
594.235	14729.22
594.593	14757.24
594.952	14786.84
595.311	14633.63
595.67	14676.56
596.029	14790.23
596.387	14781.65
596.746	14704.36
597.104	14637.69
597.463	14804.7
597.822	14712.95
598.18	14739.61
598.538	14687.41
598.897	14786.84
599.255	14705.49
599.613	14757.47
599.972	14678.82
600.33	14701.65
600.688	14693.51
601.046	14784.36
601.404	14838.82
601.762	14751.82
602.12	14741.42
602.478	14772.83
602.836	14693.51
603.194	14686.51
603.552	14672.95
603.91	14634.08
604.268	14673.4
604.625	14719.05
604.983	14715.43
605.341	14688.99
605.698	14767.18
606.056	14676.56
606.413	14680.63
606.771	14763.79
607.128	14741.19
607.485	14710.23
607.843	14755.43
608.2	14756.11
608.557	14836.11
608.914	14780.06
609.272	14773.74
609.629	14798.37
609.986	14897.8
610.343	14810.12
610.7	14900.06
611.057	14886.73
611.414	14919.95
611.771	14866.84
612.127	14902.77
612.484	14883.79
612.841	14901.87
613.198	14926.5
613.554	14939.61
613.911	14992.26
614.267	15006.05
614.624	14983
614.98	14968.31
615.337	15066.61
615.693	14994.75
616.05	15027.51
616.406	15110
616.762	14955.88
617.118	14985.93
617.475	14974.41
617.831	15008.31
618.187	15035.88
618.543	15020.73
618.899	15153.39
619.255	15105.25
619.611	15084.24
619.967	15127.62
620.323	15206.94
620.678	15158.81
621.034	15105.93
621.39	15073.39
621.746	15012.6
622.101	15298.24
622.457	15183.44
622.812	15101.64
623.168	15196.55
623.523	15133.27
623.879	15230
624.234	15171.24
624.589	15133.27
624.945	15246.72
625.3	15281.97
625.655	15124.69
626.01	15140.28
626.365	15256.89
626.72	15179.37
627.075	15171.01
627.43	15203.1
627.785	15124.24
628.14	15160.84
628.495	15193.84
628.85	15138.7
629.205	15103.22
629.559	15113.16
629.914	15031.81
630.269	15125.37
630.623	15080.39
630.978	15015.76
631.332	14986.84
631.687	15138.25
632.041	15071.36
632.396	14990.45
632.75	14975.09
633.104	15072.26
633.459	14922.66
633.813	14944.58
634.167	14916.1
634.521	14953.39
634.875	14887.41
635.229	14960.17
635.583	14905.03
635.937	14871.81
636.291	14768.31
636.645	14808.31
636.999	14795.88
637.352	14829.78
637.706	14752.04
638.06	14788.42
638.413	14713.17
638.767	14726.28
639.121	14703.68
639.474	14557.92
639.828	14700.74
640.181	14746.84
640.534	14656
640.888	14644.7
641.241	14557.92
641.594	14545.49
641.947	14675.66
642.301	14622.55
642.654	14659.84
643.007	14663.91
643.36	14590.01
643.713	14553.63
644.066	14631.82
644.419	14554.76
644.771	14439.06
645.124	14405.61
645.477	14277.48
645.83	14128.33
646.182	14190.47
646.535	14114.09
646.888	14125.17
647.24	14014.43
647.593	14159.06
647.945	14081.78
648.298	13924.72
648.65	13989.35
649.002	13958.62
649.355	14012.17
649.707	14003.13
650.059	14065.28
650.411	14243.35
650.763	14306.63
651.115	14327.42
651.467	14347.76
651.819	14253.75
652.171	14353.63
652.523	14269.79
652.875	14333.07
653.227	14273.41
653.578	14349.79
653.93	14355.89
654.282	14304.14
654.633	14197.71
654.985	14283.81
655.337	14290.58
655.688	14280.87
656.039	14371.49
656.391	14267.08
656.742	14306.4
657.094	14351.15
657.445	14337.59
657.796	14315.22
658.147	14306.4
658.498	14316.8
658.849	14417.36
659.2	14373.52
659.551	14349.57
659.902	14322.45
660.253	14386.4
660.604	14336.69
660.955	14319.51
661.306	14460.75
661.656	14417.14
662.007	14332.39
662.358	14341.66
662.708	14456
663.059	14381.2
663.409	14312.96
663.76	14410.13
664.11	14458.94
664.461	14384.14
664.811	14442.67
665.161	14348.21
665.511	14357.93
665.862	14360.87
666.212	14371.26
666.562	14400.19
666.912	14442.9
667.262	14394.54
667.612	14369
667.962	14328.55
668.312	14390.92
668.662	14466.85
669.011	14368.32
669.361	14397.93
669.711	14324.03
670.06	14319.06
670.41	14372.62
670.76	14297.59
671.109	14329
671.459	14393.63
671.808	14300.3
672.157	14348.44
672.507	14240.64
672.856	14285.84
673.205	14296.23
673.554	14304.82
673.904	14190.47
674.253	14304.14
674.602	14241.77
674.951	14072.74
675.3	13983.47
675.649	14224.37
675.998	14116.35
676.346	14180.76
676.695	14190.93
677.044	14169.91
677.393	14170.14
677.741	14111.83
678.09	14094.66
678.438	14065.05
678.787	14065.28
679.135	14139.18
679.484	13954.1
679.832	14127.2
680.181	13947.54
680.529	13989.35
680.877	13915.91
681.225	13879.97
681.573	13929.69
681.922	13828.22
682.27	13732.86
682.618	13816.92
682.966	13812.41
683.314	13837.26
683.661	13730.15
684.009	13730.15
684.357	13730.37
684.705	13674.1
685.053	13696.25
685.4	13703.26
685.748	13537.61
686.095	13509.14
686.443	13573.09
686.79	13512.75
687.138	13597.27
687.485	13508.91
687.832	13408.57
688.18	13404.51
688.527	13307.11
688.874	13356.37
689.221	13268.01
689.568	13216.94
689.915	13184.17
690.262	13196.83
690.609	13121.58
690.956	13100.79
691.303	13091.75
691.65	13004.52
691.997	12980.34
692.344	12938.08
692.69	12807.46
693.037	12959.77
693.383	12723.39
693.73	12701.7
694.077	12722.04
694.423	12669.16
694.769	12663.73
695.116	12676.39
695.462	12514.81
695.808	12534.25
696.155	12592.1
696.501	12441.14
696.847	12393.46
697.193	12328.6
697.539	12359.11
697.885	12282.05
698.231	12299
698.577	12257.64
698.923	12200.24
699.269	12152.11
699.614	12039.8
699.96	12028.27
700.306	12035.5
700.651	11924.55
700.997	11881.83
701.342	11878.22
701.688	11850.65
702.033	11839.8
702.379	11801.84
702.724	11738.11
703.069	11725.68
703.415	11550.32
703.76	11578.79
704.105	11648.17
704.45	11518.68
704.795	11476.87
705.14	11449.98
705.485	11433.26
705.83	11428.74
706.175	11425.12
706.52	11395.07
706.865	11255.86
707.209	11269.87
707.554	11229.42
707.899	11272.58
708.243	11144.68
708.588	11218.35
708.932	11094.06
709.277	11109.2
709.621	11083.66
709.966	11057.9
710.31	10972.93
710.654	10883.22
710.998	10899.49
711.342	10959.15
711.687	10886.83
712.031	10867.17
712.375	10810.9
712.719	10793.28
713.063	10813.39
713.407	10813.16
713.75	10741.53
714.094	10692.94
714.438	10680.28
714.782	10748.53
715.125	10627.86
715.469	10683.22
715.812	10628.53
716.156	10552.83
716.499	10539.5
716.843	10566.39
717.186	10525.49
717.53	10503.34
717.873	10547.86
718.216	10461.08
718.559	10368.43
718.902	10387.41
719.246	10466.28
719.589	10400.52
719.932	10328.43
720.275	10405.72
720.617	10349.67
720.96	10364.13
721.303	10323.23
721.646	10323.68
721.989	10201.43
722.331	10319.62
722.674	10275.1
723.016	10284.36
723.359	10238.26
723.701	10219.51
724.044	10214.53
724.386	10145.16
724.729	10263.57
725.071	10157.13
725.413	10073.52
725.755	10194.87
726.097	10145.16
726.439	10133.18
726.782	10161.43
727.124	10157.13
727.465	10123.01
727.807	10143.58
728.149	10151.48
728.491	10077.14
728.833	10082.33
729.175	10056.57
729.516	10042.33
729.858	9998.04
730.199	10060.64
730.541	10087.31
730.882	10062.67
731.224	10060.87
731.565	9963.47
731.906	9950.59
732.248	9973.41
732.589	9959.17
732.93	9939.06
733.271	9955.11
733.612	9951.26
733.953	9998.04
734.294	10068.1
734.635	9946.74
734.976	9970.25
735.317	9966.63
735.658	9942.22
735.999	9975.67
736.339	9981.55
736.68	10030.58
737.021	9980.87
737.361	10019.06
737.702	10039.17
738.042	10018.15
738.383	10004.82
738.723	10069.23
739.063	10021.54
739.404	10007.99
739.744	9991.49
740.084	10048.89
740.424	10088.21
740.764	10073.29
741.104	10146.96
741.444	10078.72
741.784	10098.83
742.124	10155.33
742.464	10189
742.804	10136.57
743.143	10171.14
743.483	10163.01
743.823	10192.39
744.162	10200.75
744.502	10304.25
744.841	10193.29
745.181	10338.82
745.52	10294.31
745.86	10346.28
746.199	10410.01
746.538	10446.17
746.877	10505.6
747.216	10615.43
747.556	10565.94
747.895	10591.25
748.234	10634.86
748.573	10698.14
748.911	10762.32
749.25	10797.8
749.589	10802.77
749.928	10895.65
750.267	11034.63
750.605	11069.65
750.944	11091.12
751.283	11219.48
751.621	11319.36
751.96	11324.34
752.298	11463.77
752.636	11580.15
752.975	11577.66
753.313	11711.22
753.651	11813.81
753.989	11850.65
754.327	12004.54
754.666	12110.3
755.004	12291.77
755.342	12402.72
755.679	12473.01
756.017	12548.71
756.355	12763.85
756.693	12870.06
757.031	13033.67
757.368	13178.52
757.706	13305.53
758.044	13383.94
758.381	13642.47
758.719	13767.89
759.056	13955.68
759.394	14056.69
759.731	14197.03
760.068	14400.64
760.405	14466.4
760.743	14572.61
761.08	14802.89
761.417	14961.98
761.754	15069.55
762.091	15251.24
762.428	15360.61
762.765	15522.87
763.102	15688.51
763.438	15887.38
763.775	15958.11
764.112	16284.2
764.449	16334.15
764.785	16512.9
765.122	16568.94
765.458	16619.34
765.795	16903.85
766.131	17038.31
766.467	17092.54
766.804	17142.49
767.14	17301.58
767.476	17478.3
767.812	17515.81
768.148	17757.39
768.485	17825.18
768.821	17844.39
769.157	18061.78
769.492	18066.98
769.828	18286.19
770.164	18246.41
770.5	18454.54
770.836	18496.12
771.171	18476.46
771.507	18658.61
771.842	18678.27
772.178	18753.74
772.513	18815.89
772.849	18951.93
773.184	18976.79
773.519	19108.54
773.855	19053.62
774.19	19104.24
774.525	19195.77
774.86	19331.36
775.195	19384.91
775.53	19338.59
775.865	19403.22
776.2	19316.67
776.535	19308.31
776.87	19397.57
777.205	19427.17
777.539	19396.89
777.874	19446.16
778.209	19419.04
778.543	19486.61
778.878	19537.9
779.212	19551.69
779.547	19550.11
779.881	19691.35
780.215	19504.91
780.55	19542.88
780.884	19616.55
781.218	19618.13
781.552	19670.1
781.886	19659.26
782.22	19517.57
782.554	19526.83
782.888	19417.46
783.222	19415.65
783.556	19410.22
783.889	19438.7
784.223	19327.74
784.557	19306.5
784.89	19359.6
785.224	19275.76
785.557	19276.44
785.891	19298.81
786.224	19275.09
786.558	19274.41
786.891	19229.66
787.224	19129.78
787.557	19181.76
787.891	19238.03
788.224	19200.74
788.557	19089.1
788.89	18990.12
789.223	19112.15
789.556	19080.97
789.888	18893.63
790.221	19007.52
790.554	18910.12
790.887	18891.82
791.219	18782.44
791.552	18814.76
791.884	18683.24
792.217	18635.1
792.549	18617.02
792.882	18579.74
793.214	18515.56
793.546	18495.67
793.879	18441.44
794.211	18330.03
794.543	18461.32
794.875	18268.56
795.207	18541.32
795.539	18358.5
795.871	18440.76
796.203	18234.89
796.535	18088.22
796.867	18062.46
797.198	18031.5
797.53	18090.71
797.862	17949.02
798.193	18033.09
798.525	17821.57
798.856	17894.33
799.188	17739.08
799.519	17709.93
799.85	17634.23
800.182	17641.68
800.513	17658.18
800.844	17417.73
801.175	17605.98
801.506	17501.8
801.837	17508.35
802.168	17485.08
802.499	17377.06
802.83	17303.84
803.161	17286.89
803.491	17260.68
803.822	17252.09
804.153	17187.91
804.483	17003.96
804.814	17050.29
805.145	16998.99
805.475	17126.22
805.805	16915.15
806.136	16930.29
806.466	16897.97
806.796	16828.15
807.126	16801.71
807.457	16752.44
807.787	16837.41
808.117	16743.18
808.447	16643.29
808.777	16712.44
809.107	16624.99
809.436	16520.58
809.766	16561.03
810.096	16496.18
810.426	16480.36
810.755	16488.04
811.085	16395.84
811.414	16426.35
811.744	16339.57
812.073	16257.54
812.403	16249.18
812.732	16265.67
813.061	16251.89
813.39	16101.38
813.719	15987.04
814.049	16165.79
814.378	16153.13
814.707	15997.88
815.036	15941.16
815.365	15941.61
815.693	15770.77
816.022	15811.9
816.351	15825.46
816.68	15711.11
817.008	15781.39
817.337	15583.88
817.665	15658.46
817.994	15613.04
818.322	15674.28
818.651	15544.79
818.979	15462.08
819.307	15586.14
819.636	15563.55
819.964	15533.04
820.292	15477.9
820.62	15476.32
820.948	15338.24
821.276	15420.5
821.604	15411.01
821.932	15471.34
822.259	15389.09
822.587	15380.5
822.915	15333.72
823.243	15425.24
823.57	15289.65
823.898	15371.01
824.225	15364.45
824.553	15352.7
824.88	15416.88
825.207	15406.94
825.535	15365.13
825.862	15420.05
826.189	15295.98
826.516	15401.29
826.843	15415.98
827.17	15437.9
827.497	15437.67
827.824	15419.37
828.151	15452.36
828.478	15455.53
828.805	15487.84
829.131	15298.92
829.458	15498.24
829.785	15362.65
830.111	15395.19
830.438	15372.36
830.764	15372.36
831.09	15388.86
831.417	15401.06
831.743	15354.96
832.069	15357.22
832.395	15276.1
832.722	15359.03
833.048	15286.04
833.374	15295.3
833.7	15140.96
834.026	15373.72
834.351	15185.7
834.677	15201.3
835.003	15309.77
835.329	15216.44
835.654	15128.53
835.98	15070.23
836.306	15203.56
836.631	15097.8
836.956	15186.61
837.282	15126.04
837.607	15104.57
837.932	15022.77
838.258	15143.67
838.583	15059.38
838.908	15011.47
839.233	15033.84
839.558	15024.12
839.883	14821.42
840.208	14908.87
840.533	14926.5
840.858	14860.06
841.182	14841.3
841.507	14827.97
841.832	14648.09
842.156	14714.53
842.481	14773.06
842.805	14732.83
843.13	14683.12
843.454	14607.86
843.778	14573.74
844.103	14525.61
844.427	14551.82
844.751	14495.55
845.075	14524.25
845.399	14436.34
845.723	14332.84
846.047	14397.47
846.371	14223.92
846.695	14256.01
847.019	14212.85
847.343	14047.43
847.666	13942.35
847.99	13986.41
848.313	13998.16
848.637	13862.35
848.96	13891.73
849.284	13753.2
849.607	13674.56
849.931	13787.1
850.254	13608.12
850.577	13533.09
850.9	13392.3
851.223	13456.26
851.546	13373.32
851.869	13279.76
852.192	13319.54
852.515	13218.97
852.838	13109.37
853.161	13205.87
853.483	13098.98
853.806	13047.45
854.129	12960
854.451	12974.01
854.774	12895.59
855.096	12978.75
855.419	12818.31
855.741	12751.87
856.063	12720.91
856.385	12723.39
856.708	12662.6
857.03	12600.23
857.352	12611.76
857.674	12539.9
857.996	12466.9
858.318	12494.7
858.64	12475.94
858.961	12316.63
859.283	12306.46
859.605	12325.44
859.926	12357.75
860.248	12308.72
860.57	12210.64
860.891	12225.78
861.212	12218.1
861.534	12107.14
861.855	12131.77
862.176	12151.43
862.498	12124.31
862.819	12049.06
863.14	12018.1
863.461	12072.11
863.782	11990.53
864.103	12020.14
864.424	11955.5
864.745	11971.1
865.065	11855.62
865.386	11763.42
865.707	11777.66
866.027	11805.68
866.348	11734.27
866.668	11796.41
866.989	11745.34
867.309	11607.49
867.63	11728.17
867.95	11675.29
868.27	11625.34
868.59	11690.65
868.91	11702.86
869.23	11619.47
869.55	11598.9
869.87	11583.54
870.19	11557.32
870.51	11620.37
870.83	11560.71
871.15	11520.94
871.469	11520.71
871.789	11530.66
872.109	11494.05
872.428	11418.12
872.748	11484.1
873.067	11482.07
873.386	11387.16
873.706	11428.29
874.025	11293.6
874.344	11249.76
874.663	11286.14
874.982	11291.57
875.301	11285.47
875.62	11225.13
875.939	11210.67
876.258	11170.44
876.577	11187.62
876.896	11153.27
877.214	11075.75
877.533	11065.36
877.852	11036.43
878.17	11118.69
878.489	11071.23
878.807	11062.65
879.125	11036.43
879.444	10995.08
879.762	11003.67
880.08	10980.39
880.398	10924.35
880.716	10958.24
881.034	10952.14
881.352	10932.25
881.67	10833.5
881.988	10860.17
882.306	10818.81
882.624	10803.44
882.941	10753.28
883.259	10729.1
883.577	10708.53
883.894	10707.18
884.212	10701.53
884.529	10669.44
884.846	10650
885.164	10632.15
885.481	10619.95
885.798	10516.9
886.115	10524.13
886.432	10513.06
886.75	10543.79
887.067	10537.24
887.383	10445.26
887.7	10448.88
888.017	10440.29
888.334	10401.87
888.651	10372.72
888.967	10338.15
889.284	10259.28
889.6	10254.98
889.917	10273.06
890.233	10105.38
890.55	10153.07
890.866	10142.67
891.182	10095.21
891.498	9991.94
891.815	10033.52
892.131	9991.94
892.447	10014.09
892.763	9984.71
893.079	9904.03
893.395	9889.34
893.71	9831.49
894.026	9886.41
894.342	9783.81
894.657	9749.01
894.973	9711.27
895.289	9704.72
895.604	9731.16
895.92	9590.82
896.235	9537.72
896.55	9576.13
896.865	9509.02
897.181	9544.04
897.496	9511.05
897.811	9418.4
898.126	9377.72
898.441	9399.87
898.756	9389.47
899.071	9285.97
899.386	9290.26
899.7	9241.45
900.015	9209.14
900.33	9175.46
900.644	9094.56
900.959	9184.96
901.273	9145.41
901.588	8988.13
901.902	9012.98
902.216	8971.63
902.531	8919.88
902.845	8924.4
903.159	8903.61
903.473	8904.74
903.787	8775.02
904.101	8789.03
904.415	8729.37
904.729	8714.23
905.042	8643.95
905.356	8650.73
905.67	8624.97
905.984	8634.46
906.297	8589.94
906.611	8511.3
906.924	8492.09
907.237	8476.73
907.551	8465.88
907.864	8420
908.177	8401.02
908.491	8379.33
908.804	8307.47
909.117	8214.36
909.43	8234.92
909.743	8158.99
910.056	8148.37
910.368	8174.14
910.681	8056.62
910.994	8045.33
911.307	8070.86
911.619	8045.78
911.932	8028.83
912.244	7954.25
912.557	7891.66
912.869	7845.33
913.181	7792.68
913.494	7809.85
913.806	7723.75
914.118	7786.35
914.43	7693.7
914.742	7664.32
915.054	7572.12
915.366	7575.73
915.678	7569.18
915.99	7561.5
916.302	7509.75
916.613	7428.84
916.925	7462.97
917.236	7405.79
917.548	7399.01
917.859	7340.48
918.171	7324.44
918.482	7270.43
918.794	7276.53
919.105	7232.47
919.416	7201.73
919.727	7160.15
920.038	7094.84
920.349	7096.88
920.66	7055.75
920.971	7061.17
921.282	7052.13
921.593	6980.49
921.903	6986.14
922.214	6954.51
922.525	6968.74
922.835	6884.68
923.146	6810.78
923.456	6822.76
923.767	6789.09
924.077	6815.75
924.387	6711.35
924.697	6731.24
925.008	6599.26
925.318	6650.11
925.628	6659.15
925.938	6628.87
926.248	6530.11
926.558	6544.8
926.867	6544.35
927.177	6537.79
927.487	6487.63
927.796	6401.07
928.106	6380.96
928.416	6398.36
928.725	6364.24
929.034	6309.1
929.344	6382.32
929.653	6328.31
929.962	6224.13
930.271	6185.71
930.581	6181.87
930.89	6155.43
931.199	6155.21
931.508	6107.07
931.817	6131.48
932.125	6109.56
932.434	6101.42
932.743	6024.14
933.051	5992.5
933.36	6000.86
933.669	5905.49
933.977	5925.38
934.286	5955.44
934.594	5891.48
934.902	5872.05
935.21	5800.86
935.519	5821.65
935.827	5835.89
936.135	5798.6
936.443	5710.02
936.751	5698.49
937.059	5713.41
937.367	5646.07
937.674	5667.76
937.982	5578.5
938.29	5576.24
938.597	5588.67
938.905	5521.32
939.213	5495.79
939.52	5442.91
939.827	5466.64
940.135	5443.81
940.442	5402.68
940.749	5392.74
941.056	5396.36
941.363	5383.02
941.67	5363.14
941.977	5310.71
942.284	5215.12
942.591	5278.62
942.898	5193.65
943.205	5261.44
943.511	5172.86
943.818	5145.97
944.125	5126.08
944.431	5131.73
944.738	5121.11
945.044	5059.19
945.35	5035.91
945.657	5013.09
945.963	4998.85
946.269	4967.89
946.575	4972.19
946.881	4918.85
947.187	4907.1
947.493	4899.65
947.799	4867.78
948.105	4835.47
948.41	4845.86
948.716	4830.04
949.022	4757.73
949.327	4770.16
949.633	4757.5
949.938	4759.08
950.244	4734.9
950.549	4751.4
950.854	4703.94
951.16	4661.23
951.465	4658.97
951.77	4615.58
952.075	4606.55
952.38	4577.17
952.685	4580.56
952.99	4535.36
953.294	4487.9
953.599	4506.66
953.904	4503.72
954.209	4409.71
954.513	4448.81
954.818	4423.73
955.122	4411.3
955.426	4408.81
955.731	4414.01
956.035	4312.09
956.339	4310.28
956.643	4359.77
956.948	4284.29
957.252	4238.87
957.556	4227.35
957.86	4283.39
958.163	4223.96
958.467	4217.18
958.771	4169.95
959.075	4228.7
959.378	4165.65
959.682	4156.61
959.985	4100.12
960.289	4106.9
960.592	4089.5
960.896	4091.76
961.199	4048.37
961.502	4080.46
961.805	4002.49
962.108	3977.18
962.411	3992.1
962.714	3970.86
963.017	3957.07
963.32	3950.29
963.623	3918.88
963.926	3942.61
964.228	3883.85
964.531	3800.69
964.833	3849.96
965.136	3811.76
965.438	3840.46
965.741	3821.26
966.043	3828.26
966.345	3746.23
966.648	3749.39
966.95	3707.13
967.252	3686.12
967.554	3684.76
967.856	3697.42
968.158	3644.76
968.46	3658.55
968.761	3635.05
969.063	3625.1
969.365	3594.59
969.666	3610.64
969.968	3566.8
970.269	3520.02
970.571	3496.97
970.872	3516.4
971.174	3491.32
971.475	3492
971.776	3468.72
972.077	3412.45
972.378	3433.02
972.679	3469.63
972.98	3405.9
973.281	3416.07
973.582	3392.57
973.883	3346.01
974.183	3365.45
974.484	3359.35
974.785	3318.22
975.085	3300.37
975.386	3331.1
975.686	3297.43
975.986	3305.56
976.287	3275.06
976.587	3223.53
976.887	3239.8
977.187	3247.71
977.487	3197.54
977.787	3177.66
978.087	3160.71
978.387	3172.23
978.687	3154.61
978.987	3139.24
979.286	3088.39
979.586	3102.18
979.885	3079.13
980.185	3060.15
980.484	3055.63
980.784	3065.34
981.083	3059.69
981.382	3052.91
981.682	3002.52
981.981	2970.2
982.28	3016.53
982.579	2955.74
982.878	2929.75
983.177	2929.53
983.475	2930.43
983.774	2929.08
984.073	2904.67
984.372	2869.42
984.67	2888.4
984.969	2848.4
985.267	2852.02
985.566	2859.02
985.864	2797.55
986.162	2801.85
986.461	2788.74
986.759	2774.96
987.057	2764.33
987.355	2741.51
987.653	2731.34
987.951	2750.32
988.249	2715.97
988.547	2699.25
988.844	2685.01
989.142	2685.92
989.44	2658.8
989.737	2642.98
990.035	2631.46
990.332	2656.99
990.63	2640.95
990.927	2611.12
991.224	2610.67
991.521	2565.24
991.819	2622.64
992.116	2573.15
992.413	2530.44
992.71	2539.71
993.006	2526.83
993.303	2494.51
993.6	2495.41
993.897	2493.38
994.193	2494.28
994.49	2462.87
994.787	2443.66
995.083	2438.01
995.379	2424.68
995.676	2403.89
995.972	2417
996.268	2376.55
996.565	2383.55
996.861	2387.39
997.157	2346.04
997.453	2363.89
997.749	2349.66
998.044	2292.26
998.34	2321.18
998.636	2288.87
998.932	2293.84
999.227	2275.99
999.523	2267.85
999.818	2244.35
1000.114	2228.3
1000.409	2218.36
1000.704	2208.64
1001	2205.25
1001.295	2178.59
1001.59	2193.73
1001.885	2144.92
1002.18	2133.84
1002.475	2147.63
1002.77	2136.78
1003.065	2093.17
1003.359	2128.64
1003.654	2102.88
1003.949	2092.04
1004.243	2100.62
1004.538	2065.14
1004.832	2046.84
1005.127	2031.92
1005.421	2015.65
1005.715	1995.09
1006.009	2006.61
1006.304	1994.86
1006.598	1966.84
1006.892	1949.67
1007.186	1958.93
1007.48	1954.41
1007.773	1941.76
1008.067	1920.06
1008.361	1913.96
1008.655	1903.79
1008.948	1887.07
1009.242	1890.68
1009.535	1856.34
1009.829	1859.5
1010.122	1825.15
1010.415	1859.27
1010.708	1873.51
1011.001	1792.38
1011.295	1810.69
1011.588	1817.01
1011.881	1802.33
1012.173	1736.34
1012.466	1781.76
1012.759	1747.86
1013.052	1737.69
1013.344	1755.1
1013.637	1731.37
1013.93	1719.16
1014.222	1715.55
1014.514	1674.19
1014.807	1712.38
1015.099	1679.16
1015.391	1666.51
1015.683	1626.96
1015.976	1641.65
1016.268	1628.09
1016.56	1617.25
1016.851	1622.44
1017.143	1621.77
1017.435	1590.35
1017.727	1600.3
1018.018	1554.42
1018.31	1554.87
1018.602	1564.59
1018.893	1545.84
1019.185	1541.09
1019.476	1539.96
1019.767	1511.94
1020.058	1541.99
1020.35	1495.21
1020.641	1482.79
1020.932	1480.53
1021.223	1463.58
1021.514	1457.93
1021.804	1468.55
1022.095	1431.04
1022.386	1433.3
1022.677	1430.13
1022.967	1426.74
1023.258	1391.04
1023.548	1386.74
1023.839	1359.85
1024.129	1363.24
1024.419	1360.08
1024.709	1354.88
1025	1343.81
1025.29	1329.34
1025.58	1325.05
1025.87	1314.65
1026.16	1316.69
1026.449	1290.47
1026.739	1294.09
1027.029	1278.95
1027.319	1275.11
1027.608	1280.53
1027.898	1263.36
1028.187	1237.82
1028.477	1266.52
1028.766	1256.35
1029.055	1237.14
1029.344	1245.05
1029.634	1211.15
1029.923	1192.85
1030.212	1198.73
1030.501	1176.35
1030.79	1173.42
1031.078	1172.51
1031.367	1185.17
1031.656	1158.95
1031.945	1135.9
1032.233	1150.59
1032.522	1149.01
1032.81	1121.67
1033.099	1119.86
1033.387	1098.62
1033.675	1123.25
1033.963	1101.1
1034.251	1100.42
1034.54	1081.89
1034.828	1097.94
1035.116	1031.72
1035.403	1042.57
1035.691	1043.93
1035.979	1036.02
1036.267	1036.92
1036.554	1044.38
1036.842	1041.89
1037.129	1036.92
1037.417	1008
1037.704	1030.37
1037.992	994.89
1038.279	1003.48
1038.566	999.18
1038.853	999.18
1039.14	999.18
