Data from hue_60_FLMS001491_9.txt Node
Date: Mon Feb 06 15:11:51 GMT 2017
User: dcchb
Spectrometer: FLMS00149
Trigger mode: 0
Integration Time (sec): 2.000000E-2
Scans to average: 10
Electric dark correction enabled: true
Nonlinearity correction enabled: false
Boxcar width: 0
XAxis mode: Wavelengths
Number of Pixels in Spectrum: 2048
>>>>>Begin Spectral Data<<<<<
341.393	-1.81
341.776	-1.81
342.16	-1.81
342.543	-51.3
342.927	-64.86
343.31	-51.3
343.693	-74.8
344.077	-72.31
344.46	-69.38
344.843	-42.48
345.226	-50.62
345.61	-47.46
345.993	-8.14
346.376	-12.2
346.759	-0.9
347.142	17.85
347.525	45.87
347.908	57.85
348.291	93.56
348.674	104.18
349.057	110.28
349.44	131.52
349.823	150.05
350.206	168.36
350.588	193.22
350.971	213.55
351.354	244.06
351.737	252.87
352.119	255.36
352.502	278.64
352.884	257.17
353.267	303.04
353.65	287.45
354.032	313.44
354.414	310.5
354.797	345.3
355.179	319.99
355.562	313.89
355.944	327
356.326	341.69
356.709	339.65
357.091	331.74
357.473	348.92
357.855	341.69
358.238	343.72
358.62	345.08
359.002	362.25
359.384	355.02
359.766	333.78
360.148	354.79
360.53	316.15
360.912	345.98
361.294	351.4
361.676	328.35
362.057	343.72
362.439	331.97
362.821	325.19
363.203	335.81
363.584	327
363.966	348.24
364.348	322.48
364.729	338.97
365.111	327.68
365.493	317.96
365.874	318.64
366.256	313.89
366.637	328.35
367.019	320.67
367.4	322.03
367.781	310.95
368.163	304.17
368.544	299.88
368.925	307.34
369.306	303.72
369.688	309.82
370.069	313.66
370.45	307.79
370.831	315.02
371.212	312.31
371.593	319.77
371.974	309.6
372.355	323.16
372.736	314.79
373.117	336.49
373.498	332.42
373.879	314.57
374.26	317.73
374.641	329.26
375.021	332.65
375.402	338.75
375.783	329.48
376.163	314.34
376.544	311.63
376.925	339.88
377.305	309.14
377.686	338.97
378.066	327.68
378.447	328.13
378.827	339.88
379.208	333.78
379.588	345.3
379.968	332.87
380.349	361.57
380.729	334
381.109	353.89
381.489	346.43
381.87	346.88
382.25	345.08
382.63	327.9
383.01	332.65
383.39	340.78
383.77	345.98
384.15	365.41
384.53	373.1
384.91	353.44
385.29	370.16
385.67	336.49
386.049	356.37
386.429	332.19
386.809	348.47
387.189	355.7
387.568	337.84
387.948	327.67
388.328	357.73
388.707	343.72
389.087	375.13
389.466	382.14
389.846	359.54
390.225	364.06
390.605	375.81
390.984	374.23
391.363	371.29
391.743	376.26
392.122	377.84
392.501	354.11
392.881	379.43
393.26	374
393.639	366.77
394.018	372.42
394.397	365.41
394.776	369.26
395.155	369.93
395.534	369.03
395.913	375.81
396.292	373.32
396.671	374
397.05	379.2
397.429	394.11
397.808	381.91
398.186	391.4
398.565	391.18
398.944	382.81
399.323	396.15
399.701	420.78
400.08	403.15
400.458	409.03
400.837	406.77
401.215	377.39
401.594	393.89
401.972	392.31
402.351	400.22
402.729	396.37
403.107	401.12
403.486	408.35
403.864	404.06
404.242	403.38
404.62	388.46
404.999	407.67
405.377	417.84
405.755	403.61
406.133	417.39
406.511	418.07
406.889	442.25
407.267	421.23
407.645	399.76
408.023	419.2
408.401	416.71
408.779	442.25
409.156	423.94
409.534	423.94
409.912	450.38
410.29	451.51
410.667	458.07
411.045	455.81
411.422	472.08
411.8	449.71
412.178	456.49
412.555	448.8
412.933	472.3
413.31	468.69
413.687	475.92
414.065	480.21
414.442	481.12
414.819	480.21
415.197	480.67
415.574	487.44
415.951	487.9
416.328	485.86
416.705	501.68
417.082	483.6
417.46	505.52
417.837	494.9
418.214	490.83
418.591	517.95
418.967	512.75
419.344	518.4
419.721	486.54
420.098	495.58
420.475	520.44
420.852	516.37
421.228	524.28
421.605	527.44
421.982	526.99
422.358	552.53
422.735	513.21
423.111	568.35
423.488	543.71
423.864	530.61
424.241	545.97
424.617	548.91
424.994	560.66
425.37	561.12
425.746	567.44
426.123	570.38
426.499	569.93
426.875	577.39
427.251	558.86
427.627	593.43
428.003	598.63
428.379	590.72
428.756	586.43
429.132	575.8
429.507	599.98
429.883	601.34
430.259	604.5
430.635	602.7
431.011	625.29
431.387	617.16
431.763	608.12
432.138	637.5
432.514	616.71
432.89	656.03
433.265	655.58
433.641	668.23
434.016	655.35
434.392	659.64
434.767	668.23
435.143	668.01
435.518	670.04
435.894	686.99
436.269	683.37
436.644	664.16
437.02	708.46
437.395	701.68
437.77	700.77
438.145	724.05
438.52	697.16
438.895	741.68
439.271	726.31
439.646	711.85
440.021	724.95
440.395	728.12
440.77	732.64
441.145	723.14
441.52	743.94
441.895	766.99
442.27	755.91
442.645	761.56
443.019	772.86
443.394	770.6
443.769	792.3
444.143	760.88
444.518	789.13
444.892	788.23
445.267	773.99
445.641	788.91
446.016	832.97
446.39	797.49
446.764	808.11
447.139	804.27
447.513	816.25
447.887	811.5
448.262	834.33
448.636	817.15
449.01	842.46
449.384	830.71
449.758	831.16
450.132	835.68
450.506	850.37
450.88	857.38
451.254	862.35
451.628	881.11
452.002	881.78
452.376	895.57
452.75	903.48
453.123	890.82
453.497	908
453.871	905.51
454.244	922.01
454.618	957.71
454.992	966.98
455.365	940.31
455.739	958.39
456.112	961.56
456.486	989.13
456.859	978.96
457.232	996.36
457.606	979.41
457.979	1030.93
458.352	1012.4
458.725	1072.74
459.099	1056.7
459.472	1070.25
459.845	1075.23
460.218	1071.16
460.591	1081.78
460.964	1091.27
461.337	1076.58
461.71	1111.61
462.083	1147.31
462.456	1170.59
462.829	1151.61
463.201	1206.3
463.574	1205.62
463.947	1209.23
464.32	1234.32
464.692	1224.37
465.065	1255.79
465.438	1279.51
465.81	1278.38
466.183	1303.02
466.555	1330.81
466.928	1346.63
467.3	1370.36
467.672	1387.99
468.045	1428.44
468.417	1430.47
468.789	1447.42
469.161	1443.35
469.534	1505.05
469.906	1543.01
470.278	1561.54
470.65	1558.38
471.022	1626.85
471.394	1624.59
471.766	1663.91
472.138	1698.26
472.51	1718.82
472.882	1764.25
473.253	1786.62
473.625	1830.91
473.997	1855.09
474.369	1918.37
474.74	1948.2
475.112	2001.76
475.484	2072.26
475.855	2114.07
476.227	2173.05
476.598	2222.31
476.97	2262.77
477.341	2348.41
477.713	2413.04
478.084	2457.56
478.455	2551.12
478.827	2599.25
479.198	2688.52
479.569	2740.04
479.94	2827.72
480.311	2889.87
480.682	3022.97
481.053	3113.14
481.424	3219.58
481.795	3265
482.166	3335.05
482.537	3440.59
482.908	3528.27
483.279	3656.18
483.65	3776.4
484.021	3918.09
484.391	3998.99
484.762	4073.11
485.133	4218.65
485.503	4341.13
485.874	4483.05
486.244	4563.5
486.615	4751.74
486.985	4893.43
487.356	5009.13
487.726	5099.98
488.097	5336.13
488.467	5403.02
488.837	5622
489.207	5742.45
489.578	5868.55
489.948	6055.21
490.318	6186.5
490.688	6321.19
491.058	6487.29
491.428	6711.01
491.798	6795.3
492.168	7075.75
492.538	7153.94
492.908	7307.15
493.278	7545.11
493.648	7621.95
494.017	7898.1
494.387	7978.55
494.757	8144.64
495.126	8412.43
495.496	8498.31
495.866	8635.03
496.235	8867.34
496.605	9039.54
496.974	9213.77
497.344	9361.56
497.713	9601.56
498.082	9681.78
498.452	9907.31
498.821	10013.07
499.19	10140.3
499.559	10353.4
499.928	10542.55
500.298	10685.37
500.667	10912.71
501.036	10954.97
501.405	11185.92
501.774	11275.41
502.143	11419.13
502.512	11618.68
502.88	11822.29
503.249	11903.42
503.618	12103.64
503.987	12280.81
504.356	12397.64
504.724	12552.21
505.093	12764.64
505.462	12798.08
505.83	12958.53
506.199	13194
506.567	13369.37
506.936	13497.72
507.304	13665.4
507.672	13855.91
508.041	13990.82
508.409	14159.63
508.777	14313.52
509.145	14519.17
509.514	14581.09
509.882	14745.6
510.25	14909.89
510.618	15103.11
510.986	15175.19
511.354	15360.27
511.722	15599.14
512.09	15668.06
512.458	15782.86
512.826	16047.26
513.193	16146.24
513.561	16286.13
513.929	16330.87
514.297	16599.79
514.664	16720.92
515.032	16839.78
515.4	17028.25
515.767	17126.1
516.135	17394.34
516.502	17284.29
516.869	17609.71
517.237	17760.89
517.604	17875.01
517.972	18053.31
518.339	18160.65
518.706	18241.33
519.073	18370.82
519.44	18553.86
519.808	18904.59
520.175	18837.7
520.542	19120.85
520.909	19206.05
521.276	19312.94
521.643	19545.93
522.009	19658.47
522.376	19848.74
522.743	19983.66
523.11	20270.65
523.477	20455.06
523.843	20614.83
524.21	20842.84
524.577	20951.09
524.943	21055.72
525.31	21137.98
525.676	21417.29
526.043	21548.59
526.409	21719.43
526.776	21862.7
527.142	22050.27
527.508	22140.89
527.874	22345.4
528.241	22373.65
528.607	22509.92
528.973	22767.31
529.339	22805.5
529.705	23060.41
530.071	23263.57
530.437	23314.87
530.803	23473.06
531.169	23653.84
531.535	23525.94
531.901	23745.14
532.267	24017
532.632	24172.25
532.998	24214.28
533.364	24302.64
533.73	24382.41
534.095	24535.63
534.461	24756.19
534.826	24899.46
535.192	25015.84
535.557	25103.75
535.923	25140.58
536.288	25171.99
536.653	25395.26
537.019	25252.9
537.384	25429.61
537.749	25622.38
538.114	25656.73
538.479	25854.69
538.845	25936.04
539.21	25928.58
539.575	25995.7
539.94	26114.12
540.305	26272.53
540.67	26201.34
541.034	26395.69
541.399	26576.93
541.764	26615.35
542.129	26712.52
542.494	26781.89
542.858	26833.19
543.223	26931.95
543.587	27028.44
543.952	27042.23
544.316	27209.91
544.681	27127.42
545.045	27240.19
545.41	27440.63
545.774	27561.54
546.138	27639.73
546.503	27814.18
546.867	27686.5
547.231	27984.12
547.595	27976.67
547.959	28084.69
548.324	28059.38
548.688	28299.82
549.052	28268.64
549.416	28394.51
549.779	28398.8
550.143	28478.35
550.507	28713.6
550.871	28785.68
551.235	28746.59
551.599	29083.3
551.962	29119.01
552.326	29192.45
552.689	29254.82
553.053	29337.53
553.417	29423.18
553.78	29774.81
554.143	29721.25
554.507	29773
554.87	29951.98
555.234	30158.76
555.597	29949.27
555.96	30172.77
556.323	30332.08
556.686	30397.39
557.05	30343.61
557.413	30745.63
557.776	30807.33
558.139	31036.92
558.502	31056.36
558.865	31143.14
559.228	31287.54
559.59	31460.87
559.953	31598.49
560.316	31899.05
560.679	31777.02
561.041	32120.96
561.404	32163.9
561.767	32414.29
562.129	32155.09
562.492	32653.15
562.854	32701.06
563.217	32587.62
563.579	32917.55
563.941	33080.49
564.304	33140.15
564.666	33413.58
565.028	33419.69
565.39	33590.08
565.753	33677.76
566.115	33812.44
566.477	34064.42
566.839	34065.54
567.201	34265.09
567.563	34400.45
567.925	34558.41
568.287	34600.22
568.648	34652.42
569.01	34980.78
569.372	35121.34
569.734	34944.62
570.095	35147.32
570.457	35269.81
570.819	35384.15
571.18	35416.47
571.542	35684.49
571.903	35678.84
572.265	35872.28
572.626	35875.44
572.987	35976.68
573.349	36131.71
573.71	36308.88
574.071	36363.34
574.432	36444.47
574.794	36856.88
575.155	36669.54
575.516	36549.77
575.877	36837.68
576.238	36975.98
576.599	37005.81
576.96	36942.08
577.32	37044.45
577.681	37264.33
578.042	37413.93
578.403	37373.25
578.763	37525.57
579.124	37558.11
579.485	37662.51
579.845	37712.45
580.206	37594.72
580.566	37599.24
580.927	37673.13
581.287	37908.16
581.648	37835.39
582.008	37993.35
582.368	37937.53
582.728	37955.84
583.089	37987.93
583.449	37989.06
583.809	38051.2
584.169	38138.66
584.529	37968.27
584.889	38363.74
585.249	38033.58
585.609	38014.37
585.969	38231.31
586.329	38175.49
586.688	38176.62
587.048	38233.57
587.408	38065.89
587.768	38177.75
588.127	38198.77
588.487	38156.74
588.846	38462.27
589.206	38239.22
589.565	38323.74
589.925	38388.82
590.284	38243.06
590.643	38513.11
591.003	38577.97
591.362	38687.34
591.721	38462.72
592.08	38571.42
592.44	38676.05
592.799	38699.32
593.158	38608.48
593.517	38670.62
593.876	38662.94
594.235	38483.51
594.593	38721.69
594.952	38604.18
595.311	38748.13
595.67	38781.58
596.029	39028.13
596.387	39116.26
596.746	39031.06
597.104	38908.13
597.463	38942.03
597.822	39023.38
598.18	38959.65
598.538	38968.01
598.897	39102.47
599.255	38950.84
599.613	39497.49
599.972	39250.27
600.33	39269.02
600.688	39140.44
601.046	39184.05
601.404	39510.37
601.762	39473.54
602.12	39616.81
602.478	39526.64
602.836	39604.83
603.194	39428.34
603.552	39473.09
603.91	39311.06
604.268	39650.71
604.625	39514.89
604.983	39878.05
605.341	39580.2
605.698	39965.95
606.056	39942
606.413	39998.27
606.771	40052.73
607.128	40207.08
607.485	39991.94
607.843	40018.38
608.2	40218.6
608.557	40253.4
608.914	40258.15
609.272	40536.79
609.629	40512.83
609.986	40766.61
610.343	40545.37
610.7	40937.45
611.057	40840.51
611.414	40819.94
611.771	40962.54
612.127	41061.52
612.484	40908.53
612.841	41164.79
613.198	41053.38
613.554	41193.04
613.911	41274.17
614.267	41390.55
614.624	41318.24
614.98	41431.9
615.337	41582.64
615.693	41480.04
616.05	41406.59
616.406	41703.99
616.762	41598.68
617.118	41592.13
617.475	41740.37
617.831	41823.53
618.187	41769.3
618.543	41842.74
618.899	42118.89
619.255	42081.83
619.611	42067.37
619.967	42333.35
620.323	42289.06
620.678	42207.48
621.034	42217.65
621.39	42241.83
621.746	42081.61
622.101	42570.63
622.457	42290.87
622.812	42406.12
623.168	42225.33
623.523	42372.67
623.879	42633.91
624.234	42402.73
624.589	42561.37
624.945	42565.43
625.3	42576.73
625.655	42613.34
626.01	42766.79
626.365	42670.29
626.72	42466
627.075	42672.55
627.43	42606.34
627.785	42476.85
628.14	42609.73
628.495	42733.79
628.85	42733.79
629.205	42485.89
629.559	42698.76
629.914	42530.86
630.269	42636.39
630.623	42453.12
630.978	42337.42
631.332	42650.63
631.687	42647.47
632.041	42638.2
632.396	42638.65
632.75	42410.86
633.104	42574.25
633.459	42360.92
633.813	42297.42
634.167	42405.66
634.521	42322.5
634.875	42388.26
635.229	42281.6
635.583	42153.92
635.937	42242.51
636.291	42183.3
636.645	42189.85
636.999	42081.61
637.352	42170.87
637.706	42015.62
638.06	42199.12
638.413	42191.21
638.767	41863.31
639.121	42098.55
639.474	41797.77
639.828	41810.2
640.181	42015.39
640.534	41919.58
640.888	41844.55
641.241	41599.13
641.594	41785.57
641.947	41812.69
642.301	41720.03
642.654	41767.94
643.007	41688.17
643.36	41630.54
643.713	41566.14
644.066	41739.69
644.419	41469.87
644.771	41372.92
645.124	40789.66
645.477	40748.08
645.83	40699.04
646.182	40454.53
646.535	40283.69
646.888	40536.56
647.24	40206.17
647.593	40484.59
647.945	40385.83
648.298	40324.14
648.65	40120.53
649.002	40001.21
649.355	40265.83
649.707	40261.77
650.059	40332.72
650.411	40752.83
650.763	40867.85
651.115	41198.46
651.467	41026.94
651.819	41055.64
652.171	40902.65
652.523	41017
652.875	40873.95
653.227	40796.67
653.578	41057
653.93	40770.23
654.282	40686.16
654.633	40639.16
654.985	40781.98
655.337	40691.13
655.688	40688.42
656.039	40860.85
656.391	40420.41
656.742	40467.64
657.094	40435.55
657.445	40550.57
657.796	40452.95
658.147	40486.85
658.498	40532.27
658.849	40641.87
659.2	40428.54
659.551	40409.11
659.902	40450.24
660.253	40345.61
660.604	40446.39
660.955	40361.65
661.306	40617.01
661.656	40399.16
662.007	40349.45
662.358	40365.72
662.708	40365.49
663.059	40334.31
663.409	40156.68
663.76	40498.6
664.11	40377.7
664.461	40306.96
664.811	40284.14
665.161	40375.44
665.511	40226.51
665.862	40251.37
666.212	40263.57
666.562	40351.93
666.912	40200.98
667.262	40288.88
667.612	40288.21
667.962	40200.75
668.312	40234.2
668.662	40370.46
669.011	40165.5
669.361	40167.76
669.711	40134.54
670.06	40133.63
670.41	40005.5
670.76	40091.83
671.109	40127.53
671.459	40029.46
671.808	39887.31
672.157	40010.93
672.507	39859.06
672.856	39817.71
673.205	39915.79
673.554	39906.97
673.904	39830.59
674.253	39916.46
674.602	39766.41
674.951	39311.96
675.3	39106.77
675.649	39724.38
675.998	39755.79
676.346	39704.27
676.695	39799.63
677.044	39513.54
677.393	39657.71
677.741	39704.94
678.09	39507.66
678.438	39557.15
678.787	39625.85
679.135	39500.43
679.484	39246.2
679.832	39536.14
680.181	39192.19
680.529	39378.85
680.877	39263.37
681.225	39098.18
681.573	39436.93
681.922	39248.01
682.27	39109.48
682.618	38999.88
682.966	38993.55
683.314	39047.11
683.661	38953.1
684.009	38738.42
684.357	38606.22
684.705	38612.32
685.053	38669.72
685.4	38566.9
685.748	38481.7
686.095	38415.49
686.443	38318.09
686.79	38257.07
687.138	38215.04
687.485	38300.69
687.832	38125.1
688.18	38203.97
688.527	37874.94
688.874	37832.68
689.221	37872.22
689.568	37701.16
689.915	37658.67
690.262	37622.06
690.609	37663.64
690.956	37334.16
691.303	37352.46
691.65	37220.49
691.997	37258.46
692.344	36999.71
692.69	37058.01
693.037	37032.7
693.383	36719.49
693.73	36905.47
694.077	36610.79
694.423	36631.81
694.769	36438.14
695.116	36401.53
695.462	36353.39
695.808	36216.67
696.155	36402.21
696.501	36020.3
696.847	36178.03
697.193	35871.83
697.539	35998.6
697.885	35696.46
698.231	35624.83
698.577	35619.4
698.923	35569.01
699.269	35394.55
699.614	35204.27
699.96	35187.1
700.306	35233.2
700.651	35097.61
700.997	34927.9
701.342	34904.17
701.688	34987.33
702.033	34781.91
702.379	34724.51
702.724	34628.24
703.069	34773.32
703.415	34385.99
703.76	34439.09
704.105	34333.56
704.45	34225.77
704.795	33978.54
705.14	33974.25
705.485	33894.48
705.83	33693.35
706.175	33803.86
706.52	33576.52
706.865	33593.92
707.209	33536.97
707.554	33421.95
707.899	33576.97
708.243	33335.17
708.588	33210.65
708.932	33090.66
709.277	33016.08
709.621	33044.55
709.966	32814.73
710.31	32922.75
710.654	32602.53
710.998	32725.92
711.342	32577.45
711.687	32533.38
712.031	32404.35
712.375	32328.64
712.719	32466.04
713.063	32290.68
713.407	32351.24
713.75	32300.17
714.094	32130
714.438	32148.76
714.782	32034.19
715.125	31895.66
715.469	31944.7
715.812	31685.72
716.156	31650.47
716.499	31618.6
716.843	31689.56
717.186	31419.96
717.53	31618.38
717.873	31511.71
718.216	31466.29
718.559	31384.71
718.902	31054.55
719.246	31259.74
719.589	31066.98
719.932	31033.08
720.275	31036.47
720.617	31049.35
720.96	30930.71
721.303	30898.17
721.646	30795.35
721.989	30666.31
722.331	30789.92
722.674	30584.73
723.016	30701.79
723.359	30616.14
723.701	30628.57
724.044	30451.4
724.386	30312.65
724.729	30445.75
725.071	30284.18
725.413	30268.36
725.755	30214.57
726.097	30262.26
726.439	30003.5
726.782	30022.71
727.124	30127.57
727.465	29985.43
727.807	29887.12
728.149	29871.76
728.491	29932.09
728.833	29908.37
729.175	29696.85
729.516	29774.13
729.858	29596.74
730.199	29678.32
730.541	29536.17
730.882	29482.84
731.224	29481.71
731.565	29441.03
731.906	29469.73
732.248	29447.59
732.589	29221.38
732.93	29150.87
733.271	29179.57
733.612	29157.43
733.953	29214.15
734.294	28913.36
734.635	29001.27
734.976	29059.12
735.317	28806.02
735.658	28833.14
735.999	28826.36
736.339	28911.78
736.68	28933.48
737.021	28658.91
737.361	28749.3
737.702	28894.16
738.042	28667.95
738.383	28556.09
738.723	28622.52
739.063	28564.9
739.404	28486.03
739.744	28451.91
740.084	28284
740.424	28477.22
740.764	28298.46
741.104	28390.89
741.444	28095.98
741.784	28121.75
742.124	28136.44
742.464	28101.86
742.804	28135.53
743.143	27973.5
743.483	27986.61
743.823	27812.6
744.162	27903
744.502	27750.91
744.841	27736.9
745.181	27768.31
745.52	27739.84
745.86	27713.4
746.199	27567.18
746.538	27530.12
746.877	27564.92
747.216	27536.68
747.556	27436.34
747.895	27440.86
748.234	27341.88
748.573	27208.55
748.911	27245.61
749.25	27215.56
749.589	27067.31
749.928	27125.16
750.267	27066.63
750.605	26973.53
750.944	26965.62
751.283	26939.63
751.621	26907.77
751.96	26657.15
752.298	26746.19
752.636	26849.01
752.975	26670.26
753.313	26618.51
753.651	26755.91
753.989	26546.19
754.327	26466.42
754.666	26365.63
755.004	26350.72
755.342	26402.24
755.679	26358.63
756.017	26199.54
756.355	26249.25
756.693	26097.62
757.031	26275.69
757.368	25966.55
757.706	25922.71
758.044	25790.73
758.381	25834.35
758.719	25721.36
759.056	25754.13
759.394	25685.43
759.731	25579.44
760.068	25459.22
760.405	25374.25
760.743	25276.85
761.08	25335.83
761.417	25203.18
761.754	25103.75
762.091	25066.23
762.428	25004.31
762.765	24750.08
763.102	24977.65
763.438	24804.09
763.775	24637.77
764.112	24573.59
764.449	24630.09
764.785	24447.94
765.122	24397.55
765.458	24240.72
765.795	24251.34
766.131	24247.27
766.467	24066.71
766.804	23892.93
767.14	23954.62
767.476	23845.47
767.812	23704.01
768.148	23739.71
768.485	23575.88
768.821	23525.48
769.157	23523
769.492	23371.81
769.828	23350.35
770.164	23120.97
770.5	23114.87
770.836	23118.94
771.171	22967.76
771.507	22894.31
771.842	22740.19
772.178	22828.33
772.513	22721.89
772.849	22675.34
773.184	22473.53
773.519	22565.51
773.855	22367.32
774.19	22266.08
774.525	22206.2
774.86	22126.65
775.195	22135.92
775.53	22047.1
775.865	21969.37
776.2	21847.56
776.535	21627.23
776.87	21606.44
777.205	21571.64
777.539	21524.18
777.874	21530.51
778.209	21320.12
778.543	21307.46
778.878	21090.97
779.212	21010.52
779.547	20967.36
779.881	21095.72
780.215	20818.21
780.55	20944.99
780.884	20727.59
781.218	20655.95
781.552	20672.9
781.886	20537.77
782.22	20580.93
782.554	20344.78
782.888	20203.76
783.222	20114.73
783.556	20115.63
783.889	20053.71
784.223	19957.89
784.557	19874.51
784.89	19980.04
785.224	19733.27
785.557	19676.54
785.891	19615.53
786.224	19649.43
786.558	19576.89
786.891	19455.08
787.224	19320.4
787.557	19200.63
787.891	19209.21
788.224	19136.9
788.557	19128.99
788.89	19128.54
789.223	19030.91
789.556	18847.87
789.888	18817.13
790.221	18816.23
790.554	18617.59
790.887	18602.9
791.219	18560.42
791.552	18478.16
791.884	18438.61
792.217	18349.8
792.549	18311.83
792.882	18203.82
793.214	18044.5
793.546	18098.73
793.879	17976.25
794.211	17832.3
794.543	17978.74
794.875	17867.78
795.207	17924.05
795.539	17728.8
795.871	17714.56
796.203	17608.8
796.535	17415.81
796.867	17525.87
797.198	17457.62
797.53	17367.23
797.862	17305.08
798.193	17374.91
798.525	17263.73
798.856	17341.69
799.188	17069.61
799.519	16988.48
799.85	17015.15
800.182	17019.89
800.513	16887.01
800.844	16776.28
801.175	16782.61
801.506	16772.67
801.837	16679.56
802.168	16671.2
802.499	16545.55
802.83	16630.52
803.161	16447.93
803.491	16444.99
803.822	16486.12
804.153	16323.41
804.483	16243.41
804.814	16226.24
805.145	16204.09
805.475	16198.44
805.805	16117.09
806.136	16122.06
806.466	16128.16
806.796	16140.59
807.126	15846.14
807.457	15866.25
807.787	15784.67
808.117	15793.71
808.447	15671
808.777	15824.22
809.107	15680.49
809.436	15736.31
809.766	15543.32
810.096	15572.25
810.426	15521.4
810.755	15449.31
811.085	15476.88
811.414	15437.11
811.744	15279.6
812.073	15305.81
812.403	15207.28
812.732	15179.49
813.061	15166.38
813.39	15067.4
813.719	15041.64
814.049	15096.1
814.378	14956.22
814.707	14967.52
815.036	14935.88
815.365	14836.22
815.693	14765.71
816.022	14804.36
816.351	14724.36
816.68	14585.15
817.008	14668.31
817.337	14527.3
817.665	14527.75
817.994	14634.19
818.322	14525.72
818.651	14404.82
818.979	14327.08
819.307	14526.85
819.636	14427.42
819.964	14348.32
820.292	14397.59
820.62	14346.52
820.948	14224.71
821.276	14281.43
821.604	14292.51
821.932	14291.6
822.259	14273.3
822.587	14266.97
822.915	14219.51
823.243	14222
823.57	14117.82
823.898	14275.56
824.225	14171.83
824.553	14169.12
824.88	14131.61
825.207	14251.15
825.535	14087.54
825.862	14223.35
826.189	14124.15
826.516	14203.69
826.843	14249.57
827.17	14235.11
827.497	14217.48
827.824	14173.64
828.151	14186.97
828.478	14166.41
828.805	14193.75
829.131	14108.1
829.458	14080.53
829.785	14113.75
830.111	14112.4
830.438	14186.97
830.764	14163.24
831.09	14203.92
831.417	14036.24
831.743	14158.05
832.069	14148.1
832.395	14169.34
832.722	14143.58
833.048	14013.64
833.374	14073.75
833.7	14081.89
834.026	13972.51
834.351	13997.6
834.677	13946.98
835.003	13997.37
835.329	13996.69
835.654	13878.51
835.98	13903.59
836.306	13916.7
836.631	13912.4
836.956	13959.86
837.282	13933.87
837.607	13863.36
837.932	13722.35
838.258	13824.5
838.583	13847.09
838.908	13699.75
839.233	13702.46
839.558	13651.84
839.883	13625.4
840.208	13549.25
840.533	13643.26
840.858	13614.78
841.182	13623.14
841.507	13531.17
841.832	13455.24
842.156	13522.36
842.481	13452.75
842.805	13478.74
843.13	13475.13
843.454	13314.45
843.778	13312.19
844.103	13294.79
844.427	13230.84
844.751	13302.48
845.075	13224.29
845.399	13192.42
845.723	13136.38
846.047	13123.72
846.371	12989.94
846.695	12943.84
847.019	12955.82
847.343	12896.84
847.666	12754.92
847.99	12725.32
848.313	12765.09
848.637	12636.96
848.96	12617.07
849.284	12603.06
849.607	12471.31
849.931	12408.26
850.254	12367.81
850.577	12232.9
850.9	12297.76
851.223	12218.89
851.546	12169.17
851.869	12010.76
852.192	12106.8
852.515	12000.59
852.838	11988.16
853.161	11933.92
853.483	11859.12
853.806	11913.36
854.129	11909.52
854.451	11772.8
854.774	11695.51
855.096	11750.65
855.419	11620.26
855.741	11729.86
856.063	11589.98
856.385	11641.05
856.708	11525.35
857.03	11491.68
857.352	11547.04
857.674	11425.01
857.996	11393.82
858.318	11334.17
858.64	11339.81
858.961	11314.05
859.283	11220.5
859.605	11204.68
859.926	11227.73
860.248	11118.58
860.57	11124.68
860.891	11135.75
861.212	11140.95
861.534	11005.81
861.855	11010.33
862.176	10994.29
862.498	11015.53
862.819	10999.48
863.14	10921.97
863.461	10935.76
863.782	10848.75
864.103	10849.21
864.424	10901.86
864.745	10850.34
865.065	10776.44
865.386	10734.63
865.707	10746.16
866.027	10770.11
866.348	10700.06
866.668	10727.4
866.989	10693.96
867.309	10614.64
867.63	10651.92
867.95	10715.42
868.27	10505.26
868.59	10650.57
868.91	10582.55
869.23	10524.24
869.55	10500.29
869.87	10524.47
870.19	10480.18
870.51	10555.88
870.83	10435.21
871.15	10433.62
871.469	10444.47
871.789	10409.44
872.109	10447.63
872.428	10362.21
872.748	10374.64
873.067	10376.68
873.386	10324.02
873.706	10305.94
874.025	10287.87
874.344	10264.59
874.663	10274.98
874.982	10225.95
875.301	10234.76
875.62	10190.92
875.939	10165.16
876.258	10188.66
876.577	10125.61
876.896	10139.62
877.214	10172.61
877.533	10114.08
877.852	10166.29
878.17	10016.46
878.489	9985.95
878.807	10133.52
879.125	10020.98
879.444	10042.67
879.762	10019.62
880.08	10050.36
880.398	10040.19
880.716	9947.31
881.034	10017.59
881.352	9858.95
881.67	9895.11
881.988	9880.42
882.306	9874.99
882.624	9836.58
882.941	9759.97
883.259	9778.27
883.577	9713.87
883.894	9670.03
884.212	9667.32
884.529	9682.68
884.846	9638.16
885.164	9658.28
885.481	9565.17
885.798	9677.26
886.115	9514.78
886.432	9535.34
886.75	9495.34
887.067	9477.72
887.383	9443.59
887.7	9441.56
888.017	9449.02
888.334	9404.05
888.651	9394.33
888.967	9354.56
889.284	9241.56
889.6	9285.86
889.917	9171.51
890.233	9176.26
890.55	9260.1
890.866	9280.66
891.182	9151.62
891.498	9169.93
891.815	9123.6
892.131	9078.18
892.447	9099.42
892.763	9044.06
893.079	9050.84
893.395	9002.7
893.71	8876.83
894.026	8909.14
894.342	8899.65
894.657	8853.1
894.973	8842.03
895.289	8811.75
895.604	8893.1
895.92	8802.03
896.235	8653.56
896.55	8698.98
896.865	8664.18
897.181	8666.21
897.496	8612.2
897.811	8566.78
898.126	8599.77
898.441	8500.79
898.756	8458.31
899.071	8447.46
899.386	8448.59
899.7	8362.27
900.015	8328.59
900.33	8340.57
900.644	8312.1
900.959	8339.89
901.273	8257.41
901.588	8214.7
901.902	8177.64
902.216	8173.57
902.531	8163.18
902.845	8110.75
903.159	8097.87
903.473	8005.89
903.787	8020.58
904.101	7989.85
904.415	7978.1
904.729	7912.79
905.042	7904.88
905.356	7925.89
905.67	7838.44
905.984	7856.52
906.297	7831.88
906.611	7746.46
906.924	7734.49
907.237	7786.46
907.551	7678.89
907.864	7704.2
908.177	7626.01
908.491	7603.19
908.804	7550.08
909.117	7533.59
909.43	7453.36
909.743	7478.22
910.056	7410.2
910.368	7409.52
910.681	7313.48
910.994	7293.37
911.307	7343.76
911.619	7203.2
911.932	7258.11
912.244	7213.14
912.557	7206.82
912.869	7117.1
913.181	7154.61
913.494	7140.38
913.806	7070.1
914.118	7026.48
914.43	6987.61
914.742	6980.61
915.054	6970.66
915.366	6899.93
915.678	6921.85
915.99	6866.49
916.302	6824.91
916.613	6861.74
916.925	6784
917.236	6775.42
917.548	6705.59
917.859	6710.11
918.171	6687.51
918.482	6687.73
918.794	6699.94
919.105	6596.89
919.416	6559.38
919.727	6529.09
920.038	6496.78
920.349	6465.82
920.66	6442.32
920.971	6433.5
921.282	6402.54
921.593	6363.22
921.903	6356.67
922.214	6330.68
922.525	6313.51
922.835	6252.26
923.146	6261.53
923.456	6215.43
923.767	6171.36
924.077	6174.98
924.387	6101.31
924.697	6105.83
925.008	6056.11
925.318	6106.28
925.628	6059.28
925.938	6025.83
926.248	6017.92
926.558	5946.51
926.867	5940.86
927.177	5909.9
927.487	5857.93
927.796	5786.97
928.106	5850.24
928.416	5762.56
928.725	5812.28
929.034	5730.92
929.344	5730.92
929.653	5715.56
929.962	5686.63
930.271	5654.09
930.581	5623.35
930.89	5591.49
931.199	5562.57
931.508	5565.05
931.817	5557.37
932.125	5565.05
932.434	5498.61
932.743	5473.3
933.051	5424.72
933.36	5420.65
933.669	5358.96
933.977	5337.26
934.286	5325.51
934.594	5389.91
934.902	5279.86
935.21	5297.49
935.519	5273.99
935.827	5195.8
936.135	5220.65
936.443	5157.83
936.751	5203.03
937.059	5117.15
937.367	5148.34
937.674	5064.05
937.982	5144.05
938.29	5076.02
938.597	5055.01
938.905	4979.98
939.213	5010.49
939.52	4972.98
939.827	4966.88
940.135	4976.82
940.442	4889.81
940.749	4918.06
941.056	4921.23
941.363	4851.17
941.67	4857.73
941.977	4818.86
942.284	4765.75
942.591	4753.77
942.898	4769.59
943.205	4734.79
943.511	4745.19
943.818	4684.62
944.125	4634.91
944.431	4658.18
944.738	4659.54
945.044	4617.73
945.35	4589.26
945.657	4544.97
945.963	4549.94
946.269	4499.99
946.575	4505.19
946.881	4479.2
947.187	4469.94
947.493	4412.99
947.799	4485.31
948.105	4425.87
948.41	4377.96
948.716	4395.14
949.022	4363.28
949.327	4375.93
949.633	4283.28
949.938	4299.32
950.244	4322.15
950.549	4263.84
950.854	4224.07
951.16	4201.7
951.465	4208.02
951.77	4179.78
952.075	4172.32
952.38	4134.81
952.685	4135.03
952.99	4076.05
953.294	4125.54
953.599	4083.73
953.904	4002.38
954.209	4031.53
954.513	4073.79
954.818	3982.95
955.122	3987.01
955.426	3979.33
955.731	3954.92
956.035	3921.48
956.339	3937.75
956.643	3907.47
956.948	3893.68
957.252	3913.12
957.556	3864.08
957.86	3832.89
958.163	3860.46
958.467	3779.79
958.771	3862.95
959.075	3787.47
959.378	3714.25
959.682	3760.35
959.985	3763.74
960.289	3757.87
960.592	3704.76
960.896	3708.38
961.199	3654.59
961.502	3659.11
961.805	3643.07
962.108	3647.36
962.411	3582.73
962.714	3549.74
963.017	3542.05
963.32	3556.06
963.623	3537.76
963.926	3521.94
964.228	3499.57
964.531	3469.06
964.833	3479.91
965.136	3471.77
965.438	3472.68
965.741	3398.55
966.043	3426.8
966.345	3395.16
966.648	3409.85
966.95	3389.52
967.252	3351.32
967.554	3319.46
967.856	3353.36
968.158	3295.73
968.46	3313.13
968.761	3313.36
969.063	3264.55
969.365	3206.47
969.666	3267.26
969.968	3263.19
970.269	3232.23
970.571	3178.9
970.872	3239.69
971.174	3159.69
971.475	3161.05
971.776	3158.56
972.077	3155.62
972.378	3094.61
972.679	3146.81
972.98	3074.04
973.281	3095.51
973.582	3079.92
973.883	3048.51
974.183	3070.65
974.484	3053.93
974.785	2959.92
975.085	3001.95
975.386	2977.32
975.686	2947.72
975.986	2972.58
976.287	2955.4
976.587	2924.22
976.887	2937.78
977.187	2924.89
977.487	2850.55
977.787	2876.99
978.087	2845.35
978.387	2850.77
978.687	2826.14
978.987	2821.17
979.286	2811.23
979.586	2830.43
979.885	2801.73
980.185	2774.62
980.484	2767.61
980.784	2768.74
981.083	2711.12
981.382	2764.67
981.682	2729.42
981.981	2684
982.28	2696.43
982.579	2674.73
982.878	2657.33
983.177	2677.44
983.475	2660.27
983.774	2630.67
984.073	2602.87
984.372	2595.41
984.67	2608.74
984.969	2603.55
985.267	2604.9
985.566	2536.2
985.864	2558.8
986.162	2571.91
986.461	2536.43
986.759	2502.08
987.057	2469.54
987.355	2498.47
987.653	2488.3
987.951	2479.26
988.249	2418.02
988.547	2446.49
988.844	2502.99
989.142	2446.94
989.44	2431.57
989.737	2416.21
990.035	2370.56
990.332	2364.68
990.63	2329.43
990.927	2368.98
991.224	2354.97
991.521	2346.38
991.819	2371.92
992.116	2350.9
992.413	2315.87
992.71	2274.29
993.006	2284.01
993.303	2252.82
993.6	2275.42
993.897	2254.4
994.193	2230.22
994.49	2241.52
994.787	2210.56
995.083	2223.9
995.379	2231.58
995.676	2220.05
995.972	2212.82
996.268	2165.37
996.565	2148.64
996.861	2171.24
997.157	2155.42
997.453	2114.97
997.749	2120.4
998.044	2120.85
998.34	2109.55
998.636	2113.84
998.932	2073.39
999.227	2067.29
999.523	2072.71
999.818	2035.88
1000.114	2050.79
1000.409	2049.89
1000.704	2046.5
1001	2039.72
1001.295	1960.17
1001.59	1967.41
1001.885	1983.68
1002.18	1976.45
1002.475	1952.72
1002.77	1940.51
1003.065	1907.29
1003.359	1933.06
1003.654	1902.77
1003.949	1916.11
1004.243	1889.89
1004.538	1891.25
1004.832	1880.63
1005.127	1875.43
1005.421	1862.1
1005.715	1844.7
1006.009	1842.66
1006.304	1825.04
1006.598	1835.21
1006.892	1793.63
1007.186	1790.46
1007.48	1767.41
1007.773	1767.41
1008.067	1723.8
1008.361	1767.19
1008.655	1715.21
1008.948	1738.49
1009.242	1750.69
1009.535	1701.65
1009.829	1686.96
1010.122	1670.24
1010.415	1691.03
1010.708	1686.96
1011.001	1650.35
1011.295	1666.17
1011.588	1671.37
1011.881	1615.55
1012.173	1611.94
1012.466	1615.55
1012.759	1633.86
1013.052	1594.99
1013.344	1583.91
1013.637	1580.3
1013.93	1563.8
1014.222	1560.64
1014.514	1558.6
1014.807	1540.98
1015.099	1552.73
1015.391	1528.77
1015.683	1513.86
1015.976	1523.12
1016.268	1508.66
1016.56	1489.68
1016.851	1503.01
1017.143	1478.38
1017.435	1439.96
1017.727	1465.72
1018.018	1422.11
1018.31	1444.48
1018.602	1443.58
1018.893	1422.11
1019.185	1379.62
1019.476	1421.21
1019.767	1418.72
1020.058	1395.9
1020.35	1392.96
1020.641	1369.68
1020.932	1377.14
1021.223	1370.59
1021.514	1336.69
1021.804	1321.1
1022.095	1357.25
1022.386	1311.38
1022.677	1290.59
1022.967	1314.99
1023.258	1291.94
1023.548	1279.97
1023.839	1281.77
1024.129	1243.58
1024.419	1277.03
1024.709	1242.91
1025	1258.27
1025.29	1210.36
1025.58	1210.14
1025.87	1209.23
1026.16	1234.54
1026.449	1218.05
1026.739	1210.14
1027.029	1179.4
1027.319	1193.87
1027.608	1169.91
1027.898	1155.22
1028.187	1132.63
1028.477	1142.34
1028.766	1151.61
1029.055	1125.62
1029.344	1121.55
1029.634	1141.66
1029.923	1084.94
1030.212	1098.5
1030.501	1105.51
1030.79	1087.66
1031.078	1110.93
1031.367	1077.71
1031.656	1068.67
1031.945	1053.76
1032.233	1091.72
1032.522	1051.95
1032.81	1031.61
1033.099	1039.97
1033.387	1027.77
1033.675	1032.52
1033.963	1008.79
1034.251	1028
1034.54	993.19
1034.828	1015.11
1035.116	982.57
1035.403	980.09
1035.691	986.19
1035.979	990.26
1036.267	967.21
1036.554	963.14
1036.842	973.53
1037.129	964.04
1037.417	939.41
1037.704	931.27
1037.992	954.55
1038.279	915.46
1038.566	916.13
1038.853	916.13
1039.14	916.13
