Data from hue_150_FLMS001491_00021.txt Node
Date: Tue Feb 07 16:53:48 GMT 2017
User: dcchb
Spectrometer: FLMS00149
Trigger mode: 0
Integration Time (sec): 2.000000E-2
Scans to average: 10
Electric dark correction enabled: true
Nonlinearity correction enabled: false
Boxcar width: 0
XAxis mode: Wavelengths
Number of Pixels in Spectrum: 2048
>>>>>Begin Spectral Data<<<<<
341.393	-4.89
341.776	-4.89
342.16	-4.89
342.543	-41.5
342.927	-63.87
343.31	-75.17
343.693	-79.46
344.077	-65.68
344.46	-57.31
344.843	-44.43
345.226	-35.17
345.61	-23.64
345.993	-4.66
346.376	-21.61
346.759	17.49
347.142	41.44
347.525	31.72
347.908	43.7
348.291	79.4
348.674	103.13
349.057	90.25
349.44	125.51
349.823	134.54
350.206	148.56
350.588	171.83
350.971	225.62
351.354	231.72
351.737	239.63
352.119	271.72
352.502	244.6
352.884	285.5
353.267	286.4
353.65	277.82
354.032	305.84
354.414	299.74
354.797	338.61
355.179	319.62
355.562	325.95
355.944	309.68
356.326	321.88
356.709	343.13
357.091	328.21
357.473	343.13
357.855	336.35
358.238	330.7
358.62	334.99
359.002	337.03
359.384	341.09
359.766	336.35
360.148	333.64
360.53	358.49
360.912	351.49
361.294	342.9
361.676	324.37
362.057	346.06
362.439	340.41
362.821	328.89
363.203	318.49
363.584	331.6
363.966	326.4
364.348	336.35
364.729	321.43
365.111	336.8
365.493	314.2
365.874	317.36
366.256	316.91
366.637	313.97
367.019	326.4
367.4	325.73
367.781	316.46
368.163	322.34
368.544	305.39
368.925	323.01
369.306	336.12
369.688	314.88
370.069	314.43
370.45	315.56
370.831	312.17
371.212	314.65
371.593	296.12
371.974	316.69
372.355	327.99
372.736	313.52
373.117	318.49
373.498	314.2
373.879	321.88
374.26	310.13
374.641	319.62
375.021	315.33
375.402	322.34
375.783	329.79
376.163	338.38
376.544	341.32
376.925	326.4
377.305	331.15
377.686	344.26
378.066	320.53
378.447	341.77
378.827	327.53
379.208	343.58
379.588	335.22
379.968	338.61
380.349	338.15
380.729	332.05
381.109	345.16
381.489	334.54
381.87	362.79
382.25	362.34
382.63	361.43
383.01	366.63
383.39	343.8
383.77	356.69
384.15	327.08
384.53	353.52
384.91	358.04
385.29	357.36
385.67	352.62
386.049	353.3
386.429	353.97
386.809	365.95
387.189	375.22
387.568	361.66
387.948	361.43
388.328	367.76
388.707	390.58
389.087	388.78
389.466	376.8
389.846	356.23
390.225	406.4
390.605	375.22
390.984	396.68
391.363	389
391.743	380.64
392.122	384.03
392.501	391.71
392.881	390.81
393.26	388.32
393.639	396.46
394.018	392.84
394.397	393.97
394.776	386.29
395.155	391.71
395.534	389.45
395.913	369.79
396.292	396.01
396.671	403.92
397.05	398.72
397.429	398.94
397.808	386.06
398.186	425.38
398.565	411.83
398.944	403.46
399.323	379.96
399.701	412.05
400.08	437.14
400.458	424.93
400.837	433.07
401.215	432.84
401.594	427.87
401.972	432.39
402.351	412.96
402.729	412.05
403.107	431.94
403.486	441.88
403.864	458.38
404.242	428.77
404.62	443.24
404.999	449.34
405.377	457.93
405.755	452.73
406.133	455.89
406.511	448.89
406.889	461.32
407.267	448.21
407.645	459.51
408.023	460.86
408.401	476.23
408.779	471.71
409.156	458.6
409.534	459.06
409.912	486.63
410.29	482.11
410.667	491.37
411.045	488.21
411.422	510.35
411.8	494.99
412.178	492.95
412.555	503.57
412.933	503.12
413.31	516.23
413.687	525.04
414.065	510.81
414.442	521.43
414.819	536.12
415.197	547.41
415.574	532.95
415.951	532.73
416.328	544.7
416.705	560.52
417.082	527.08
417.46	537.02
417.837	578.6
418.214	554.19
418.591	549.22
418.967	565.27
419.344	586.06
419.721	555.32
420.098	540.64
420.475	561.2
420.852	578.15
421.228	603.91
421.605	580.63
421.982	605.94
422.358	594.42
422.735	602.33
423.111	607.75
423.488	605.27
423.864	615.89
424.241	610.46
424.617	637.81
424.994	636
425.37	625.83
425.746	644.59
426.123	632.84
426.499	641.88
426.875	650.92
427.251	658.37
427.627	658.82
428.003	669.22
428.379	679.61
428.756	669.9
429.132	703.12
429.507	685.26
429.883	701.54
430.259	693.63
430.635	715.55
431.011	694.3
431.387	743.57
431.763	740.86
432.138	727.3
432.514	697.47
432.89	739.5
433.265	752.83
433.641	753.06
434.016	748.09
434.392	778.37
434.767	770.01
435.143	810.01
435.518	786.73
435.894	780.86
436.269	809.78
436.644	816.33
437.02	812.94
437.395	838.93
437.77	855.43
438.145	840.74
438.52	870.12
438.895	849.78
439.271	835.32
439.646	891.59
440.021	866.95
440.395	883.68
440.77	899.5
441.145	905.37
441.52	930
441.895	915.31
442.27	922.09
442.645	911.47
443.019	920.96
443.394	931.13
443.769	942.21
444.143	934.75
444.518	959.83
444.892	954.86
445.267	971.81
445.641	961.64
446.016	974.3
446.39	1002.32
446.764	998.48
447.139	1005.93
447.513	977.23
447.887	1000.51
448.262	1007.97
448.636	1018.36
449.01	1039.83
449.384	1027.4
449.758	1066.95
450.132	1046.38
450.506	1064.01
450.88	1085.25
451.254	1065.14
451.628	1097.46
452.002	1110.11
452.376	1104.01
452.75	1108.08
453.123	1105.59
453.497	1149.43
453.871	1137.23
454.244	1181.52
454.618	1172.26
454.992	1177.23
455.365	1220.39
455.739	1214.74
456.112	1224.69
456.486	1269.88
456.859	1266.94
457.232	1280.05
457.606	1271.92
457.979	1261.29
458.352	1312.37
458.725	1331.12
459.099	1329.99
459.472	1345.36
459.845	1380.39
460.218	1365.02
460.591	1427.39
460.964	1397.34
461.337	1439.59
461.71	1491.34
462.083	1470.55
462.456	1492.47
462.829	1491.34
463.201	1547.84
463.574	1514.17
463.947	1571.57
464.32	1591
464.692	1598.91
465.065	1628.74
465.438	1657.22
465.81	1694.28
466.183	1701.96
466.555	1717.78
466.928	1788.06
467.3	1741.51
467.672	1824.67
468.045	1847.27
468.417	1863.31
468.789	1872.35
469.161	1861.96
469.534	1935.4
469.906	1984.44
470.278	2015.85
470.65	2036.64
471.022	2101.72
471.394	2118.9
471.766	2204.77
472.138	2172.01
472.51	2209.97
472.882	2273.25
473.253	2299.91
473.625	2374.94
473.997	2426.24
474.369	2469.17
474.74	2485.9
475.112	2544.42
475.484	2623.07
475.855	2692.67
476.227	2720.01
476.598	2810.18
476.97	2846.34
477.341	2916.39
477.713	2972.44
478.084	3062.15
478.455	3104.86
478.827	3171.98
479.198	3299.66
479.569	3349.6
479.94	3496.94
480.311	3548.24
480.682	3689.25
481.053	3809.02
481.424	3865.75
481.795	3946.2
482.166	4018.28
482.537	4095.12
482.908	4258.73
483.279	4336.47
483.65	4468.44
484.021	4605.39
484.391	4650.13
484.762	4787.3
485.133	4864.14
485.503	4964.25
485.874	5150.23
486.244	5286.05
486.615	5376.21
486.985	5498.92
487.356	5653.95
487.726	5732.59
488.097	5959.7
488.467	6013.94
488.837	6246.02
489.207	6365.79
489.578	6531.66
489.948	6623.41
490.318	6775.95
490.688	6816.4
491.058	6947.92
491.428	7139.78
491.798	7252.32
492.168	7505.88
492.538	7547.91
492.908	7709.49
493.278	7892.98
493.648	7976.82
494.017	8142.24
494.387	8272.18
494.757	8379.75
495.126	8554.21
495.496	8615.9
495.866	8796.46
496.235	8845.73
496.605	8973.18
496.974	9111.26
497.344	9222.22
497.713	9370.01
498.082	9424.47
498.452	9649.32
498.821	9604.35
499.19	9777
499.559	9965.02
499.928	10050.67
500.298	10112.14
500.667	10209.99
501.036	10290.66
501.405	10427.61
501.774	10438.23
502.143	10606.59
502.512	10695.85
502.88	10808.61
503.249	10758.45
503.618	10948.27
503.987	10991.43
504.356	11105.78
504.724	11089.28
505.093	11242.95
505.462	11258.09
505.83	11370.63
506.199	11425.77
506.567	11583.51
506.936	11581.48
507.304	11762.04
507.672	11815.14
508.041	11774.92
508.409	11943.95
508.777	12050.39
509.145	12120.44
509.514	12136.71
509.882	12225.3
510.25	12264.62
510.618	12328.12
510.986	12371.06
511.354	12430.04
511.722	12573.09
512.09	12664.38
512.458	12568.57
512.826	12744.61
513.193	12664.38
513.561	12808.34
513.929	12780.54
514.297	12840.2
514.664	12986.41
515.032	12981.21
515.4	13106.18
515.767	13121.77
516.135	13232.73
516.502	13101.44
516.869	13205.39
517.237	13284.93
517.604	13221.66
517.972	13316.8
518.339	13349.79
518.706	13477.92
519.073	13353.63
519.44	13441.99
519.808	13559.95
520.175	13526.96
520.542	13658.26
520.909	13748.65
521.276	13701.87
521.643	13770.34
522.009	13857.57
522.376	13892.6
522.743	13781.87
523.11	13884.47
523.477	14029.32
523.843	14036.55
524.21	14139.15
524.577	14154.97
524.943	14245.13
525.31	14128.75
525.676	14366.26
526.043	14306.83
526.409	14346.6
526.776	14404.68
527.142	14390.89
527.508	14391.12
527.874	14447.84
528.241	14492.13
528.607	14452.81
528.973	14552.7
529.339	14443.55
529.705	14562.41
530.071	14603.99
530.437	14566.93
530.803	14599.7
531.169	14712.24
531.535	14527.39
531.901	14531
532.267	14530.1
532.632	14674.5
532.998	14595.63
533.364	14619.36
533.73	14563.54
534.095	14695.52
534.461	14687.16
534.826	14699.36
535.192	14641.96
535.557	14666.59
535.923	14622.75
536.288	14581.4
536.653	14588.4
537.019	14586.82
537.384	14571.68
537.749	14520.15
538.114	14497.56
538.479	14531.23
538.845	14460.95
539.21	14430.21
539.575	14393.15
539.94	14459.82
540.305	14421.4
540.67	14314.96
541.034	14372.59
541.399	14313.15
541.764	14233.61
542.129	14313.38
542.494	14272.25
542.858	14207.39
543.223	14238.13
543.587	14196.1
543.952	14231.8
544.316	14072.48
544.681	14080.62
545.045	14069.09
545.41	14084.01
545.774	14042.65
546.138	13999.04
546.503	13998.59
546.867	13970.34
547.231	13953.62
547.595	13902.77
547.959	13825.94
548.324	13867.97
548.688	13864.13
549.052	13860.96
549.416	13837.24
549.779	13821.19
550.143	13766.05
550.507	13816.9
550.871	13739.84
551.235	13650.12
551.599	13740.51
551.962	13661.19
552.326	13676.79
552.689	13622.1
553.053	13605.6
553.417	13625.26
553.78	13766.5
554.143	13588.88
554.507	13618.71
554.87	13544.14
555.234	13578.26
555.597	13461.43
555.96	13448.09
556.323	13471.14
556.686	13492.84
557.05	13548.88
557.413	13503.01
557.776	13473.18
558.139	13504.36
558.502	13476.79
558.865	13481.31
559.228	13544.81
559.59	13512.05
559.953	13516.11
560.316	13584.36
560.679	13634.53
561.041	13598.82
561.404	13596.56
561.767	13687.18
562.129	13555.43
562.492	13677.24
562.854	13587.52
563.217	13565.6
563.579	13674.3
563.941	13642.89
564.304	13669.33
564.666	13746.84
565.028	13596.56
565.39	13729.22
565.753	13731.02
566.115	13816.44
566.477	13814.86
566.839	13868.19
567.201	13811.92
567.563	13818.48
567.925	13916.1
568.287	13855.31
568.648	13874.97
569.01	13968.98
569.372	13918.81
569.734	13876.1
570.095	13911.13
570.457	14029.32
570.819	14018.02
571.18	14060.96
571.542	14131.92
571.903	14002.2
572.265	14070.9
572.626	14087.62
572.987	13984.12
573.349	14061.86
573.71	14105.02
574.071	14148.64
574.432	14202.42
574.794	14221.86
575.155	14118.13
575.516	14145.7
575.877	14204.01
576.238	14171.01
576.599	14244.68
576.96	14161.97
577.32	14290.1
577.681	14246.72
578.042	14240.61
578.403	14314.96
578.763	14250.11
579.124	14275.19
579.485	14233.38
579.845	14392.47
580.206	14292.59
580.566	14327.84
580.927	14293.95
581.287	14325.58
581.648	14329.43
582.008	14382.53
582.368	14349.09
582.728	14327.62
583.089	14339.82
583.449	14266.6
583.809	14287.39
584.169	14313.83
584.529	14194.06
584.889	14333.27
585.249	14274.29
585.609	14240.39
585.969	14309.76
586.329	14242.87
586.688	14264.79
587.048	14253.95
587.408	14099.38
587.768	14160.16
588.127	14190.22
588.487	14130.79
588.846	14264.57
589.206	14105.93
589.565	14197
589.925	14182.31
590.284	14150.22
590.643	14187.73
591.003	14232.25
591.362	14253.95
591.721	14136.21
592.08	14153.61
592.44	14171.69
592.799	14168.53
593.158	14170.33
593.517	14093.5
593.876	14077.91
594.235	14139.15
594.593	14161.52
594.952	14140.05
595.311	14138.24
595.67	14114.29
596.029	14145.25
596.387	14159.94
596.746	14254.63
597.104	14135.08
597.463	14043.78
597.822	14144.35
598.18	14069.77
598.538	14032.94
598.897	14102.54
599.255	14004.46
599.613	14152.93
599.972	14076.1
600.33	14167.4
600.688	14009.89
601.046	14168.3
601.404	14122.2
601.762	14141.41
602.12	14158.36
602.478	14117.91
602.836	14076.32
603.194	14077.91
603.552	14180.73
603.91	14050.11
604.268	14100.5
604.625	14045.14
604.983	14158.58
605.341	14045.37
605.698	14114.06
606.056	14163.1
606.413	14025.48
606.771	14161.29
607.128	14178.92
607.485	14122.43
607.843	14104.35
608.2	14187.96
608.557	14194.74
608.914	14159.71
609.272	14203.1
609.629	14261.86
609.986	14271.8
610.343	14230.45
610.7	14223.89
611.057	14255.98
611.414	14189.09
611.771	14299.82
612.127	14323.32
612.484	14369.42
612.841	14340.95
613.198	14250.56
613.554	14315.41
613.911	14389.31
614.267	14421.85
614.624	14341.18
614.98	14302.99
615.337	14408.97
615.693	14364.9
616.05	14325.58
616.406	14520.38
616.762	14418.91
617.118	14441.06
617.475	14489.42
617.831	14485.13
618.187	14415.75
618.543	14461.63
618.899	14533.04
619.255	14554.5
619.611	14578.23
619.967	14561.06
620.323	14579.14
620.678	14525.35
621.034	14561.06
621.39	14512.92
621.746	14528.52
622.101	14679.92
622.457	14569.65
622.812	14571
623.168	14617.78
623.523	14559.02
623.879	14639.25
624.234	14475.41
624.589	14637.67
624.945	14632.24
625.3	14597.89
625.655	14564
626.01	14570.55
626.365	14563.09
626.72	14563.77
627.075	14550.66
627.43	14497.33
627.785	14525.35
628.14	14527.84
628.495	14529.42
628.85	14487.39
629.205	14455.98
629.559	14537.1
629.914	14444
630.269	14424.79
630.623	14393.83
630.978	14438.35
631.332	14488.52
631.687	14530.32
632.041	14295.75
632.396	14428.63
632.75	14243.55
633.104	14441.74
633.459	14329.2
633.813	14300.5
634.167	14237
634.521	14292.36
634.875	14279.03
635.229	14282.87
635.583	14174.18
635.937	14220.95
636.291	14226.15
636.645	14185.02
636.999	14246.94
637.352	14169.2
637.706	14140.73
638.06	14105.93
638.413	14090.56
638.767	14081.75
639.121	14100.5
639.474	14097.34
639.828	13997.68
640.181	14046.04
640.534	14129.2
640.888	14052.6
641.241	13981.19
641.594	14007.4
641.947	14069.77
642.301	14015.31
642.654	13989.1
643.007	13952.94
643.36	14021.64
643.713	13948.42
644.066	14000.85
644.419	13870.91
644.771	13791.59
645.124	13630.46
645.477	13613.74
645.83	13564.02
646.182	13419.39
646.535	13396.12
646.888	13460.97
647.24	13356.12
647.593	13511.59
647.945	13471.59
648.298	13482.89
648.65	13425.95
649.002	13348.66
649.355	13480.63
649.707	13464.14
650.059	13504.14
650.411	13614.87
650.763	13607.18
651.115	13760.63
651.467	13817.12
651.819	13735.77
652.171	13735.99
652.523	13636.34
652.875	13747.75
653.227	13611.93
653.578	13816.44
653.93	13715.88
654.282	13649.67
654.633	13626.85
654.985	13685.15
655.337	13691.7
655.688	13706.62
656.039	13708.42
656.391	13600.86
656.742	13602.89
657.094	13708.2
657.445	13742.77
657.796	13664.81
658.147	13636.34
658.498	13626.17
658.849	13648.77
659.2	13615.77
659.551	13706.17
659.902	13794.75
660.253	13657.58
660.604	13683.57
660.955	13666.39
661.306	13725.15
661.656	13731.93
662.007	13690.8
662.358	13660.97
662.708	13693.28
663.059	13612.38
663.409	13637.01
663.76	13745.49
664.11	13710.91
664.461	13696.22
664.811	13690.35
665.161	13667.07
665.511	13697.8
665.862	13685.6
666.212	13706.39
666.562	13692.61
666.912	13773.51
667.262	13713.62
667.612	13743.9
667.962	13731.48
668.312	13736.22
668.662	13662.1
669.011	13713.4
669.361	13671.59
669.711	13696.9
670.06	13601.08
670.41	13688.54
670.76	13704.81
671.109	13658.93
671.459	13674.53
671.808	13542.33
672.157	13620.07
672.507	13545.49
672.856	13592.5
673.205	13553.85
673.554	13585.49
673.904	13521.54
674.253	13631.14
674.602	13622.1
674.951	13375.1
675.3	13293.07
675.649	13616
675.998	13468.21
676.346	13447.41
676.695	13478.6
677.044	13425.27
677.393	13491.71
677.741	13439.05
678.09	13382.11
678.438	13399.28
678.787	13437.92
679.135	13373.29
679.484	13329.23
679.832	13288.32
680.181	13279.06
680.529	13292.84
680.877	13254.2
681.225	13270.47
681.573	13267.53
681.922	13225.5
682.27	13187.53
682.618	13174.88
682.966	13137.37
683.314	13124.94
683.661	13185.73
684.009	13084.71
684.357	13075.9
684.705	13026.18
685.053	13024.38
685.4	13052.17
685.748	12967.2
686.095	12757.49
686.443	12840.65
686.79	12840.2
687.138	12930.37
687.485	12900.08
687.832	12765.62
688.18	12825.74
688.527	12724.95
688.874	12691.73
689.221	12675.91
689.568	12586.19
689.915	12650.83
690.262	12574.67
690.609	12600.88
690.956	12500.77
691.303	12540.77
691.65	12451.06
691.997	12435.69
692.344	12299.87
692.69	12298.29
693.037	12282.47
693.383	12207
693.73	12184.85
694.077	12060.33
694.423	12134
694.769	12033.44
695.116	11993.67
695.462	11969.04
695.808	11994.12
696.155	11958.87
696.501	11886.1
696.847	11845.87
697.193	11811.3
697.539	11759.55
697.885	11715.03
698.231	11699.44
698.577	11674.35
698.923	11608.82
699.269	11534.47
699.614	11466.9
699.96	11442.5
700.306	11416.73
700.651	11394.59
700.997	11380.8
701.342	11333.57
701.688	11263.74
702.033	11194.14
702.379	11280.24
702.724	11198.66
703.069	11110.75
703.415	11100.81
703.76	11084.09
704.105	11030.53
704.45	11011.77
704.795	10969.51
705.14	10950.31
705.485	11023.3
705.83	10833.47
706.175	10873.25
706.52	10853.13
706.865	10768.62
707.209	10774.04
707.554	10757.32
707.899	10759.35
708.243	10658.79
708.588	10602.07
708.932	10649.3
709.277	10572.24
709.621	10546.25
709.966	10486.59
710.31	10517.32
710.654	10469.19
710.998	10452.24
711.342	10462.41
711.687	10365.24
712.031	10383.09
712.375	10226.93
712.719	10352.13
713.063	10358.46
713.407	10389.87
713.75	10307.38
714.094	10353.03
714.438	10225.58
714.782	10246.82
715.125	10142.64
715.469	10160.5
715.812	10123.66
716.156	10053.83
716.499	10060.16
716.843	10132.47
717.186	10009.09
717.53	10089.31
717.873	10009.09
718.216	10093.15
718.559	10003.89
718.902	9930.9
719.246	9919.82
719.589	9884.12
719.932	9852.03
720.275	9896.32
720.617	9823.33
720.96	9848.64
721.303	9847.51
721.646	9921.18
721.989	9797.12
722.331	9833.95
722.674	9757.34
723.016	9833.5
723.359	9826.49
723.701	9839.6
724.044	9788.75
724.386	9712.6
724.729	9763.44
725.071	9802.99
725.413	9712.82
725.755	9724.12
726.097	9620.17
726.439	9653.62
726.782	9640.28
727.124	9753.95
727.465	9684.12
727.807	9651.81
728.149	9637.12
728.491	9579.27
728.833	9638.7
729.175	9647.06
729.516	9594.86
729.858	9630.57
730.199	9623.11
730.541	9627.63
730.882	9603.67
731.224	9641.41
731.565	9506.28
731.906	9547.4
732.248	9647.51
732.589	9566.16
732.93	9531.81
733.271	9562.77
733.612	9581.08
733.953	9580.4
734.294	9511.93
734.635	9509.44
734.976	9538.14
735.317	9466.28
735.658	9514.64
735.999	9469.21
736.339	9500.85
736.68	9560.96
737.021	9553.96
737.361	9490.46
737.702	9526.16
738.042	9572.04
738.383	9551.7
738.723	9542.21
739.063	9571.13
739.404	9532.72
739.744	9515.54
740.084	9563
740.424	9497.91
740.764	9503.34
741.104	9624.24
741.444	9600.96
741.784	9463.56
742.124	9617.23
742.464	9628.98
742.804	9605.71
743.143	9640.28
743.483	9771.35
743.823	9636.67
744.162	9644.35
744.502	9697.68
744.841	9738.59
745.181	9762.99
745.52	9753.5
745.86	9750.11
746.199	9884.34
746.538	9843.44
746.877	9979.03
747.216	10029.2
747.556	10033.27
747.895	10059.93
748.234	10005.25
748.573	10174.05
748.911	10186.94
749.25	10287.72
749.589	10254.05
749.928	10409.75
750.267	10468.74
750.605	10558
750.944	10547.15
751.283	10579.47
751.621	10728.39
751.96	10675.06
752.298	10823.53
752.636	10992.11
752.975	10989.4
753.313	11027.37
753.651	11126.8
753.989	11238.66
754.327	11304.87
754.666	11430.97
755.004	11559.55
755.342	11710.51
755.679	11800.9
756.017	11924.97
756.355	12062.59
756.693	12230.72
757.031	12306.2
757.368	12373.09
757.706	12548.23
758.044	12748.9
758.381	12891.95
758.719	13013.98
759.056	13160.42
759.394	13372.84
759.731	13324.03
760.068	13572.38
760.405	13639.73
760.743	13757.46
761.08	14022.31
761.417	14112.03
761.754	14225.25
762.091	14510.89
762.428	14626.14
762.765	14648.97
763.102	14954.49
763.438	15002.4
763.775	15149.06
764.112	15447.36
764.449	15515.83
764.785	15557.64
765.122	15789.27
765.458	15809.61
765.795	16039.44
766.131	16151.75
766.467	16283.27
766.804	16390.61
767.14	16575.02
767.476	16635.81
767.812	16686.43
768.148	17057.26
768.485	16985.17
768.821	17129.13
769.157	17286.86
769.492	17350.14
769.828	17531.15
770.164	17534.76
770.5	17650.92
770.836	17697.92
771.171	17793.74
771.507	17988.54
771.842	17961.19
772.178	17997.8
772.513	18160.74
772.849	18258.14
773.184	18278.47
773.519	18365.7
773.855	18453.84
774.19	18453.38
774.525	18534.06
774.86	18669.88
775.195	18713.49
775.53	18809.53
775.865	18712.81
776.2	18673.72
776.535	18661.29
776.87	18868.97
777.205	18817.9
777.539	18867.61
777.874	19080.04
778.209	18887.72
778.543	18879.59
778.878	18862.87
779.212	18937.21
779.547	18934.95
779.881	19103.31
780.215	19000.26
780.55	19145.34
780.884	19125.23
781.218	19072.13
781.552	19056.31
781.886	18988.29
782.22	18944.67
782.554	19002.3
782.888	18916.88
783.222	18929.76
783.556	18922.53
783.889	18909.87
784.223	18803.43
784.557	18855.18
784.89	18911.45
785.224	18812.25
785.557	18767.27
785.891	18811.12
786.224	18904.22
786.558	18738.35
786.891	18739.25
787.224	18679.82
787.557	18628.07
787.891	18700.38
788.224	18669.65
788.557	18695.19
788.89	18610.22
789.223	18651.35
789.556	18574.96
789.888	18670.1
790.221	18593.49
790.554	18404.57
790.887	18394.86
791.219	18374.06
791.552	18391.24
791.884	18323.67
792.217	18314.41
792.549	18311.24
792.882	18195.99
793.214	18093.62
793.546	18320.28
793.879	17993.28
794.211	18048.88
794.543	18173.39
794.875	18116.22
795.207	18067.86
795.539	17917.13
795.871	17934.3
796.203	17882.78
796.535	17684.37
796.867	17747.87
797.198	17728.21
797.53	17727.53
797.862	17662.45
798.193	17620.41
798.525	17517.14
798.856	17500.42
799.188	17394.66
799.519	17376.8
799.85	17222.68
800.182	17307.88
800.513	17405.05
800.844	17123.25
801.175	17286.18
801.506	17209.12
801.837	17130.03
802.168	17182.91
802.499	17075.34
802.83	17020.65
803.161	16882.58
803.491	16915.12
803.822	16960.54
804.153	16790.38
804.483	16765.29
804.814	16622.25
805.145	16654.56
805.475	16764.62
805.805	16588.8
806.136	16679.19
806.466	16662.47
806.796	16606.88
807.126	16528.24
807.457	16495.02
807.787	16483.49
808.117	16333.21
808.447	16409.14
808.777	16417.51
809.107	16369.37
809.436	16260.67
809.766	16212.09
810.096	16199.88
810.426	16145.87
810.755	16151.3
811.085	16138.87
811.414	16129.83
811.744	15979.55
812.073	15974.58
812.403	16022.94
812.732	15887.35
813.061	15897.52
813.39	15768.94
813.719	15794.47
814.049	15847.35
814.378	15790.86
814.707	15720.58
815.036	15656.62
815.365	15697.98
815.693	15583.86
816.022	15609.17
816.351	15487.59
816.68	15522.61
817.008	15518.55
817.337	15375.05
817.665	15286.46
817.994	15373.92
818.322	15402.62
818.651	15297.54
818.979	15264.32
819.307	15312.9
819.636	15277.65
819.964	15162.62
820.292	15234.71
820.62	15210.53
820.948	15162.4
821.276	15256.18
821.604	15180.02
821.932	15125.34
822.259	15177.99
822.587	15178.67
822.915	15099.12
823.243	15133.7
823.57	15109.52
823.898	15137.99
824.225	15112.68
824.553	15076.75
824.88	15075.17
825.207	15196.52
825.535	15089.41
825.862	15131.66
826.189	15081.5
826.516	15171.89
826.843	15221.83
827.17	15118.78
827.497	15217.76
827.824	15204.88
828.151	15247.82
828.478	15207.59
828.805	15301.6
829.131	15152.68
829.458	15218.67
829.785	15125.11
830.111	15231.77
830.438	15213.24
830.764	15197.43
831.09	15198.33
831.417	15044.43
831.743	15165.56
832.069	15137.77
832.395	14995.17
832.722	15165.34
833.048	15103.42
833.374	15026.36
833.7	15013.25
834.026	15116.3
834.351	15052.57
834.677	15069.75
835.003	15015.51
835.329	15052.12
835.654	15064.77
835.98	14941.16
836.306	15081.95
836.631	14962.63
836.956	14954.95
837.282	15002.18
837.607	14909.52
837.932	14865.23
838.258	14938
838.583	14843.31
838.908	14694.16
839.233	14706.59
839.558	14733.71
839.883	14765.57
840.208	14674.05
840.533	14694.84
840.858	14709.98
841.182	14718.57
841.507	14674.5
841.832	14596.31
842.156	14507.27
842.481	14490.1
842.805	14524.9
843.13	14427.05
843.454	14500.49
843.778	14412.81
844.103	14305.47
844.427	14276.55
844.751	14323.1
845.075	14226.38
845.399	14187.73
845.723	14107.06
846.047	14007.17
846.371	14081.97
846.695	14030.22
847.019	13937.8
847.343	13841.98
847.666	13785.94
847.99	13705.49
848.313	13683.11
848.637	13648.99
848.96	13686.28
849.284	13549.78
849.607	13511.14
849.931	13406.29
850.254	13417.36
850.577	13334.88
850.9	13242.67
851.223	13203.81
851.546	13111.38
851.869	12970.37
852.192	13133.3
852.515	13009.69
852.838	12984.15
853.161	12947.54
853.483	12917.71
853.806	12835.45
854.129	12780.09
854.451	12717.04
854.774	12757.04
855.096	12712.52
855.419	12647.21
855.741	12608.57
856.063	12536.03
856.385	12539.87
856.708	12450.83
857.03	12385.07
857.352	12340.55
857.674	12414.22
857.996	12328.35
858.318	12321.79
858.64	12303.26
858.961	12203.83
859.283	12130.39
859.605	12093.78
859.926	12142.36
860.248	12030.5
860.57	12036.15
860.891	12081.57
861.212	11936.27
861.534	11925.65
861.855	11933.1
862.176	11880.68
862.498	11844.97
862.819	11938.08
863.14	11865.76
863.461	11806.55
863.782	11775.14
864.103	11815.37
864.424	11773.33
864.745	11764.3
865.065	11718.87
865.386	11724.75
865.707	11698.53
866.027	11684.52
866.348	11702.15
866.668	11567.46
866.989	11569.05
867.309	11491.31
867.63	11500.57
867.95	11476.17
868.27	11563.85
868.59	11466.68
868.91	11449.95
869.23	11447.92
869.55	11337.87
869.87	11427.58
870.19	11322.27
870.51	11466.9
870.83	11422.84
871.15	11308.04
871.469	11305.32
871.789	11358.43
872.109	11257.87
872.428	11209.51
872.748	11278.21
873.067	11250.41
873.386	11299.22
873.706	11244.99
874.025	11033.69
874.344	11075.73
874.663	11170.86
874.982	11139.9
875.301	11134.03
875.62	11131.54
875.939	11104.88
876.258	11021.94
876.577	11023.98
876.896	11049.96
877.214	11052.45
877.533	10996.63
877.852	10937.88
878.17	11043.18
878.489	10978.1
878.807	10938.33
879.125	10967.48
879.444	10818.33
879.762	10936.07
880.08	10850.65
880.398	10842.96
880.716	10823.98
881.034	10818.11
881.352	10756.19
881.67	10760.03
881.988	10755.51
882.306	10679.58
882.624	10636.19
882.941	10583.99
883.259	10592.8
883.577	10556.19
883.894	10544.21
884.212	10564.1
884.529	10488.62
884.846	10517.77
885.164	10446.14
885.481	10441.84
885.798	10421.05
886.115	10328.63
886.432	10423.99
886.75	10387.16
887.067	10376.08
887.383	10226.03
887.7	10271
888.017	10203.66
888.334	10252.92
888.651	10151
888.967	10219.7
889.284	10142.42
889.6	10092.02
889.917	10035.75
890.233	10018.35
890.55	10041.85
890.866	10051.8
891.182	9980.61
891.498	9900.62
891.815	9867.17
892.131	9898.58
892.447	9835.53
892.763	9803.67
893.079	9786.04
893.395	9802.54
893.71	9758.02
894.026	9726.38
894.342	9708.76
894.657	9603
894.973	9653.39
895.289	9552.15
895.604	9545.37
895.92	9569.78
896.235	9391.7
896.55	9471.25
896.865	9441.19
897.181	9400.74
897.496	9357.58
897.811	9333.4
898.126	9250.69
898.441	9325.26
898.756	9235.77
899.071	9187.87
899.386	9174.53
899.7	9082.11
900.015	9068.32
900.33	8965.27
900.644	8955.78
900.959	8984.26
901.273	9043.24
901.588	8943.58
901.902	8883.69
902.216	8857.03
902.531	8850.7
902.845	8789.01
903.159	8739.74
903.473	8701.32
903.787	8657.26
904.101	8660.2
904.415	8685.28
904.729	8569.12
905.042	8560.31
905.356	8573.19
905.67	8478.51
905.984	8481.22
906.297	8469.69
906.611	8432.41
906.924	8364.84
907.237	8410.26
907.551	8330.49
907.864	8255.69
908.177	8266.76
908.491	8205.97
908.804	8133.43
909.117	8103.83
909.43	8104.05
909.743	8042.13
910.056	8041.23
910.368	7960.78
910.681	7962.14
910.994	7943.83
911.307	7892.98
911.619	7865.19
911.932	7860.22
912.244	7801.91
912.557	7802.14
912.869	7702.93
913.181	7691.63
913.494	7719.2
913.806	7636.72
914.118	7654.8
914.43	7575.25
914.742	7549.94
915.054	7491.19
915.366	7454.58
915.678	7444.63
915.99	7397.18
916.302	7397.63
916.613	7310.18
916.925	7373.22
917.236	7291.64
917.548	7284.41
917.859	7213.68
918.171	7263.17
918.482	7177.07
918.794	7122.61
919.105	7093.46
919.416	7037.87
919.727	7074.25
920.038	7062.5
920.349	6994.93
920.66	6985.89
920.971	6941.6
921.282	6927.59
921.593	6908.38
921.903	6826.12
922.214	6861.83
922.525	6840.58
922.835	6790.87
923.146	6763.75
923.456	6748.61
923.767	6662.06
924.077	6653.24
924.387	6616.86
924.697	6618.67
925.008	6581.61
925.318	6562.4
925.628	6563.3
925.938	6498.22
926.248	6460.48
926.558	6426.13
926.867	6417.77
927.177	6419.8
927.487	6356.75
927.796	6318.79
928.106	6339.81
928.416	6312.91
928.725	6264.55
929.034	6256.87
929.344	6303.65
929.653	6211.9
929.962	6171.67
930.271	6091
930.581	6095.29
930.89	6070.66
931.199	6081.51
931.508	6052.35
931.817	6059.81
932.125	5967.16
932.434	6008.29
932.743	5933.71
933.051	5958.57
933.36	5860.04
933.669	5839.03
933.977	5819.59
934.286	5815.3
934.594	5795.64
934.902	5735.98
935.21	5772.59
935.519	5726.04
935.827	5702.76
936.135	5689.2
936.443	5635.42
936.751	5588.86
937.059	5598.36
937.367	5514.52
937.674	5634.06
937.982	5545.25
938.29	5583.67
938.597	5536.21
938.905	5468.42
939.213	5461.86
939.52	5372.15
939.827	5399.26
940.135	5374.41
940.442	5355.2
940.749	5315.88
941.056	5316.56
941.363	5288.99
941.67	5222.09
941.977	5220.51
942.284	5232.04
942.591	5171.25
942.898	5164.02
943.205	5161.3
943.511	5110.91
943.818	5118.14
944.125	5076.34
944.431	5108.2
944.738	5064.58
945.044	5013.29
945.35	5001.31
945.657	4950.01
945.963	4946.17
946.269	4952.27
946.575	4935.55
946.881	4914.98
947.187	4864.82
947.493	4859.84
947.799	4802.22
948.105	4835.89
948.41	4769.45
948.716	4781.2
949.022	4760.19
949.327	4727.42
949.633	4656.23
949.938	4696.23
950.244	4676.8
950.549	4641.54
950.854	4586.18
951.16	4634.99
951.465	4560.64
951.77	4608.55
952.075	4533.52
952.38	4498.27
952.685	4475.22
952.99	4457.14
953.294	4476.35
953.599	4430.7
953.904	4380.31
954.209	4368.11
954.513	4378.95
954.818	4319.97
955.122	4377.82
955.426	4273.19
955.731	4298.05
956.035	4279.29
956.339	4255.57
956.643	4311.61
956.948	4237.26
957.252	4226.64
957.556	4208.56
957.86	4173.76
958.163	4214.66
958.467	4162.91
958.771	4165.62
959.075	4115.23
959.378	4090.37
959.682	4050.6
959.985	4054.44
960.289	4072.97
960.592	4051.05
960.896	4041.33
961.199	4035.91
961.502	4007.44
961.805	3965.86
962.108	3958.85
962.411	3912.98
962.714	3878.85
963.017	3901.45
963.32	3941.22
963.623	3830.94
963.926	3873.43
964.228	3789.82
964.531	3767.9
964.833	3791.4
965.136	3746.88
965.438	3752.3
965.741	3762.25
966.043	3754.79
966.345	3701
966.648	3679.31
966.95	3671.17
967.252	3659.65
967.554	3629.37
967.856	3641.57
968.158	3625.53
968.46	3615.36
968.761	3575.81
969.063	3562.93
969.365	3597.5
969.666	3569.26
969.968	3512.99
970.269	3532.65
970.571	3506.89
970.872	3480.67
971.174	3462.82
971.475	3436.15
971.776	3445.42
972.077	3400
972.378	3378.75
972.679	3395.93
972.98	3344.4
973.281	3352.99
973.582	3323.39
973.883	3338.08
974.183	3300.56
974.484	3324.52
974.785	3318.64
975.085	3241.13
975.386	3281.13
975.686	3288.36
975.986	3234.12
976.287	3224.18
976.587	3207.91
976.887	3170.4
977.187	3127.23
977.487	3170.85
977.787	3169.94
978.087	3151.41
978.387	3138.08
978.687	3109.61
978.987	3115.48
979.286	3111.64
979.586	3092.43
979.885	3054.47
980.185	3066.9
980.484	3016.05
980.784	3032.32
981.083	3042.49
981.382	2986.22
981.682	2978.31
981.981	2941.02
982.28	2934.24
982.579	2906
982.878	2930.18
983.177	2929.73
983.475	2882.27
983.774	2812.44
984.073	2875.04
984.372	2817.64
984.67	2809.28
984.969	2848.6
985.267	2792.1
985.566	2769.5
985.864	2785.32
986.162	2770.18
986.461	2763.85
986.759	2743.52
987.057	2723.63
987.355	2716.85
987.653	2684.31
987.951	2670.3
988.249	2708.04
988.547	2691.31
988.844	2688.38
989.142	2636.85
989.44	2644.99
989.737	2643.63
990.035	2652.44
990.332	2585.1
990.63	2582.16
990.927	2569.51
991.224	2554.59
991.521	2551.66
991.819	2529.96
992.116	2503.97
992.413	2550.98
992.71	2475.27
993.006	2515.5
993.303	2476.63
993.6	2501.71
993.897	2453.81
994.193	2461.94
994.49	2443.41
994.787	2396.18
995.083	2442.73
995.379	2422.62
995.676	2391.66
995.972	2390.3
996.268	2340.36
996.565	2355.96
996.861	2302.17
997.157	2336.29
997.453	2324.32
997.749	2315.73
998.044	2296.75
998.34	2292.23
998.636	2276.64
998.932	2278.22
999.227	2228.27
999.523	2248.84
999.818	2237.99
1000.114	2208.16
1000.409	2200.93
1000.704	2182.85
1001	2167.71
1001.295	2155.73
1001.59	2153.47
1001.885	2147.37
1002.18	2097.66
1002.475	2122.51
1002.77	2089.07
1003.065	2102.18
1003.359	2078.22
1003.654	2080.93
1003.949	2079.13
1004.243	2070.99
1004.538	2086.58
1004.832	2027.15
1005.127	2014.27
1005.421	1979.69
1005.715	1980.82
1006.009	1977.66
1006.304	1959.36
1006.598	1950.99
1006.892	1944.89
1007.186	1939.47
1007.48	1946.02
1007.773	1869.87
1008.067	1886.59
1008.361	1889.3
1008.655	1891.79
1008.948	1880.49
1009.242	1864.89
1009.535	1845.01
1009.829	1840.04
1010.122	1852.69
1010.415	1779.02
1010.708	1792.13
1011.001	1786.48
1011.295	1776.76
1011.588	1764.78
1011.881	1748.97
1012.173	1776.08
1012.466	1756.87
1012.759	1743.77
1013.052	1727.5
1013.344	1728.63
1013.637	1692.24
1013.93	1706.25
1014.222	1691.34
1014.514	1674.62
1014.807	1666.71
1015.099	1639.59
1015.391	1670.78
1015.683	1635.3
1015.976	1630.55
1016.268	1648.18
1016.56	1599.59
1016.851	1570.21
1017.143	1572.47
1017.435	1566.82
1017.727	1572.92
1018.018	1578.57
1018.31	1556.65
1018.602	1550.1
1018.893	1503.1
1019.185	1502.19
1019.476	1514.85
1019.767	1506.26
1020.058	1474.85
1020.35	1486.15
1020.641	1478.69
1020.932	1462.65
1021.223	1446.6
1021.514	1442.08
1021.804	1449.31
1022.095	1433.49
1022.386	1410.22
1022.677	1382.2
1022.967	1394.4
1023.258	1404.57
1023.548	1355.3
1023.839	1351.24
1024.129	1362.31
1024.419	1355.3
1024.709	1381.52
1025	1328.64
1025.29	1337
1025.58	1291.12
1025.87	1308.98
1026.16	1293.61
1026.449	1287.96
1026.739	1289.32
1027.029	1301.75
1027.319	1247.06
1027.608	1279.83
1027.898	1244.8
1028.187	1244.12
1028.477	1224.91
1028.766	1239.6
1029.055	1210.67
1029.344	1210.67
1029.634	1198.47
1029.923	1189.88
1030.212	1199.83
1030.501	1174.97
1030.79	1188.75
1031.078	1177.91
1031.367	1170.45
1031.656	1140.17
1031.945	1148.53
1032.233	1137.46
1032.522	1109.66
1032.81	1123.67
1033.099	1111.69
1033.387	1086.61
1033.675	1118.47
1033.963	1097.46
1034.251	1080.28
1034.54	1069.66
1034.828	1080.96
1035.116	1052.03
1035.403	1064.01
1035.691	1054.29
1035.979	1052.71
1036.267	1029.66
1036.554	1041.87
1036.842	1017.91
1037.129	1034.41
1037.417	1009.1
1037.704	1007.52
1037.992	958.03
1038.279	973.62
1038.566	991.25
1038.853	991.25
1039.14	991.25
