Data from hue_300_FLMS001491_00014.txt Node
Date: Tue Feb 07 15:50:22 GMT 2017
User: dcchb
Spectrometer: FLMS00149
Trigger mode: 0
Integration Time (sec): 2.000000E-2
Scans to average: 10
Electric dark correction enabled: true
Nonlinearity correction enabled: false
Boxcar width: 0
XAxis mode: Wavelengths
Number of Pixels in Spectrum: 2048
>>>>>Begin Spectral Data<<<<<
341.393	-13.98
341.776	-13.98
342.16	-13.98
342.543	-56.69
342.927	-57.82
343.31	-64.6
343.693	-61.21
344.077	-40.65
344.46	-53.76
344.843	-49.91
345.226	-52.63
345.61	-35.23
345.993	-19.18
346.376	7.49
346.759	-7.88
347.142	25.56
347.525	40.71
347.908	68.95
348.291	57.88
348.674	81.38
349.057	103.08
349.44	130.42
349.823	150.76
350.206	176.75
350.588	169.52
350.971	211.1
351.354	216.75
351.737	213.81
352.119	234.82
352.502	252.45
352.884	272.79
353.267	282.73
353.65	285.22
354.032	289.51
354.414	300.81
354.797	336.97
355.179	336.29
355.562	305.33
355.944	330.87
356.326	331.54
356.709	314.14
357.091	327.48
357.473	342.17
357.855	325.9
358.238	333.58
358.62	332.9
359.002	325.9
359.384	336.29
359.766	333.13
360.148	343.75
360.53	329.06
360.912	345.56
361.294	330.42
361.676	334.71
362.057	328.16
362.439	319.34
362.821	300.81
363.203	340.81
363.584	328.16
363.966	341.49
364.348	338.1
364.729	333.58
365.111	335.84
365.493	312.79
365.874	343.07
366.256	317.99
366.637	322.28
367.019	322.73
367.4	334.26
367.781	301.72
368.163	312.34
368.544	304.65
368.925	317.08
369.306	322.73
369.688	296.97
370.069	315.95
370.45	286.57
370.831	292.9
371.212	314.82
371.593	317.99
371.974	306.91
372.355	311.66
372.736	319.79
373.117	325.22
373.498	321.83
373.879	319.79
374.26	340.58
374.641	296.07
375.021	306.23
375.402	290.87
375.783	305.33
376.163	336.74
376.544	321.15
376.925	340.36
377.305	328.38
377.686	304.43
378.066	337.42
378.447	327.25
378.827	328.38
379.208	329.74
379.588	319.12
379.968	323.64
380.349	331.54
380.729	332
381.109	315.27
381.489	310.98
381.87	335.39
382.25	337.42
382.63	320.7
383.01	342.84
383.39	320.25
383.77	342.39
384.15	352.56
384.53	337.65
384.91	346.46
385.29	322.73
385.67	347.14
386.049	374.03
386.429	338.55
386.809	368.83
387.189	341.94
387.568	332.9
387.948	370.41
388.328	339.45
388.707	320.25
389.087	350.75
389.466	348.04
389.846	355.73
390.225	364.31
390.605	358.66
390.984	337.65
391.363	356.18
391.743	378.55
392.122	358.66
392.501	363.86
392.881	359.34
393.26	364.54
393.639	371.32
394.018	366.35
394.397	394.82
394.776	377.65
395.155	386.68
395.534	373.58
395.913	372.45
396.292	380.13
396.671	367.48
397.05	355.95
397.429	374.71
397.808	393.92
398.186	416.29
398.565	397.08
398.944	379.68
399.323	392.11
399.701	396.63
400.08	398.89
400.458	396.4
400.837	384.88
401.215	403.63
401.594	385.33
401.972	412.22
402.351	401.83
402.729	401.15
403.107	390.75
403.486	423.29
403.864	414.71
404.242	414.03
404.62	423.52
404.999	434.37
405.377	453.8
405.755	429.17
406.133	428.94
406.511	399.11
406.889	447.47
407.267	437.98
407.645	428.49
408.023	454.93
408.401	461.94
408.779	480.02
409.156	464.87
409.534	447.93
409.912	477.76
410.29	496.29
410.667	463.07
411.045	492.9
411.422	519.79
411.8	505.78
412.178	508.72
412.555	527.47
412.933	517.98
413.31	571.31
413.687	556.17
414.065	554.14
414.442	571.09
414.819	587.81
415.197	556.85
415.574	611.31
415.951	586.45
416.328	571.76
416.705	611.76
417.082	628.03
417.46	623.97
417.837	627.13
418.214	653.8
418.591	635.94
418.967	649.5
419.344	660.35
419.721	667.81
420.098	679.78
420.475	677.3
420.852	694.93
421.228	709.39
421.605	699.22
421.982	723.17
422.358	711.2
422.735	745.32
423.111	740.57
423.488	729.73
423.864	753.23
424.241	767.24
424.617	753.68
424.994	773.57
425.37	796.17
425.746	794.58
426.123	802.49
426.499	777.63
426.875	792.32
427.251	809.95
427.627	844.3
428.003	831.19
428.379	866.67
428.756	867.35
429.132	866.67
429.507	879.55
429.883	900.34
430.259	899.89
430.635	909.61
431.011	939.89
431.387	946.9
431.763	928.14
432.138	957.74
432.514	987.35
432.89	959.33
433.265	969.72
433.641	976.05
434.016	983.51
434.392	1033
434.767	1021.7
435.143	1054.24
435.518	1064.86
435.894	1036.39
436.269	1097.63
436.644	1072.99
437.02	1131.07
437.395	1115.48
437.77	1118.19
438.145	1117.96
438.52	1139.89
438.895	1111.41
439.271	1143.05
439.646	1154.12
440.021	1164.52
440.395	1152.99
440.77	1175.59
441.145	1182.14
441.52	1186.89
441.895	1212.43
442.27	1217.62
442.645	1197.06
443.019	1196.61
443.394	1222.14
443.769	1235.25
444.143	1213.56
444.518	1217.85
444.892	1222.37
445.267	1239.32
445.641	1232.99
446.016	1243.61
446.39	1280.22
446.764	1258.07
447.139	1279.32
447.513	1269.15
447.887	1272.31
448.262	1275.93
448.636	1270.73
449.01	1281.8
449.384	1266.21
449.758	1287
450.132	1312.99
450.506	1332.42
450.88	1319.77
451.254	1317.73
451.628	1350.28
452.002	1353.21
452.376	1348.24
452.75	1355.47
453.123	1346.43
453.497	1399.54
453.871	1360.9
454.244	1377.39
454.618	1403.83
454.992	1389.37
455.365	1410.39
455.739	1423.72
456.112	1432.31
456.486	1409.26
456.859	1433.66
457.232	1489.93
457.606	1463.04
457.979	1504.4
458.352	1500.33
458.725	1502.36
459.099	1509.59
459.472	1520.89
459.845	1560.67
460.218	1537.84
460.591	1555.69
460.964	1552.98
461.337	1587.11
461.71	1610.38
462.083	1615.58
462.456	1563.83
462.829	1631.17
463.201	1602.92
463.574	1624.62
463.947	1651.74
464.32	1662.13
464.692	1648.8
465.065	1673.43
465.438	1696.25
465.81	1716.37
466.183	1700.77
466.555	1732.19
466.928	1714.11
467.3	1726.99
467.672	1767.21
468.045	1801.34
468.417	1792.07
468.789	1787.33
469.161	1784.61
469.534	1803.6
469.906	1850.6
470.278	1835.01
470.65	1865.29
471.022	1890.83
471.394	1908
471.766	1916.81
472.138	1912.29
472.51	1950.49
472.882	1964.72
473.253	1998.85
473.625	1997.26
473.997	2012.63
474.369	2018.96
474.74	2050.6
475.112	2087.43
475.484	2093.31
475.855	2127.88
476.227	2132.18
476.598	2170.14
476.97	2169.46
477.341	2186.86
477.713	2197.94
478.084	2212.63
478.455	2273.87
478.827	2291.49
479.198	2320.65
479.569	2310.02
479.94	2384.82
480.311	2370.14
480.682	2392.96
481.053	2449.91
481.424	2445.16
481.795	2491.71
482.166	2491.49
482.537	2528.32
482.908	2554.76
483.279	2546.4
483.65	2578.04
484.021	2616.23
484.391	2650.13
484.762	2634.31
485.133	2704.82
485.503	2710.69
485.874	2716.79
486.244	2709.11
486.615	2748.88
486.985	2773.97
487.356	2792.95
487.726	2797.47
488.097	2853.29
488.467	2904.36
488.837	2905.26
489.207	2932.61
489.578	2967.86
489.948	2965.83
490.318	3000.85
490.688	2997.24
491.058	2997.92
491.428	3108.2
491.798	3085.37
492.168	3117.91
492.538	3122.21
492.908	3122.21
493.278	3176.22
493.648	3144.58
494.017	3206.72
494.387	3226.16
494.757	3225.71
495.126	3262.32
495.496	3260.96
495.866	3236.1
496.235	3345.48
496.605	3317.91
496.974	3329.21
497.344	3333.27
497.713	3387.06
498.082	3405.36
498.452	3390.45
498.821	3399.03
499.19	3408.53
499.559	3413.27
499.928	3435.64
500.298	3447.17
500.667	3472.25
501.036	3436.32
501.405	3478.58
501.774	3451.24
502.143	3512.48
502.512	3509.99
502.88	3524.91
503.249	3526.04
503.618	3525.59
503.987	3589.76
504.356	3561.74
504.724	3568.52
505.093	3583.89
505.462	3608.75
505.83	3611.91
506.199	3626.6
506.567	3624.79
506.936	3665.02
507.304	3743.88
507.672	3700.27
508.041	3711.34
508.409	3688.07
508.777	3711.57
509.145	3711.12
509.514	3698.91
509.882	3740.49
510.25	3778.46
510.618	3717.9
510.986	3774.62
511.354	3768.29
511.722	3806.93
512.09	3831.34
512.458	3780.04
512.826	3859.14
513.193	3825.24
513.561	3835.63
513.929	3840.15
514.297	3828.63
514.664	3898.68
515.032	3887.38
515.4	3914.05
515.767	3890.77
516.135	3878.8
516.502	3938
516.869	3902.98
517.237	3921.73
517.604	3918.34
517.972	3942.3
518.339	3961.73
518.706	3948.17
519.073	3979.13
519.44	3981.84
519.808	4020.49
520.175	3975.97
520.542	4045.8
520.909	3979.58
521.276	4046.93
521.643	4042.18
522.009	4083.31
522.376	4082.18
522.743	4071.79
523.11	4125.12
523.477	4136.19
523.843	4132.35
524.21	4189.07
524.577	4204.89
524.943	4252.35
525.31	4236.98
525.676	4248.5
526.043	4254.15
526.409	4280.59
526.776	4265.45
527.142	4286.47
527.508	4329.86
527.874	4366.24
528.241	4361.27
528.607	4342.51
528.973	4411.21
529.339	4330.99
529.705	4467.93
530.071	4464.54
530.437	4508.16
530.803	4535.05
531.169	4509.74
531.535	4458.67
531.901	4514.03
532.267	4563.98
532.632	4554.26
532.998	4579.34
533.364	4582.28
533.73	4590.64
534.095	4617.99
534.461	4651.66
534.826	4690.98
535.192	4679.23
535.557	4724.65
535.923	4687.14
536.288	4764.65
536.653	4746.8
537.019	4729.85
537.384	4749.06
537.749	4777.3
538.114	4807.36
538.479	4823.18
538.845	4834.7
539.21	4836.29
539.575	4881.71
539.94	4878.54
540.305	4894.59
540.67	4914.7
541.034	4907.47
541.399	4970.29
541.764	4975.26
542.129	4982.04
542.494	4978.88
542.858	5026.11
543.223	5064.3
543.587	5080.57
543.952	5123.51
544.316	5149.05
544.681	5110.63
545.045	5156.05
545.41	5179.1
545.774	5179.55
546.138	5159.67
546.503	5240.79
546.867	5229.04
547.231	5320.79
547.595	5281.7
547.959	5327.12
548.324	5308.14
548.688	5287.35
549.052	5362.37
549.416	5350.4
549.779	5347.46
550.143	5375.48
550.507	5431.98
550.871	5397.4
551.235	5481.24
551.599	5475.82
551.962	5439.89
552.326	5495.93
552.689	5529.83
553.053	5511.07
553.417	5503.16
553.78	5557.4
554.143	5555.81
554.507	5588.58
554.87	5637.39
555.234	5637.39
555.597	5623.38
555.96	5606.43
556.323	5676.49
556.686	5616.15
557.05	5686.43
557.413	5748.13
557.776	5703.16
558.139	5752.87
558.502	5731.85
558.865	5765.3
559.228	5809.82
559.59	5862.7
559.953	5755.58
560.316	5835.36
560.679	5883.26
561.041	5897.73
561.404	5914.67
561.767	5943.6
562.129	5934.56
562.492	5960.32
562.854	5968.46
563.217	5942.47
563.579	6000.1
563.941	6004.39
564.304	6022.92
564.666	6066.99
565.028	6072.41
565.39	6099.3
565.753	6163.03
566.115	6104.05
566.477	6155.57
566.839	6172.97
567.201	6215.23
567.563	6171.62
567.925	6272.86
568.287	6247.1
568.648	6243.93
569.01	6275.12
569.372	6302.24
569.734	6285.51
570.095	6363.7
570.457	6407.32
570.819	6440.76
571.18	6443.7
571.542	6507.2
571.903	6582
572.265	6493.64
572.626	6623.81
572.987	6641.66
573.349	6603.02
573.71	6737.93
574.071	6722.79
574.432	6820.64
574.794	6905.38
575.155	6827.19
575.516	6843.24
575.877	6985.83
576.238	7043.01
576.599	7125.49
576.96	7130.46
577.32	7260.18
577.681	7299.5
578.042	7392.6
578.403	7462.43
578.763	7551.02
579.124	7667.85
579.485	7760.5
579.845	7809.09
580.206	7908.07
580.566	8017.22
580.927	8132.92
581.287	8279.81
581.648	8371.79
582.008	8522.29
582.368	8646.13
582.728	8737.88
583.089	8890.87
583.449	9127.25
583.809	9290.41
584.169	9477.75
584.529	9605.2
584.889	9816.95
585.249	9943.72
585.609	10147.33
585.969	10344.39
586.329	10539.86
586.688	10823.25
587.048	10947.31
587.408	11221.43
587.768	11447.64
588.127	11627.75
588.487	11933.95
588.846	12194.51
589.206	12417.78
589.565	12651.45
589.925	13018.89
590.284	13177.53
590.643	13530.29
591.003	13778.2
591.362	14070.62
591.721	14388.8
592.08	14619.3
592.44	14896.36
592.799	15212.51
593.158	15446.63
593.517	15732.04
593.876	16005.26
594.235	16329.77
594.593	16636.43
594.952	16997.77
595.311	17197.09
595.67	17633.91
596.029	17925.88
596.387	18168.59
596.746	18568.58
597.104	18750.5
597.463	19078.4
597.822	19390.48
598.18	19606.97
598.538	19855.78
598.897	20295.31
599.255	20485.59
599.613	21121.28
599.972	21158.12
600.33	21589.29
600.688	21674.49
601.046	21960.13
601.404	22319.67
601.762	22616.16
602.12	23030.61
602.478	23313.99
602.836	23573.87
603.194	23679.63
603.552	24030.81
603.91	24188.77
604.268	24559.83
604.625	24814.52
604.983	25185.81
605.341	25164.79
605.698	25664.89
606.056	25858.11
606.413	26108.49
606.771	26377.41
607.128	26534.7
607.485	26825.31
607.843	27047.68
608.2	27344.62
608.557	27595.91
608.914	27717.27
609.272	28122.9
609.629	28252.84
609.986	28556.57
610.343	28657.58
610.7	28925.14
611.057	29062.54
611.414	29242.88
611.771	29498.91
612.127	29736.2
612.484	29898.23
612.841	30263.41
613.198	30176.86
613.554	30392.45
613.911	30813.23
614.267	30916.05
614.624	31030.62
614.98	31137.51
615.337	31435.36
615.693	31523.49
616.05	31736.82
616.406	32025.17
616.762	31964.84
617.118	32139.52
617.475	32324.6
617.831	32583.35
618.187	32660.64
618.543	32749.9
618.899	33069.89
619.255	33057.01
619.611	33136.33
619.967	33290
620.323	33598.47
620.678	33483.89
621.034	33558.69
621.39	33628.52
621.746	33713.49
622.101	34189.86
622.457	33987.16
622.812	34128.85
623.168	34379.46
623.523	34454.72
623.879	34421.5
624.234	34505.11
624.589	34716.4
624.945	34745.56
625.3	34846.57
625.655	34799.57
626.01	34978.32
626.365	35123.85
626.72	35098.77
627.075	35203.4
627.43	35265.32
627.785	35199.33
628.14	35333.56
628.495	35477.29
628.85	35446.33
629.205	35313
629.559	35630.96
629.914	35503.28
630.269	35583.27
630.623	35488.13
630.978	35538.98
631.332	35780.33
631.687	35788.92
632.041	35680.22
632.396	35745.76
632.75	35723.16
633.104	35710.28
633.459	35658.07
633.813	35757.05
634.167	35722.03
634.521	35776.49
634.875	35871.4
635.229	35896.71
635.583	35721.57
635.937	35767
636.291	35830.72
636.645	35756.38
636.999	35799.76
637.352	35851.51
637.706	35825.75
638.06	35889.03
638.413	35842.02
638.767	35696.49
639.121	35906.2
639.474	35585.08
639.828	35766.77
640.181	35737.85
640.534	35935.81
640.888	35787.56
641.241	35544.63
641.594	35685.64
641.947	35844.28
642.301	35732.2
642.654	35772.42
643.007	35710.73
643.36	35757.73
643.713	35637.28
644.066	35864.62
644.419	35524.29
644.771	35315.71
645.124	35110.74
645.477	35033.23
645.83	34900.81
646.182	34711.66
646.535	34737.42
646.888	34835.04
647.24	34641.38
647.593	34723.18
647.945	34711.43
648.298	34583.3
648.65	34590.98
649.002	34481.83
649.355	34591.66
649.707	34577.2
650.059	34890.18
650.411	35254.92
650.763	35176.5
651.115	35636.61
651.467	35421.7
651.819	35435.03
652.171	35318.42
652.523	35355.03
652.875	35431.64
653.227	35204.53
653.578	35540.11
653.93	35375.6
654.282	35352.32
654.633	35133.12
654.985	35360.45
655.337	35378.08
655.688	35387.57
656.039	35378.99
656.391	35040.46
656.742	35263.51
657.094	35236.16
657.445	35453.56
657.796	35322.04
658.147	35211.31
658.498	35187.58
658.849	35145.77
659.2	35352.55
659.551	35144.19
659.902	35232.77
660.253	35134.92
660.604	35211.31
660.955	35019.45
661.306	35270.51
661.656	35100.35
662.007	35084.08
662.358	35190.52
662.708	35071.2
663.059	34944.87
663.409	34849.96
663.76	35108.03
664.11	35061.93
664.461	35239.78
664.811	35164.08
665.161	35119.78
665.511	34962.72
665.862	34982.39
666.212	35138.99
666.562	35127.47
666.912	35155.71
667.262	35047.47
667.612	34965.44
667.962	35115.94
668.312	34979
668.662	35145.09
669.011	35176.73
669.361	35046.34
669.711	34971.54
670.06	35074.59
670.41	34901.71
670.76	34947.58
671.109	35101.48
671.459	35032.78
671.808	34975.15
672.157	35108.26
672.507	34822.39
672.856	34727.48
673.205	34941.26
673.554	35038.43
673.904	34804.99
674.253	34988.94
674.602	34784.65
674.951	34423.53
675.3	34169.53
675.649	34847.25
675.998	34634.15
676.346	34713.24
676.695	34777.87
677.044	34402.51
677.393	34660.13
677.741	34696.74
678.09	34528.61
678.438	34585.56
678.787	34558.67
679.135	34631.21
679.484	34332.91
679.832	34506.47
680.181	34241.39
680.529	34391.67
680.877	34309.18
681.225	34263.76
681.573	34543.75
681.922	34154.61
682.27	34158.68
682.618	34238
682.966	34070.32
683.314	34174.95
683.661	34037.33
684.009	33972.24
684.357	33844.56
684.705	33864.45
685.053	33821.06
685.4	33815.64
685.748	33526.6
686.095	33581.29
686.443	33527.28
686.79	33515.31
687.138	33592.59
687.485	33449.54
687.832	33352.82
688.18	33361.64
688.527	33220.4
688.874	33175.65
689.221	33099.72
689.568	33079.61
689.915	33042.32
690.262	32974.53
690.609	32851.14
690.956	32660.64
691.303	32722.56
691.65	32717.59
691.997	32600.08
692.344	32377.48
692.69	32414.09
693.037	32387.2
693.383	32108.11
693.73	32293.42
694.077	31976.36
694.423	32090.71
694.769	32163.02
695.116	31913.54
695.462	31835.12
695.808	31835.35
696.155	31748.57
696.501	31460.22
696.847	31604.17
697.193	31310.84
697.539	31424.06
697.885	31160.11
698.231	31035.14
698.577	31158.08
698.923	31111.98
699.269	30998.08
699.614	30769.16
699.96	30774.36
700.306	30663.63
700.651	30563.52
700.997	30414.37
701.342	30474.93
701.688	30523.75
702.033	30298.89
702.379	30357.65
702.724	30244.88
703.069	30341.38
703.415	29967.83
703.76	30032.91
704.105	29787.27
704.45	29858.23
704.795	29680.6
705.14	29632.02
705.485	29624.11
705.83	29525.35
706.175	29516.09
706.52	29480.84
706.865	29362.19
707.209	29250.33
707.554	29200.39
707.899	29401.06
708.243	29146.61
708.588	28982.77
708.932	28863.45
709.277	28922.43
709.621	28873.85
709.966	28667.3
710.31	28785.49
710.654	28416.68
710.998	28623.46
711.342	28529.67
711.687	28346.63
712.031	28353.18
712.375	28277.25
712.719	28282.67
713.063	28191.15
713.407	28320.19
713.75	28176.91
714.094	28106.18
714.438	28084.04
714.782	28016.24
715.125	27902.12
715.469	28042.91
715.812	27812.18
716.156	27727.66
716.499	27720.43
716.843	27838.17
717.186	27614.44
717.53	27654.22
717.873	27574.22
718.216	27527.89
718.559	27467.1
718.902	27339.65
719.246	27418.74
719.589	27251.97
719.932	27175.81
720.275	27152.31
720.617	27165.42
720.96	27139.43
721.303	27019.66
721.646	27058.07
721.989	27003.61
722.331	26974.23
722.674	26753.68
723.016	26858.76
723.359	26919.55
723.701	26831.19
724.044	26615.37
724.386	26510.97
724.729	26777.63
725.071	26580.57
725.413	26516.17
725.755	26612.66
726.097	26437.07
726.439	26267.59
726.782	26345.55
727.124	26346.23
727.465	26316.62
727.807	26143.07
728.149	26235.72
728.491	26226.68
728.833	26198.66
729.175	26053.13
729.516	26001.6
729.858	26012.45
730.199	25986.69
730.541	25934.26
730.882	25901.04
731.224	25927.48
731.565	25878.67
731.906	25886.58
732.248	25821.72
732.589	25681.84
732.93	25652.24
733.271	25652.46
733.612	25736.3
733.953	25733.36
734.294	25610.43
734.635	25493.82
734.976	25535.63
735.317	25476.19
735.658	25369.76
735.999	25409.3
736.339	25319.81
736.68	25442.3
737.021	25285.47
737.361	25245.69
737.702	25429.64
738.042	25328.4
738.383	25116.66
738.723	25253.83
739.063	25144.45
739.404	25176.54
739.744	25203.66
740.084	24977
740.424	25084.11
740.764	24951.69
741.104	25160.04
741.444	24844.57
741.784	24844.35
742.124	24902.42
742.464	24830.11
742.804	24887.74
743.143	24885.7
743.483	24759.15
743.823	24667.18
744.162	24714.41
744.502	24669.89
744.841	24568.65
745.181	24692.49
745.52	24588.08
745.86	24632.6
746.199	24653.62
746.538	24556.9
746.877	24535.43
747.216	24464.24
747.556	24580.62
747.895	24576.11
748.234	24480.74
748.573	24344.47
748.911	24318.26
749.25	24362.33
749.589	24331.82
749.928	24344.47
750.267	24336.34
750.605	24201.65
750.944	24148.77
751.283	24082.78
751.621	24205.27
751.96	24001.66
752.298	24069.23
752.636	24060.86
752.975	23958.95
753.313	23953.75
753.651	24084.14
753.989	23952.62
754.327	23855.9
754.666	23817.48
755.004	23891.38
755.342	23955.78
755.679	23917.59
756.017	23736.35
756.355	23718.73
756.693	23653.87
757.031	23680.99
757.368	23629.46
757.706	23535.23
758.044	23540.88
758.381	23584.72
758.719	23371.39
759.056	23528.68
759.394	23446.64
759.731	23282.35
760.068	23320.09
760.405	23271.28
760.743	23183.6
761.08	23349.92
761.417	23075.81
761.754	23104.05
762.091	22996.71
762.428	22827
762.765	22853.44
763.102	23008.69
763.438	22772.99
763.775	22705.42
764.112	22665.65
764.449	22710.39
764.785	22682.82
765.122	22391.76
765.458	22517.63
765.795	22371.19
766.131	22448.7
766.467	22308.82
766.804	22222.27
767.14	22151.08
767.476	22116.06
767.812	21944.99
768.148	22077.19
768.485	21911.99
768.821	21763.98
769.157	21793.58
769.492	21782.96
769.828	21696.18
770.164	21522.17
770.5	21576.41
770.836	21459.8
771.171	21381.61
771.507	21439.24
771.842	21157.44
772.178	21237.21
772.513	21144.11
772.849	21044.9
773.184	20994.73
773.519	20986.82
773.855	20742.76
774.19	20763.32
774.525	20646.27
774.86	20760.16
775.195	20615.08
775.53	20567.17
775.865	20457.8
776.2	20278.37
776.535	20171.7
776.87	20248.99
777.205	20111.82
777.539	19917.7
777.874	20054.42
778.209	19889
778.543	19893.97
778.878	19670.02
779.212	19696.01
779.547	19534.43
779.881	19688.32
780.215	19501.66
780.55	19533.98
780.884	19358.39
781.218	19425.51
781.552	19300.99
781.886	19237.94
782.22	19096.48
782.554	19084.05
782.888	18852.64
783.222	18869.36
783.556	18732.87
783.889	18745.07
784.223	18538.98
784.557	18581.23
784.89	18595.92
785.224	18463.72
785.557	18364.52
785.891	18311.41
786.224	18282.49
786.558	18345.08
786.891	18047.46
787.224	18026.22
787.557	17907.58
787.891	17903.06
788.224	17945.55
788.557	17906
788.89	17866.68
789.223	17721.14
789.556	17745.32
789.888	17598.89
790.221	17508.72
790.554	17407.48
790.887	17415.84
791.219	17392.34
791.552	17363.87
791.884	17268.73
792.217	17230.54
792.549	17121.39
792.882	17043.2
793.214	16941.05
793.546	17046.59
793.879	16840.94
794.211	16797.1
794.543	16852.69
794.875	16797.55
795.207	16764.79
795.539	16623.32
795.871	16688.85
796.203	16525.24
796.535	16437.56
796.867	16456.09
797.198	16304.68
797.53	16372.71
797.862	16247.74
798.193	16219.49
798.525	16085.03
798.856	16199.38
799.188	16022.21
799.519	15921.19
799.85	15811.59
800.182	15961.87
800.513	15825.6
800.844	15705.83
801.175	15756
801.506	15748.77
801.837	15717.81
802.168	15593.06
802.499	15555.78
802.83	15477.14
803.161	15450.47
803.491	15458.38
803.822	15408.21
804.153	15375.67
804.483	15149.69
804.814	15108.78
805.145	15177.71
805.475	15091.61
805.805	15106.98
806.136	15073.76
806.466	15089.8
806.796	14966.41
807.126	14908.79
807.457	14810.94
807.787	14823.14
808.117	14827.43
808.447	14760.32
808.777	14835.57
809.107	14739.53
809.436	14656.37
809.766	14657.04
810.096	14544.73
810.426	14461.12
810.755	14499.53
811.085	14550.61
811.414	14475.13
811.744	14364.62
812.073	14321.91
812.403	14470.38
812.732	14235.59
813.061	14246.66
813.39	14186.55
813.719	14125.53
814.049	14243.5
814.378	14228.58
814.707	14011.19
815.036	14002.15
815.365	13984.07
815.693	13831.75
816.022	13803.06
816.351	13770.06
816.68	13760.34
817.008	13764.41
817.337	13591.31
817.665	13620.24
817.994	13660.69
818.322	13651.87
818.651	13542.95
818.979	13513.8
819.307	13520.8
819.636	13510.63
819.964	13335.72
820.292	13470.41
820.62	13394.25
820.948	13357.42
821.276	13434.03
821.604	13307.93
821.932	13401.03
822.259	13372.11
822.587	13334.14
822.915	13302.05
823.243	13273.8
823.57	13261.6
823.898	13281.26
824.225	13224.09
824.553	13326.23
824.88	13279.91
825.207	13410.3
825.535	13240.58
825.862	13316.97
826.189	13271.77
826.516	13320.13
826.843	13397.64
827.17	13359.45
827.497	13366.91
827.824	13316.74
828.151	13400.58
828.478	13356.06
828.805	13439.45
829.131	13331.2
829.458	13421.82
829.785	13250.08
830.111	13303.41
830.438	13381.82
830.764	13337.53
831.09	13249.62
831.417	13228.83
831.743	13237.87
832.069	13259.11
832.395	13222.05
832.722	13268.38
833.048	13198.55
833.374	13208.72
833.7	13206.69
834.026	13182.96
834.351	13167.82
834.677	13193.81
835.003	13236.52
835.329	13120.81
835.654	13049.4
835.98	13054.6
836.306	13036.07
836.631	13075.84
836.956	13078.78
837.282	13042.4
837.607	13012.57
837.932	12933.93
838.258	12981.16
838.583	12927.6
838.908	12834.95
839.233	12867.71
839.558	12860.03
839.883	12806.47
840.208	12722.63
840.533	12786.58
840.858	12755.4
841.182	12764.89
841.507	12758.11
841.832	12613.03
842.156	12611.67
842.481	12602.86
842.805	12623.43
843.13	12560.15
843.454	12505.01
843.778	12459.81
844.103	12473.82
844.427	12432.47
844.751	12430.66
845.075	12372.13
845.399	12373.49
845.723	12340.72
846.047	12321.74
846.371	12173.49
846.695	12119.03
847.019	12105.7
847.343	12074.06
847.666	11942.31
847.99	11942.54
848.313	11935.08
848.637	11775.31
848.96	11858.47
849.284	11781.19
849.607	11724.01
849.931	11671.36
850.254	11588.2
850.577	11578.48
850.9	11547.07
851.223	11468.43
851.546	11404.02
851.869	11375.55
852.192	11492.83
852.515	11321.76
852.838	11208.1
853.161	11219.17
853.483	11232.28
853.806	11081.32
854.129	11110.92
854.451	11098.72
854.774	11028.21
855.096	10964.03
855.419	10966.07
855.741	10939.85
856.063	10885.84
856.385	10884.71
856.708	10849.46
857.03	10823.92
857.352	10847.88
857.674	10765.62
857.996	10719.52
858.318	10654.89
858.64	10691.95
858.961	10679.52
859.283	10538.28
859.605	10486.31
859.926	10568.79
860.248	10483.82
860.57	10486.31
860.891	10467.1
861.212	10459.41
861.534	10363.6
861.855	10350.94
862.176	10352.98
862.498	10427.78
862.819	10370.38
863.14	10285.63
863.461	10312.75
863.782	10246.76
864.103	10217.39
864.424	10169.7
864.745	10203.15
865.065	10168.57
865.386	10084.06
865.707	10125.64
866.027	10162.92
866.348	10090.38
866.668	10146.43
866.989	10064.62
867.309	10006.54
867.63	10074.57
867.95	9986.43
868.27	9992.76
868.59	9966.77
868.91	9953.44
869.23	9944.63
869.55	9923.16
869.87	9942.14
870.19	9898.3
870.51	9919.77
870.83	9932.42
871.15	9846.32
871.469	9789.15
871.789	9850.62
872.109	9830.96
872.428	9768.36
872.748	9776.04
873.067	9754.35
873.386	9747.79
873.706	9695.37
874.025	9680.23
874.344	9649.94
874.663	9702.15
874.982	9660.57
875.301	9699.66
875.62	9630.96
875.939	9609.49
876.258	9587.12
876.577	9450.18
876.896	9562.94
877.214	9502.6
877.533	9507.57
877.852	9473.23
878.17	9557.52
878.489	9524.07
878.807	9486.11
879.125	9425.54
879.444	9433.23
879.762	9331.08
880.08	9432.55
880.398	9354.36
880.716	9385.54
881.034	9380.8
881.352	9355.26
881.67	9288.15
881.988	9274.81
882.306	9306.68
882.624	9263.06
882.941	9259.67
883.259	9185.1
883.577	9204.53
883.894	9148.94
884.212	9160.24
884.529	9089.73
884.846	9077.76
885.164	9137.87
885.481	9060.58
885.798	9025.33
886.115	9007.48
886.432	8984.88
886.75	8964.09
887.067	8983.75
887.383	8859.91
887.7	8910.98
888.017	8832.34
888.334	8940.13
888.651	8781.27
888.967	8841.38
889.284	8786.24
889.6	8777.65
889.917	8697.2
890.233	8704.66
890.55	8710.31
890.866	8772
891.182	8674.83
891.498	8627.82
891.815	8566.58
892.131	8562.06
892.447	8546.24
892.763	8525.68
893.079	8468.51
893.395	8445.46
893.71	8497.88
894.026	8444.1
894.342	8378.11
894.657	8332.01
894.973	8341.73
895.289	8347.38
895.604	8259.92
895.92	8249.08
896.235	8219.93
896.55	8228.74
896.865	8138.8
897.181	8171.11
897.496	8120.72
897.811	8122.3
898.126	8075.52
898.441	8051.79
898.756	7995.75
899.071	7969.54
899.386	8011.57
899.7	7935.19
900.015	7916.88
900.33	7792.59
900.644	7829.43
900.959	7825.13
901.273	7783.1
901.588	7770.9
901.902	7754.4
902.216	7694.52
902.531	7698.81
902.845	7634.86
903.159	7566.16
903.473	7618.13
903.787	7540.85
904.101	7483.9
904.415	7490.68
904.729	7508.08
905.042	7427.63
905.356	7419.49
905.67	7393.96
905.984	7368.42
906.297	7313.06
906.611	7320.74
906.924	7271.25
907.237	7280.74
907.551	7254.3
907.864	7188.31
908.177	7152.16
908.491	7164.59
908.804	7126.17
909.117	7039.17
909.43	7046.17
909.743	7048.43
910.056	7052.72
910.368	6965.72
910.681	6948.77
910.994	6913.97
911.307	6875.1
911.619	6836.91
911.932	6821.54
912.244	6762.34
912.557	6754.2
912.869	6776.12
913.181	6752.39
913.494	6702
913.806	6659.51
914.118	6647.09
914.43	6523.92
914.742	6587.43
915.054	6560.31
915.366	6560.31
915.678	6494.77
915.99	6513.98
916.302	6437.15
916.613	6464.72
916.925	6438.95
917.236	6382.01
917.548	6358.73
917.859	6323.7
918.171	6238.51
918.482	6256.13
918.794	6198.28
919.105	6222.24
919.416	6136.14
919.727	6152.18
920.038	6141.11
920.349	6119.19
920.66	6027.21
920.971	6051.62
921.282	6019.08
921.593	5965.97
921.903	5971.62
922.214	6033.77
922.525	5911.06
922.835	5936.14
923.146	5841.23
923.456	5822.25
923.767	5830.16
924.077	5825.64
924.387	5811.85
924.697	5707.67
925.008	5759.42
925.318	5682.82
925.628	5718.75
925.938	5672.42
926.248	5603.04
926.558	5601.46
926.867	5559.66
927.177	5500.9
927.487	5519.88
927.796	5451.41
928.106	5469.26
928.416	5487.79
928.725	5435.59
929.034	5376.16
929.344	5397.4
929.653	5368.47
929.962	5372.32
930.271	5304.3
930.581	5324.18
930.89	5284.41
931.199	5308.59
931.508	5249.83
931.817	5254.58
932.125	5164.19
932.434	5170.51
932.743	5129.84
933.051	5114.47
933.36	5092.78
933.669	5063.85
933.977	5037.41
934.286	5040.35
934.594	4999.22
934.902	4988.6
935.21	4954.7
935.519	4988.15
935.827	4986.34
936.135	4914.48
936.443	4831.09
936.751	4911.54
937.059	4841.26
937.367	4806.46
937.674	4794.03
937.982	4842.84
938.29	4735.27
938.597	4749.51
938.905	4747.47
939.213	4700.47
939.52	4702.05
939.827	4672.67
940.135	4607.14
940.442	4602.62
940.749	4584.77
941.056	4604.43
941.363	4573.69
941.67	4542.96
941.977	4552.22
942.284	4497.54
942.591	4518.1
942.898	4441.27
943.205	4440.14
943.511	4471.32
943.818	4487.82
944.125	4393.59
944.431	4359.01
944.738	4368.27
945.044	4347.03
945.35	4303.19
945.657	4291.67
945.963	4276.3
946.269	4261.39
946.575	4235.4
946.881	4188.39
947.187	4208.96
947.493	4165.34
947.799	4214.83
948.105	4161.05
948.41	4175.29
948.716	4077.66
949.022	4118.79
949.327	4081.5
949.633	4071.33
949.938	4028.62
950.244	4082.63
950.549	4045.8
950.854	4009.64
951.16	3980.04
951.465	4007.15
951.77	3970.32
952.075	3964.67
952.38	3923.09
952.685	3854.84
952.99	3830.44
953.294	3859.36
953.599	3797.44
953.904	3812.13
954.209	3805.8
954.513	3811.91
954.818	3762.87
955.122	3720.83
955.426	3771.23
955.731	3714.28
956.035	3701.63
956.339	3710.44
956.643	3708.86
956.948	3657.79
957.252	3627.5
957.556	3649.88
957.86	3605.13
958.163	3598.13
958.467	3574.85
958.771	3572.59
959.075	3574.4
959.378	3524.46
959.682	3512.48
959.985	3522.42
960.289	3471.35
960.592	3486.94
960.896	3473.84
961.199	3432.93
961.502	3428.86
961.805	3403.1
962.108	3384.57
962.411	3414.18
962.714	3369.88
963.017	3373.95
963.32	3323.56
963.623	3331.24
963.926	3297.57
964.228	3304.35
964.531	3327.4
964.833	3280.62
965.136	3270.22
965.438	3300.96
965.741	3249.21
966.043	3227.06
966.345	3190.23
966.648	3198.36
966.95	3196.78
967.252	3149.78
967.554	3103.68
967.856	3113.39
968.158	3124.47
968.46	3098.25
968.761	3059.16
969.063	3088.76
969.365	3079.27
969.666	3060.29
969.968	3028.2
970.269	3017.35
970.571	3008.54
970.872	2981.64
971.174	3004.7
971.475	2985.71
971.776	2942.32
972.077	2950.01
972.378	2950.46
972.679	2915.21
972.98	2909.56
973.281	2888.99
973.582	2874.75
973.883	2864.59
974.183	2846.51
974.484	2851.93
974.785	2815.55
975.085	2820.97
975.386	2829.11
975.686	2830.01
975.986	2785.27
976.287	2776.9
976.587	2770.35
976.887	2717.02
977.187	2721.31
977.487	2724.25
977.787	2718.37
978.087	2714.08
978.387	2711.14
978.687	2687.19
978.987	2671.37
979.286	2655.1
979.586	2658.94
979.885	2648.32
980.185	2607.42
980.484	2597.47
980.784	2574.2
981.083	2547.76
981.382	2562.67
981.682	2558.15
981.981	2564.93
982.28	2533.52
982.579	2546.18
982.878	2525.16
983.177	2495.56
983.475	2489.68
983.774	2514.99
984.073	2479.74
984.372	2479.29
984.67	2445.39
984.969	2476.57
985.267	2475.22
985.566	2418.95
985.864	2445.84
986.162	2389.12
986.461	2389.34
986.759	2377.82
987.057	2339.63
987.355	2381.21
987.653	2340.98
987.951	2326.52
988.249	2286.07
988.547	2336.46
988.844	2297.82
989.142	2317.26
989.44	2289.01
989.737	2266.86
990.035	2282.23
990.332	2251.27
990.63	2279.06
990.927	2204.04
991.224	2207.65
991.521	2206.3
991.819	2194.09
992.116	2194.32
992.413	2202.23
992.71	2159.97
993.006	2134.21
993.303	2162.23
993.6	2184.83
993.897	2119.07
994.193	2162.23
994.49	2124.04
994.787	2071.39
995.083	2095.57
995.379	2085.4
995.676	2071.16
995.972	2039.07
996.268	2082.23
996.565	2057.38
996.861	2005.4
997.157	2039.52
997.453	2029.58
997.749	2005.4
998.044	1984.83
998.34	1989.81
998.636	1956.59
998.932	1935.57
999.227	1937.6
999.523	1955.46
999.818	1930.37
1000.114	1934.21
1000.409	1911.39
1000.704	1895.35
1001	1894.22
1001.295	1899.19
1001.59	1892.41
1001.885	1858.96
1002.18	1832.3
1002.475	1831.17
1002.77	1845.63
1003.065	1803.37
1003.359	1831.84
1003.654	1811.05
1003.949	1817.38
1004.243	1792.75
1004.538	1763.37
1004.832	1764.73
1005.127	1736.25
1005.421	1726.76
1005.715	1739.19
1006.009	1690.83
1006.304	1733.32
1006.598	1707.1
1006.892	1688.57
1007.186	1661.45
1007.48	1671.4
1007.773	1649.48
1008.067	1665.52
1008.361	1644.05
1008.655	1626.43
1008.948	1615.35
1009.242	1618.06
1009.535	1601.57
1009.829	1595.01
1010.122	1593.66
1010.415	1581.68
1010.708	1582.81
1011.001	1611.29
1011.295	1545.3
1011.588	1568.57
1011.881	1536.49
1012.173	1526.32
1012.466	1505.98
1012.759	1509.59
1013.052	1487.67
1013.344	1503.94
1013.637	1519.76
1013.93	1526.99
1014.222	1454.91
1014.514	1437.5
1014.807	1456.26
1015.099	1459.65
1015.391	1406.32
1015.683	1394.34
1015.976	1435.24
1016.268	1399.54
1016.56	1389.14
1016.851	1361.12
1017.143	1381.01
1017.435	1385.98
1017.727	1364.51
1018.018	1360.44
1018.31	1346.89
1018.602	1336.72
1018.893	1315.25
1019.185	1332.87
1019.476	1312.54
1019.767	1326.55
1020.058	1310.73
1020.35	1279.32
1020.641	1294.91
1020.932	1280.22
1021.223	1268.24
1021.514	1280.9
1021.804	1286.55
1022.095	1240
1022.386	1232.31
1022.677	1240
1022.967	1241.13
1023.258	1240.9
1023.548	1222.37
1023.839	1218.75
1024.129	1207.23
1024.419	1197.28
1024.709	1185.53
1025	1153.9
1025.29	1176.27
1025.58	1151.41
1025.87	1148.92
1026.16	1126.1
1026.449	1150.51
1026.739	1105.99
1027.029	1094.46
1027.319	1105.08
1027.608	1104.63
1027.898	1090.85
1028.187	1074.12
1028.477	1080.23
1028.766	1069.83
1029.055	1055.59
1029.344	1044.52
1029.634	1072.32
1029.923	1048.81
1030.212	1047.68
1030.501	1038.19
1030.79	1026.44
1031.078	1034.13
1031.367	1000
1031.656	1014.69
1031.945	1019.66
1032.233	1019.44
1032.522	996.39
1032.81	973.79
1033.099	981.47
1033.387	966.1
1033.675	975.82
1033.963	971.53
1034.251	969.27
1034.54	936.95
1034.828	934.92
1035.116	949.61
1035.403	920
1035.691	905.09
1035.979	917.52
1036.267	945.31
1036.554	892.89
1036.842	907.12
1037.129	917.52
1037.417	900.57
1037.704	895.37
1037.992	887.91
1038.279	891.98
1038.566	849.5
1038.853	849.5
1039.14	849.5
