Data from hue_140_FLMS001491_00027.txt Node
Date: Tue Feb 07 16:55:40 GMT 2017
User: dcchb
Spectrometer: FLMS00149
Trigger mode: 0
Integration Time (sec): 2.000000E-2
Scans to average: 10
Electric dark correction enabled: true
Nonlinearity correction enabled: false
Boxcar width: 0
XAxis mode: Wavelengths
Number of Pixels in Spectrum: 2048
>>>>>Begin Spectral Data<<<<<
341.393	-13.32
341.776	-13.32
342.16	-13.32
342.543	-68.68
342.927	-68.46
343.31	-59.19
343.693	-67.1
344.077	-84.96
344.46	-73.43
344.843	-55.13
345.226	-49.48
345.61	-38.63
345.993	-13.09
346.376	7.7
346.759	16.96
347.142	31.43
347.525	50.63
347.908	68.94
348.291	63.06
348.674	91.31
349.057	110.97
349.44	127.47
349.823	122.5
350.206	155.72
350.588	176.51
350.971	202.95
351.354	202.95
351.737	217.18
352.119	240.91
352.502	264.87
352.884	287.46
353.267	268.03
353.65	284.3
354.032	292.21
354.414	310.74
354.797	287.46
355.179	317.52
355.562	323.17
355.944	317.52
356.326	334.69
356.709	339.67
357.091	335.15
357.473	331.98
357.855	348.93
358.238	345.99
358.62	323.85
359.002	333.11
359.384	323.4
359.766	330.4
360.148	325.2
360.53	340.57
360.912	317.97
361.294	339.89
361.676	300.35
362.057	308.93
362.439	354.36
362.821	322.27
363.203	327.01
363.584	322.49
363.966	313.23
364.348	321.81
364.729	311.64
365.111	306.9
365.493	330.17
365.874	328.82
366.256	304.19
366.637	302.61
367.019	292.66
367.4	314.36
367.781	306.67
368.163	291.08
368.544	271.19
368.925	316.62
369.306	300.57
369.688	293.79
370.069	302.61
370.45	298.54
370.831	315.26
371.212	298.31
371.593	316.62
371.974	317.29
372.355	303.51
372.736	318.65
373.117	325.66
373.498	329.27
373.879	324.07
374.26	311.64
374.641	311.19
375.021	337.86
375.402	329.27
375.783	322.27
376.163	308.03
376.544	324.98
376.925	316.39
377.305	329.72
377.686	318.42
378.066	309.84
378.447	317.07
378.827	321.36
379.208	299.67
379.588	319.1
379.968	326.11
380.349	320.46
380.729	322.27
381.109	331.76
381.489	332.21
381.87	317.07
382.25	318.42
382.63	340.57
383.01	335.15
383.39	321.81
383.77	334.24
384.15	343.06
384.53	350.51
384.91	332.66
385.29	346.45
385.67	331.08
386.049	348.03
386.429	337.63
386.809	355.49
387.189	344.41
387.568	333.56
387.948	349.84
388.328	362.49
388.707	345.54
389.087	328.37
389.466	344.86
389.846	352.32
390.225	359.78
390.605	372.43
390.984	356.61
391.363	365.88
391.743	368.37
392.122	357.74
392.501	377.86
392.881	356.16
393.26	382.38
393.639	348.03
394.018	362.72
394.397	373.56
394.776	366.11
395.155	388.03
395.534	369.04
395.913	362.26
396.292	376.5
396.671	379.44
397.05	390.06
397.429	400.91
397.808	365.88
398.186	372.21
398.565	366.56
398.944	361.81
399.323	394.13
399.701	381.02
400.08	389.38
400.458	403.62
400.837	414.01
401.215	387.12
401.594	395.48
401.972	389.83
402.351	383.73
402.729	399.55
403.107	392.55
403.486	410.62
403.864	383.51
404.242	429.38
404.62	438.87
404.999	408.36
405.377	414.47
405.755	423.73
406.133	421.47
406.511	427.12
406.889	430.96
407.267	413.79
407.645	446.56
408.023	441.36
408.401	433.22
408.779	441.81
409.156	445.43
409.534	451.75
409.912	442.26
410.29	447.46
410.667	451.08
411.045	457.18
411.422	446.78
411.8	480.91
412.178	456.95
412.555	473.67
412.933	482.26
413.31	445.43
413.687	470.74
414.065	484.52
414.442	495.59
414.819	478.87
415.197	495.59
415.574	495.14
415.951	494.69
416.328	503.28
416.705	512.77
417.082	490.4
417.46	499.21
417.837	504.18
418.214	513.67
418.591	509.38
418.967	508.02
419.344	529.49
419.721	512.09
420.098	509.61
420.475	542.37
420.852	531.53
421.228	510.51
421.605	540.56
421.982	533.79
422.358	556.16
422.735	549.38
423.111	559.32
423.488	546.44
423.864	553.45
424.241	533.11
424.617	572.88
424.994	571.52
425.37	558.64
425.746	565.2
426.123	564.29
426.499	574.01
426.875	578.98
427.251	577.17
427.627	585.99
428.003	623.95
428.379	595.7
428.756	615.59
429.132	632.54
429.507	624.86
429.883	629.38
430.259	635.7
430.635	632.99
431.011	651.3
431.387	634.57
431.763	646.32
432.138	648.81
432.514	682.26
432.89	672.99
433.265	671.86
433.641	662.14
434.016	690.84
434.392	684.97
434.767	703.95
435.143	695.59
435.518	720.9
435.894	736.72
436.269	729.94
436.644	734.23
437.02	721.8
437.395	714.8
437.77	730.84
438.145	736.27
438.52	733.78
438.895	751.41
439.271	762.03
439.646	772.88
440.021	777.85
440.395	794.12
440.77	776.94
441.145	798.41
441.52	804.29
441.895	818.52
442.27	819.43
442.645	824.63
443.019	803.16
443.394	815.81
443.769	837.51
444.143	826.21
444.518	833.21
444.892	832.08
445.267	824.17
445.641	847.45
446.016	862.82
446.39	874.79
446.764	859.43
447.139	887.22
447.513	882.02
447.887	886.77
448.262	870.5
448.636	859.43
449.01	906.43
449.384	908.01
449.758	925.64
450.132	937.16
450.506	913.44
450.88	908.69
451.254	915.47
451.628	949.37
452.002	977.62
452.376	955.7
452.75	970.84
453.123	987.78
453.497	988.91
453.871	991.63
454.244	1004.06
454.618	1013.55
454.992	1044.05
455.365	1014.9
455.739	1025.3
456.112	1072.53
456.486	1084.51
456.859	1082.25
457.232	1085.18
457.606	1107.1
457.979	1114.11
458.352	1125.18
458.725	1154.11
459.099	1140.78
459.472	1145.52
459.845	1210.83
460.218	1181
460.591	1209.25
460.964	1232.98
461.337	1237.04
461.71	1264.16
462.083	1244.95
462.456	1280.66
462.829	1277.72
463.201	1306.42
463.574	1329.47
463.947	1341.22
464.32	1357.94
464.692	1346.65
465.065	1402.69
465.438	1438.85
465.81	1459.64
466.183	1437.26
466.555	1471.16
466.928	1482.69
467.3	1487.21
467.672	1547.32
468.045	1561.55
468.417	1573.98
468.789	1593.42
469.161	1615.11
469.534	1675.22
469.906	1698.95
470.278	1728.78
470.65	1739.63
471.022	1793.64
471.394	1826.18
471.766	1842
472.138	1867.99
472.51	1930.58
472.882	1953.64
473.253	1967.19
473.625	2030.47
473.997	2068.43
474.369	2079.96
474.74	2133.29
475.112	2213.06
475.484	2232.27
475.855	2303.68
476.227	2317.24
476.598	2398.82
476.97	2441.76
477.341	2549.1
477.713	2593.62
478.084	2645.82
478.455	2737.57
478.827	2768.75
479.198	2870.9
479.569	2914.29
479.94	3005.13
480.311	3060.72
480.682	3132.81
481.053	3277.44
481.424	3371.22
481.795	3426.59
482.166	3506.59
482.537	3609.41
482.908	3679.01
483.279	3771.44
483.65	3908.39
484.021	4000.59
484.391	4072.22
484.762	4206.91
485.133	4308.6
485.503	4440.8
485.874	4474.25
486.244	4611.87
486.615	4767.12
486.985	4853.67
487.356	5030.16
487.726	5144.96
488.097	5297.73
488.467	5357.39
488.837	5510.83
489.207	5671.73
489.578	5790.82
489.948	5905.62
490.318	6003.7
490.688	6103.13
491.058	6292.28
491.428	6413.63
491.798	6572.5
492.168	6740.63
492.538	6796.22
492.908	6983.33
493.278	7152.82
493.648	7174.51
494.017	7413.15
494.387	7433.27
494.757	7554.39
495.126	7751.22
495.496	7865.12
495.866	7920.03
496.235	8139.01
496.605	8243.19
496.974	8270.08
497.344	8482.5
497.713	8587.58
498.082	8691.76
498.452	8902.38
498.821	8918.88
499.19	8950.29
499.559	9140.34
499.928	9272.99
500.298	9335.59
500.667	9454.23
501.036	9468.47
501.405	9722.02
501.774	9752.75
502.143	9816.48
502.512	9922.47
502.88	10074.33
503.249	10070.94
503.618	10170.14
503.987	10225.51
504.356	10356.13
504.724	10446.75
505.093	10556.12
505.462	10544.14
505.83	10743.46
506.199	10758.38
506.567	10943.23
506.936	10964.92
507.304	11145.71
507.672	11100.74
508.041	11166.73
508.409	11333.05
508.777	11426.61
509.145	11493.95
509.514	11463.89
509.882	11529.65
510.25	11515.87
510.618	11669.31
510.986	11744.34
511.354	11796.99
511.722	11833.6
512.09	11929.64
512.458	11927.16
512.826	12037.89
513.193	12150.66
513.561	12105.23
513.929	12224.78
514.297	12340.03
514.664	12281.05
515.032	12356.53
515.4	12482.17
515.767	12443.53
516.135	12569.18
516.502	12469.29
516.869	12645.33
517.237	12648.5
517.604	12548.84
517.972	12746.57
518.339	12841.71
518.706	12805.1
519.073	12839.22
519.44	12804.88
519.808	12917.19
520.175	12819.34
520.542	13058.43
520.909	12970.29
521.276	12997.86
521.643	13083.29
522.009	13176.62
522.376	13149.27
522.743	13278.99
523.11	13287.35
523.477	13378.65
523.843	13340.23
524.21	13491.18
524.577	13452.32
524.943	13487.12
525.31	13473.11
525.676	13622.48
526.043	13656.83
526.409	13542.26
526.776	13775.7
527.142	13775.25
527.508	13725.3
527.874	13750.84
528.241	13695.7
528.607	13750.84
528.973	13788.13
529.339	13794.23
529.705	13858.86
530.071	13889.82
530.437	13902.25
530.803	13942.92
531.169	13896.82
531.535	13880.78
531.901	13801.69
532.267	13814.11
532.632	13902.7
532.998	13820.44
533.364	13917.16
533.73	13908.35
534.095	13944.51
534.461	13835.81
534.826	13844.4
535.192	13904.06
535.557	14028.8
535.923	13846.2
536.288	13857.5
536.653	13891.17
537.019	13744.29
537.384	13816.83
537.749	13859.76
538.114	13706.55
538.479	13674
538.845	13697.96
539.21	13624.97
539.575	13627.23
539.94	13649.82
540.305	13625.19
540.67	13635.81
541.034	13539.09
541.399	13505.87
541.764	13547.23
542.129	13526.44
542.494	13519.88
542.858	13507
543.223	13435.59
543.587	13459.32
543.952	13401.92
544.316	13348.59
544.681	13342.04
545.045	13302.26
545.41	13364.41
545.774	13222.27
546.138	13206.9
546.503	13149.72
546.867	13160.57
547.231	13160.35
547.595	13107.47
547.959	13096.17
548.324	13055.49
548.688	13066.11
549.052	13019.11
549.416	12921.03
549.779	12963.97
550.143	12955.83
550.507	12932.78
550.871	12951.31
551.235	12852.33
551.599	12940.01
551.962	12836.29
552.326	12798.32
552.689	12873.35
553.053	12782.05
553.417	12721.26
553.78	12813.01
554.143	12717.19
554.507	12664.77
554.87	12687.59
555.234	12817.98
555.597	12639.68
555.96	12638.78
556.323	12667.48
556.686	12597.2
557.05	12644.65
557.413	12690.3
557.776	12644.88
558.139	12664.31
558.502	12560.81
558.865	12649.85
559.228	12668.83
559.59	12671.55
559.953	12602.17
560.316	12719.68
560.679	12641.94
561.041	12691.88
561.404	12727.36
561.767	12730.07
562.129	12643.75
562.492	12744.31
562.854	12657.31
563.217	12582.06
563.579	12673.58
563.941	12680.13
564.304	12642.17
564.666	12681.04
565.028	12766.01
565.39	12773.01
565.753	12783.41
566.115	12794.71
566.477	12872.9
566.839	12868.6
567.201	12782.73
567.563	12924.65
567.925	12917.19
568.287	12900.92
568.648	12901.82
569.01	12969.16
569.372	12993.8
569.734	12890.75
570.095	12985.89
570.457	13034.7
570.819	13065.21
571.18	13006.23
571.542	13069.95
571.903	13027.47
572.265	13057.98
572.626	13083.96
572.987	13132.1
573.349	13073.12
573.71	13074.92
574.071	13088.94
574.432	13180.46
574.794	13225.43
575.155	13176.62
575.516	13093.91
575.877	13241.25
576.238	13236.28
576.599	13237.18
576.96	13210.74
577.32	13211.42
577.681	13208.71
578.042	13196.28
578.403	13217.75
578.763	13181.81
579.124	13297.07
579.485	13299.78
579.845	13277.41
580.206	13257.52
580.566	13231.98
580.927	13168.03
581.287	13237.63
581.648	13217.52
582.008	13220.46
582.368	13236.28
582.728	13283.51
583.089	13184.53
583.449	13224.53
583.809	13146.56
584.169	13145.21
584.529	13055.72
584.889	13130.06
585.249	13193.57
585.609	13053.91
585.969	13207.58
586.329	13172.78
586.688	13160.35
587.048	13119.9
587.408	13116.05
587.768	13149.05
588.127	13058.2
588.487	13052.55
588.846	13186.79
589.206	13062.04
589.565	13033.12
589.925	13127.13
590.284	13123.51
590.643	13045.77
591.003	13018.43
591.362	13110.86
591.721	13095.04
592.08	13074.25
592.44	13048.71
592.799	13161.25
593.158	13033.12
593.517	13047.58
593.876	13060.91
594.235	12992.44
594.593	12994.02
594.952	13050.74
595.311	13003.06
595.67	12983.4
596.029	13083.51
596.387	13052.78
596.746	13034.25
597.104	12995.83
597.463	13021.82
597.822	12958.09
598.18	12954.93
598.538	12898.43
598.897	12996.28
599.255	12870.41
599.613	13103.17
599.972	12932.56
600.33	12958.32
600.688	12972.33
601.046	12977.53
601.404	12997.64
601.762	12990.63
602.12	13043.96
602.478	13033.8
602.836	13036.51
603.194	12937.98
603.552	12955.15
603.91	12903.63
604.268	12998.77
604.625	12923.97
604.983	12946.34
605.341	12893.69
605.698	12982.27
606.056	12943.4
606.413	12972.55
606.771	13025.21
607.128	12969.84
607.485	12948.6
607.843	12982.5
608.2	13046.45
608.557	13010.75
608.914	13015.27
609.272	13114.47
609.629	13104.75
609.986	13104.98
610.343	13084.64
610.7	13136.39
611.057	13116.05
611.414	13110.4
611.771	13081.93
612.127	13182.94
612.484	13116.73
612.841	13187.46
613.198	13181.14
613.554	13194.02
613.911	13232.21
614.267	13214.58
614.624	13180.46
614.98	13200.57
615.337	13274.47
615.693	13239.89
616.05	13232.66
616.406	13326.22
616.762	13246.67
617.118	13317.18
617.475	13345.43
617.831	13394.01
618.187	13266.78
618.543	13395.14
618.899	13490.28
619.255	13374.35
619.611	13370.96
619.967	13360.34
620.323	13462.03
620.678	13356.5
621.034	13335.93
621.39	13354.01
621.746	13321.47
622.101	13443.95
622.457	13398.31
622.812	13372.54
623.168	13400.79
623.523	13413.9
623.879	13482.37
624.234	13338.42
624.589	13397.4
624.945	13412.77
625.3	13381.81
625.655	13402.37
626.01	13461.36
626.365	13393.79
626.72	13419.1
627.075	13409.61
627.43	13400.34
627.785	13352.88
628.14	13374.35
628.495	13374.35
628.85	13287.57
629.205	13263.17
629.559	13382.26
629.914	13280.34
630.269	13335.48
630.623	13276.73
630.978	13194.24
631.332	13357.85
631.687	13284.41
632.041	13219.78
632.396	13307.69
632.75	13246.45
633.104	13266.33
633.459	13122.15
633.813	13179.78
634.167	13154.92
634.521	13222.04
634.875	13200.12
635.229	13215.03
635.583	13114.25
635.937	13177.29
636.291	13047.35
636.645	13036.06
636.999	13043.96
637.352	13089.39
637.706	13011.88
638.06	13016.85
638.413	13048.26
638.767	12994.47
639.121	13016.62
639.474	12909.73
639.828	12925.32
640.181	12902.95
640.534	12923.29
640.888	12903.86
641.241	12893.69
641.594	12806.46
641.947	12942.95
642.301	12856.4
642.654	12838.32
643.007	12874.03
643.36	12926.23
643.713	12798.77
644.066	12842.84
644.419	12766.46
644.771	12652.56
645.124	12543.64
645.477	12558.78
645.83	12482.17
646.182	12506.58
646.535	12404.21
646.888	12441.72
647.24	12314.72
647.593	12328.5
647.945	12378.9
648.298	12323.53
648.65	12295.28
649.002	12275.85
649.355	12311.1
649.707	12360.82
650.059	12454.83
650.411	12578.67
650.763	12534.37
651.115	12690.75
651.467	12599.46
651.819	12669.74
652.171	12641.04
652.523	12559.23
652.875	12626.35
653.227	12575.05
653.578	12616.86
653.93	12572.11
654.282	12598.78
654.633	12595.39
654.985	12543.41
655.337	12634.71
655.688	12571.66
656.039	12670.87
656.391	12533.47
656.742	12546.35
657.094	12559.23
657.445	12631.32
657.796	12644.43
658.147	12586.58
658.498	12641.26
658.849	12587.03
659.2	12643.98
659.551	12595.39
659.902	12687.36
660.253	12627.25
660.604	12663.41
660.955	12646.69
661.306	12588.16
661.656	12561.27
662.007	12603.07
662.358	12634.71
662.708	12632
663.059	12712.9
663.409	12632.9
663.76	12626.35
664.11	12667.03
664.461	12658.89
664.811	12665.22
665.161	12673.13
665.511	12684.2
665.862	12619.34
666.212	12700.92
666.562	12648.04
666.912	12631.32
667.262	12649.63
667.612	12639.46
667.962	12673.35
668.312	12616.63
668.662	12698.21
669.011	12642.85
669.361	12584.32
669.711	12643.75
670.06	12669.74
670.41	12507.26
670.76	12499.8
671.109	12674.71
671.459	12671.77
671.808	12554.71
672.157	12620.7
672.507	12479.46
672.856	12500.02
673.205	12575.28
673.554	12511.78
673.904	12577.31
674.253	12612.34
674.602	12547.03
674.951	12388.84
675.3	12282.4
675.649	12504.77
675.998	12477.65
676.346	12480.82
676.695	12490.08
677.044	12364.89
677.393	12503.19
677.741	12507.26
678.09	12391.55
678.438	12368.5
678.787	12408.95
679.135	12425.68
679.484	12376.64
679.832	12252.8
680.181	12222.07
680.529	12277.88
680.877	12261.39
681.225	12182.29
681.573	12304.1
681.922	12197.89
682.27	12168.96
682.618	12149.53
682.966	12187.04
683.314	12216.19
683.661	12080.6
684.009	12066.82
684.357	12068.85
684.705	12035.4
685.053	12050.77
685.4	12025.69
685.748	11940.27
686.095	11869.76
686.443	11875.41
686.79	11862.75
687.138	11873.37
687.485	11866.82
687.832	11770.55
688.18	11764.68
688.527	11735.07
688.874	11769.42
689.221	11697.11
689.568	11670.67
689.915	11583.89
690.262	11626.15
690.609	11573.72
690.956	11517
691.303	11477.23
691.65	11438.13
691.997	11411.92
692.344	11345.03
692.69	11329.43
693.037	11265.71
693.383	11180.74
693.73	11268.87
694.077	11196.1
694.423	11216.89
694.769	11144.81
695.116	11110
695.462	11109.1
695.808	10986.84
696.155	11073.62
696.501	10954.75
696.847	10900.07
697.193	10920.86
697.539	10937.58
697.885	10792.72
698.231	10730.58
698.577	10749.79
698.923	10731.94
699.269	10702.33
699.614	10593.18
699.96	10567.42
700.306	10595.89
700.651	10500.08
700.997	10479.29
701.342	10469.12
701.688	10433.41
702.033	10323.13
702.379	10370.81
702.724	10400.64
703.069	10375.79
703.415	10245.62
703.76	10208.56
704.105	10172.85
704.45	10168.56
704.795	10095.79
705.14	10114.32
705.485	10065.74
705.83	10053.76
706.175	10054.44
706.52	9975.8
706.865	9955.91
707.209	9949.13
707.554	9893.31
707.899	9903.48
708.243	9814.67
708.588	9845.86
708.932	9741.23
709.277	9780.55
709.621	9781.45
709.966	9709.59
710.31	9710.95
710.654	9682.02
710.998	9596.37
711.342	9606.77
711.687	9634.34
712.031	9565.86
712.375	9533.32
712.719	9523.38
713.063	9532.87
713.407	9626.65
713.75	9498.07
714.094	9413.78
714.438	9411.74
714.782	9450.39
715.125	9412.65
715.469	9449.03
715.812	9402.7
716.156	9285.42
716.499	9362.71
716.843	9355.25
717.186	9290.62
717.53	9321.12
717.873	9335.14
718.216	9267.79
718.559	9270.28
718.902	9171.75
719.246	9134.24
719.589	9193.44
719.932	9163.16
720.275	9127.01
720.617	9141.69
720.96	9095.82
721.303	9154.8
721.646	9136.5
721.989	9036.16
722.331	9102.6
722.674	9131.53
723.016	9080.45
723.359	9050.17
723.701	9024.41
724.044	8952.77
724.386	8896.73
724.729	9010.85
725.071	8956.84
725.413	8993.22
725.755	9012.66
726.097	8896.5
726.439	8937.63
726.782	8950.74
727.124	8951.42
727.465	8924.75
727.807	8890.4
728.149	8882.94
728.491	8872.32
728.833	8898.76
729.175	8879.78
729.516	8906.22
729.858	8900.57
730.199	8855.6
730.541	8894.92
730.882	8823.51
731.224	8889.05
731.565	8844.53
731.906	8852.66
732.248	8865.09
732.589	8776.05
732.93	8910.51
733.271	8786.9
733.612	8856.73
733.953	8839.33
734.294	8850.18
734.635	8846.34
734.976	8792.55
735.317	8808.82
735.658	8767.24
735.999	8822.16
736.339	8737.41
736.68	8863.74
737.021	8844.75
737.361	8806.79
737.702	8884.75
738.042	8813.12
738.383	8765.43
738.723	8852.44
739.063	8871.65
739.404	8815.15
739.744	8863.28
740.084	8823.74
740.424	8863.28
740.764	8836.62
741.104	8848.6
741.444	8892.89
741.784	8958.65
742.124	8939.67
742.464	8980.57
742.804	8975.6
743.143	8961.81
743.483	8982.83
743.823	8983.51
744.162	9007.23
744.502	9052.66
744.841	9002.26
745.181	9111.64
745.52	9106.89
745.86	9205.2
746.199	9152.77
746.538	9192.99
746.877	9245.19
747.216	9344.18
747.556	9369.03
747.895	9375.13
748.234	9462.59
748.573	9455.81
748.911	9599.31
749.25	9604.96
749.589	9623.72
749.928	9705.3
750.267	9741.68
750.605	9834.11
750.944	9901.9
751.283	9977.15
751.621	10011.95
751.96	10009.69
752.298	10231.16
752.636	10334.43
752.975	10343.02
753.313	10418.05
753.651	10611.94
753.989	10562
754.327	10710.24
754.666	10745.04
755.004	11027.97
755.342	11116.56
755.679	11254.63
756.017	11276.33
756.355	11470.22
756.693	11610.78
757.031	11752.93
757.368	11776.88
757.706	11901.17
758.044	12062.07
758.381	12203.76
758.719	12318.11
759.056	12488.73
759.394	12660.02
759.731	12730.75
760.068	12937.53
760.405	13055.49
760.743	13280.12
761.08	13373.45
761.417	13483.5
761.754	13643.5
762.091	13859.54
762.428	13874.68
762.765	14106.54
763.102	14293.88
763.438	14349.47
763.775	14511.27
764.112	14716.24
764.449	14923.92
764.785	15045.95
765.122	15157.13
765.458	15237.35
765.795	15332.94
766.131	15567.97
766.467	15679.83
766.804	15811.58
767.14	15942.87
767.476	16031.91
767.812	16121.4
768.148	16362.07
768.485	16387.38
768.821	16372.24
769.157	16591.89
769.492	16682.51
769.828	16885.9
770.164	16863.3
770.5	16952.56
770.836	17119.56
771.171	17102.39
771.507	17244.76
771.842	17321.82
772.178	17314.14
772.513	17552.55
772.849	17642.49
773.184	17670.28
773.519	17771.52
773.855	17706.44
774.19	17744.41
774.525	17877.06
774.86	17948.24
775.195	18047
775.53	18004.96
775.865	18021.24
776.2	18049.94
776.535	18003.16
776.87	18107.33
777.205	18074.57
777.539	18116.6
777.874	18222.81
778.209	18136.71
778.543	18173.77
778.878	18249.93
779.212	18250.83
779.547	18293.32
779.881	18383.03
780.215	18342.58
780.55	18436.37
780.884	18371.06
781.218	18345.29
781.552	18467.1
781.886	18374.67
782.22	18339.19
782.554	18334.9
782.888	18297.61
783.222	18154.57
783.556	18320.44
783.889	18214.45
784.223	18138.29
784.557	18166.32
784.89	18228.46
785.224	18062.82
785.557	18147.79
785.891	18110.72
786.224	17995.7
786.558	18149.14
786.891	18090.84
787.224	17976.49
787.557	17935.59
787.891	17990.05
788.224	17948.47
788.557	18010.61
788.89	17893.55
789.223	17944.63
789.556	17858.53
789.888	17830.96
790.221	17724.75
790.554	17664.18
790.887	17696.5
791.219	17718.19
791.552	17631.41
791.884	17542.83
792.217	17620.57
792.549	17578.53
792.882	17416.28
793.214	17330.63
793.546	17480.68
793.879	17400.91
794.211	17250.41
794.543	17350.07
794.875	17247.02
795.207	17305.1
795.539	17253.12
795.871	17241.37
796.203	17099.23
796.535	17037.31
796.867	16999.34
797.198	16966.35
797.53	17013.8
797.862	16907.37
798.193	16889.51
798.525	16822.17
798.856	16887.71
799.188	16748.73
799.519	16672.34
799.85	16670.08
800.182	16632.57
800.513	16684.32
800.844	16508.05
801.175	16564.32
801.506	16608.84
801.837	16445.91
802.168	16466.47
802.499	16371.34
802.83	16275.29
803.161	16283.43
803.491	16210.21
803.822	16260.83
804.153	16177.22
804.483	16058.57
804.814	16051.8
805.145	16092.7
805.475	16030.55
805.805	15916.21
806.136	16014.51
806.466	16035.75
806.796	15997.79
807.126	15816.1
807.457	15803.67
807.787	15859.48
808.117	15765.93
808.447	15648.19
808.777	15669.43
809.107	15627.63
809.436	15547.63
809.766	15572.49
810.096	15517.35
810.426	15416.33
810.755	15497.01
811.085	15518.02
811.414	15454.3
811.744	15366.39
812.073	15347.41
812.403	15331.81
812.732	15259.05
813.061	15276.22
813.39	15205.26
813.719	15131.82
814.049	15264.7
814.378	15171.82
814.707	15138.15
815.036	15090.01
815.365	15026.29
815.693	14874.43
816.022	15045.95
816.351	14911.49
816.68	14750.81
817.008	14882.79
817.337	14821.55
817.665	14775.67
817.994	14803.01
818.322	14747.65
818.651	14659.29
818.979	14625.84
819.307	14660.42
819.636	14641.21
819.964	14599.4
820.292	14625.17
820.62	14637.6
820.948	14482.35
821.276	14651.38
821.604	14526.86
821.932	14626.3
822.259	14682.11
822.587	14584.72
822.915	14554.66
823.243	14556.02
823.57	14587.88
823.898	14532.06
824.225	14472.63
824.553	14445.96
824.88	14438.73
825.207	14570.93
825.535	14443.48
825.862	14528.9
826.189	14553.08
826.516	14589.69
826.843	14577.94
827.17	14518.95
827.497	14610.48
827.824	14563.92
828.151	14617.71
828.478	14633.08
828.805	14547.65
829.131	14512.63
829.458	14507.88
829.785	14489.35
830.111	14544.72
830.438	14531.84
830.764	14614.09
831.09	14581.55
831.417	14471.5
831.743	14532.29
832.069	14558.28
832.395	14386.53
832.722	14578.16
833.048	14506.3
833.374	14465.62
833.7	14457.04
834.026	14376.59
834.351	14518.05
834.677	14406.19
835.003	14393.08
835.329	14427.66
835.654	14361.9
835.98	14342.46
836.306	14387.43
836.631	14340.2
836.956	14307.21
837.282	14303.59
837.607	14222.69
837.932	14232.18
838.258	14230.15
838.583	14225.18
838.908	14185.18
839.233	14253.2
839.558	14109.7
839.883	14150.15
840.208	14065.41
840.533	14041.9
840.858	14106.08
841.182	14068.57
841.507	14059.08
841.832	13900.67
842.156	13909.25
842.481	13926.65
842.805	13879.65
843.13	13837.16
843.454	13876.94
843.778	13781.57
844.103	13760.78
844.427	13735.25
844.751	13671.29
845.075	13711.52
845.399	13626.32
845.723	13540.9
846.047	13620.22
846.371	13430.85
846.695	13403.05
847.019	13384.52
847.343	13354.69
847.666	13257.74
847.99	13144.08
848.313	13220.23
848.637	13061.59
848.96	13135.94
849.284	13000.8
849.607	12956.74
849.931	12968.26
850.254	12836.29
850.577	12717.65
850.9	12710.41
851.223	12689.17
851.546	12616.18
851.869	12597.87
852.192	12599.23
852.515	12456.86
852.838	12390.2
853.161	12393.13
853.483	12274.49
853.806	12337.54
854.129	12310.2
854.451	12196.76
854.774	12200.82
855.096	12139.13
855.419	12197.21
855.741	12034.27
856.063	12026.59
856.385	12075.63
856.708	11957.44
857.03	11925.35
857.352	11876.99
857.674	11859.36
857.996	11841.51
858.318	11754.73
858.64	11795.86
858.961	11712.02
859.283	11570.56
859.605	11666.6
859.926	11673.38
860.248	11605.36
860.57	11506.15
860.891	11527.39
861.212	11520.16
861.534	11471.58
861.855	11431.58
862.176	11453.72
862.498	11411.47
862.819	11379.15
863.14	11373.95
863.461	11423.67
863.782	11286.72
864.103	11354.97
864.424	11371.47
864.745	11270.9
865.065	11230
865.386	11140.51
865.707	11143.68
866.027	11175.31
866.348	11096.67
866.668	11200.4
866.989	11149.1
867.309	11091.93
867.63	11075.66
867.95	11059.84
868.27	11046.5
868.59	11026.16
868.91	11025.03
869.23	11033.62
869.55	10885.38
869.87	11006.05
870.19	10961.99
870.51	10953.62
870.83	10958.82
871.15	10874.98
871.469	10811.03
871.789	10887.64
872.109	10914.53
872.428	10779.17
872.748	10770.8
873.067	10800.41
873.386	10804.02
873.706	10671.37
874.025	10670.24
874.344	10644.71
874.663	10655.78
874.982	10649.68
875.301	10708.89
875.62	10611.71
875.939	10600.64
876.258	10635.67
876.577	10599.51
876.896	10593.41
877.214	10593.63
877.533	10561.32
877.852	10486.07
878.17	10436.35
878.489	10513.18
878.807	10475.22
879.125	10484.26
879.444	10465.73
879.762	10358.61
880.08	10437.71
880.398	10322.23
880.716	10417.14
881.034	10332.62
881.352	10379.85
881.67	10337.82
881.988	10330.59
882.306	10253.53
882.624	10227.54
882.941	10219.86
883.259	10159.52
883.577	10212.85
883.894	10160.42
884.212	10147.32
884.529	10145.74
884.846	10094.66
885.164	10068.68
885.481	10067.55
885.798	10065.06
886.115	9957.94
886.432	9987.32
886.75	9915.01
887.067	9944.84
887.383	9847.44
887.7	9946.87
888.017	9828
888.334	9835.69
888.651	9895.35
888.967	9760.21
889.284	9719.53
889.6	9731.06
889.917	9627.11
890.233	9644.28
890.55	9628.24
890.866	9584.85
891.182	9536.71
891.498	9521.12
891.815	9554.11
892.131	9535.36
892.447	9477.51
892.763	9352.54
893.079	9388.92
893.395	9426.66
893.71	9342.82
894.026	9349.15
894.342	9290.17
894.657	9167.68
894.973	9204.29
895.289	9135.37
895.604	9243.84
895.92	9130.4
896.235	9054.92
896.55	9101.7
896.865	9064.18
897.181	9003.17
897.496	9035.26
897.811	8948.03
898.126	8887.69
898.441	8859.67
898.756	8832.1
899.071	8741.71
899.386	8762.27
899.7	8708.26
900.015	8717.3
900.33	8600.47
900.644	8639.33
900.959	8725.89
901.273	8633.23
901.588	8504.2
901.902	8470.3
902.216	8477.98
902.531	8519.11
902.845	8463.97
903.159	8424.43
903.473	8417.42
903.787	8396.18
904.101	8311.21
904.415	8283.86
904.729	8238.67
905.042	8168.84
905.356	8239.35
905.67	8164.77
905.984	8163.19
906.297	8054.49
906.611	8061.5
906.924	7980.6
907.237	8010.88
907.551	8029.63
907.864	7930.88
908.177	7942.86
908.491	7917.32
908.804	7819.02
909.117	7763.43
909.43	7723.88
909.743	7694.5
910.056	7738.57
910.368	7722.07
910.681	7622.64
910.994	7633.26
911.307	7601.62
911.619	7516.2
911.932	7538.12
912.244	7489.53
912.557	7482.76
912.869	7412.25
913.181	7351.46
913.494	7423.55
913.806	7305.36
914.118	7307.84
914.43	7239.6
914.742	7273.72
915.054	7251.35
915.366	7199.37
915.678	7161.86
915.99	7112.82
916.302	7098.36
916.613	7057
916.925	7006.16
917.236	7081.18
917.548	6954.18
917.859	6945.14
918.171	6902.88
918.482	6894.3
918.794	6819.27
919.105	6862.43
919.416	6820.85
919.727	6821.08
920.038	6821.53
920.349	6705.15
920.66	6680.97
920.971	6721.65
921.282	6674.87
921.593	6589.9
921.903	6583.57
922.214	6556.45
922.525	6527.3
922.835	6498.83
923.146	6525.04
923.456	6484.14
923.767	6354.88
924.077	6354.88
924.387	6372.73
924.697	6297.48
925.008	6375.44
925.318	6273.75
925.628	6294.54
925.938	6290.47
926.248	6255.67
926.558	6187.65
926.867	6196.91
927.177	6202.11
927.487	6147.88
927.796	6095.45
928.106	6059.74
928.416	6062.68
928.725	5984.94
929.034	6048.89
929.344	5921.67
929.653	5944.26
929.962	5920.76
930.271	5833.99
930.581	5909.46
930.89	5817.71
931.199	5795.57
931.508	5783.59
931.817	5818.17
932.125	5773.2
932.434	5782.01
932.743	5699.98
933.051	5648.45
933.36	5630.15
933.669	5638.51
933.977	5574.1
934.286	5653.88
934.594	5631.96
934.902	5574.78
935.21	5549.25
935.519	5483.26
935.827	5513.77
936.135	5456.82
936.443	5393.54
936.751	5371.62
937.059	5358.29
937.367	5351.06
937.674	5323.94
937.982	5335.24
938.29	5306.09
938.597	5288.69
938.905	5228.35
939.213	5192.19
939.52	5198.52
939.827	5205.53
940.135	5200.56
940.442	5173.44
940.749	5118.07
941.056	5085.53
941.363	5038.07
941.67	5081.01
941.977	4992.88
942.284	4970.96
942.591	5016.61
942.898	4973.44
943.205	4934.12
943.511	4925.53
943.818	4916.27
944.125	4926.21
944.431	4868.13
944.738	4847.12
945.044	4848.25
945.35	4783.39
945.657	4756.95
945.963	4744.52
946.269	4659.33
946.575	4738.87
946.881	4692.77
947.187	4657.52
947.493	4630.4
947.799	4637.18
948.105	4564.87
948.41	4580.01
948.716	4613
949.022	4567.13
949.327	4533.68
949.633	4529.84
949.938	4521.03
950.244	4509.73
950.549	4455.94
950.854	4401.25
951.16	4430.86
951.465	4420.01
951.77	4380.01
952.075	4382.72
952.38	4334.82
952.685	4345.21
952.99	4332.56
953.294	4326.45
953.599	4279.68
953.904	4267.7
954.209	4265.44
954.513	4245.1
954.818	4206.23
955.122	4191.09
955.426	4130.53
955.731	4177.31
956.035	4108.83
956.339	4151.54
956.643	4095.5
956.948	4065.67
957.252	4038.78
957.556	4032.22
957.86	4019.34
958.163	3984.99
958.467	3999.68
958.771	3974.6
959.075	3961.04
959.378	3911.55
959.682	3940.93
959.985	3916.75
960.289	3868.61
960.592	3844.43
960.896	3850.53
961.199	3813.25
961.502	3816.18
961.805	3815.51
962.108	3778.45
962.411	3767.37
962.714	3713.59
963.017	3721.05
963.32	3733.02
963.623	3707.49
963.926	3698.9
964.228	3651.22
964.531	3682.18
964.833	3671.1
965.136	3624.55
965.438	3595.17
965.741	3603.31
966.043	3571.67
966.345	3603.54
966.648	3545.01
966.95	3544.1
967.252	3498.23
967.554	3451.67
967.856	3483.76
968.158	3471.11
968.46	3439.47
968.761	3479.92
969.063	3422.97
969.365	3392.47
969.666	3432.47
969.968	3406.25
970.269	3364.45
970.571	3358.8
970.872	3343.88
971.174	3339.36
971.475	3310.21
971.776	3323.99
972.077	3299.81
972.378	3287.84
972.679	3244.45
972.98	3247.84
973.281	3237.67
973.582	3213.71
973.883	3166.71
974.183	3161.96
974.484	3181.85
974.785	3144.11
975.085	3144.56
975.386	3182.3
975.686	3114.51
975.986	3104.34
976.287	3132.81
976.587	3059.14
976.887	3051.01
977.187	3033.38
977.487	3058.24
977.787	3009.2
978.087	2972.14
978.387	2972.82
978.687	2984.79
978.987	2944.57
979.286	2968.75
979.586	2924.01
979.885	2946.15
980.185	2932.59
980.484	2870.9
980.784	2897.11
981.083	2865.93
981.382	2879.26
981.682	2856.44
981.981	2836.78
982.28	2821.18
982.579	2790.68
982.878	2797.23
983.177	2784.12
983.475	2777.12
983.774	2773.5
984.073	2744.57
984.372	2741.18
984.67	2690.11
984.969	2729.66
985.267	2678.59
985.566	2678.59
985.864	2669.1
986.162	2715.87
986.461	2650.79
986.759	2667.29
987.057	2615.54
987.355	2610.11
987.653	2592.94
987.951	2613.73
988.249	2585.03
988.547	2562.21
988.844	2570.34
989.142	2556.78
989.44	2531.47
989.737	2497.8
990.035	2498.25
990.332	2504.36
990.63	2467.29
990.927	2449.22
991.224	2498.48
991.521	2507.29
991.819	2474.53
992.116	2474.53
992.413	2396.11
992.71	2417.13
993.006	2405.83
993.303	2400.18
993.6	2398.82
993.897	2378.48
994.193	2377.8
994.49	2332.83
994.787	2332.61
995.083	2302.1
995.379	2331.03
995.676	2302.78
995.972	2300.29
996.268	2275.66
996.565	2260.29
996.861	2234.76
997.157	2267.53
997.453	2239.96
997.749	2220.75
998.044	2179.39
998.34	2184.14
998.636	2175.1
998.932	2165.15
999.227	2164.25
999.523	2161.54
999.818	2145.72
1000.114	2116.12
1000.409	2121.99
1000.704	2111.6
1001	2069.79
1001.295	2103.46
1001.59	2078.15
1001.885	2089.68
1002.18	2021.88
1002.475	2034.54
1002.77	2032.96
1003.065	2039.06
1003.359	2006.52
1003.654	1993.86
1003.949	1978.95
1004.243	1978.49
1004.538	1976.23
1004.832	1960.19
1005.127	1966.29
1005.421	1903.69
1005.715	1906.63
1006.009	1901.66
1006.304	1888.55
1006.598	1896.46
1006.892	1873.86
1007.186	1876.12
1007.48	1842.68
1007.773	1813.07
1008.067	1831.6
1008.361	1821.21
1008.655	1811.94
1008.948	1811.49
1009.242	1795.22
1009.535	1771.04
1009.829	1757.93
1010.122	1743.7
1010.415	1736.24
1010.708	1773.3
1011.001	1746.18
1011.295	1716.58
1011.588	1692.85
1011.881	1690.37
1012.173	1707.54
1012.466	1696.47
1012.759	1660.08
1013.052	1672.29
1013.344	1686.3
1013.637	1624.83
1013.93	1595.68
1014.222	1620.76
1014.514	1627.54
1014.807	1601.78
1015.099	1623.47
1015.391	1615.34
1015.683	1565.17
1015.976	1586.41
1016.268	1545.74
1016.56	1564.04
1016.851	1550.48
1017.143	1553.19
1017.435	1527.21
1017.727	1515.45
1018.018	1499.86
1018.31	1510.48
1018.602	1501.22
1018.893	1474.55
1019.185	1478.62
1019.476	1442.46
1019.767	1457.6
1020.058	1466.87
1020.35	1421.45
1020.641	1431.16
1020.932	1418.96
1021.223	1381.22
1021.514	1395.01
1021.804	1407.66
1022.095	1361.11
1022.386	1381.45
1022.677	1355.68
1022.967	1355.01
1023.258	1336.02
1023.548	1349.58
1023.839	1315.69
1024.129	1328.34
1024.419	1315.01
1024.709	1287.89
1025	1302.13
1025.29	1305.06
1025.58	1274.1
1025.87	1287.89
1026.16	1282.69
1026.449	1272.52
1026.739	1257.38
1027.029	1259.19
1027.319	1215.12
1027.608	1236.82
1027.898	1208.8
1028.187	1209.7
1028.477	1206.31
1028.766	1183.94
1029.055	1171.73
1029.344	1187.78
1029.634	1159.76
1029.923	1140.32
1030.212	1151.4
1030.501	1135.13
1030.79	1142.13
1031.078	1115.92
1031.367	1131.96
1031.656	1117.95
1031.945	1111.4
1032.233	1111.85
1032.522	1098.74
1032.81	1076.14
1033.099	1075.24
1033.387	1069.14
1033.675	1077.27
1033.963	1051.29
1034.251	1046.31
1034.54	1042.02
1034.828	1039.99
1035.116	1021.23
1035.403	1024.85
1035.691	999.08
1035.979	1010.16
1036.267	992.08
1036.554	997.05
1036.842	982.14
1037.129	954.79
1037.417	969.48
1037.704	980.1
1037.992	964.06
1038.279	938.97
1038.566	968.58
1038.853	968.58
1039.14	968.58
