Data from hue_270_FLMS001491_00060.txt Node
Date: Tue Feb 07 15:57:24 GMT 2017
User: dcchb
Spectrometer: FLMS00149
Trigger mode: 0
Integration Time (sec): 2.000000E-2
Scans to average: 10
Electric dark correction enabled: true
Nonlinearity correction enabled: false
Boxcar width: 0
XAxis mode: Wavelengths
Number of Pixels in Spectrum: 2048
>>>>>Begin Spectral Data<<<<<
341.393	-8.11
341.776	-8.11
342.16	-8.11
342.543	-68.44
342.927	-89.23
343.31	-68.22
343.693	-77.71
344.077	-60.31
344.46	-58.28
344.843	-48.11
345.226	-38.61
345.61	-22.57
345.993	-20.08
346.376	-41.1
346.759	1.61
347.142	22.63
347.525	30.99
347.908	66.92
348.291	94.26
348.674	99.69
349.057	118.9
349.44	131.32
349.823	142.4
350.206	161.83
350.588	170.19
350.971	218.55
351.354	212.23
351.737	239.57
352.119	231.21
352.502	255.39
352.884	252.23
353.267	272.34
353.65	274.82
354.032	308.72
354.414	279.34
354.797	306.69
355.179	311.66
355.562	316.63
355.944	326.57
356.326	317.99
356.709	320.7
357.091	343.07
357.473	309.17
357.855	327.25
358.238	332.45
358.62	334.03
359.002	340.81
359.384	336.97
359.766	341.94
360.148	312.56
360.53	319.57
360.912	331.09
361.294	328.16
361.676	322.28
362.057	334.93
362.439	312.79
362.821	306.23
363.203	314.37
363.584	327.48
363.966	318.44
364.348	319.57
364.729	310.08
365.111	312.79
365.493	311.21
365.874	325.22
366.256	332.45
366.637	307.14
367.019	319.12
367.4	318.21
367.781	318.21
368.163	284.09
368.544	312.11
368.925	303.07
369.306	323.64
369.688	302.62
370.069	300.59
370.45	322.96
370.831	310.08
371.212	299
371.593	297.2
371.974	297.65
372.355	322.28
372.736	282.28
373.117	315.73
373.498	311.21
373.879	320.7
374.26	303.07
374.641	308.04
375.021	319.57
375.402	317.99
375.783	328.83
376.163	327.03
376.544	325.67
376.925	312.56
377.305	302.17
377.686	320.7
378.066	320.02
378.447	330.64
378.827	346.01
379.208	307.59
379.588	341.49
379.968	337.65
380.349	329.74
380.729	323.86
381.109	341.26
381.489	329.96
381.87	341.49
382.25	324.99
382.63	325.9
383.01	332.67
383.39	332.45
383.77	343.97
384.15	330.87
384.53	334.71
384.91	332.22
385.29	345.33
385.67	361.6
386.049	350.3
386.429	357.31
386.809	362.05
387.189	347.14
387.568	353.69
387.948	380.58
388.328	360.02
388.707	353.92
389.087	346.23
389.466	354.37
389.846	375.84
390.225	378.78
390.605	373.35
390.984	371.54
391.363	364.09
391.743	379.91
392.122	403.18
392.501	388.27
392.881	376.06
393.26	375.61
393.639	390.98
394.018	391.2
394.397	402.73
394.776	377.19
395.155	370.19
395.534	400.92
395.913	371.54
396.292	373.35
396.671	385.33
397.05	395.72
397.429	423.07
397.808	388.49
398.186	398.89
398.565	386.46
398.944	428.49
399.323	401.6
399.701	415.61
400.08	432.33
400.458	407.25
400.837	410.64
401.215	439.56
401.594	430.75
401.972	397.31
402.351	454.03
402.729	419.9
403.107	429.17
403.486	432.79
403.864	433.01
404.242	471.2
404.62	453.35
404.999	460.81
405.377	478.89
405.755	446.57
406.133	456.06
406.511	455.16
406.889	469.17
407.267	462.16
407.645	489.05
408.023	487.47
408.401	487.47
408.779	510.98
409.156	468.26
409.534	512.56
409.912	522.95
410.29	505.1
410.667	522.05
411.045	541.48
411.422	525.44
411.8	532.9
412.178	552.78
412.555	575.38
412.933	555.72
413.31	559.34
413.687	595.27
414.065	578.54
414.442	602.72
414.819	612.22
415.197	607.92
415.574	597.3
415.951	627.81
416.328	610.41
416.705	640.92
417.082	629.39
417.46	632.1
417.837	647.92
418.214	642.95
418.591	656.96
418.967	687.92
419.344	654.47
419.721	649.05
420.098	675.26
420.475	713.23
420.852	718.88
421.228	736.51
421.605	717.98
421.982	771.08
422.358	748.26
422.735	762.04
423.111	780.8
423.488	790.52
423.864	776.05
424.241	802.49
424.617	813.79
424.994	828.71
425.37	803.4
425.746	823.96
426.123	849.5
426.499	839.78
426.875	871.87
427.251	846.33
427.627	880.23
428.003	906.45
428.379	898.99
428.756	931.98
429.132	931.76
429.507	978.76
429.883	952.09
430.259	964.3
430.635	976.27
431.011	955.26
431.387	997.74
431.763	1005.88
432.138	1008.82
432.514	1016.95
432.89	1060.57
433.265	1061.92
433.641	1039.55
434.016	1107.12
434.392	1132.2
434.767	1119.77
435.143	1147.57
435.518	1146.66
435.894	1200.67
436.269	1183.95
436.644	1211.97
437.02	1253.1
437.395	1239.32
437.77	1272.54
438.145	1264.85
438.52	1284.97
438.895	1304.17
439.271	1345.08
439.646	1355.47
440.021	1358.86
440.395	1342.14
440.77	1356.15
441.145	1349.6
441.52	1399.99
441.895	1415.13
442.27	1443.15
442.645	1452.87
443.019	1470.05
443.394	1465.53
443.769	1481.57
444.143	1455.81
444.518	1526.54
444.892	1488.58
445.267	1527.22
445.641	1541.91
446.016	1551.63
446.39	1544.39
446.764	1555.69
447.139	1551.63
447.513	1575.81
447.887	1568.8
448.262	1573.77
448.636	1621.91
449.01	1606.09
449.384	1639.53
449.758	1630.72
450.132	1643.15
450.506	1653.32
450.88	1694.45
451.254	1668.01
451.628	1651.28
452.002	1699.19
452.376	1724.05
452.75	1715.24
453.123	1739.42
453.497	1783.48
453.871	1761.79
454.244	1789.59
454.618	1841.34
454.992	1850.15
455.365	1830.04
455.739	1898.51
456.112	1904.16
456.486	1911.84
456.859	1917.72
457.232	1989.35
457.606	1950.49
457.979	1984.83
458.352	2029.35
458.725	2010.6
459.099	2045.62
459.472	2054.21
459.845	2097.83
460.218	2068.45
460.591	2103.48
460.964	2112.74
461.337	2167.65
461.71	2171.04
462.083	2197.48
462.456	2218.28
462.829	2243.59
463.201	2272.74
463.574	2262.79
463.947	2285.84
464.32	2345.96
464.692	2346.18
465.065	2342.34
465.438	2396.12
465.81	2423.24
466.183	2412.39
466.555	2520.87
466.928	2511.6
467.3	2463.01
467.672	2577.14
468.045	2558.61
468.417	2618.49
468.789	2622.78
469.161	2625.5
469.534	2647.42
469.906	2723.35
470.278	2760.41
470.65	2763.8
471.022	2802.89
471.394	2866.17
471.766	2830.46
472.138	2900.52
472.51	2942.78
472.882	2964.24
473.253	3014.19
473.625	3020.51
473.997	3058.25
474.369	3110
474.74	3093.73
475.112	3136.44
475.484	3197.23
475.855	3257.57
476.227	3268.64
476.598	3358.13
476.97	3370.34
477.341	3459.82
477.713	3502.31
478.084	3468.64
478.455	3547.28
478.827	3556.77
479.198	3684
479.569	3692.13
479.94	3767.39
480.311	3772.58
480.682	3851.9
481.053	3947.04
481.424	3977.55
481.795	3985.01
482.166	4029.3
482.537	4100.71
482.908	4148.17
483.279	4168.51
483.65	4253.02
484.021	4324.66
484.391	4335.06
484.762	4406.24
485.133	4392.91
485.503	4455.96
485.874	4536.86
486.244	4536.63
486.615	4664.54
486.985	4661.83
487.356	4775.27
487.726	4737.76
488.097	4854.14
488.467	4868.15
488.837	4920.35
489.207	4994.02
489.578	5065.43
489.948	5048.26
490.318	5137.52
490.688	5134.13
491.058	5211.64
491.428	5261.81
491.798	5288.48
492.168	5433.33
492.538	5389.94
492.908	5512.65
493.278	5513.1
493.648	5512.43
494.017	5528.02
494.387	5602.14
494.757	5615.02
495.126	5696.83
495.496	5742.7
495.866	5707
496.235	5775.92
496.605	5808.92
496.974	5862.02
497.344	5878.97
497.713	5927.33
498.082	5989.48
498.452	6003.26
498.821	6020.21
499.19	6003.26
499.559	6036.48
499.928	6037.61
500.298	6047.1
500.667	6169.13
501.036	6134.56
501.405	6186.31
501.774	6197.83
502.143	6255.23
502.512	6227.21
502.88	6277.83
503.249	6301.56
503.618	6356.47
503.987	6338.17
504.356	6310.82
504.724	6375.23
505.093	6418.84
505.462	6417.03
505.83	6504.72
506.199	6504.26
506.567	6576.58
506.936	6527.99
507.304	6617.48
507.672	6641.89
508.041	6684.37
508.409	6654.77
508.777	6708.78
509.145	6720.53
509.514	6674.2
509.882	6769.79
510.25	6730.7
510.618	6747.65
510.986	6762.34
511.354	6803.69
511.722	6841.88
512.09	6926.63
512.458	6863.8
512.826	6913.07
513.193	6942.9
513.561	6944.03
513.929	7007.98
514.297	7046.62
514.664	7026.28
515.032	7050.46
515.4	7065.83
515.767	7116
516.135	7091.82
516.502	7072.16
516.869	7163.23
517.237	7176.79
517.604	7167.75
517.972	7219.27
518.339	7191.03
518.706	7220.86
519.073	7237.58
519.44	7200.52
519.808	7329.78
520.175	7274.64
520.542	7351.25
520.909	7371.36
521.276	7332.26
521.643	7378.14
522.009	7497.23
522.376	7454.52
522.743	7464.69
523.11	7508.98
523.477	7514.63
523.843	7583.33
524.21	7603.67
524.577	7640.96
524.943	7710.33
525.31	7636.44
525.676	7735.64
526.043	7742.2
526.409	7819.71
526.776	7867.62
527.142	7810.67
527.508	7807.73
527.874	7842.53
528.241	7938.8
528.607	7893.38
528.973	7941.51
529.339	7942.19
529.705	7934.51
530.071	8019.03
530.437	8014.51
530.803	8073.71
531.169	8117.78
531.535	8085.24
531.901	8057.9
532.267	8079.14
532.632	8135.63
532.998	8183.32
533.364	8209.76
533.73	8138.35
534.095	8229.19
534.461	8243.2
534.826	8228.06
535.192	8233.26
535.557	8345.35
535.923	8246.82
536.288	8326.36
536.653	8334.95
537.019	8278.23
537.384	8309.64
537.749	8305.35
538.114	8368.4
538.479	8322.07
538.845	8332.01
539.21	8332.69
539.575	8363.42
539.94	8360.03
540.305	8387.83
540.67	8367.49
541.034	8434.38
541.399	8442.29
541.764	8455.85
542.129	8394.16
542.494	8510.09
542.858	8468.28
543.223	8536.75
543.587	8514.15
543.952	8479.13
544.316	8553.48
544.681	8520.93
545.045	8551.89
545.41	8582.4
545.774	8531.56
546.138	8538.33
546.503	8623.76
546.867	8569.29
547.231	8645.22
547.595	8627.37
547.959	8628.95
548.324	8654.26
548.688	8619.46
549.052	8663.53
549.416	8683.87
549.779	8597.54
550.143	8632.12
550.507	8689.97
550.871	8710.53
551.235	8744.88
551.599	8770.42
551.962	8771.78
552.326	8744.66
552.689	8831.89
553.053	8743.75
553.417	8754.15
553.78	8864.65
554.143	8762.74
554.507	8821.27
554.87	8840.25
555.234	8952.34
555.597	8833.69
555.96	8873.47
556.323	8879.34
556.686	8883.64
557.05	8958.21
557.413	8944.2
557.776	8995.27
558.139	9043.18
558.502	9052.67
558.865	9011.77
559.228	9155.72
559.59	9017.19
559.953	9102.84
560.316	9208.15
560.679	9163.18
561.041	9222.38
561.404	9251.76
561.767	9319.33
562.129	9242.27
562.492	9309.84
562.854	9294.7
563.217	9299.44
563.579	9399.78
563.941	9435.49
564.304	9402.49
564.666	9460.34
565.028	9534.47
565.39	9529.04
565.753	9562.71
566.115	9554.13
566.477	9619.66
566.839	9637.06
567.201	9656.72
567.563	9705.31
567.925	9694.01
568.287	9786.89
568.648	9764.29
569.01	9807
569.372	9832.31
569.734	9871.18
570.095	9848.36
570.457	9931.29
570.819	9959.77
571.18	9937.17
571.542	10029.6
571.903	10025.75
572.265	10066.2
572.626	10158.41
572.987	10054.45
573.349	10114.11
573.71	10191.17
574.071	10314.56
574.432	10254
574.794	10285.18
575.155	10343.26
575.516	10311.4
575.877	10334.67
576.238	10390.26
576.599	10470.49
576.96	10458.51
577.32	10438.85
577.681	10537.83
578.042	10577.6
578.403	10599.52
578.763	10637.94
579.124	10676.58
579.485	10694.66
579.845	10701.67
580.206	10683.82
580.566	10719.75
580.927	10743.93
581.287	10798.84
581.648	10837.94
582.008	10917.48
582.368	10872.74
582.728	10931.72
583.089	10969.91
583.449	10923.13
583.809	11009.23
584.169	11056.01
584.529	11052.84
584.889	11128.78
585.249	11068.89
585.609	11155.44
585.969	11143.92
586.329	11149.34
586.688	11192.28
587.048	11264.36
587.408	11239.73
587.768	11231.37
588.127	11295.1
588.487	11269.11
588.846	11448.54
589.206	11336.91
589.565	11383.01
589.925	11523.34
590.284	11410.12
590.643	11589.55
591.003	11583.9
591.362	11539.39
591.721	11548.43
592.08	11533.51
592.44	11610.12
592.799	11626.16
593.158	11584.13
593.517	11685.6
593.876	11735.09
594.235	11691.47
594.593	11754.52
594.952	11762.66
595.311	11785.48
595.67	11891.47
596.029	11907.96
596.387	11856.44
596.746	11936.21
597.104	11909.55
597.463	11880.85
597.822	11974.18
598.18	11945.02
598.538	11957.68
598.897	12081.52
599.255	11954.97
599.613	12126.26
599.972	12070.45
600.33	12117
600.688	12070.22
601.046	12046.27
601.404	12114.51
601.762	12075.64
602.12	12178.47
602.478	12178.47
602.836	12163.78
603.194	12089.65
603.552	12205.81
603.91	12126.94
604.268	12248.29
604.625	12161.52
604.983	12145.02
605.341	12199.48
605.698	12266.37
606.056	12314.05
606.413	12330.1
606.771	12352.02
607.128	12364
607.485	12339.14
607.843	12328.52
608.2	12323.55
608.557	12361.74
608.914	12349.76
609.272	12475.41
609.629	12462.98
609.986	12506.59
610.343	12393.6
610.7	12569.64
611.057	12520.6
611.414	12455.97
611.771	12592.47
612.127	12498.68
612.484	12593.14
612.841	12623.88
613.198	12562.41
613.554	12663.2
613.911	12585.01
614.267	12616.19
614.624	12641.28
614.98	12713.14
615.337	12721.95
615.693	12684.89
616.05	12707.26
616.406	12749.98
616.762	12752.24
617.118	12650.54
617.475	12761.73
617.831	12729.19
618.187	12728.28
618.543	12697.1
618.899	12848.5
619.255	12839.01
619.611	12824.32
619.967	12890.31
620.323	12907.49
620.678	12858.67
621.034	12833.59
621.39	12805.12
621.746	12899.12
622.101	12942.06
622.457	12833.82
622.812	12901.61
623.168	12830.43
623.523	12891.67
623.879	12978.67
624.234	12851.22
624.589	12858
624.945	12836.98
625.3	12944.77
625.655	13003.08
626.01	12861.16
626.365	12928.5
626.72	12874.72
627.075	12806.92
627.43	12941.83
627.785	12878.56
628.14	12873.14
628.495	12874.72
628.85	12905.68
629.205	12855.96
629.559	12922.85
629.914	12864.77
630.269	12803.53
630.623	12818.9
630.978	12802.86
631.332	12846.7
631.687	12822.97
632.041	12763.53
632.396	12770.54
632.75	12768.28
633.104	12780.71
633.459	12704.78
633.813	12645.35
634.167	12619.36
634.521	12714.27
634.875	12661.39
635.229	12680.6
635.583	12636.31
635.937	12676.53
636.291	12614.61
636.645	12581.39
636.999	12532.58
637.352	12589.3
637.706	12458.23
638.06	12497.78
638.413	12457.1
638.767	12479.25
639.121	12499.81
639.474	12425.92
639.828	12441.74
640.181	12409.87
640.534	12409.19
640.888	12527.61
641.241	12427.5
641.594	12393.37
641.947	12343.21
642.301	12367.16
642.654	12411.68
643.007	12438.8
643.36	12338.91
643.713	12266.6
644.066	12287.61
644.419	12219.14
644.771	12286.48
645.124	12208.07
645.477	12062.76
645.83	12083.78
646.182	12017.11
646.535	11977.79
646.888	11938.02
647.24	11757.91
647.593	11916.55
647.945	11854.63
648.298	11835.2
648.65	11846.95
649.002	11831.13
649.355	11898.47
649.707	11877.23
650.059	11943.89
650.411	12044.68
650.763	12099.37
651.115	12241.29
651.467	12074.29
651.819	12156.77
652.171	12158.35
652.523	12094.63
652.875	12182.31
653.227	12050.33
653.578	12184.79
653.93	12076.77
654.282	12008.75
654.633	12052.37
654.985	12062.76
655.337	12071.8
655.688	12118.81
656.039	12028.64
656.391	11993.39
656.742	12060.73
657.094	12030.9
657.445	12067.06
657.796	12132.82
658.147	12114.74
658.498	12107.51
658.849	12147.51
659.2	12173.49
659.551	12030.45
659.902	12082.2
660.253	12086.04
660.604	12113.38
660.955	12050.33
661.306	12110.22
661.656	12053.72
662.007	12091.01
662.358	12142.08
662.708	12097.79
663.059	12106.6
663.409	12065.25
663.76	12140.05
664.11	12155.41
664.461	12164.45
664.811	12206.26
665.161	12097.79
665.511	12097.11
665.862	12111.57
666.212	12139.14
666.562	12127.84
666.912	12089.2
667.262	12102.53
667.612	12070.9
667.962	12102.99
668.312	12049.2
668.662	12119.26
669.011	12115.64
669.361	12046.72
669.711	12078.35
670.06	12102.99
670.41	11992.71
670.76	12066.83
671.109	12090.56
671.459	12063.67
671.808	12093.27
672.157	12080.39
672.507	11936.66
672.856	11932.6
673.205	12015.08
673.554	11997.23
673.904	11902.77
674.253	12063.89
674.602	11944.35
674.951	11782.32
675.3	11780.06
675.649	11899.15
675.998	11917
676.346	11927.85
676.695	11954.97
677.044	11845.37
677.393	11908.19
677.741	11925.14
678.09	11877
678.438	11797.01
678.787	11820.51
679.135	11833.84
679.484	11690.34
679.832	11750.45
680.181	11728.53
680.529	11741.41
680.877	11613.96
681.225	11671.13
681.573	11757.01
681.922	11646.28
682.27	11591.59
682.618	11571.48
682.966	11497.58
683.314	11617.35
683.661	11550.01
684.009	11530.12
684.357	11475.66
684.705	11415.1
685.053	11441.31
685.4	11419.39
685.748	11383.68
686.095	11432.04
686.443	11312.5
686.79	11385.72
687.138	11339.39
687.485	11375.55
687.832	11275.66
688.18	11250.35
688.527	11122.9
688.874	11221.88
689.221	11185.5
689.568	11100.08
689.915	11076.8
690.262	11105.95
690.609	11088.55
690.956	11013.07
691.303	11028.66
691.65	10981.43
691.997	10900.76
692.344	10808.11
692.69	10823.92
693.037	10854.66
693.383	10678.84
693.73	10757.49
694.077	10669.8
694.423	10726.75
694.769	10616.25
695.116	10672.97
695.462	10599.75
695.808	10470.71
696.155	10590.94
696.501	10472.52
696.847	10480.88
697.193	10361.11
697.539	10414.67
697.885	10348.68
698.231	10302.36
698.577	10362.24
698.923	10246.54
699.269	10197.27
699.614	10120.67
699.96	10131.74
700.306	10132.87
700.651	10089.25
700.997	10030.05
701.342	10092.87
701.688	10015.58
702.033	9938.75
702.379	9922.71
702.724	9879.54
703.069	9861.46
703.415	9781.01
703.76	9828.7
704.105	9830.05
704.45	9811.07
704.795	9695.82
705.14	9679.32
705.485	9638.42
705.83	9559.55
706.175	9556.39
706.52	9573.11
706.865	9566.56
707.209	9556.61
707.554	9463.28
707.899	9500.57
708.243	9410.63
708.588	9422.61
708.932	9354.58
709.277	9312.33
709.621	9370.18
709.966	9293.57
710.31	9315.94
710.654	9277.07
710.998	9274.59
711.342	9277.75
711.687	9225.77
712.031	9205.44
712.375	9174.02
712.719	9144.87
713.063	9198.43
713.407	9155.27
713.75	9115.72
714.094	9130.41
714.438	9026.91
714.782	9108.26
715.125	8966.57
715.469	9047.93
715.812	9014.03
716.156	8924.09
716.499	8946.23
716.843	8936.06
717.186	8943.52
717.53	8923.18
717.873	8979.23
718.216	8952.56
718.559	8861.26
718.902	8819.01
719.246	8844.77
719.589	8802.96
719.932	8793.7
720.275	8778.55
720.617	8806.8
720.96	8770.65
721.303	8760.25
721.646	8708.73
721.989	8742.4
722.331	8697.43
722.674	8704.66
723.016	8704.66
723.359	8706.92
723.701	8751.89
724.044	8683.19
724.386	8615.62
724.729	8634.83
725.071	8616.3
725.413	8611.1
725.755	8578.33
726.097	8609.52
726.439	8580.37
726.782	8568.62
727.124	8531.33
727.465	8537.2
727.807	8611.55
728.149	8478.68
728.491	8511.89
728.833	8550.99
729.175	8542.63
729.516	8489.97
729.858	8555.28
730.199	8496.08
730.541	8431.67
730.882	8480.71
731.224	8431.67
731.565	8492.69
731.906	8449.52
732.248	8475.74
732.589	8439.13
732.93	8450.43
733.271	8409.3
733.612	8506.92
733.953	8463.53
734.294	8397.32
734.635	8395.74
734.976	8420.37
735.317	8469.86
735.658	8404.1
735.999	8467.15
736.339	8438.22
736.68	8427.6
737.021	8456.08
737.361	8454.27
737.702	8515.96
738.042	8416.98
738.383	8418.79
738.723	8442.07
739.063	8501.05
739.404	8511.89
739.744	8456.53
740.084	8463.76
740.424	8485.23
740.764	8529.52
741.104	8575.17
741.444	8460.82
741.784	8474.61
742.124	8523.19
742.464	8493.59
742.804	8495.85
743.143	8566.36
743.483	8587.6
743.823	8530.88
744.162	8507.83
744.502	8580.82
744.841	8571.33
745.181	8627.82
745.52	8617.88
745.86	8707.37
746.199	8727.71
746.538	8721.15
746.877	8750.98
747.216	8817.42
747.556	8802.73
747.895	8922.73
748.234	8862.85
748.573	8896.74
748.911	8963.86
749.25	9021.94
749.589	9024.42
749.928	9165.21
750.267	9200.24
750.605	9249.73
750.944	9268.03
751.283	9298.09
751.621	9427.35
751.96	9500.8
752.298	9597.74
752.636	9643.39
752.975	9665.76
753.313	9763.84
753.651	9856.94
753.989	10035.24
754.327	10025.3
754.666	10119.76
755.004	10276.59
755.342	10328.34
755.679	10400.88
756.017	10497.83
756.355	10736.47
756.693	10775.34
757.031	10950.47
757.368	11013.3
757.706	11151.6
758.044	11238.38
758.381	11437.69
758.719	11446.73
759.056	11648.54
759.394	11790
759.731	11902.09
760.068	12080.61
760.405	12161.52
760.743	12319.48
761.08	12560.38
761.417	12576.19
761.754	12778.68
762.091	12850.09
762.428	13017.54
762.765	13079.23
763.102	13374.14
763.438	13436.29
763.775	13591.08
764.112	13776.62
764.449	13990.85
764.785	14071.75
765.122	14110.17
765.458	14280.33
765.795	14454.34
766.131	14602.58
766.467	14646.2
766.804	14803.48
767.14	14927.32
767.476	15053.64
767.812	15219.97
768.148	15383.8
768.485	15312.39
768.821	15561.43
769.157	15760.07
769.492	15841.87
769.828	15991.7
770.164	16077.35
770.5	16087.51
770.836	16238.02
771.171	16345.14
771.507	16394.4
771.842	16465.13
772.178	16674.17
772.513	16743.54
772.849	16760.04
773.184	16816.54
773.519	16954.84
773.855	17015.4
774.19	17118
774.525	17126.58
774.86	17169.07
775.195	17294.71
775.53	17325.22
775.865	17301.04
776.2	17357.99
776.535	17397.76
776.87	17382.85
777.205	17543.07
777.539	17429.63
777.874	17609.73
778.209	17513.24
778.543	17605.22
778.878	17619.45
779.212	17647.7
779.547	17614.48
779.881	17740.35
780.215	17725.89
780.55	17821.48
780.884	17775.61
781.218	17868.94
781.552	17798.43
781.886	17806.57
782.22	17764.08
782.554	17745.1
782.888	17651.77
783.222	17783.52
783.556	17660.13
783.889	17693.8
784.223	17658.77
784.557	17641.82
784.89	17853.8
785.224	17761.37
785.557	17649.28
785.891	17652.22
786.224	17609.28
786.558	17656.29
786.891	17632.78
787.224	17582.62
787.557	17430.98
787.891	17533.58
788.224	17616.74
788.557	17577.65
788.89	17577.87
789.223	17630.07
789.556	17432.34
789.888	17470.76
790.221	17386.01
790.554	17376.29
790.887	17381.27
791.219	17402.06
791.552	17362.74
791.884	17287.94
792.217	17300.36
792.549	17280.93
792.882	17122.97
793.214	17119.58
793.546	17153.7
793.879	17066.02
794.211	16942.86
794.543	17027.83
794.875	17060.6
795.207	17109.41
795.539	16995.06
795.871	16989.19
796.203	16836.2
796.535	16771.79
796.867	16826.48
797.198	16734.96
797.53	16802.75
797.862	16575.41
798.193	16737.22
798.525	16639.36
798.856	16657.67
799.188	16537.67
799.519	16435.3
799.85	16503.55
800.182	16420.84
800.513	16430.78
800.844	16252.93
801.175	16445.7
801.506	16408.64
801.837	16257.45
802.168	16151.47
802.499	16272.37
802.83	16181.52
803.161	16084.58
803.491	16114.18
803.822	16088.19
804.153	15981.08
804.483	15904.24
804.814	15890.91
805.145	15945.15
805.475	15839.16
805.805	15797.8
806.136	15856.79
806.466	15786.96
806.796	15818.14
807.126	15656.57
807.457	15621.09
807.787	15634.87
808.117	15562.78
808.447	15557.13
808.777	15629.9
809.107	15508.32
809.436	15503.8
809.766	15462.45
810.096	15379.96
810.426	15406.63
810.755	15360.53
811.085	15289.8
811.414	15289.57
811.744	15142.45
812.073	15175
812.403	15142.45
812.732	15159.4
813.061	15064.94
813.39	15088.67
813.719	14990.59
814.049	15130.93
814.378	15026.07
814.707	15024.72
815.036	15000.09
815.365	14953.08
815.693	14832.86
816.022	14815.91
816.351	14738.4
816.68	14761.22
817.008	14712.64
817.337	14622.02
817.665	14670.83
817.994	14692.3
818.322	14662.92
818.651	14562.36
818.979	14507.9
819.307	14612.53
819.636	14478.07
819.964	14561.23
820.292	14551.74
820.62	14501.79
820.948	14457.28
821.276	14539.76
821.604	14447.78
821.932	14476.26
822.259	14504.28
822.587	14474
822.915	14383.6
823.243	14495.24
823.57	14364.4
823.898	14387.67
824.225	14405.75
824.553	14365.98
824.88	14349.93
825.207	14487.78
825.535	14440.1
825.862	14538.4
826.189	14497.73
826.516	14563.49
826.843	14513.32
827.17	14525.3
827.497	14489.36
827.824	14518.29
828.151	14570.04
828.478	14500.21
828.805	14571.62
829.131	14486.43
829.458	14480.78
829.785	14487.33
830.111	14439.87
830.438	14572.75
830.764	14542.24
831.09	14509.48
831.417	14453.89
831.743	14534.56
832.069	14560.32
832.395	14370.05
832.722	14540.66
833.048	14453.89
833.374	14446.2
833.7	14294.79
834.026	14398.97
834.351	14449.82
834.677	14413.66
835.003	14440.33
835.329	14405.53
835.654	14391.06
835.98	14182.71
836.306	14358.52
836.631	14243.27
836.956	14275.13
837.282	14210.73
837.607	14216.83
837.932	14243.04
838.258	14211.18
838.583	14274.46
838.908	14096.38
839.233	14079.43
839.558	14051.41
839.883	13989.49
840.208	13994.01
840.533	14001.24
840.858	13960.79
841.182	13998.98
841.507	13995.59
841.832	13911.07
842.156	13953.33
842.481	13897.97
842.805	13860.45
843.13	13815.71
843.454	13741.14
843.778	13792.21
844.103	13706.56
844.427	13679.67
844.751	13608.94
845.075	13685.09
845.399	13568.49
845.723	13448.04
846.047	13554.25
846.371	13469.73
846.695	13443.06
847.019	13339.56
847.343	13291.43
847.666	13223.18
847.99	13200.81
848.313	13194.26
848.637	13083.3
848.96	12987.26
849.284	12976.41
849.607	12983.19
849.931	12843.98
850.254	12789.52
850.577	12738.22
850.9	12648.74
851.223	12623.65
851.546	12622.52
851.869	12547.27
852.192	12565.8
852.515	12416.42
852.838	12430.44
853.161	12426.59
853.483	12373.71
853.806	12331
854.129	12347.73
854.451	12207.84
854.774	12223.66
855.096	12103.21
855.419	12084.23
855.741	12088.52
856.063	12050.56
856.385	11957.23
856.708	11903.67
857.03	11844.24
857.352	11828.64
857.674	11833.84
857.996	11833.84
858.318	11736.22
858.64	11752.94
858.961	11656.9
859.283	11638.14
859.605	11606.5
859.926	11588.2
860.248	11496.68
860.57	11567.41
860.891	11475.88
861.212	11471.14
861.534	11437.92
861.855	11403.8
862.176	11403.57
862.498	11353.63
862.819	11394.98
863.14	11300.75
863.461	11329
863.782	11278.38
864.103	11340.52
864.424	11173.75
864.745	11291.71
865.065	11263.91
865.386	11188.21
865.707	11222.33
866.027	11253.29
866.348	11193.41
866.668	11201.99
866.989	11159.51
867.309	11102.56
867.63	11108.66
867.95	11138.49
868.27	11024.15
868.59	10993.41
868.91	11055.78
869.23	10978.95
869.55	10982.56
869.87	10971.27
870.19	10992.06
870.51	10935.11
870.83	10869.8
871.15	10887.88
871.469	10954.09
871.789	10887.65
872.109	10856.92
872.428	10749.58
872.748	10830.25
873.067	10780.99
873.386	10795.9
873.706	10738.73
874.025	10695.11
874.344	10642.91
874.663	10762.91
874.982	10671.16
875.301	10673.42
875.62	10608.56
875.939	10566.08
876.258	10590.48
876.577	10521.33
876.896	10614.89
877.214	10505.51
877.533	10510.94
877.852	10538.28
878.17	10587.09
878.489	10468.91
878.807	10451.96
879.125	10515.68
879.444	10451.96
879.762	10449.47
880.08	10384.39
880.398	10348
880.716	10460.54
881.034	10341
881.352	10325.86
881.67	10285.18
881.988	10313.88
882.306	10230.49
882.624	10183.49
882.941	10136.48
883.259	10137.39
883.577	10129.93
883.894	10086.09
884.212	10125.86
884.529	10129.93
884.846	10108.01
885.164	9995.02
885.481	9972.2
885.798	9969.94
886.115	9912.54
886.432	9926.32
886.75	9834.57
887.067	9874.8
887.383	9786.44
887.7	9879.77
888.017	9754.35
888.334	9793.67
888.651	9761.58
888.967	9767
889.284	9730.85
889.6	9720.9
889.917	9628.02
890.233	9632.77
890.55	9526.78
890.866	9614.92
891.182	9580.12
891.498	9470.06
891.815	9446.33
892.131	9440.01
892.447	9433.45
892.763	9372.21
893.079	9388.03
893.395	9330.18
893.71	9370.4
894.026	9285.43
894.342	9332.89
894.657	9177.64
894.973	9175.61
895.289	9193.46
895.604	9168.37
895.92	9047.93
896.235	9041.15
896.55	9091.77
896.865	9045.89
897.181	8992.33
897.496	9001.15
897.811	8943.52
898.126	8852.9
898.441	8884.99
898.756	8890.64
899.071	8857.65
899.386	8797.09
899.7	8690.87
900.015	8727.48
900.33	8604.77
900.644	8638.9
900.959	8655.17
901.273	8565.68
901.588	8555.06
901.902	8466.7
902.216	8474.61
902.531	8483.65
902.845	8428.96
903.159	8365.91
903.473	8352.58
903.787	8310.54
904.101	8297.21
904.415	8245.01
904.729	8225.12
905.042	8202.98
905.356	8183.77
905.67	8140.83
905.984	8175.41
906.297	8116.2
906.611	8036.88
906.924	8019.25
907.237	7991.46
907.551	7981.74
907.864	7931.57
908.177	7933.15
908.491	7896.54
908.804	7808.18
909.117	7778.58
909.43	7803.21
909.743	7687.74
910.056	7717.11
910.368	7705.59
910.681	7568.64
910.994	7598.92
911.307	7638.7
911.619	7491.81
911.932	7572.94
912.244	7462.66
912.557	7412.49
912.869	7438.48
913.181	7348.31
913.494	7360.29
913.806	7287.29
914.118	7306.5
914.43	7185.83
914.742	7214.3
915.054	7163.68
915.366	7136.79
915.678	7124.36
915.99	7087.75
916.302	7098.37
916.613	6985.38
916.925	6989.67
917.236	6952.61
917.548	6920.75
917.859	6891.37
918.171	6920.98
918.482	6862.22
918.794	6825.84
919.105	6822.22
919.416	6788.78
919.727	6777.93
920.038	6729.79
920.349	6697.48
920.66	6655.9
920.971	6668.55
921.282	6632.62
921.593	6601.66
921.903	6533.64
922.214	6535.68
922.525	6495.22
922.835	6501.55
923.146	6434.21
923.456	6462.01
923.767	6379.52
924.077	6379.3
924.387	6356.92
924.697	6281.67
925.008	6307.21
925.318	6293.87
925.628	6249.36
925.938	6264.5
926.248	6228.34
926.558	6177.04
926.867	6127.1
927.177	6140.43
927.487	6116.93
927.796	6036.25
928.106	6081.9
928.416	6037.84
928.725	6068.8
929.034	5952.19
929.344	5901.12
929.653	5936.14
929.962	5941.34
930.271	5896.14
930.581	5820.89
930.89	5866.77
931.199	5794.45
931.508	5806.66
931.817	5800.78
932.125	5743.83
932.434	5734.79
932.743	5691.4
933.051	5664.06
933.36	5666.77
933.669	5611.18
933.977	5617.73
934.286	5579.54
934.594	5543.39
934.902	5534.57
935.21	5487.79
935.519	5479.21
935.827	5458.42
936.135	5428.81
936.443	5364.63
936.751	5390.17
937.059	5373.9
937.367	5374.8
937.674	5299.78
937.982	5320.11
938.29	5282.83
938.597	5294.8
938.905	5215.26
939.213	5208.48
939.52	5182.72
939.827	5205.99
940.135	5134.13
940.442	5091.19
940.749	5117.86
941.056	5123.96
941.363	5051.19
941.67	5053.45
941.977	5020.91
942.284	5029.5
942.591	4994.47
942.898	4973.23
943.205	4970.07
943.511	4886.23
943.818	4877.41
944.125	4843.97
944.431	4854.14
944.738	4805.33
945.044	4792.9
945.35	4778.21
945.657	4800.35
945.963	4785.67
946.269	4726.23
946.575	4705.67
946.881	4703.86
947.187	4634.71
947.493	4649.85
947.799	4673.13
948.105	4583.64
948.41	4601.72
948.716	4540.02
949.022	4585.67
949.327	4524.43
949.633	4465.67
949.938	4514.49
950.244	4478.78
950.549	4492.57
950.854	4447.37
951.16	4415.28
951.465	4391.55
951.77	4353.36
952.075	4332.57
952.38	4337.09
952.685	4327.15
952.99	4283.31
953.294	4283.53
953.599	4293.7
953.904	4224.32
954.209	4231.56
954.513	4237.2
954.818	4188.39
955.122	4246.02
955.426	4123.54
955.731	4119.02
956.035	4117.43
956.339	4123.99
956.643	4060.71
956.948	4088.96
957.252	4037.66
957.556	4066.59
957.86	4011.9
958.163	3994.27
958.467	3986.36
958.771	3969.19
959.075	3965.8
959.378	3954.73
959.682	3951.11
959.985	3874.5
960.289	3911.34
960.592	3841.96
960.896	3864.33
961.199	3817.33
961.502	3829.31
961.805	3811.45
962.108	3783.66
962.411	3794.96
962.714	3746.14
963.017	3775.3
963.32	3767.61
963.623	3693.94
963.926	3721.51
964.228	3685.81
964.531	3675.64
964.833	3679.93
965.136	3642.19
965.438	3628.63
965.741	3589.99
966.043	3596.77
966.345	3575.98
966.648	3538.92
966.95	3521.29
967.252	3519.71
967.554	3527.85
967.856	3486.94
968.158	3458.02
968.46	3477
968.761	3441.07
969.063	3448.07
969.365	3438.81
969.666	3387.28
969.968	3406.72
970.269	3359.71
970.571	3340.51
970.872	3329.21
971.174	3344.35
971.475	3328.3
971.776	3286.5
972.077	3244.24
972.378	3297.57
972.679	3244.46
972.98	3253.95
973.281	3255.08
973.582	3227.51
973.883	3230.45
974.183	3181.19
974.484	3218.02
974.785	3175.76
975.085	3139.61
975.386	3126.5
975.686	3127.63
975.986	3124.24
976.287	3083.34
976.587	3036.56
976.887	3049.89
977.187	3047.86
977.487	3054.19
977.787	3006.95
978.087	3004.7
978.387	2960.63
978.687	2988.65
978.987	2987.07
979.286	2923.79
979.586	2952.49
979.885	2927.86
980.185	2919.5
980.484	2891.7
980.784	2896.9
981.083	2859.61
981.382	2855.55
981.682	2842.44
981.981	2877.47
982.28	2786.17
982.579	2800.41
982.878	2835.43
983.177	2754.98
983.475	2738.26
983.774	2756.34
984.073	2757.47
984.372	2735.32
984.67	2693.97
984.969	2665.27
985.267	2703.01
985.566	2701.88
985.864	2671.37
986.162	2659.85
986.461	2629.56
986.759	2635.67
987.057	2605.38
987.355	2613.52
987.653	2611.71
987.951	2565.38
988.249	2569.23
988.547	2538.94
988.844	2515.44
989.142	2557.25
989.44	2525.61
989.737	2522
990.035	2506.4
990.332	2469.57
990.63	2498.27
990.927	2490.13
991.224	2466.86
991.521	2435.67
991.819	2456.23
992.116	2444.48
992.413	2392.06
992.71	2379.4
993.006	2423.47
993.303	2355.22
993.6	2364.49
993.897	2377.14
994.193	2359.74
994.49	2338.27
994.787	2281.55
995.083	2271.61
995.379	2281.78
995.676	2285.84
995.972	2290.82
996.268	2270.03
996.565	2243.81
996.861	2247.2
997.157	2196.35
997.453	2192.51
997.749	2211.95
998.044	2208.11
998.34	2179.86
998.636	2188.22
998.932	2125.4
999.227	2126.53
999.523	2116.36
999.818	2136.24
1000.114	2135.11
1000.409	2078.84
1000.704	2086.3
1001	2075
1001.295	2062.12
1001.59	2053.76
1001.885	2061.89
1002.18	2063.02
1002.475	2000.65
1002.77	2030.26
1003.065	1995
1003.359	2013.31
1003.654	1977.83
1003.949	1990.26
1004.243	1978.28
1004.538	1944.84
1004.832	1947.55
1005.127	1930.6
1005.421	1917.27
1005.715	1886.08
1006.009	1906.42
1006.304	1894.67
1006.598	1872.07
1006.892	1872.52
1007.186	1846.53
1007.48	1840.43
1007.773	1837.72
1008.067	1868.45
1008.361	1812.41
1008.655	1792.52
1008.948	1785.52
1009.242	1788.91
1009.535	1768.34
1009.829	1750.94
1010.122	1770.83
1010.415	1754.33
1010.708	1702.36
1011.001	1722.02
1011.295	1740.32
1011.588	1691.51
1011.881	1696.25
1012.173	1641.57
1012.466	1679.31
1012.759	1632.08
1013.052	1669.14
1013.344	1644.28
1013.637	1630.04
1013.93	1634.79
1014.222	1626.2
1014.514	1586.2
1014.807	1576.03
1015.099	1599.99
1015.391	1583.49
1015.683	1564.28
1015.976	1561.34
1016.268	1571.29
1016.56	1538.07
1016.851	1535.81
1017.143	1533.32
1017.435	1493.32
1017.727	1498.29
1018.018	1494.68
1018.31	1482.48
1018.602	1463.72
1018.893	1463.04
1019.185	1480.67
1019.476	1443.15
1019.767	1433.89
1020.058	1409.48
1020.35	1421.01
1020.641	1397.51
1020.932	1401.12
1021.223	1390.73
1021.514	1379.43
1021.804	1371.29
1022.095	1330.61
1022.386	1371.52
1022.677	1319.77
1022.967	1346.43
1023.258	1357.96
1023.548	1307.11
1023.839	1310.28
1024.129	1311.63
1024.419	1293.33
1024.709	1287.68
1025	1277.96
1025.29	1255.14
1025.58	1265.98
1025.87	1254.46
1026.16	1232.31
1026.449	1229.15
1026.739	1251.97
1027.029	1227.79
1027.319	1237.74
1027.608	1194.57
1027.898	1209.94
1028.187	1185.99
1028.477	1205.87
1028.766	1196.15
1029.055	1167.91
1029.344	1172.43
1029.634	1146.66
1029.923	1145.76
1030.212	1156.61
1030.501	1125.2
1030.79	1127.91
1031.078	1131.75
1031.367	1105.31
1031.656	1085.88
1031.945	1082.94
1032.233	1093.78
1032.522	1080
1032.81	1066.89
1033.099	1091.3
1033.387	1051.3
1033.675	1048.59
1033.963	1061.24
1034.251	1055.14
1034.54	1006.33
1034.828	1020.57
1035.116	1027.12
1035.403	1018.76
1035.691	1018.76
1035.979	1003.17
1036.267	978.53
1036.554	990.28
1036.842	993.22
1037.129	964.3
1037.417	974.01
1037.704	968.59
1037.992	931.08
1038.279	969.04
1038.566	946.22
1038.853	946.22
1039.14	946.22
