Data from hue_22_FLMS001491_00097.txt Node
Date: Tue Feb 07 17:10:58 GMT 2017
User: dcchb
Spectrometer: FLMS00149
Trigger mode: 0
Integration Time (sec): 2.000000E-2
Scans to average: 10
Electric dark correction enabled: true
Nonlinearity correction enabled: false
Boxcar width: 0
XAxis mode: Wavelengths
Number of Pixels in Spectrum: 2048
>>>>>Begin Spectral Data<<<<<
341.393	-11.45
341.776	-11.45
342.16	-11.45
342.543	-63.43
342.927	-55.75
343.31	-69.98
343.693	-66.82
344.077	-74.28
344.46	-65.46
344.843	-54.84
345.226	-27.27
345.61	-20.27
345.993	-20.72
346.376	-13.04
346.759	19.96
347.142	17.92
347.525	43.46
347.908	44.82
348.291	87.98
348.674	94.76
349.057	103.8
349.44	135.66
349.823	118.26
350.206	155.77
350.588	189.44
350.971	213.85
351.354	216.11
351.737	247.52
352.119	269.67
352.502	278.03
352.884	266.28
353.267	298.59
353.65	303.79
354.032	283.45
354.414	309.44
354.797	326.16
355.179	315.99
355.562	327.97
355.944	324.13
356.326	329.1
356.709	339.04
357.091	340.17
357.473	344.69
357.855	338.37
358.238	349.44
358.62	349.44
359.002	333.62
359.384	359.16
359.766	330.23
360.148	349.67
360.53	323
360.912	345.82
361.294	305.37
361.676	352.6
362.057	337.24
362.439	311.47
362.821	336.78
363.203	343.79
363.584	351.7
363.966	331.81
364.348	330.23
364.729	330.46
365.111	313.51
365.493	304.47
365.874	304.92
366.256	323
366.637	303.11
367.019	328.42
367.4	299.5
367.781	310.8
368.163	312.15
368.544	314.86
368.925	333.17
369.306	331.14
369.688	328.65
370.069	305.37
370.45	330.91
370.831	312.6
371.212	329.55
371.593	316.67
371.974	318.71
372.355	301.98
372.736	306.05
373.117	315.09
373.498	310.34
373.879	321.42
374.26	310.34
374.641	307.41
375.021	303.34
375.402	326.84
375.783	319.61
376.163	309.67
376.544	330.46
376.925	327.29
377.305	298.14
377.686	309.22
378.066	341.53
378.447	334.3
378.827	323.9
379.208	324.36
379.588	318.48
379.968	318.48
380.349	316.67
380.729	344.47
381.109	344.69
381.489	348.99
381.87	339.27
382.25	347.63
382.63	322.55
383.01	339.72
383.39	333.17
383.77	318.93
384.15	346.28
384.53	332.27
384.91	349.44
385.29	350.34
385.67	331.59
386.049	349.44
386.429	358.25
386.809	348.99
387.189	351.93
387.568	352.15
387.948	354.41
388.328	346.73
388.707	342.66
389.087	381.3
389.466	364.81
389.846	353.28
390.225	365.94
390.605	370
390.984	380.85
391.363	343.56
391.743	367.52
392.122	369.78
392.501	359.16
392.881	376.11
393.26	365.48
393.639	358.93
394.018	370.46
394.397	369.78
394.776	352.83
395.155	349.67
395.534	363.22
395.913	373.62
396.292	390.57
396.671	391.25
397.05	411.36
397.429	399.38
397.808	384.24
398.186	406.61
398.565	386.05
398.944	377.24
399.323	411.36
399.701	393.51
400.08	372.72
400.458	392.15
400.837	396.22
401.215	393.73
401.594	383.11
401.972	403.45
402.351	403.45
402.729	404.35
403.107	386.73
403.486	383.79
403.864	412.94
404.242	409.55
404.62	399.38
404.999	414.07
405.377	393.05
405.755	408.87
406.133	424.24
406.511	419.27
406.889	400.74
407.267	409.33
407.645	407.97
408.023	421.98
408.401	402.32
408.779	429.66
409.156	412.72
409.534	434.64
409.912	420.85
410.29	447.97
410.667	438.25
411.045	452.94
411.422	451.13
411.8	450
412.178	438.93
412.555	458.14
412.933	477.57
413.31	468.08
413.687	462.21
414.065	457.91
414.442	467.63
414.819	472.37
415.197	471.02
415.574	472.83
415.951	462.43
416.328	473.73
416.705	486.16
417.082	479.61
417.46	500.62
417.837	492.04
418.214	471.7
418.591	485.03
418.967	481.41
419.344	502.66
419.721	506.27
420.098	484.13
420.475	518.93
420.852	497.46
421.228	493.62
421.605	522.32
421.982	507.18
422.358	511.47
422.735	525.25
423.111	515.99
423.488	511.24
423.864	513.73
424.241	553.28
424.617	534.29
424.994	530.45
425.37	559.6
425.746	530.45
426.123	537.46
426.499	545.37
426.875	544.46
427.251	548.08
427.627	565.71
428.003	575.87
428.379	561.86
428.756	565.48
429.132	563.45
429.507	600.28
429.883	595.08
430.259	568.87
430.635	613.61
431.011	599.15
431.387	591.92
431.763	607.74
432.138	632.14
432.514	626.72
432.89	614.74
433.265	628.3
433.641	609.32
434.016	629.88
434.392	625.36
434.767	653.39
435.143	631.92
435.518	663.78
435.894	654.06
436.269	660.17
436.644	665.14
437.02	652.03
437.395	656.1
437.77	670.79
438.145	686.38
438.52	684.8
438.895	713.5
439.271	689.77
439.646	730.45
440.021	693.84
440.395	697.45
440.77	706.94
441.145	728.41
441.52	735.19
441.895	710.79
442.27	739.71
442.645	718.47
443.019	747.85
443.394	741.52
443.769	735.87
444.143	747.4
444.518	758.69
444.892	762.08
445.267	756.43
445.641	755.3
446.016	751.01
446.39	753.95
446.764	781.74
447.139	769.99
447.513	762.31
447.887	800.5
448.262	784.46
448.636	803.67
449.01	814.51
449.384	819.26
449.758	769.09
450.132	817
450.506	799.15
450.88	805.93
451.254	849.77
451.628	840.27
452.002	842.76
452.376	832.14
452.75	851.12
453.123	869.2
453.497	852.93
453.871	843.66
454.244	872.14
454.618	876.66
454.992	911.46
455.365	876.43
455.739	881.18
456.112	929.09
456.486	903.1
456.859	927.73
457.232	934.28
457.606	937
457.979	962.08
458.352	950.78
458.725	937.67
459.099	1002.76
459.472	984.68
459.845	998.46
460.218	1010.89
460.591	996.65
460.964	1024.68
461.337	1029.42
461.71	1037.78
462.083	1038.01
462.456	1085.47
462.829	1084.11
463.201	1075.3
463.574	1099.93
463.947	1105.13
464.32	1125.92
464.692	1129.98
465.065	1157.1
465.438	1126.59
465.81	1152.58
466.183	1150.77
466.555	1192.13
466.928	1204.78
467.3	1220.83
467.672	1213.6
468.045	1241.85
468.417	1298.57
468.789	1265.35
469.161	1271.45
469.534	1293.14
469.906	1296.31
470.278	1311.9
470.65	1361.84
471.022	1353.93
471.394	1409.98
471.766	1430.54
472.138	1434.38
472.51	1456.3
472.882	1496.75
473.253	1468.51
473.625	1520.26
473.997	1546.24
474.369	1546.7
474.74	1564.32
475.112	1628.28
475.484	1644.32
475.855	1657.65
476.227	1687.26
476.598	1730.65
476.97	1762.96
477.341	1737.65
477.713	1793.47
478.084	1843.41
478.455	1884.54
478.827	1919.12
479.198	1965.89
479.569	1937.65
479.94	1984.65
480.311	2031.2
480.682	2096.51
481.053	2127.25
481.424	2205.89
481.795	2209.05
482.166	2247.92
482.537	2301.48
482.908	2293.57
483.279	2350.07
483.65	2442.49
484.021	2481.59
484.391	2473.9
484.762	2520.68
485.133	2562.26
485.503	2586.44
485.874	2648.14
486.244	2694.24
486.615	2757.06
486.985	2827.11
487.356	2847.91
487.726	2887.45
488.097	2973.55
488.467	2964.74
488.837	3025.75
489.207	3091.74
489.578	3141
489.948	3212.64
490.318	3266.43
490.688	3237.27
491.058	3346.42
491.428	3362.24
491.798	3379.87
492.168	3503.71
492.538	3474.78
492.908	3554.78
493.278	3572.63
493.648	3630.26
494.017	3661.44
494.387	3698.05
494.757	3786.41
495.126	3758.16
495.496	3750.03
495.866	3831.16
496.235	3881.1
496.605	3903.02
496.974	3962.9
497.344	3973.98
497.713	3985.05
498.082	4034.54
498.452	4107.31
498.821	4156.8
499.19	4130.13
499.559	4201.09
499.928	4244.25
500.298	4244.03
500.667	4291.03
501.036	4286.51
501.405	4346.85
501.774	4314.08
502.143	4390.01
502.512	4384.36
502.88	4411.03
503.249	4507.52
503.618	4476.79
503.987	4517.47
504.356	4561.76
504.724	4569.22
505.093	4578.26
505.462	4599.5
505.83	4637.91
506.199	4627.52
506.567	4702.32
506.936	4707.29
507.304	4762.66
507.672	4764.47
508.041	4821.86
508.409	4853.73
508.777	4863.67
509.145	4934.4
509.514	4938.92
509.882	4909.77
510.25	4918.36
510.618	4981.63
510.986	4995.42
511.354	5054.85
511.722	5088.52
512.09	5111.57
512.458	5094.17
512.826	5126.04
513.193	5103.89
513.561	5149.99
513.929	5190.89
514.297	5222.08
514.664	5225.92
515.032	5256.2
515.4	5276.32
515.767	5269.31
516.135	5336.2
516.502	5253.94
516.869	5343.43
517.237	5374.39
517.604	5381.85
517.972	5427.72
518.339	5466.82
518.706	5460.04
519.073	5474.5
519.44	5518.57
519.808	5455.97
520.175	5554.27
520.542	5535.29
520.909	5590.88
521.276	5562.86
521.643	5651.22
522.009	5681.96
522.376	5683.31
522.743	5679.92
523.11	5732.12
523.477	5775.29
523.843	5848.5
524.21	5888.73
524.577	5952.23
524.943	5969.63
525.31	5916.53
525.676	6029.29
526.043	5997.88
526.409	6075.62
526.776	6080.36
527.142	6036.75
527.508	6127.14
527.874	6176.63
528.241	6192.22
528.607	6194.26
528.973	6247.82
529.339	6250.75
529.705	6288.49
530.071	6372.11
530.437	6343.18
530.803	6424.08
531.169	6477.19
531.535	6454.82
531.901	6450.07
532.267	6531.65
532.632	6525.32
532.998	6535.04
533.364	6560.58
533.73	6616.17
534.095	6682.15
534.461	6675.6
534.826	6773.23
535.192	6761.93
535.557	6812.55
535.923	6815.71
536.288	6848.25
536.653	6852.55
537.019	6818.65
537.384	6903.17
537.749	6890.06
538.114	6930.06
538.479	6926.22
538.845	6972.99
539.21	6951.53
539.575	7095.93
539.94	7060.9
540.305	7053.67
540.67	7079.66
541.034	7194.46
541.399	7093.67
541.764	7195.81
542.129	7255.25
542.494	7205.98
542.858	7320.33
543.223	7266.55
543.587	7321.46
543.952	7320.1
544.316	7410.5
544.681	7444.62
545.045	7439.2
545.41	7551.28
545.774	7462.47
546.138	7535.01
546.503	7567.78
546.867	7527.78
547.231	7624.5
547.595	7664.28
547.959	7685.97
548.324	7770.26
548.688	7699.3
549.052	7753.31
549.416	7763.26
549.779	7846.19
550.143	7836.93
550.507	7900.65
550.871	7892.07
551.235	7857.94
551.599	7964.38
551.962	7994.21
552.326	7974.78
552.689	8059.75
553.053	8014.1
553.417	8043.93
553.78	8170.93
554.143	8066.3
554.507	8117.15
554.87	8169.12
555.234	8238.95
555.597	8206.18
555.96	8252.96
556.323	8261.77
556.686	8313.75
557.05	8362.34
557.413	8351.72
557.776	8387.65
558.139	8428.78
558.502	8439.62
558.865	8406.4
559.228	8484.14
559.59	8544.93
559.953	8532.73
560.316	8676.68
560.679	8611.82
561.041	8694.53
561.404	8676.45
561.767	8709.45
562.129	8706.06
562.492	8744.7
562.854	8748.32
563.217	8795.77
563.579	8824.7
563.941	8806.84
564.304	8880.06
564.666	8957.12
565.028	8975.2
565.39	8971.59
565.753	9042.32
566.115	9118.93
566.477	9094.75
566.839	9110.11
567.201	9153.05
567.563	9174.52
567.925	9241.18
568.287	9323.22
568.648	9292.03
569.01	9392.37
569.372	9381.29
569.734	9370.22
570.095	9503.32
570.457	9571.8
570.819	9555.53
571.18	9597.78
571.542	9563.66
571.903	9676.43
572.265	9707.61
572.626	9811.79
572.987	9756.42
573.349	9809.76
573.71	9881.17
574.071	9991.22
574.432	10022.63
574.794	10082.52
575.155	10092.23
575.516	10127.49
575.877	10228.5
576.238	10315.05
576.599	10380.36
576.96	10441.15
577.32	10559.12
577.681	10601.37
578.042	10763.4
578.403	10799.11
578.763	10930.86
579.124	11041.14
579.485	11138.76
579.845	11299.43
580.206	11309.6
580.566	11451.97
580.927	11545.98
581.287	11720.44
581.648	11758.63
582.008	12061.9
582.368	12155.23
582.728	12233.2
583.089	12466.41
583.449	12608.55
583.809	12751.37
584.169	12917.25
584.529	13174.64
584.889	13407.85
585.249	13529.21
585.609	13763.32
585.969	13978.91
586.329	14306.14
586.688	14460.26
587.048	14734.37
587.408	14921.49
587.768	15203.51
588.127	15372.77
588.487	15714.91
588.846	16050.95
589.206	16196.25
589.565	16514.21
589.925	16866.75
590.284	17095.21
590.643	17421.99
591.003	17795.31
591.362	18114.4
591.721	18396.2
592.08	18647.94
592.44	19066.01
592.799	19320.92
593.158	19710.74
593.517	19899.89
593.876	20308.92
594.235	20582.13
594.593	20935.11
594.952	21319.06
595.311	21601.54
595.67	22141.18
596.029	22454.4
596.387	22790.66
596.746	23175.96
597.104	23434.03
597.463	23769.16
597.822	24198.3
598.18	24406.21
598.538	24756.26
598.897	25202.35
599.255	25372.51
599.613	26114.41
599.972	26168.2
600.33	26679.82
600.688	26950.77
601.046	27285.45
601.404	27671.66
601.762	27974.93
602.12	28428.7
602.478	28638.64
602.836	29088.12
603.194	29171.96
603.552	29565.62
603.91	29832.51
604.268	30329.22
604.625	30545.93
604.983	30820.28
605.341	31053.72
605.698	31568.51
606.056	31972.11
606.413	32159.68
606.771	32399.9
607.128	32778.42
607.485	32894.57
607.843	33268.35
608.2	33712.86
608.557	33999.85
608.914	34000.53
609.272	34450.92
609.629	34565.49
609.986	35098.58
610.343	35184.91
610.7	35687.72
611.057	35692.01
611.414	36051.1
611.771	36207.93
612.127	36556.62
612.484	36734.47
612.841	37068.25
613.198	37103.28
613.554	37310.05
613.911	37715.46
614.267	37985.06
614.624	38042.23
614.98	38326.29
615.337	38622.33
615.693	38683.12
616.05	38834.08
616.406	39211.92
616.762	39318.36
617.118	39354.52
617.475	39521.52
617.831	39838.8
618.187	40093.93
618.543	40204.66
618.899	40497.99
619.255	40561.94
619.611	40711.32
619.967	40977.07
620.323	41045.77
620.678	41114.24
621.034	41188.82
621.39	41390.39
621.746	41327.35
622.101	41964.62
622.457	41712.42
622.812	41958.06
623.168	42146.76
623.523	42254.78
623.879	42425.4
624.234	42191.73
624.589	42595.79
624.945	42601.66
625.3	42697.25
625.655	42667.65
626.01	42899.73
626.365	43054.98
626.72	42916.68
627.075	42999.39
627.43	43116.68
627.785	43052.5
628.14	43205.49
628.495	43272.83
628.85	43367.29
629.205	43247.97
629.559	43504.24
629.914	43485.25
630.269	43401.19
630.623	43385.82
630.978	43421.75
631.332	43681.63
631.687	43755.76
632.041	43772.7
632.396	43638.02
632.75	43698.81
633.104	43752.37
633.459	43772.48
633.813	43652.93
634.167	43671.01
634.521	43783.78
634.875	43849.09
635.229	43878.01
635.583	43765.02
635.937	43768.86
636.291	43770.9
636.645	43761.86
636.999	43801.4
637.352	43827.62
637.706	43749.88
638.06	43908.07
638.413	43914.85
638.767	43727.96
639.121	43869.88
639.474	43538.13
639.828	43632.14
640.181	43741.07
640.534	43726.83
640.888	43701.97
641.241	43456.78
641.594	43627.17
641.947	43767.51
642.301	43559.6
642.654	43772.03
643.007	43537.46
643.36	43650.22
643.713	43633.95
644.066	43867.84
644.419	43517.12
644.771	43285.26
645.124	42864.71
645.477	43013.4
645.83	42596.92
646.182	42468.11
646.535	42468.33
646.888	42544.71
647.24	42351.27
647.593	42559.86
647.945	42483.93
648.298	42354.44
648.65	42404.15
649.002	42166.19
649.355	42364.38
649.707	42346.98
650.059	42660.42
650.411	43009.34
650.763	42926.4
651.115	43473.96
651.467	43266.5
651.819	43237.8
652.171	43162.1
652.523	43086.17
652.875	43160.29
653.227	42978.6
653.578	43287.07
653.93	43053.63
654.282	43028.09
654.633	42898.15
654.985	42980.41
655.337	43109.67
655.688	43034.65
656.039	43168.2
656.391	42726.4
656.742	42861.32
657.094	42995.55
657.445	42971.37
657.796	43032.39
658.147	42919.62
658.498	42871.26
658.849	43065.6
659.2	42916
659.551	42812.96
659.902	43036.68
660.253	42836.91
660.604	42938.38
660.955	42633.98
661.306	42968.66
661.656	42769.12
662.007	42866.97
662.358	42965.95
662.708	42821.54
663.059	42873.75
663.409	42558.95
663.76	42821.32
664.11	42770.02
664.461	42787.87
664.811	42878.94
665.161	42726.63
665.511	42590.82
665.862	42785.84
666.212	42832.62
666.562	42777.02
666.912	42801.66
667.262	42763.69
667.612	42815.67
667.962	42616.8
668.312	42597.14
668.662	43055.66
669.011	42719.63
669.361	42663.13
669.711	42690.25
670.06	42602.34
670.41	42617.26
670.76	42478.05
671.109	42674.43
671.459	42543.81
671.808	42525.28
672.157	42658.16
672.507	42351.73
672.856	42293.65
673.205	42433.76
673.554	42534.55
673.904	42346.75
674.253	42561.66
674.602	42549.91
674.951	41845.07
675.3	41598.75
675.649	42377.71
675.998	42289.35
676.346	42091.62
676.695	42468.33
677.044	42079.87
677.393	42200.77
677.741	42201.67
678.09	42099.08
678.438	42167.78
678.787	42061.56
679.135	42340.88
679.484	41908.35
679.832	41966.88
680.181	41769.37
680.529	41887.1
680.877	41748.8
681.225	41772.31
681.573	41867.22
681.922	41533.44
682.27	41525.76
682.618	41619.32
682.966	41375.93
683.314	41503.61
683.661	41389.26
684.009	41234.01
684.357	41274.69
684.705	41107.01
685.053	41253
685.4	41203.51
685.748	40918.99
686.095	40940.46
686.443	40819.79
686.79	40850.07
687.138	40851.88
687.485	40799.68
687.832	40694.82
688.18	40751.99
688.527	40448.95
688.874	40553.35
689.221	40387.26
689.568	40339.57
689.915	40317.43
690.262	40332.34
690.609	40187.71
690.956	40038.34
691.303	39881.06
691.65	39817.33
691.997	39741.62
692.344	39660.72
692.69	39538.47
693.037	39536.88
693.383	39278.59
693.73	39309.55
694.077	39077.91
694.423	39153.62
694.769	38883.57
695.116	38842.21
695.462	38900.97
695.808	38760.63
696.155	38828.43
696.501	38686.51
696.847	38445.61
697.193	38322.23
697.539	38503.46
697.885	38164.72
698.231	38043.82
698.577	38124.94
698.923	37979.86
699.269	37916.14
699.614	37728.12
699.96	37607.44
700.306	37544.39
700.651	37484.73
700.997	37284.74
701.342	37280.67
701.688	37188.47
702.033	37057.4
702.379	37063.73
702.724	36990.96
703.069	36992.54
703.415	36621.93
703.76	36691.76
704.105	36751.42
704.45	36645.89
704.795	36349.4
705.14	36329.51
705.485	36237.54
705.83	36116.64
706.175	36276.4
706.52	36056.07
706.865	35989.86
707.209	35907.38
707.554	35640.26
707.899	35786.47
708.243	35582.64
708.588	35503.77
708.932	35367.5
709.277	35269.43
709.621	35455.41
709.966	35120.5
710.31	35227.17
710.654	35022.2
710.998	35005.03
711.342	35059.49
711.687	35048.41
712.031	34797.8
712.375	34675.54
712.719	34676
713.063	34581.53
713.407	34706.5
713.75	34366.85
714.094	34544.93
714.438	34448.66
714.782	34415.21
715.125	34246.85
715.469	34252.73
715.812	34209.11
716.156	33847.32
716.499	33863.59
716.843	33944.04
717.186	33759.63
717.53	33761.67
717.873	33951.49
718.216	33732.29
718.559	33571.84
718.902	33304.05
719.246	33487.55
719.589	33422.69
719.932	33131.18
720.275	33333.43
720.617	33163.27
720.96	33176.37
721.303	33113.78
721.646	33161.68
721.989	32917.85
722.331	33082.59
722.674	32898.87
723.016	32871.75
723.359	32788.36
723.701	32905.87
724.044	32655.48
724.386	32557.63
724.729	32697.97
725.071	32609.16
725.413	32565.77
725.755	32438.31
726.097	32248.71
726.439	32265.66
726.782	32290.07
727.124	32291.2
727.465	32202.84
727.807	32069.28
728.149	32042.17
728.491	31985.67
728.833	32079.23
729.175	31961.94
729.516	31899.8
729.858	31754.72
730.199	31970.98
730.541	31761.5
730.882	31685.11
731.224	31827.26
731.565	31551.11
731.906	31627.04
732.248	31643.98
732.589	31453.93
732.93	31288.29
733.271	31434.5
733.612	31331.9
733.953	31444.67
734.294	31232.24
734.635	31131.46
734.976	31279.7
735.317	31062.53
735.658	31079.48
735.999	31066.6
736.339	31040.16
736.68	30980.27
737.021	30977.34
737.361	30740.51
737.702	30907.73
738.042	30866.15
738.383	30813.27
738.723	30662.77
739.063	30690.11
739.404	30824.8
739.744	30593.39
740.084	30547.52
740.424	30564.46
740.764	30441.98
741.104	30565.14
741.444	30461.19
741.784	30217.81
742.124	30305.94
742.464	30386.62
742.804	30262.55
743.143	30168.77
743.483	30221.42
743.823	30060.07
744.162	30043.8
744.502	30154.08
744.841	29910.24
745.181	30158.6
745.52	29911.6
745.86	29937.36
746.199	29770.59
746.538	29831.38
746.877	29976.46
747.216	29679.06
747.556	29771.27
747.895	29693.3
748.234	29489.46
748.573	29630.48
748.911	29509.58
749.25	29458.73
749.589	29318.4
749.928	29446.53
750.267	29398.17
750.605	29342.35
750.944	29189.13
751.283	29159.08
751.621	29223.48
751.96	29013.55
752.298	28971.74
752.636	29037.95
752.975	28911.63
753.313	28668.7
753.651	28910.27
753.989	28720.9
754.327	28560
754.666	28472.77
755.004	28573.78
755.342	28581.24
755.679	28580.79
756.017	28328.14
756.355	28381.92
756.693	28341.47
757.031	28341.25
757.368	28168.6
757.706	28206.79
758.044	28092.89
758.381	28097.18
758.719	27978.54
759.056	27982.61
759.394	27783.52
759.731	27746.01
760.068	27679.12
760.405	27537.65
760.743	27356.87
761.08	27611.32
761.417	27326.81
761.754	27256.53
762.091	27284.78
762.428	27161.62
762.765	27167.27
763.102	27027.61
763.438	26887.27
763.775	26817.44
764.112	26864.67
764.449	26850.89
764.785	26652.03
765.122	26582.87
765.458	26514.85
765.795	26372.26
766.131	26357.34
766.467	26256.1
766.804	26163.45
767.14	25936.34
767.476	26071.93
767.812	25960.52
768.148	25902.21
768.485	25675.78
768.821	25598.72
769.157	25588.55
769.492	25532.73
769.828	25477.14
770.164	25371.38
770.5	25238.73
770.836	25184.04
771.171	25087.32
771.507	25000.32
771.842	24944.73
772.178	24874.9
772.513	24740.89
772.849	24666.31
773.184	24512.87
773.519	24563.04
773.855	24432.65
774.19	24457.28
774.525	24306.1
774.86	24210.73
775.195	24174.35
775.53	23993.34
775.865	23883.51
776.2	23889.39
776.535	23673.57
776.87	23645.78
777.205	23513.12
777.539	23516.51
777.874	23473.58
778.209	23275.16
778.543	23229.06
778.878	23068.16
779.212	23006.7
779.547	22992.91
779.881	23012.35
780.215	22766.48
780.55	22820.26
780.884	22699.81
781.218	22659.81
781.552	22560.83
781.886	22594.96
782.22	22405.81
782.554	22245.81
782.888	22285.13
783.222	22091.24
783.556	21979.83
783.889	21935.99
784.223	21845.82
784.557	21740.74
784.89	21739.39
785.224	21628.88
785.557	21544.59
785.891	21441.77
786.224	21441.31
786.558	21482.44
786.891	21199.29
787.224	21079.06
787.557	21123.81
787.891	21047.2
788.224	21029.35
788.557	20953.19
788.89	20858.28
789.223	20895.34
789.556	20688.34
789.888	20586.65
790.221	20472.98
790.554	20390.04
790.887	20415.58
791.219	20315.69
791.552	20251.29
791.884	20114.8
792.217	20109.82
792.549	20041.58
792.882	19833.67
793.214	19831.64
793.546	19860.79
793.879	19718.65
794.211	19612.89
794.543	19669.38
794.875	19548.71
795.207	19701.02
795.539	19540.35
795.871	19348.94
796.203	19282.28
796.535	19211.99
796.867	19190.98
797.198	19073.47
797.53	19033.47
797.862	19069.4
798.193	19059.68
798.525	18886.81
798.856	18956.41
799.188	18800.71
799.519	18711.67
799.85	18601.16
800.182	18473.26
800.513	18627.6
800.844	18428.51
801.175	18482.52
801.506	18439.36
801.837	18285.01
802.168	18280.27
802.499	18203.43
802.83	18008.41
803.161	18047.96
803.491	18129.99
803.822	18057.67
804.153	17904.46
804.483	17854.52
804.814	17701.75
805.145	17711.7
805.475	17755.76
805.805	17618.82
806.136	17629.44
806.466	17599.61
806.796	17570
807.126	17365.04
807.457	17312.38
807.787	17338.37
808.117	17229
808.447	17230.13
808.777	17207.08
809.107	17128.43
809.436	17094.08
809.766	17069
810.096	17053.18
810.426	16986.74
810.755	16994.65
811.085	16927.08
811.414	16840.53
811.744	16710.82
812.073	16744.26
812.403	16614.1
812.732	16615.45
813.061	16613.65
813.39	16448.45
813.719	16516.02
814.049	16568.22
814.378	16473.31
814.707	16414.33
815.036	16310.38
815.365	16237.38
815.693	16158.29
816.022	16215.01
816.351	16174.33
816.68	16023.15
817.008	16127.33
817.337	16056.37
817.665	15870.61
817.994	15962.81
818.322	15896.6
818.651	15828.58
818.979	15770.5
819.307	15943.83
819.636	15827.45
819.964	15615.93
820.292	15806.21
820.62	15746.78
820.948	15736.15
821.276	15609.38
821.604	15651.18
821.932	15702.26
822.259	15691.64
822.587	15676.04
822.915	15619.32
823.243	15596.5
823.57	15590.85
823.898	15601.92
824.225	15465.43
824.553	15478.53
824.88	15565.99
825.207	15648.02
825.535	15586.33
825.862	15566.21
826.189	15652.77
826.516	15587.68
826.843	15669.49
827.17	15575.25
827.497	15584.52
827.824	15697.96
828.151	15593.78
828.478	15529.38
828.805	15656.83
829.131	15481.7
829.458	15571.19
829.785	15530.96
830.111	15490.06
830.438	15583.16
830.764	15553.79
831.09	15634.24
831.417	15590.17
831.743	15570.96
832.069	15525.76
832.395	15481.25
832.722	15537.06
833.048	15456.16
833.374	15461.13
833.7	15362.38
834.026	15383.39
834.351	15410.51
834.677	15425.65
835.003	15394.47
835.329	15320.35
835.654	15316.28
835.98	15262.95
836.306	15255.26
836.631	15244.19
836.956	15276.73
837.282	15193.57
837.607	15125.32
837.932	15130.29
838.258	15139.56
838.583	15115.38
838.908	15053.23
839.233	15005.78
839.558	14998.55
839.883	14937.08
840.208	14996.74
840.533	14920.58
840.858	14862.28
841.182	14924.42
841.507	14829.51
841.832	14804.65
842.156	14762.39
842.481	14780.02
842.805	14713.81
843.13	14724.2
843.454	14688.95
843.778	14565.34
844.103	14568.95
844.427	14502.06
844.751	14467.94
845.075	14552.46
845.399	14388.17
845.723	14337.77
846.047	14403.99
846.371	14208.96
846.695	14243.99
847.019	14169.19
847.343	14062.07
847.666	13944.79
847.99	13944.34
848.313	13985.24
848.637	13858.46
848.96	13750.9
849.284	13759.03
849.607	13673.16
849.931	13706.83
850.254	13642.88
850.577	13526.72
850.9	13479.26
851.223	13481.52
851.546	13411.47
851.869	13259.16
852.192	13380.74
852.515	13252.6
852.838	13076.79
853.161	13199.05
853.483	13069.33
853.806	12979.39
854.129	12962.22
854.451	12967.87
854.774	12903.23
855.096	12794.99
855.419	12861.2
855.741	12789.34
856.063	12751.83
856.385	12646.29
856.708	12665.95
857.03	12672.96
857.352	12608.1
857.674	12537.59
857.996	12470.48
858.318	12434.55
858.64	12456.24
858.961	12373.53
859.283	12405.62
859.605	12317.71
859.926	12313.65
860.248	12256.47
860.57	12185.74
860.891	12231.84
861.212	12133.08
861.534	12111.62
861.855	12127.44
862.176	12119.53
862.498	12189.13
862.819	12110.49
863.14	12009.92
863.461	12010.38
863.782	11962.24
864.103	11935.35
864.424	11920.89
864.745	11978.96
865.065	11830.72
865.386	11862.81
865.707	11781.46
866.027	11897.84
866.348	11826.65
866.668	11825.97
866.989	11741
867.309	11642.7
867.63	11774.68
867.95	11663.94
868.27	11593.89
868.59	11609.26
868.91	11582.14
869.23	11555.92
869.55	11514.57
869.87	11614
870.19	11590.95
870.51	11624.4
870.83	11427.11
871.15	11479.99
871.469	11442.93
871.789	11432.54
872.109	11400.22
872.428	11440
872.748	11465.98
873.067	11345.54
873.386	11356.61
873.706	11312.54
874.025	11331.75
874.344	11260.34
874.663	11186.9
874.982	11154.35
875.301	11183.96
875.62	11204.75
875.939	11211.53
876.258	11236.84
876.577	11119.55
876.896	11148.03
877.214	11075.26
877.533	11122.49
877.852	11056.28
878.17	11074.81
878.489	11125.88
878.807	11001.82
879.125	11010.18
879.444	11054.02
879.762	10967.47
880.08	10869.39
880.398	10929.73
880.716	10894.93
881.034	10937.86
881.352	10919.11
881.67	10822.84
881.988	10857.86
882.306	10790.3
882.624	10739.9
882.941	10684.76
883.259	10738.32
883.577	10734.93
883.894	10669.39
884.212	10622.39
884.529	10660.81
884.846	10608.61
885.164	10612.67
885.481	10543.75
885.798	10536.52
886.115	10405.67
886.432	10517.31
886.75	10442.73
887.067	10472.79
887.383	10430.53
887.7	10373.81
888.017	10397.31
888.334	10419.46
888.651	10289.74
888.967	10289.97
889.284	10180.14
889.6	10230.54
889.917	10088.84
890.233	10203.64
890.55	10087.94
890.866	10116.87
891.182	10080.48
891.498	10083.87
891.815	9985.12
892.131	9968.85
892.447	9875.52
892.763	9931.33
893.079	9899.92
893.395	9705.35
893.71	9816.54
894.026	9828.29
894.342	9805.91
894.657	9723.88
894.973	9706.93
895.289	9733.83
895.604	9691.12
895.92	9591.91
896.235	9576.54
896.55	9612.93
896.865	9547.39
897.181	9535.64
897.496	9473.95
897.811	9470.56
898.126	9426.49
898.441	9393.27
898.756	9393.5
899.071	9274.85
899.386	9239.6
899.7	9187.63
900.015	9221.3
900.33	9095.65
900.644	9041.64
900.959	9088.42
901.273	9207.29
901.588	9001.42
901.902	8965.03
902.216	9017.91
902.531	9000.29
902.845	8950.12
903.159	8819.27
903.473	8866.28
903.787	8767.98
904.101	8764.36
904.415	8768.43
904.729	8744.25
905.042	8734.98
905.356	8692.5
905.67	8664.48
905.984	8639.17
906.297	8612.73
906.611	8492.73
906.924	8504.93
907.237	8567.3
907.551	8478.94
907.864	8378.61
908.177	8416.57
908.491	8407.08
908.804	8346.52
909.117	8266.97
909.43	8236.01
909.743	8217.71
910.056	8205.28
910.368	8163.7
910.681	8184.71
910.994	8046.64
911.307	8071.95
911.619	7963.03
911.932	7987.66
912.244	7940.2
912.557	7940.43
912.869	7878.28
913.181	7799.87
913.494	7825.4
913.806	7755.8
914.118	7758.74
914.43	7685.52
914.742	7664.73
915.054	7665.63
915.366	7672.19
915.678	7598.06
915.99	7558.29
916.302	7493.88
916.613	7490.5
916.925	7452.76
917.236	7426.77
917.548	7449.37
917.859	7428.12
918.171	7285.75
918.482	7290.05
918.794	7244.85
919.105	7270.61
919.416	7194.46
919.727	7162.82
920.038	7086.66
920.349	7080.79
920.66	7063.39
920.971	7058.42
921.282	7069.04
921.593	6934.35
921.903	6917.85
922.214	6975.93
922.525	6945.65
922.835	6873.79
923.146	6836.28
923.456	6789.5
923.767	6817.29
924.077	6769.38
924.387	6740.23
924.697	6683.96
925.008	6643.51
925.318	6573.23
925.628	6636.05
925.938	6613.91
926.248	6537.07
926.558	6500.01
926.867	6454.59
927.177	6527.58
927.487	6460.01
927.796	6446.23
928.106	6427.92
928.416	6332.79
928.725	6413.46
929.034	6334.82
929.344	6300.92
929.653	6338.21
929.962	6183.41
930.271	6184.99
930.581	6143.64
930.89	6200.13
931.199	6111.55
931.508	6090.31
931.817	6114.49
932.125	6048.05
932.434	6069.06
932.743	6012.34
933.051	5964.66
933.36	5938.45
933.669	5945.9
933.977	5881.5
934.286	5868.16
934.594	5881.72
934.902	5780.03
935.21	5705.01
935.519	5739.35
935.827	5756.76
936.135	5685.57
936.443	5679.24
936.751	5618
937.059	5662.07
937.367	5601.96
937.674	5613.93
937.982	5577.55
938.29	5557.44
938.597	5528.29
938.905	5491.23
939.213	5529.42
939.52	5400.15
939.827	5439.25
940.135	5373.04
940.442	5416.43
940.749	5333.72
941.056	5363.32
941.363	5234.74
941.67	5322.19
941.977	5239.71
942.284	5235.19
942.591	5211.46
942.898	5233.83
943.205	5147.51
943.511	5159.26
943.818	5146.15
944.125	5072.03
944.431	5111.8
944.738	5058.92
945.044	5056.43
945.35	5034.29
945.657	4996.1
945.963	4973.95
946.269	4940.28
946.575	4945.93
946.881	4934.63
947.187	4906.16
947.493	4861.64
947.799	4836.78
948.105	4829.32
948.41	4728.31
948.716	4770.79
949.022	4794.07
949.327	4758.82
949.633	4681.08
949.938	4675.2
950.244	4691.25
950.549	4643.56
950.854	4671.13
951.16	4609.21
951.465	4590.68
951.77	4563.34
952.075	4571.93
952.38	4533.28
952.685	4526.28
952.99	4467.3
953.294	4484.92
953.599	4465.04
953.904	4442.67
954.209	4413.74
954.513	4380.29
954.818	4363.35
955.122	4358.83
955.426	4360.18
955.731	4332.61
956.035	4296.68
956.339	4274.53
956.643	4275.21
956.948	4239.28
957.252	4236.34
957.556	4194.31
957.86	4225.27
958.163	4197.02
958.467	4191.82
958.771	4157.93
959.075	4106.18
959.378	4131.04
959.682	4119.06
959.985	4023.92
960.289	4069.79
960.592	4035.44
960.896	3984.37
961.199	3986.18
961.502	3979.4
961.805	3972.62
962.108	3948.22
962.411	3937.59
962.714	3911.61
963.017	3866.41
963.32	3901.89
963.623	3865.73
963.926	3845.62
964.228	3818.73
964.531	3842.68
964.833	3788.9
965.136	3769.69
965.438	3750.93
965.741	3748.22
966.043	3747.99
966.345	3745.51
966.648	3714.78
966.95	3680.2
967.252	3678.62
967.554	3660.31
967.856	3635.68
968.158	3567.89
968.46	3567.43
968.761	3601.78
969.063	3564.95
969.365	3547.1
969.666	3570.15
969.968	3489.7
970.269	3530.15
970.571	3556.59
970.872	3483.82
971.174	3458.51
971.475	3466.87
971.776	3428
972.077	3421.9
972.378	3431.84
972.679	3362.24
972.98	3364.95
973.281	3339.64
973.582	3350.94
973.883	3352.75
974.183	3302.36
974.484	3323.6
974.785	3259.65
975.085	3297.84
975.386	3247.89
975.686	3241.79
975.986	3222.58
976.287	3232.53
976.587	3162.25
976.887	3174.9
977.187	3151.17
977.487	3136.26
977.787	3107.56
978.087	3117.5
978.387	3099.42
978.687	3132.64
978.987	3057.84
979.286	3041.12
979.586	3070.72
979.885	3044.06
980.185	3058.07
980.484	2988.01
980.784	3018.97
981.083	3004.96
981.382	3013.78
981.682	2970.84
981.981	2955.7
982.28	2962.93
982.579	2904.18
982.878	2922.93
983.177	2884.97
983.475	2864.85
983.774	2828.92
984.073	2842.71
984.372	2841.13
984.67	2811.97
984.969	2813.78
985.267	2797.51
985.566	2819.88
985.864	2773.33
986.162	2754.35
986.461	2727
986.759	2760.9
987.057	2741.24
987.355	2736.5
987.653	2714.8
987.951	2731.3
988.249	2677.74
988.547	2677.51
988.844	2659.21
989.142	2639.78
989.44	2644.29
989.737	2618.98
990.035	2623.28
990.332	2620.57
990.63	2587.8
990.927	2562.94
991.224	2550.74
991.521	2574.92
991.819	2544.86
992.116	2534.47
992.413	2529.5
992.71	2496.95
993.006	2468.03
993.303	2478.42
993.6	2467.35
993.897	2449.72
994.193	2470.06
994.49	2420.8
994.787	2386.9
995.083	2394.36
995.379	2389.84
995.676	2393.68
995.972	2376.28
996.268	2378.77
996.565	2328.82
996.861	2360.46
997.157	2337.18
997.453	2316.62
997.749	2318.43
998.044	2326.11
998.34	2253.12
998.636	2291.08
998.932	2244.31
999.227	2245.89
999.523	2244.08
999.818	2225.1
1000.114	2210.41
1000.409	2177.87
1000.704	2181.93
1001	2188.94
1001.295	2164.99
1001.59	2143.52
1001.885	2136.29
1002.18	2125.66
1002.475	2098.09
1002.77	2114.59
1003.065	2090.19
1003.359	2093.57
1003.654	2067.36
1003.949	2090.41
1004.243	2081.82
1004.538	2042.73
1004.832	2047.25
1005.127	2016.06
1005.421	2014.93
1005.715	2004.99
1006.009	2023.07
1006.304	1996.63
1006.598	1969.06
1006.892	1967.25
1007.186	1919.34
1007.48	1951.43
1007.773	1938.78
1008.067	1878.44
1008.361	1890.87
1008.655	1871.21
1008.948	1894.03
1009.242	1897.87
1009.535	1851.55
1009.829	1851.77
1010.122	1835.73
1010.415	1846.58
1010.708	1803.41
1011.001	1819.46
1011.295	1795.5
1011.588	1801.83
1011.881	1741.27
1012.173	1765.22
1012.466	1773.36
1012.759	1755.73
1013.052	1738.1
1013.344	1709.18
1013.637	1694.94
1013.93	1704.88
1014.222	1712.12
1014.514	1695.17
1014.807	1656.07
1015.099	1660.37
1015.391	1649.52
1015.683	1659.01
1015.976	1638.22
1016.268	1668.95
1016.56	1616.98
1016.851	1599.12
1017.143	1633.47
1017.435	1603.19
1017.727	1587.37
1018.018	1574.49
1018.31	1586.02
1018.602	1565.23
1018.893	1531.78
1019.185	1510.09
1019.476	1520.03
1019.767	1529.97
1020.058	1518
1020.35	1499.92
1020.641	1482.29
1020.932	1474.16
1021.223	1440.03
1021.514	1474.16
1021.804	1428.73
1022.095	1441.16
1022.386	1414.72
1022.677	1404.78
1022.967	1407.04
1023.258	1400.94
1023.548	1380.15
1023.839	1386.02
1024.129	1368.17
1024.419	1322.75
1024.709	1369.53
1025	1318
1025.29	1306.93
1025.58	1326.14
1025.87	1285.01
1026.16	1279.13
1026.449	1338.57
1026.739	1293.82
1027.029	1280.26
1027.319	1275.52
1027.608	1254.95
1027.898	1244.78
1028.187	1248.17
1028.477	1224.67
1028.766	1227.38
1029.055	1209.53
1029.344	1230.09
1029.634	1218.34
1029.923	1225.12
1030.212	1201.62
1030.501	1177.67
1030.79	1163.43
1031.078	1159.14
1031.367	1140.38
1031.656	1128.18
1031.945	1141.28
1032.233	1143.09
1032.522	1118.46
1032.81	1113.04
1033.099	1114.39
1033.387	1134.73
1033.675	1103.09
1033.963	1104.67
1034.251	1119.36
1034.54	1051.12
1034.828	1074.39
1035.116	1064.22
1035.403	1038.01
1035.691	1065.35
1035.979	1043.66
1036.267	1038.01
1036.554	1046.37
1036.842	1040.5
1037.129	1046.14
1037.417	1020.16
1037.704	1009.54
1037.992	1000.72
1038.279	1011.34
1038.566	970.44
1038.853	970.44
1039.14	970.44
