Data from hue_50_FLMS001491_57.txt Node
Date: Mon Feb 06 15:10:32 GMT 2017
User: dcchb
Spectrometer: FLMS00149
Trigger mode: 0
Integration Time (sec): 2.000000E-2
Scans to average: 10
Electric dark correction enabled: true
Nonlinearity correction enabled: false
Boxcar width: 0
XAxis mode: Wavelengths
Number of Pixels in Spectrum: 2048
>>>>>Begin Spectral Data<<<<<
341.393	-13.23
341.776	-13.23
342.16	-13.23
342.543	-62.05
342.927	-63.4
343.31	-59.33
343.693	-61.59
344.077	-79.45
344.46	-53.23
344.843	-68.15
345.226	-61.59
345.61	-22.95
345.993	-27.02
346.376	0.32
346.759	18.63
347.142	14.56
347.525	59.98
347.908	57.95
348.291	76.71
348.674	103.82
349.057	101.34
349.44	125.07
349.823	125.52
350.206	150.38
350.588	196.93
350.971	219.98
351.354	225.4
351.737	243.48
352.119	243.48
352.502	292.07
352.884	266.31
353.267	288.45
353.65	299.3
354.032	290.49
354.414	313.54
354.797	301.33
355.179	313.99
355.562	326.19
355.944	336.59
356.326	327.1
356.709	336.81
357.091	331.16
357.473	340.2
357.855	356.47
358.238	322.12
358.62	349.02
359.002	332.97
359.384	361.45
359.766	324.84
360.148	333.88
360.53	326.19
360.912	342.69
361.294	333.65
361.676	338.17
362.057	326.19
362.439	340.43
362.821	343.14
363.203	339.52
363.584	317.15
363.966	326.64
364.348	318.51
364.729	326.19
365.111	303.82
365.493	293.65
365.874	321.67
366.256	335.91
366.637	322.12
367.019	312.41
367.4	312.18
367.781	296.36
368.163	311.05
368.544	307.21
368.925	296.36
369.306	322.8
369.688	327.32
370.069	324.61
370.45	318.28
370.831	299.07
371.212	303.14
371.593	310.15
371.974	313.76
372.355	318.73
372.736	285.29
373.117	313.99
373.498	312.86
373.879	326.64
374.26	318.06
374.641	332.52
375.021	314.44
375.402	318.73
375.783	323.25
376.163	323.93
376.544	308.11
376.925	308.57
377.305	312.63
377.686	322.58
378.066	347.66
378.447	347.21
378.827	329.81
379.208	319.64
379.588	329.13
379.968	324.38
380.349	325.97
380.729	314.67
381.109	302.24
381.489	345.85
381.87	328.9
382.25	341.33
382.63	323.03
383.01	361.22
383.39	340.2
383.77	348.11
384.15	348.56
384.53	331.62
384.91	336.36
385.29	349.92
385.67	340.2
386.049	335.23
386.429	344.04
386.809	353.99
387.189	342.91
387.568	345.17
387.948	354.21
388.328	350.15
388.707	368.68
389.087	330.71
389.466	356.02
389.846	350.6
390.225	370.26
390.605	357.6
390.984	368
391.363	367.09
391.743	381.56
392.122	333.65
392.501	362.8
392.881	357.38
393.26	360.09
393.639	351.95
394.018	369.58
394.397	347.21
394.776	361.9
395.155	376.59
395.534	360.54
395.913	365.29
396.292	394.21
396.671	381.33
397.05	381.78
397.429	370.94
397.808	366.87
398.186	369.58
398.565	376.59
398.944	367.55
399.323	386.08
399.701	381.78
400.08	364.16
400.458	382.24
400.837	380.65
401.215	400.99
401.594	389.24
401.972	412.07
402.351	394.89
402.729	390.6
403.107	367.77
403.486	391.05
403.864	367.55
404.242	394.21
404.62	386.3
404.999	401.67
405.377	392.86
405.755	398.73
406.133	398.96
406.511	420.2
406.889	393.76
407.267	413.65
407.645	414.55
408.023	393.76
408.401	418.62
408.779	425.85
409.156	415.46
409.534	414.55
409.912	434.44
410.29	433.99
410.667	444.38
411.045	414.78
411.422	423.82
411.8	426.3
412.178	426.98
412.555	449.35
412.933	452.06
413.31	435.34
413.687	453.65
414.065	438.96
414.442	445.06
414.819	437.6
415.197	443.25
415.574	466.98
415.951	456.13
416.328	455
416.705	466.3
417.082	459.97
417.46	462.23
417.837	478.5
418.214	455.91
418.591	467.21
418.967	489.8
419.344	485.06
419.721	490.48
420.098	489.35
420.475	479.86
420.852	476.47
421.228	504.27
421.605	475.57
421.982	492.29
422.358	489.8
422.735	503.14
423.111	507.66
423.488	494.55
423.864	503.14
424.241	506.07
424.617	512.85
424.994	492.29
425.37	514.44
425.746	534.1
426.123	514.66
426.499	520.09
426.875	512.85
427.251	526.86
427.627	538.39
428.003	534.32
428.379	549.46
428.756	524.83
429.132	553.98
429.507	538.62
429.883	556.02
430.259	539.07
430.635	564.38
431.011	557.6
431.387	555.79
431.763	572.74
432.138	553.53
432.514	579.97
432.89	580.42
433.265	603.25
433.641	604.83
434.016	598.73
434.392	605.28
434.767	616.58
435.143	631.27
435.518	618.61
435.894	614.32
436.269	634.21
436.644	621.33
437.02	603.7
437.395	644.6
437.77	656.13
438.145	662
438.52	657.48
438.895	652.06
439.271	650.48
439.646	651.61
440.021	659.06
440.395	659.74
440.77	660.87
441.145	666.97
441.52	668.78
441.895	698.61
442.27	684.37
442.645	667.2
443.019	699.52
443.394	704.49
443.769	690.7
444.143	698.16
444.518	723.7
444.892	688.67
445.267	725.5
445.641	716.69
446.016	704.49
446.39	739.74
446.764	735.45
447.139	707.2
447.513	729.57
447.887	721.66
448.262	726.86
448.636	742.23
449.01	754.43
449.384	750.81
449.758	762.79
450.132	770.25
450.506	779.74
450.88	765.73
451.254	775.9
451.628	785.61
452.002	776.8
452.376	802.11
452.75	771.6
453.123	786.97
453.497	816.8
453.871	794.65
454.244	800.3
454.618	843.92
454.992	823.13
455.365	815.67
455.739	827.65
456.112	833.98
456.486	855.22
456.859	859.06
457.232	877.36
457.606	879.4
457.979	856.12
458.352	911.49
458.725	921.43
459.099	914.43
459.472	929.79
459.845	943.12
460.218	938.83
460.591	939.51
460.964	957.59
461.337	984.03
461.71	1003.91
462.083	1006.4
462.456	981.77
462.829	1019.06
463.201	1036.68
463.574	1035.78
463.947	1065.16
464.32	1085.95
464.692	1079.39
465.065	1095.66
465.438	1105.83
465.81	1100.18
466.183	1138.6
466.555	1158.94
466.928	1174.98
467.3	1168.2
467.672	1200.97
468.045	1225.15
468.417	1236.9
468.789	1235.77
469.161	1234.64
469.534	1278.03
469.906	1310.8
470.278	1334.98
470.65	1333.62
471.022	1344.24
471.394	1380.63
471.766	1403.9
472.138	1433.96
472.51	1481.87
472.882	1515.54
473.253	1522.32
473.625	1552.83
473.997	1589.89
474.369	1574.07
474.74	1644.8
475.112	1721.18
475.484	1717.57
475.855	1795.98
476.227	1834.85
476.598	1887.28
476.97	1914.4
477.341	1949.2
477.713	1985.36
478.084	2038.24
478.455	2105.58
478.827	2178.8
479.198	2216.31
479.569	2256.08
479.94	2318.23
480.311	2386.93
480.682	2496.53
481.053	2562.52
481.424	2645
481.795	2695.85
482.166	2769.74
482.537	2814.04
482.908	2906.24
483.279	2969.51
483.65	3071.2
484.021	3171.99
484.391	3272.33
484.762	3357.75
485.133	3405.43
485.503	3486.79
485.874	3662.15
486.244	3709.61
486.615	3837.51
486.985	3947.34
487.356	4021.91
487.726	4120.89
488.097	4276.14
488.467	4349.36
488.837	4481.11
489.207	4598.85
489.578	4702.57
489.948	4808.79
490.318	4978.5
490.688	5024.37
491.058	5112.28
491.428	5285.61
491.798	5394.53
492.168	5551.37
492.538	5662.55
492.908	5775.09
493.278	5919.04
493.648	5971.02
494.017	6120.62
494.387	6249.65
494.757	6370.33
495.126	6525.8
495.496	6604.44
495.866	6723.31
496.235	6821.61
496.605	6996.98
496.974	7072.68
497.344	7194.26
497.713	7331.43
498.082	7448.72
498.452	7639.9
498.821	7716.73
499.19	7740.46
499.559	7933.45
499.928	8081.47
500.298	8127.79
500.667	8339.09
501.036	8335.02
501.405	8501.57
501.774	8580.66
502.143	8743.82
502.512	8831.96
502.88	8953.99
503.249	9005.96
503.618	9159.86
503.987	9196.92
504.356	9312.85
504.724	9474.2
505.093	9491.6
505.462	9619.73
505.83	9679.17
506.199	9808.88
506.567	10001.87
506.936	10024.24
507.304	10185.59
507.672	10295.42
508.041	10361.63
508.409	10475.08
508.777	10644.79
509.145	10721.85
509.514	10739.93
509.882	10916.87
510.25	10989.19
510.618	11031
510.986	11160.71
511.354	11250.2
511.722	11329.07
512.09	11546.91
512.458	11544.88
512.826	11781.48
513.193	11794.82
513.561	11728.83
513.929	11942.38
514.297	12084.98
514.664	12157.52
515.032	12204.52
515.4	12397.06
515.767	12397.06
516.135	12491.07
516.502	12469.83
516.869	12733.55
517.237	12807.22
517.604	12846.09
517.972	13006.99
518.339	13055.57
518.706	13097.83
519.073	13224.61
519.44	13317.26
519.808	13424.38
520.175	13494.89
520.542	13667.31
520.909	13753.64
521.276	13772.84
521.643	13941.2
522.009	14034.31
522.376	14133.74
522.743	14211.25
523.11	14356.11
523.477	14502.77
523.843	14548.64
524.21	14669.32
524.577	14754.74
524.943	14896.88
525.31	15007.61
525.676	15105.69
526.043	15241.96
526.409	15291.45
526.776	15413.25
527.142	15607.82
527.508	15561.5
527.874	15709.06
528.241	15802.4
528.607	15789.97
528.973	16073.8
529.339	16032.9
529.705	16245.77
530.071	16300.91
530.437	16463.85
530.803	16466.11
531.169	16624.97
531.535	16578.19
531.901	16668.14
532.267	16824.74
532.632	16923.95
532.998	16903.61
533.364	17039.2
533.73	17163.49
534.095	17302.24
534.461	17284.84
534.826	17302.69
535.192	17501.56
535.557	17638.51
535.923	17727.54
536.288	17727.09
536.653	17863.13
537.019	17778.39
537.384	17863.36
537.749	18030.81
538.114	18029
538.479	18085.95
538.845	18171.37
539.21	18129.57
539.575	18210.02
539.94	18326.17
540.305	18468.54
540.67	18389.45
541.034	18577.01
541.399	18653.62
541.764	18663.79
542.129	18737.46
542.494	18795.08
542.858	18838.7
543.223	18909.66
543.587	19006.6
543.952	19047.51
544.316	19108.97
544.681	19066.94
545.045	19238.01
545.41	19305.81
545.774	19382.87
546.138	19416.54
546.503	19461.28
546.867	19475.97
547.231	19647.04
547.595	19724.33
547.959	19720.71
548.324	19697.89
548.688	19956.41
549.052	19917.54
549.416	19977.88
549.779	20078.44
550.143	20037.31
550.507	20214.93
550.871	20308.94
551.235	20346.46
551.599	20284.54
551.962	20491.09
552.326	20590.52
552.689	20627.81
553.053	20620.12
553.417	20724.07
553.78	20941.7
554.143	20859.44
554.507	21010.85
554.87	21044.74
555.234	21164.51
555.597	21172.2
555.96	21317.05
556.323	21303.49
556.686	21359.54
557.05	21462.13
557.413	21557.05
557.776	21638.63
558.139	21788.68
558.502	21852.63
558.865	21820.77
559.228	22033.64
559.59	22096.92
559.953	22165.17
560.316	22330.13
560.679	22407.65
561.041	22623.23
561.404	22527.42
561.767	22741.65
562.129	22698.26
562.492	23085.59
562.854	22918.14
563.217	22993.62
563.579	23046.05
563.941	23142.54
564.304	23318.81
564.666	23408.75
565.028	23452.82
565.39	23581.17
565.753	23690.78
566.115	23714.73
566.477	23826.59
566.839	23892.13
567.201	24024.55
567.563	24113.82
567.925	24348.16
568.287	24181.84
568.648	24292.79
569.01	24419.34
569.372	24593.8
569.734	24582.73
570.095	24773.46
570.457	24847.58
570.819	25018.2
571.18	24985.2
571.542	25164.63
571.903	25222.03
572.265	25345.42
572.626	25555.59
572.987	25408.24
573.349	25606.21
573.71	25686.43
574.071	25730.04
574.432	25708.12
574.794	26026.08
575.155	26000.77
575.516	26005.29
575.877	26109.92
576.238	26298.39
576.599	26383.81
576.96	26387.65
577.32	26392.63
577.681	26585.61
578.042	26703.58
578.403	26767.76
578.763	26901.99
579.124	26801.65
579.485	27028.09
579.845	27235.77
580.206	27234.86
580.566	27280.06
580.927	27417.01
581.287	27599.15
581.648	27599.37
582.008	27742.42
582.368	27747.17
582.728	27911.68
583.089	27866.26
583.449	27934.28
583.809	28140.83
584.169	28334.27
584.529	28205.01
584.889	28550.76
585.249	28424.66
585.609	28426.02
585.969	28627.37
586.329	28724.09
586.688	28923.86
587.048	28971.31
587.408	29013.8
587.768	29086.34
588.127	29074.59
588.487	29260.35
588.846	29488.36
589.206	29393.45
589.565	29559.55
589.925	29687.68
590.284	29756.15
590.643	29778.07
591.003	30127.44
591.362	30230.04
591.721	30272.98
592.08	30378.51
592.44	30525.62
592.799	30530.14
593.158	30615.11
593.517	30744.83
593.876	30846.29
594.235	30886.07
594.593	30912.73
594.952	31059.4
595.311	31098.72
595.67	31324.02
596.029	31450.12
596.387	31465.03
596.746	31656.67
597.104	31551.81
597.463	31787.51
597.822	31784.35
598.18	31753.39
598.538	31904.8
598.897	32131.01
599.255	31854.63
599.613	32370.55
599.972	32326.93
600.33	32308.63
600.688	32322.64
601.046	32545.68
601.404	32717.2
601.762	32699.35
602.12	32917.65
602.478	32844.88
602.836	33017.54
603.194	32965.11
603.552	33047.59
603.91	33093.92
604.268	33210.53
604.625	33207.14
604.983	33310.18
605.341	33226.34
605.698	33528.26
606.056	33495.94
606.413	33594.24
606.771	33793.79
607.128	33792.88
607.485	33709.5
607.843	33889.38
608.2	34004.63
608.557	34081.69
608.914	34079.43
609.272	34180.22
609.629	34424.96
609.986	34485.29
610.343	34290.72
610.7	34605.52
611.057	34511.06
611.414	34622.92
611.771	34787.66
612.127	35064.71
612.484	34846.41
612.841	35138.16
613.198	35052.06
613.554	34934.77
613.911	35259.51
614.267	35344.93
614.624	35342.45
614.98	35334.54
615.337	35535.21
615.693	35642.55
616.05	35594.64
616.406	35817.01
616.762	35586.96
617.118	35605.94
617.475	35767.75
617.831	35889.1
618.187	35898.82
618.543	35983.79
618.899	36200.5
619.255	36002.09
619.611	36177
619.967	36324.34
620.323	36359.82
620.678	36172.71
621.034	36177
621.39	36237.79
621.746	36217.9
622.101	36568.4
622.457	36275.53
622.812	36547.16
623.168	36531.79
623.523	36551.68
623.879	36802.75
624.234	36464.68
624.589	36661.96
624.945	36766.82
625.3	36803.42
625.655	36813.59
626.01	36869.41
626.365	36756.87
626.72	36670.55
627.075	36698.79
627.43	36824.44
627.785	36750.54
628.14	36884.55
628.495	36951.9
628.85	36861.28
629.205	36845.01
629.559	37095.85
629.914	36898.79
630.269	36902.18
630.623	36833.03
630.978	36746.03
631.332	36957.09
631.687	37022.85
632.041	36700.15
632.396	36706.25
632.75	36760.71
633.104	36833.93
633.459	36786.48
633.813	36694.5
634.167	36671
634.521	36837.55
634.875	36636.42
635.229	36735.4
635.583	36548.97
635.937	36645.24
636.291	36526.82
636.645	36581.06
636.999	36612.02
637.352	36655.41
637.706	36420.16
638.06	36575.41
638.413	36455.64
638.767	36459.93
639.121	36535.64
639.474	36188.75
639.828	36376.54
640.181	36271.91
640.534	36357.79
640.888	36196.44
641.241	36132.48
641.594	36268.07
641.947	36320.05
642.301	36277.79
642.654	36317.34
643.007	36222.88
643.36	36201.18
643.713	36200.28
644.066	36273.95
644.419	35955.54
644.771	35887.06
645.124	35533.18
645.477	35437.59
645.83	35310.58
646.182	35171.83
646.535	35142.9
646.888	35113.53
647.24	35002.12
647.593	35076.69
647.945	35025.17
648.298	34934.55
648.65	34918.95
649.002	34753.99
649.355	34915.79
649.707	34850.26
650.059	34913.08
650.411	35466.96
650.763	35385.61
651.115	35671.48
651.467	35615.21
651.819	35557.36
652.171	35624.02
652.523	35398.72
652.875	35410.92
653.227	35371.15
653.578	35542.67
653.93	35462.22
654.282	35262.67
654.633	35182.68
654.985	35256.57
655.337	35131.38
655.688	35452.27
656.039	35581.99
656.391	35125.28
656.742	35070.14
657.094	35224.48
657.445	35468.32
657.796	35217.03
658.147	35261.54
658.498	35031.04
658.849	35326.4
659.2	35185.39
659.551	35142.45
659.902	35203.47
660.253	35219.29
660.604	35339.06
660.955	35035.56
661.306	35255.67
661.656	35168.44
662.007	35125.73
662.358	35093.41
662.708	35199.85
663.059	35145.39
663.409	34901.33
663.76	35204.82
664.11	35012.96
664.461	35188.33
664.811	35141.1
665.161	35093.64
665.511	34827.88
665.862	35108.55
666.212	35163.02
666.562	35089.57
666.912	34987.65
667.262	35053.19
667.612	34937.71
667.962	34910.59
668.312	34917.37
668.662	35154.43
669.011	34930.25
669.361	34901.78
669.711	34960.99
670.06	34748.34
670.41	34851.61
670.76	34805.06
671.109	35013.64
671.459	34686.87
671.808	34796.25
672.157	34885.74
672.507	34674.67
672.856	34749.02
673.205	34715.57
673.554	34790.82
673.904	34736.81
674.253	34862.69
674.602	34696.59
674.951	34216.37
675.3	34049.6
675.649	34530.26
675.998	34522.58
676.346	34635.57
676.695	34727.77
677.044	34490.49
677.393	34665.63
677.741	34589.02
678.09	34408.91
678.438	34354.22
678.787	34436.03
679.135	34434.9
679.484	34121.69
679.832	34338.86
680.181	34179.31
680.529	34234.68
680.877	34157.84
681.225	34263.83
681.573	34327.56
681.922	34216.6
682.27	34097.28
682.618	34122.59
682.966	34055.93
683.314	34017.96
683.661	33959.88
684.009	33765.09
684.357	33653.23
684.705	33521.25
685.053	33701.36
685.4	33586.79
685.748	33440.58
686.095	33383.85
686.443	33331.65
686.79	33278.32
687.138	33351.09
687.485	33252.78
687.832	33254.82
688.18	33249.17
688.527	33113.8
688.874	33032.68
689.221	32945.67
689.568	32928.72
689.915	32831.33
690.262	32920.36
690.609	32794.72
690.956	32678.11
691.303	32624.1
691.65	32498.23
691.997	32450.09
692.344	32204
692.69	32234.05
693.037	32213.72
693.383	32078.8
693.73	32135.75
694.077	32049.88
694.423	31992.7
694.769	31773.27
695.116	31744.8
695.462	31666.38
695.808	31561.75
696.155	31676.55
696.501	31446.05
696.847	31440.63
697.193	31206.96
697.539	31397.69
697.885	31013.75
698.231	31025.27
698.577	31117.25
698.923	31087.19
699.269	30868.21
699.614	30704.83
699.96	30665.51
700.306	30606.3
700.651	30560.88
700.997	30413.54
701.342	30363.59
701.688	30317.04
702.033	30230.72
702.379	30316.36
702.724	30250.83
703.069	30099.87
703.415	29857.17
703.76	29966.99
704.105	29824.4
704.45	29764.97
704.795	29613.11
705.14	29542.6
705.485	29576.27
705.83	29473.45
706.175	29314.58
706.52	29395.48
706.865	29287.01
707.209	29231.42
707.554	29054.93
707.899	29144.19
708.243	29045.66
708.588	28982.39
708.932	28736.74
709.277	28762.28
709.621	28922.73
709.966	28567.94
710.31	28736.07
710.654	28470.31
710.998	28545.56
711.342	28451.1
711.687	28461.27
712.031	28363.87
712.375	28163.65
712.719	28175.18
713.063	28294.04
713.407	28250.88
713.75	28151.22
714.094	27997.33
714.438	27884.56
714.782	27951.68
715.125	27767.5
715.469	27867.16
715.812	27780.84
716.156	27541.52
716.499	27574.97
716.843	27658.81
717.186	27444.12
717.53	27602.08
717.873	27449.55
718.216	27504.23
718.559	27389.21
718.902	27242.77
719.246	27226.73
719.589	27241.19
719.932	27006.17
720.275	27118.71
720.617	26961.2
720.96	26995.77
721.303	26938.83
721.646	26973.85
721.989	26769.56
722.331	26827.87
722.674	26824.7
723.016	26789
723.359	26664.03
723.701	26702.9
724.044	26612.28
724.386	26442.12
724.729	26554.88
725.071	26396.01
725.413	26444.38
725.755	26404.15
726.097	26289.8
726.439	26071.28
726.782	26192.63
727.124	26290.03
727.465	26056.81
727.807	26216.13
728.149	26107.89
728.491	26018.62
728.833	26096.36
729.175	25928.68
729.516	25943.82
729.858	25807.33
730.199	25790.38
730.541	25841
730.882	25791.96
731.224	25823.15
731.565	25748.35
731.906	25631.29
732.248	25690.27
732.589	25596.71
732.93	25447.34
733.271	25490.5
733.612	25588.35
733.953	25544.74
734.294	25477.17
734.635	25377.06
734.976	25360.11
735.317	25225.42
735.658	25246.21
735.999	25183.17
736.339	25233.56
736.68	25236.95
737.021	25231.98
737.361	25001.48
737.702	25215.03
738.042	25035.37
738.383	24991.31
738.723	24974.36
739.063	24921.25
739.404	25046.67
739.744	24882.38
740.084	24709.05
740.424	24770.3
740.764	24682.16
741.104	24859.56
741.444	24599.68
741.784	24427.48
742.124	24595.16
742.464	24574.82
742.804	24595.84
743.143	24482.17
743.483	24439.23
743.823	24392.45
744.162	24334.37
744.502	24354.03
744.841	24330.31
745.181	24375.05
745.52	24147.03
745.86	24208.28
746.199	24193.36
746.538	24098.9
746.877	24202.4
747.216	24304.09
747.556	24106.13
747.895	24130.99
748.234	24073.36
748.573	24011.44
748.911	23985.91
749.25	23925.8
749.589	23863.2
749.928	23833.82
750.267	23957.44
750.605	23749.76
750.944	23644.45
751.283	23528.29
751.621	23630.44
751.96	23468.86
752.298	23486.94
752.636	23545.47
752.975	23376.89
753.313	23319.49
753.651	23400.84
753.989	23279.94
754.327	23259.37
754.666	23079.49
755.004	23140.96
755.342	23157.68
755.679	23019.61
756.017	22990.23
756.355	23034.3
756.693	22869.1
757.031	23007.63
757.368	22730.8
757.706	22660.97
758.044	22726.05
758.381	22652.38
758.719	22524.25
759.056	22530.81
759.394	22478.15
759.731	22363.8
760.068	22439.06
760.405	22315.9
760.743	22338.49
761.08	22200.42
761.417	22116.13
761.754	22087.88
762.091	22040.88
762.428	21941.67
762.765	21853.76
763.102	21853.08
763.438	21690.38
763.775	21532.87
764.112	21630.94
764.449	21702.58
764.785	21529.48
765.122	21463.94
765.458	21411.29
765.795	21272.76
766.131	21288.13
766.467	21239.54
766.804	21076.15
767.14	20977.85
767.476	20956.16
767.812	20927.23
768.148	20840
768.485	20705.32
768.821	20636.62
769.157	20653.57
769.492	20582.83
769.828	20608.14
770.164	20328.83
770.5	20353.01
770.836	20365.44
771.171	20193.24
771.507	20150.98
771.842	20096.07
772.178	20040.7
772.513	19909.63
772.849	19878.45
773.184	19739.01
773.519	19698.79
773.855	19638.23
774.19	19560.04
774.525	19565.69
774.86	19539.7
775.195	19445.01
775.53	19331.34
775.865	19208.86
776.2	19093.16
776.535	18985.81
776.87	18954.4
777.205	19002.76
777.539	18786.95
777.874	18955.98
778.209	18693.17
778.543	18672.38
778.878	18552.15
779.212	18561.19
779.547	18483.68
779.881	18440.97
780.215	18348.54
780.55	18347.19
780.884	18306.96
781.218	18105.39
781.552	18201.88
781.886	18045.73
782.22	17999.85
782.554	17937.25
782.888	17848.22
783.222	17657.26
783.556	17623.59
783.889	17616.36
784.223	17510.37
784.557	17529.81
784.89	17566.42
785.224	17326.65
785.557	17365.29
785.891	17271.06
786.224	17196.03
786.558	17120.33
786.891	17065.86
787.224	17005.53
787.557	16909.94
787.891	16969.37
788.224	16814.57
788.557	16837.4
788.89	16777.51
789.223	16737.51
789.556	16596.27
789.888	16608.02
790.221	16487.57
790.554	16468.14
790.887	16409.38
791.219	16282.83
791.552	16361.02
791.884	16158.32
792.217	16198.54
792.549	16226.56
792.882	16023.86
793.214	15894.37
793.546	15938.44
793.879	15865.67
794.211	15745.45
794.543	15898.44
794.875	15710.87
795.207	15765.11
795.539	15583.87
795.871	15662.96
796.203	15525.11
796.535	15440.6
796.867	15399.02
797.198	15350.88
797.53	15347.72
797.862	15265.23
798.193	15304.1
798.525	15158.34
798.856	15167.84
799.188	15069.08
799.519	14944.79
799.85	14948.41
800.182	14988.18
800.513	14981.17
800.844	14774.85
801.175	14846.49
801.506	14797
801.837	14753.16
802.168	14745.47
802.499	14554.29
802.83	14561.75
803.161	14561.75
803.491	14542.77
803.822	14507.51
804.153	14415.77
804.483	14292.15
804.814	14266.39
805.145	14300.97
805.475	14325.15
805.805	14193.4
806.136	14145.26
806.466	14145.04
806.796	14269.1
807.126	13975.32
807.457	14004.02
807.787	14000.18
808.117	13936.23
808.447	13860.07
808.777	13889.45
809.107	13820.98
809.436	13802.67
809.766	13811.04
810.096	13616.01
810.426	13709.57
810.755	13607.42
811.085	13598.16
811.414	13578.27
811.744	13558.61
812.073	13434.32
812.403	13492.85
812.732	13369.92
813.061	13246.76
813.39	13262.12
813.719	13286.08
814.049	13275.23
814.378	13230.71
814.707	13112.3
815.036	13165.63
815.365	13013.54
815.693	13007.67
816.022	13055.8
816.351	12967.67
816.68	12914.79
817.008	12891.96
817.337	12886.09
817.665	12762.02
817.994	12811.06
818.322	12867.11
818.651	12747.79
818.979	12687.45
819.307	12778.07
819.636	12692.42
819.964	12620.78
820.292	12601.12
820.62	12619.88
820.948	12611.29
821.276	12681.57
821.604	12595.02
821.932	12551.18
822.259	12600.45
822.587	12510.5
822.915	12509.6
823.243	12599.32
823.57	12557.96
823.898	12514.57
824.225	12490.17
824.553	12525.87
824.88	12508.47
825.207	12489.94
825.535	12450.62
825.862	12572.42
826.189	12543.05
826.516	12548.7
826.843	12585.08
827.17	12637.51
827.497	12522.26
827.824	12558.86
828.151	12469.15
828.478	12556.83
828.805	12554.57
829.131	12517.51
829.458	12411.98
829.785	12424.86
830.111	12395.03
830.438	12523.16
830.764	12416.27
831.09	12546.89
831.417	12406.1
831.743	12442.48
832.069	12432.77
832.395	12400.22
832.722	12402.03
833.048	12364.97
833.374	12460.79
833.7	12279.32
834.026	12382.37
834.351	12341.7
834.677	12322.03
835.003	12358.87
835.329	12271.87
835.654	12272.77
835.98	12168.37
836.306	12327.23
836.631	12248.36
836.956	12233.68
837.282	12306.44
837.607	12127.46
837.932	12211.08
838.258	12196.61
838.583	12104.41
838.908	12119.33
839.233	12129.5
839.558	12065.09
839.883	12002.95
840.208	11957.52
840.533	12057.86
840.858	11995.26
841.182	11974.93
841.507	11957.75
841.832	11942.38
842.156	11915.49
842.481	11868.71
842.805	11785.33
843.13	11860.13
843.454	11833.01
843.778	11760.47
844.103	11745.33
844.427	11666.91
844.751	11673.01
845.075	11587.82
845.399	11572.45
845.723	11597.76
846.047	11576.52
846.371	11453.81
846.695	11468.5
847.019	11335.39
847.343	11326.81
847.666	11256.07
847.99	11288.62
848.313	11227.83
848.637	11155.51
848.96	11110.54
849.284	11147.83
849.607	10978.57
849.931	10983.76
850.254	10910.09
850.577	10877.33
850.9	10799.59
851.223	10787.84
851.546	10796.65
851.869	10622.64
852.192	10689.08
852.515	10635.07
852.838	10543.1
853.161	10508.52
853.483	10504.68
853.806	10421.75
854.129	10444.57
854.451	10417.23
854.774	10380.16
855.096	10299.94
855.419	10310.11
855.741	10300.39
856.063	10226.5
856.385	10181.75
856.708	10183.33
857.03	10124.13
857.352	10095.43
857.674	10065.14
857.996	10067.63
858.318	10046.84
858.64	10034.64
858.961	9959.61
859.283	9970.01
859.605	9900.86
859.926	9938.59
860.248	9881.42
860.57	9797.81
860.891	9784.25
861.212	9827.19
861.534	9804.13
861.855	9795.32
862.176	9729.33
862.498	9728.43
862.819	9760.29
863.14	9703.8
863.461	9662.44
863.782	9638.04
864.103	9637.81
864.424	9592.39
864.745	9645.49
865.065	9565.72
865.386	9499.51
865.707	9549.23
866.027	9490.24
866.348	9452.28
866.668	9488.89
866.989	9483.24
867.309	9448.66
867.63	9441.43
867.95	9459.29
868.27	9369.57
868.59	9374.99
868.91	9351.72
869.23	9357.14
869.55	9256.35
869.87	9349.91
870.19	9270.36
870.51	9299.06
870.83	9245.96
871.15	9235.34
871.469	9252.51
871.789	9286.18
872.109	9220.65
872.428	9159.63
872.748	9177.48
873.067	9092.52
873.386	9141.1
873.706	9194.89
874.025	9102.68
874.344	9104.72
874.663	9130.03
874.982	9008.45
875.301	9037.83
875.62	9002.12
875.939	9065.4
876.258	8988.79
876.577	8976.59
876.896	8937.94
877.214	8901.79
877.533	8885.29
877.852	8926.19
878.17	8892.07
878.489	8893.65
878.807	8948.34
879.125	8878.96
879.444	8870.83
879.762	8835.12
880.08	8858.17
880.398	8788.79
880.716	8821.11
881.034	8790.83
881.352	8769.59
881.67	8695.92
881.988	8760.09
882.306	8756.7
882.624	8690.72
882.941	8709.7
883.259	8599.19
883.577	8605.52
883.894	8558.29
884.212	8631.74
884.529	8565.07
884.846	8499.99
885.164	8587.44
885.481	8512.87
885.798	8503.15
886.115	8485.07
886.432	8432.42
886.75	8421.57
887.067	8465.64
887.383	8365.08
887.7	8366.66
888.017	8325.53
888.334	8380.9
888.651	8336.83
888.967	8366.21
889.284	8258.41
889.6	8257.96
889.917	8183.39
890.233	8190.62
890.55	8206.89
890.866	8139.77
891.182	8159.66
891.498	8096.61
891.815	8061.13
892.131	8048.02
892.447	8058.64
892.763	8010.96
893.079	8003.96
893.395	7912.43
893.71	7916.27
894.026	7946.33
894.342	7855.94
894.657	7872.89
894.973	7828.82
895.289	7829.27
895.604	7848.71
895.92	7709.5
896.235	7794.02
896.55	7758.99
896.865	7697.98
897.181	7687.35
897.496	7662.5
897.811	7631.99
898.126	7574.59
898.441	7521.03
898.756	7569.84
899.071	7491.2
899.386	7451.43
899.7	7402.62
900.015	7376.63
900.33	7310.64
900.644	7333.24
900.959	7379.79
901.273	7288.27
901.588	7285.56
901.902	7244.88
902.216	7276.97
902.531	7220.25
902.845	7182.96
903.159	7145.45
903.473	7075.17
903.787	7065.68
904.101	7069.97
904.415	7080.14
904.729	7036.07
905.042	6980.71
905.356	6977.77
905.67	6931.44
905.984	6940.48
906.297	6940.26
906.611	6869.75
906.924	6894.83
907.237	6843.31
907.551	6731.67
907.864	6765.8
908.177	6747.04
908.491	6746.14
908.804	6659.36
909.117	6702.97
909.43	6625.91
909.743	6611.22
910.056	6591.34
910.368	6573.26
910.681	6546.37
910.994	6549.31
911.307	6507.72
911.619	6446.48
911.932	6460.49
912.244	6392.7
912.557	6375.98
912.869	6293.49
913.181	6319.25
913.494	6345.24
913.806	6235.19
914.118	6292.36
914.43	6274.28
914.742	6203.33
915.054	6175.53
915.366	6184.12
915.678	6158.13
915.99	6153.61
916.302	6097.34
916.613	6060.5
916.925	6072.48
917.236	6013.05
917.548	5970.56
917.859	5953.16
918.171	5926.04
918.482	5928.3
918.794	5840.4
919.105	5892.83
919.416	5810.79
919.727	5841.75
920.038	5825.48
920.349	5765.6
920.66	5710.01
920.971	5774.86
921.282	5696.45
921.593	5624.81
921.903	5582.78
922.214	5609.89
922.525	5655.32
922.835	5614.41
923.146	5548.65
923.456	5559.05
923.767	5490.12
924.077	5495.55
924.387	5500.29
924.697	5446.06
925.008	5337.81
925.318	5392.95
925.628	5376.23
925.938	5350.01
926.248	5332.61
926.558	5304.59
926.867	5270.24
927.177	5275.21
927.487	5220.3
927.796	5204.71
928.106	5194.31
928.416	5190.47
928.725	5145.95
929.034	5124.03
929.344	5170.13
929.653	5112.96
929.962	5044.94
930.271	5012.62
930.581	5021.21
930.89	5005.62
931.199	4974.66
931.508	4997.48
931.817	4988.22
932.125	4959.52
932.434	4922.91
932.743	4844.94
933.051	4870.03
933.36	4848.78
933.669	4829.35
933.977	4801.1
934.286	4792.74
934.594	4753.65
934.902	4750.93
935.21	4680.88
935.519	4696.7
935.827	4632.29
936.135	4646.53
936.443	4604.05
936.751	4606.31
937.059	4592.52
937.367	4571.5
937.674	4563.82
937.982	4536.7
938.29	4498.96
938.597	4534.22
938.905	4431.17
939.213	4439.08
939.52	4425.52
939.827	4440.43
940.135	4389.81
940.442	4392.3
940.749	4378.74
941.056	4394.33
941.363	4292.42
941.67	4345.07
941.977	4291.06
942.284	4242.02
942.591	4284.73
942.898	4204.96
943.205	4224.39
943.511	4178.07
943.818	4183.94
944.125	4143.94
944.431	4119.99
944.738	4173.1
945.044	4100.33
945.35	4028.47
945.657	4046.55
945.963	4076.38
946.269	4041.57
946.575	4037.96
946.881	4029.6
947.187	4042.03
947.493	3975.59
947.799	3955.93
948.105	3950.05
948.41	3937.62
948.716	3927.23
949.022	3911.41
949.327	3886.1
949.633	3835.93
949.938	3812.2
950.244	3807.68
950.549	3784.41
950.854	3772.43
951.16	3785.31
951.465	3726.78
951.77	3725.2
952.075	3721.58
952.38	3728.59
952.685	3746.67
952.99	3689.27
953.294	3669.38
953.599	3632.55
953.904	3630.96
954.209	3602.94
954.513	3618.31
954.818	3592.32
955.122	3583.51
955.426	3580.57
955.731	3555.71
956.035	3482.27
956.339	3498.54
956.643	3463.06
956.948	3498.76
957.252	3461.02
957.556	3485.43
957.86	3393.46
958.163	3392.1
958.467	3378.99
958.771	3403.17
959.075	3387.81
959.378	3347.81
959.682	3347.36
959.985	3326.34
960.289	3307.13
960.592	3311.88
960.896	3306
961.199	3285.89
961.502	3286.79
961.805	3263.06
962.108	3217.64
962.411	3264.42
962.714	3179
963.017	3164.76
963.32	3188.49
963.623	3173.8
963.926	3097.64
964.228	3172.44
964.531	3119.79
964.833	3098.77
965.136	3120.02
965.438	3118.21
965.741	3067.14
966.043	3058.78
966.345	3041.83
966.648	3031.21
966.95	3050.19
967.252	3004.77
967.554	3007.25
967.856	2984.2
968.158	2929.74
968.46	2964.31
968.761	2934.03
969.063	2945.56
969.365	2910.98
969.666	2901.04
969.968	2846.35
970.269	2855.17
970.571	2874.15
970.872	2870.53
971.174	2855.17
971.475	2875.5
971.776	2835.05
972.077	2788.73
972.378	2828.27
972.679	2765.22
972.98	2767.26
973.281	2744.43
973.582	2748.73
973.883	2743.76
974.183	2713.47
974.484	2725.68
974.785	2689.97
975.085	2733.81
975.386	2679.58
975.686	2681.84
975.986	2638.9
976.287	2648.84
976.587	2600.26
976.887	2642.74
977.187	2581.27
977.487	2597.54
977.787	2585.57
978.087	2599.58
978.387	2552.35
978.687	2542.18
978.987	2541.95
979.286	2523.87
979.586	2528.39
979.885	2501.28
980.185	2492.24
980.484	2504.67
980.784	2474.61
981.083	2437.32
981.382	2425.12
981.682	2469.86
981.981	2475.74
982.28	2431
982.579	2390.77
982.878	2390.77
983.177	2383.77
983.475	2368.85
983.774	2371.11
984.073	2361.39
984.372	2350.77
984.67	2347.61
984.969	2344.67
985.267	2303.54
985.566	2328.63
985.864	2333.82
986.162	2304.22
986.461	2319.36
986.759	2257.44
987.057	2255.41
987.355	2247.95
987.653	2259.93
987.951	2262.86
988.249	2199.82
988.547	2221.28
988.844	2188.74
989.142	2219.93
989.44	2162.53
989.737	2174.05
990.035	2171.79
990.332	2186.26
990.63	2166.82
990.927	2124.11
991.224	2122.75
991.521	2123.21
991.819	2138.35
992.116	2087.95
992.413	2059.48
992.71	2084.11
993.006	2057.45
993.303	2078.91
993.6	2043.21
993.897	2026.94
994.193	2029.88
994.49	2032.14
994.787	2022.64
995.083	1977.9
995.379	2004.34
995.676	2005.92
995.972	2002.98
996.268	1973.38
996.565	1944.45
996.861	1927.73
997.157	1942.42
997.453	1954.4
997.749	1917.34
998.044	1896.55
998.34	1873.5
998.636	1882.31
998.932	1868.3
999.227	1875.53
999.523	1876.21
999.818	1859.26
1000.114	1834.63
1000.409	1860.39
1000.704	1848.19
1001	1806.15
1001.295	1821.97
1001.59	1772.93
1001.885	1803.89
1002.18	1775.65
1002.475	1791.24
1002.77	1779.04
1003.065	1747.17
1003.359	1745.59
1003.654	1737
1003.949	1724.12
1004.243	1719.15
1004.538	1726.61
1004.832	1701.07
1005.127	1719.38
1005.421	1694.97
1005.715	1670.56
1006.009	1681.41
1006.304	1666.72
1006.598	1675.54
1006.892	1664.01
1007.186	1633.95
1007.48	1629.66
1007.773	1621.07
1008.067	1583.33
1008.361	1589.44
1008.655	1579.72
1008.948	1555.76
1009.242	1565.93
1009.535	1555.09
1009.829	1523.45
1010.122	1547.85
1010.415	1532.94
1010.708	1553.5
1011.001	1506.27
1011.295	1515.31
1011.588	1489.33
1011.881	1487.74
1012.173	1491.13
1012.466	1476.9
1012.759	1487.97
1013.052	1457.91
1013.344	1454.98
1013.637	1454.07
1013.93	1450.46
1014.222	1430.8
1014.514	1414.98
1014.807	1393.73
1015.099	1406.62
1015.391	1389.67
1015.683	1414.52
1015.976	1360.97
1016.268	1372.27
1016.56	1352.15
1016.851	1355.32
1017.143	1341.98
1017.435	1331.82
1017.727	1367.07
1018.018	1307.41
1018.31	1319.61
1018.602	1304.47
1018.893	1286.84
1019.185	1280.52
1019.476	1308.09
1019.767	1261.99
1020.058	1289.78
1020.35	1235.32
1020.641	1233.51
1020.932	1247.07
1021.223	1222.21
1021.514	1222.67
1021.804	1232.83
1022.095	1209.78
1022.386	1210.69
1022.677	1202.33
1022.967	1203.01
1023.258	1185.6
1023.548	1156.45
1023.839	1177.7
1024.129	1174.08
1024.419	1159.84
1024.709	1144.7
1025	1155.77
1025.29	1137.7
1025.58	1106.96
1025.87	1133.85
1026.16	1122.56
1026.449	1092.5
1026.739	1126.17
1027.029	1063.8
1027.319	1101.09
1027.608	1080.52
1027.898	1088.21
1028.187	1059.96
1028.477	1070.81
1028.766	1066.29
1029.055	1046.85
1029.344	1025.83
1029.634	1056.79
1029.923	1033.29
1030.212	1037.59
1030.501	1028.32
1030.79	984.93
1031.078	1012.28
1031.367	1023.8
1031.656	1014.54
1031.945	1001.65
1032.233	966.85
1032.522	992.16
1032.81	966.63
1033.099	990.13
1033.387	926.85
1033.675	938.15
1033.963	953.07
1034.251	939.06
1034.54	923.69
1034.828	920.3
1035.116	927.53
1035.403	930.47
1035.691	907.19
1035.979	927.31
1036.267	890.24
1036.554	891.6
1036.842	870.81
1037.129	885.73
1037.417	865.39
1037.704	878.95
1037.992	868.32
1038.279	848.89
1038.566	864.03
1038.853	864.03
1039.14	864.03
