Data from hue_120_FLMS001491_00008.txt Node
Date: Tue Feb 07 16:58:51 GMT 2017
User: dcchb
Spectrometer: FLMS00149
Trigger mode: 0
Integration Time (sec): 2.000000E-2
Scans to average: 10
Electric dark correction enabled: true
Nonlinearity correction enabled: false
Boxcar width: 0
XAxis mode: Wavelengths
Number of Pixels in Spectrum: 2048
>>>>>Begin Spectral Data<<<<<
341.393	-21.99
341.776	-21.99
342.16	-21.99
342.543	-61.54
342.927	-45.49
343.31	-72.16
343.693	-57.47
344.077	-49.56
344.46	-59.05
344.843	-39.62
345.226	-41.2
345.61	-27.64
345.993	-21.76
346.376	-7.3
346.759	1.96
347.142	28.18
347.525	42.41
347.908	47.16
348.291	47.39
348.674	86.93
349.057	121.73
349.44	128.51
349.823	128.97
350.206	146.82
350.588	198.12
350.971	220.71
351.354	223.65
351.737	236.31
352.119	234.5
352.502	270.66
352.884	264.33
353.267	273.59
353.65	288.06
354.032	313.82
354.414	308.4
354.797	301.84
355.179	312.92
355.562	302.52
355.944	313.14
356.326	336.64
356.709	361.73
357.091	335.51
357.473	344.33
357.855	330.99
358.238	340.71
358.62	348.17
359.002	334.38
359.384	348.85
359.766	346.59
360.148	346.81
360.53	342.75
360.912	341.62
361.294	342.52
361.676	345.01
362.057	328.73
362.439	333.71
362.821	333.03
363.203	310.2
363.584	314.05
363.966	327.6
364.348	323.99
364.729	334.61
365.111	324.89
365.493	316.98
365.874	314.05
366.256	317.66
366.637	299.81
367.019	307.94
367.4	314.72
367.781	311.33
368.163	317.89
368.544	335.51
368.925	347.72
369.306	308.62
369.688	321.05
370.069	308.62
370.45	309.3
370.831	307.04
371.212	331.9
371.593	310.88
371.974	314.72
372.355	307.27
372.736	323.76
373.117	309.75
373.498	329.86
373.879	320.15
374.26	313.82
374.641	328.06
375.021	314.95
375.402	315.18
375.783	327.83
376.163	339.58
376.544	338
376.925	346.59
377.305	324.21
377.686	334.61
378.066	342.97
378.447	330.54
378.827	349.98
379.208	341.62
379.588	340.03
379.968	333.71
380.349	348.39
380.729	315.18
381.109	349.52
381.489	366.47
381.87	347.04
382.25	357.43
382.63	339.81
383.01	354.27
383.39	361.28
383.77	347.04
384.15	343.65
384.53	360.37
384.91	333.71
385.29	363.54
385.67	368.73
386.049	359.47
386.429	360.6
386.809	371.9
387.189	365.12
387.568	354.27
387.948	362.86
388.328	382.29
388.707	352.91
389.087	350.2
389.466	353.82
389.846	360.6
390.225	382.97
390.605	379.81
390.984	357.43
391.363	375.51
391.743	364.89
392.122	380.94
392.501	355.4
392.881	381.39
393.26	383.87
393.639	389.52
394.018	344.1
394.397	391.78
394.776	375.74
395.155	383.2
395.534	375.74
395.913	396.3
396.292	393.59
396.671	395.85
397.05	396.3
397.429	411.67
397.808	398.56
398.186	385
398.565	394.72
398.944	401.5
399.323	407.6
399.701	409.64
400.08	393.59
400.458	415.74
400.837	419.13
401.215	414.61
401.594	409.18
401.972	414.61
402.351	416.87
402.729	428.62
403.107	410.99
403.486	424.55
403.864	434.04
404.242	434.95
404.62	427.49
404.999	434.04
405.377	453.25
405.755	444.66
406.133	455.06
406.511	441.5
406.889	455.74
407.267	447.15
407.645	454.15
408.023	444.66
408.401	442.18
408.779	462.74
409.156	451.89
409.534	470.2
409.912	472.91
410.29	464.55
410.667	479.01
411.045	505.68
411.422	483.08
411.8	483.53
412.178	474.49
412.555	508.39
412.933	476.53
413.31	485.79
413.687	494.15
414.065	508.39
414.442	510.88
414.819	519.69
415.197	487.83
415.574	537.09
415.951	495.28
416.328	500.03
416.705	540.48
417.082	529.18
417.46	540.48
417.837	525.57
418.214	528.05
418.591	534.15
418.967	539.35
419.344	542.06
419.721	562.17
420.098	531.44
420.475	528.73
420.852	551.78
421.228	555.17
421.605	559.91
421.982	557.88
422.358	588.61
422.735	552.46
423.111	568.28
423.488	587.26
423.864	594.72
424.241	613.7
424.617	598.78
424.994	578.67
425.37	593.36
425.746	601.72
426.123	622.29
426.499	602.63
426.875	599.69
427.251	614.38
427.627	618.22
428.003	627.71
428.379	634.71
428.756	642.4
429.132	658.44
429.507	672.68
429.883	664.77
430.259	649.18
430.635	669.29
431.011	717.88
431.387	723.98
431.763	675.17
432.138	714.26
432.514	708.39
432.89	708.39
433.265	716.52
433.641	707.71
434.016	733.24
434.392	730.53
434.767	764.88
435.143	756.75
435.518	757.65
435.894	743.64
436.269	745.67
436.644	779.12
437.02	781.15
437.395	773.69
437.77	803.52
438.145	807.82
438.52	806.91
438.895	823.64
439.271	816.41
439.646	819.12
440.021	827.93
440.395	822.05
440.77	847.59
441.145	831.77
441.52	847.82
441.895	839
442.27	871.32
442.645	876.29
443.019	870.64
443.394	882.17
443.769	897.53
444.143	883.52
444.518	889.17
444.892	892.79
445.267	897.08
445.641	904.76
446.016	933.69
446.39	928.27
446.764	929.4
447.139	915.84
447.513	931.43
447.887	921.49
448.262	938.89
448.636	951.54
449.01	965.33
449.384	972.33
449.758	960.81
450.132	987.47
450.506	984.08
450.88	994.25
451.254	992.9
451.628	1037.19
452.002	1002.84
452.376	1009.39
452.75	1031.99
453.123	1046.46
453.497	1046.23
453.871	1067.25
454.244	1102.95
454.618	1083.29
454.992	1107.02
455.365	1109.28
455.739	1135.27
456.112	1147.7
456.486	1136.17
456.859	1131.88
457.232	1175.04
457.606	1160.12
457.979	1190.63
458.352	1214.36
458.725	1210.29
459.099	1248.71
459.472	1260.01
459.845	1276.05
460.218	1262.27
460.591	1292.32
460.964	1279.22
461.337	1354.7
461.71	1376.39
462.083	1354.92
462.456	1385.2
462.829	1374.36
463.201	1398.31
463.574	1406.9
463.947	1434.92
464.32	1461.59
464.692	1498.42
465.065	1492.55
465.438	1529.15
465.81	1553.33
466.183	1558.31
466.555	1588.14
466.928	1570.96
467.3	1589.72
467.672	1657.29
468.045	1694.57
468.417	1739.54
468.789	1703.61
469.161	1741.8
469.534	1778.19
469.906	1822.71
470.278	1846.43
470.65	1871.29
471.022	1918.3
471.394	1984.51
471.766	1997.62
472.138	2010.72
472.51	2079.87
472.882	2137.05
473.253	2165.07
473.625	2203.94
473.997	2276.25
474.369	2290.26
474.74	2338.62
475.112	2401.22
475.484	2473.31
475.855	2535.46
476.227	2556.47
476.598	2648.67
476.97	2700.65
477.341	2745.39
477.713	2839.4
478.084	2897.71
478.455	3018.83
478.827	3038.49
479.198	3182.9
479.569	3197.36
479.94	3344.25
480.311	3384.47
480.682	3471.02
481.053	3606.39
481.424	3717.57
481.795	3784.01
482.166	3894.52
482.537	3983.55
482.908	4123.21
483.279	4172.25
483.65	4299.03
484.021	4442.98
484.391	4555.97
484.762	4641.62
485.133	4752.12
485.503	4887.03
485.874	5020.81
486.244	5153.69
486.615	5330.86
486.985	5424.19
487.356	5563.17
487.726	5724.98
488.097	5859.44
488.467	5973.11
488.837	6180.78
489.207	6264.62
489.578	6445.41
489.948	6582.13
490.318	6743.03
490.688	6793.2
491.058	7084.71
491.428	7210.36
491.798	7347.98
492.168	7607.19
492.538	7655.32
492.908	7801.76
493.278	8026.39
493.648	8083.56
494.017	8284.91
494.387	8355.19
494.757	8531.68
495.126	8673.83
495.496	8801.51
495.866	8973.25
496.235	9113.81
496.605	9260.7
496.974	9357.2
497.344	9578.21
497.713	9646.68
498.082	9775.04
498.452	9902.27
498.821	9970.97
499.19	10105.43
499.559	10271.75
499.928	10341.58
500.298	10537.51
500.667	10656.6
501.036	10706.09
501.405	10895.24
501.774	10919.64
502.143	11046.42
502.512	11147.88
502.88	11233.76
503.249	11274.89
503.618	11385.62
503.987	11571.6
504.356	11601.66
504.724	11739.73
505.093	11764.82
505.462	11929.33
505.83	11935.89
506.199	12061.76
506.567	12265.82
506.936	12250.68
507.304	12467.85
507.672	12491.58
508.041	12562.31
508.409	12757.11
508.777	12713.49
509.145	12808.86
509.514	12913.26
509.882	12928.4
510.25	12990.77
510.618	13087.04
510.986	13162.52
511.354	13302.4
511.722	13287.72
512.09	13486.35
512.458	13340.6
512.826	13458.33
513.193	13576.3
513.561	13611.32
513.929	13717.53
514.297	13803.86
514.664	13841.6
515.032	13908.49
515.4	13964.53
515.767	14016.06
516.135	14023.29
516.502	13914.14
516.869	14221.02
517.237	14173.34
517.604	14214.02
517.972	14277.75
518.339	14309.38
518.706	14354.58
519.073	14327.69
519.44	14399.32
519.808	14564.52
520.175	14517.29
520.542	14583.73
520.909	14695.36
521.276	14548.25
521.643	14695.59
522.009	14745.53
522.376	14819.65
522.743	14686.32
523.11	14854.45
523.477	14947.56
523.843	14987.56
524.21	15087.89
524.577	15129.25
524.943	15156.82
525.31	15128.12
525.676	15222.81
526.043	15290.6
526.409	15247.89
526.776	15315.68
527.142	15266.65
527.508	15332.41
527.874	15383.71
528.241	15388.23
528.607	15387.55
528.973	15464.16
529.339	15454.66
529.705	15532.4
530.071	15496.47
530.437	15481.33
530.803	15541.44
531.169	15510.48
531.535	15450.37
531.901	15494.44
532.267	15441.11
532.632	15415.57
532.998	15443.82
533.364	15451.27
533.73	15419.64
534.095	15502.35
534.461	15397.04
534.826	15461.44
535.192	15374.89
535.557	15448.56
535.923	15411.73
536.288	15363.14
536.653	15429.13
537.019	15317.94
537.384	15278.62
537.749	15228.23
538.114	15218.29
538.479	15194.56
538.845	15251.05
539.21	15084.28
539.575	15085.86
539.94	15116.37
540.305	15048.35
540.67	15082.92
541.034	15041.79
541.399	15026.2
541.764	15002.02
542.129	14882.02
542.494	14923.83
542.858	14831.4
543.223	14866.43
543.587	14844.74
543.952	14782.82
544.316	14766.09
544.681	14743.5
545.045	14658.75
545.41	14696.94
545.774	14616.72
546.138	14513.67
546.503	14563.16
546.867	14465.76
547.231	14597.29
547.595	14515.03
547.959	14464.18
548.324	14397.97
548.688	14309.38
549.052	14314.13
549.416	14329.95
549.779	14214.7
550.143	14213.11
550.507	14255.15
550.871	14175.15
551.235	14075.72
551.599	14081.37
551.962	14099.67
552.326	14070.07
552.689	14043.4
553.053	13953.23
553.417	13941.71
553.78	14057.64
554.143	13912.33
554.507	13925.44
554.87	13999.11
555.234	14041.14
555.597	13807.25
555.96	13859.68
556.323	13835.05
556.686	13797.98
557.05	13856.74
557.413	13764.31
557.776	13786.01
558.139	13801.37
558.502	13781.04
558.865	13806.8
559.228	13867.59
559.59	13801.37
559.953	13727.03
560.316	13881.37
560.679	13793.92
561.041	13779.91
561.404	13798.89
561.767	13832.56
562.129	13763.41
562.492	13807.93
562.854	13812.22
563.217	13704.88
563.579	13768.38
563.941	13809.06
564.304	13905.55
564.666	13803.63
565.028	13844.31
565.39	13790.98
565.753	13851.54
566.115	13847.02
566.477	13887.47
566.839	13835.95
567.201	13914.37
567.563	13924.08
567.925	13920.69
568.287	13985.78
568.648	13969.51
569.01	13997.75
569.372	14091.08
569.734	13952.78
570.095	14031.88
570.457	14101.25
570.819	14129.73
571.18	14029.62
571.542	14062.16
571.903	14090.86
572.265	14160.46
572.626	14080.46
572.987	14113.91
573.349	14197.75
573.71	14130.18
574.071	14168.6
574.432	14178.77
574.794	14252.44
575.155	14264.41
575.516	14156.39
575.877	14171.99
576.238	14241.36
576.599	14257.41
576.96	14212.66
577.32	14249.5
577.681	14242.27
578.042	14280.01
578.403	14230.74
578.763	14247.01
579.124	14250.85
579.485	14238.43
579.845	14297.41
580.206	14296.28
580.566	14286.79
580.927	14262.61
581.287	14353.22
581.648	14226.45
582.008	14306.9
582.368	14186.22
582.728	14296.73
583.089	14236.39
583.449	14237.52
583.809	14245.88
584.169	14190.74
584.529	14218.99
584.889	14328.14
585.249	14203.85
585.609	14140.35
585.969	14190.74
586.329	14166.11
586.688	14132.67
587.048	14181.93
587.408	14064.64
587.768	14120.91
588.127	14058.54
588.487	14093.12
588.846	14142.38
589.206	14001.82
589.565	14032.33
589.925	14080.01
590.284	14100.58
590.643	14092.44
591.003	14038.88
591.362	14168.82
591.721	13970.41
592.08	14026.68
592.44	14069.16
592.799	13956.17
593.158	14020.35
593.517	14013.12
593.876	14027.13
594.235	13983.52
594.593	14037.53
594.952	14042.27
595.311	13955.04
595.67	13957.53
596.029	14061.48
596.387	13946.68
596.746	13984.42
597.104	13936.96
597.463	13912.11
597.822	14039.79
598.18	13893.12
598.538	13879.34
598.897	14007.7
599.255	13893.35
599.613	14041.14
599.972	13929.96
600.33	13979.45
600.688	13937.87
601.046	13937.64
601.404	14076.4
601.762	13976.96
602.12	14035.94
602.478	13928.6
602.836	13913.46
603.194	13918.21
603.552	13863.07
603.91	13910.75
604.268	13865.55
604.625	13926.57
604.983	14005.66
605.341	13880.02
605.698	13982.61
606.056	13989.62
606.413	13957.75
606.771	14074.14
607.128	14040.92
607.485	13976.06
607.843	13993.69
608.2	14039.56
608.557	14011.54
608.914	14076.4
609.272	14049.96
609.629	14085.66
609.986	14070.29
610.343	14044.76
610.7	14208.14
611.057	14067.13
611.414	14042.5
611.771	14109.84
612.127	14221.25
612.484	14072.55
612.841	14141.03
613.198	14029.39
613.554	14110.29
613.911	14176.96
614.267	14190.74
614.624	14063.06
614.98	14154.36
615.337	14254.7
615.693	14246.33
616.05	14261.25
616.406	14284.98
616.762	14266.67
617.118	14276.62
617.475	14319.55
617.831	14299.89
618.187	14362.26
618.543	14323.62
618.899	14409.49
619.255	14364.3
619.611	14288.59
619.967	14387.8
620.323	14430.06
620.678	14326.33
621.034	14352.77
621.39	14298.54
621.746	14261.02
622.101	14395.03
622.457	14262.83
622.812	14304.19
623.168	14375.37
623.523	14402.94
623.879	14410.62
624.234	14239.55
624.589	14355.26
624.945	14310.97
625.3	14331.98
625.655	14332.43
626.01	14345.54
626.365	14345.77
626.72	14364.07
627.075	14329.72
627.43	14418.31
627.785	14313.23
628.14	14368.14
628.495	14316.16
628.85	14284.07
629.205	14257.18
629.559	14404.75
629.914	14242.49
630.269	14309.16
630.623	14242.49
630.978	14268.71
631.332	14361.13
631.687	14317.52
632.041	14263.74
632.396	14284.98
632.75	14223.06
633.104	14244.75
633.459	14121.37
633.813	14148.48
634.167	14210.86
634.521	14161.82
634.875	14106.23
635.229	14149.84
635.583	14096.96
635.937	14076.4
636.291	13998.66
636.645	14027.81
636.999	13975.38
637.352	14080.92
637.706	13911.88
638.06	13999.11
638.413	13939
638.767	13899.22
639.121	13942.61
639.474	13854.93
639.828	13893.35
640.181	13957.75
640.534	13931.77
640.888	13854.03
641.241	13840.92
641.594	13772.67
641.947	13757.76
642.301	13770.19
642.654	13781.94
643.007	13786.23
643.36	13859.68
643.713	13726.12
644.066	13802.73
644.419	13677.76
644.771	13636.86
645.124	13545.34
645.477	13470.99
645.83	13410.88
646.182	13346.02
646.535	13268.28
646.888	13313.03
647.24	13303.99
647.593	13304.89
647.945	13342.63
648.298	13269.19
648.65	13278.22
649.002	13251.78
649.355	13263.31
649.707	13243.87
650.059	13348.96
650.411	13505.79
650.763	13529.97
651.115	13568.84
651.467	13616.97
651.819	13569.52
652.171	13623.75
652.523	13536.52
652.875	13563.64
653.227	13482.29
653.578	13598.22
653.93	13660.14
654.282	13555.96
654.633	13480.93
654.985	13610.87
655.337	13536.3
655.688	13580.82
656.039	13595.5
656.391	13496.52
656.742	13553.02
657.094	13549.4
657.445	13709.4
657.796	13656.07
658.147	13606.13
658.498	13570.65
658.849	13617.42
659.2	13581.49
659.551	13605.22
659.902	13649.06
660.253	13649.74
660.604	13597.76
660.955	13578.33
661.306	13544.21
661.656	13519.8
662.007	13628.5
662.358	13580.36
662.708	13552.57
663.059	13641.83
663.409	13531.33
663.76	13651.55
664.11	13591.44
664.461	13623.75
664.811	13636.18
665.161	13619.46
665.511	13554.83
665.862	13575.84
666.212	13639.34
666.562	13648.16
666.912	13665.33
667.262	13617.42
667.612	13762.28
667.962	13669.63
668.312	13606.13
668.662	13704.2
669.011	13669.4
669.361	13686.58
669.711	13693.58
670.06	13608.16
670.41	13567.26
670.76	13542.85
671.109	13608.39
671.459	13593.7
671.808	13443.42
672.157	13524.77
672.507	13531.33
672.856	13531.78
673.205	13530.2
673.554	13605.22
673.904	13490.65
674.253	13562.28
674.602	13551.21
674.951	13263.99
675.3	13299.24
675.649	13454.72
675.998	13407.49
676.346	13480.93
676.695	13500.82
677.044	13391.67
677.393	13333.14
677.741	13441.16
678.09	13402.97
678.438	13326.81
678.787	13337.21
679.135	13324.1
679.484	13261.05
679.832	13306.25
680.181	13235.29
680.529	13182.63
680.877	13173.82
681.225	13139.24
681.573	13346.92
681.922	13233.03
682.27	13213.82
682.618	13135.18
682.966	13057.21
683.314	12992.81
683.661	13086.36
684.009	12948.29
684.357	12985.35
684.705	13026.48
685.053	12960.04
685.4	12902.19
685.748	12858.8
686.095	12898.57
686.443	12830.78
686.79	12734.28
687.138	12757.79
687.485	12755.53
687.832	12690.9
688.18	12622.2
688.527	12627.85
688.874	12641.63
689.221	12637.56
689.568	12445.7
689.915	12507.62
690.262	12534.06
690.609	12455.2
690.956	12415.42
691.303	12388.3
691.65	12339.49
691.997	12380.39
692.344	12159.84
692.69	12252.26
693.037	12258.59
693.383	12160.06
693.73	12113.51
694.077	12040.29
694.423	12059.05
694.769	11950.12
695.116	11939.73
695.462	11936.34
695.808	11902.89
696.155	11937.02
696.501	11813.86
696.847	11747.87
697.193	11654.76
697.539	11750.81
697.885	11610.02
698.231	11598.27
698.577	11622.22
698.923	11588.1
699.269	11493.41
699.614	11456.13
699.96	11364.83
700.306	11388.56
700.651	11382.91
700.997	11399.63
701.342	11345.17
701.688	11236.7
702.033	11190.82
702.379	11125.29
702.724	11134.78
703.069	11139.75
703.415	10977.49
703.76	10945.63
704.105	10997.61
704.45	10941.11
704.795	10868.12
705.14	10848.23
705.485	10824.96
705.83	10771.62
706.175	10861.79
706.52	10732.08
706.865	10688.46
707.209	10724.85
707.554	10594.91
707.899	10669.93
708.243	10500.44
708.588	10531.63
708.932	10485.08
709.277	10502.48
709.621	10513.1
709.966	10467.22
710.31	10460.9
710.654	10327.34
710.998	10365.31
711.342	10386.32
711.687	10314.91
712.031	10244.41
712.375	10268.81
712.719	10267
713.063	10203.05
713.407	10262.03
713.75	10198.08
714.094	10190.17
714.438	10136.61
714.782	10142.94
715.125	10097.52
715.469	10124.41
715.812	10044.19
716.156	10039.44
716.499	10100.45
716.843	9993.56
717.186	9965.77
717.53	9967.35
717.873	9968.48
718.216	9956.28
718.559	9885.55
718.902	9774.14
719.246	9864.3
719.589	9838.54
719.932	9850.97
720.275	9785.43
720.617	9807.36
720.96	9731.2
721.303	9737.3
721.646	9798.77
721.989	9794.25
722.331	9777.75
722.674	9722.61
723.016	9770.97
723.359	9685.78
723.701	9717.41
724.044	9655.72
724.386	9620.02
724.729	9668.38
725.071	9686.23
725.413	9646.91
725.755	9633.57
726.097	9576.17
726.439	9573.01
726.782	9527.14
727.124	9638.09
727.465	9624.54
727.807	9595.84
728.149	9646.68
728.491	9573.01
728.833	9579.56
729.175	9568.04
729.516	9561.49
729.858	9600.35
730.199	9585.44
730.541	9555.16
730.882	9599
731.224	9591.32
731.565	9502.5
731.906	9508.15
732.248	9540.24
732.589	9544.31
732.93	9499.11
733.271	9409.85
733.612	9566.01
733.953	9612.56
734.294	9469.74
734.635	9493.92
734.976	9551.77
735.317	9522.84
735.658	9532.79
735.999	9486.23
736.339	9491.21
736.68	9523.29
737.021	9591.77
737.361	9475.84
737.702	9591.32
738.042	9523.75
738.383	9564.88
738.723	9536.4
739.063	9556.06
739.404	9521.03
739.744	9511.54
740.084	9599.9
740.424	9577.98
740.764	9566.91
741.104	9630.41
741.444	9648.49
741.784	9606.68
742.124	9674.48
742.464	9682.16
742.804	9677.64
743.143	9723.06
743.483	9755.15
743.823	9756.96
744.162	9740.69
744.502	9724.19
744.841	9778.66
745.181	9923.96
745.52	9852.1
745.86	9930.97
746.199	9904.08
746.538	10027.91
746.877	10045.31
747.216	10149.72
747.556	10161.92
747.895	10204.86
748.234	10192.43
748.573	10249.83
748.911	10368.02
749.25	10419.09
749.589	10389.94
749.928	10530.5
750.267	10552.42
750.605	10692.76
750.944	10763.26
751.283	10806.2
751.621	10911.28
751.96	11034.89
752.298	11075.34
752.636	11233.76
752.975	11279.63
753.313	11360.08
753.651	11516.46
753.989	11616.8
754.327	11758.26
754.666	11881.88
755.004	11979.05
755.342	12148.76
755.679	12294.52
756.017	12391.24
756.355	12649.09
756.693	12709.43
757.031	12862.42
757.368	13001.4
757.706	13141.28
758.044	13308.05
758.381	13483.42
758.719	13628.27
759.056	13898.55
759.394	14015.83
759.731	14129.05
760.068	14217.63
760.405	14492.43
760.743	14631.86
761.08	14855.81
761.417	14977.61
761.754	15293.99
762.091	15333.99
762.428	15484.04
762.765	15672.74
763.102	15944.37
763.438	16152.73
763.775	16129.67
764.112	16471.36
764.449	16651.02
764.785	16846.27
765.122	16853.05
765.458	17015.08
765.795	17253.49
766.131	17366.03
766.467	17621.84
766.804	17742.29
767.14	17844.88
767.476	18055.95
767.812	18206.23
768.148	18334.14
768.485	18376.4
768.821	18418.2
769.157	18620.91
769.492	18878.98
769.828	19028.36
770.164	19010.5
770.5	19095.25
770.836	19284.17
771.171	19333.21
771.507	19446.2
771.842	19445.97
772.178	19611.84
772.513	19670.6
772.849	19874.44
773.184	19879.63
773.519	19936.58
773.855	19986.97
774.19	20174.09
774.525	20154.65
774.86	20352.16
775.195	20351.26
775.53	20487.75
775.865	20316.68
776.2	20305.38
776.535	20389.68
776.87	20578.37
777.205	20433.29
777.539	20526.4
777.874	20621.99
778.209	20577.02
778.543	20558.94
778.878	20527.07
779.212	20665.6
779.547	20542.89
779.881	20771.59
780.215	20685.49
780.55	20830.34
780.884	20812.26
781.218	20655.66
781.552	20842.55
781.886	20698.37
782.22	20679.61
782.554	20688.2
782.888	20609.56
783.222	20584.47
783.556	20636.45
783.889	20591.48
784.223	20465.83
784.557	20552.61
784.89	20605.26
785.224	20581.31
785.557	20429.22
785.891	20466.28
786.224	20417.02
786.558	20475.78
786.891	20365.27
787.224	20347.42
787.557	20315.78
787.891	20301.77
788.224	20369.11
788.557	20321.65
788.89	20425.16
789.223	20386.74
789.556	20247.53
789.888	20198.95
790.221	20184.03
790.554	19962.12
790.887	20132.51
791.219	19977.26
791.552	20008.67
791.884	19923.25
792.217	19944.04
792.549	19871.72
792.882	19811.39
793.214	19775
793.546	19774.55
793.879	19670.82
794.211	19560.32
794.543	19612.97
794.875	19539.75
795.207	19663.82
795.539	19493.2
795.871	19618.4
796.203	19332.3
796.535	19366.65
796.867	19292.53
797.198	19263.38
797.53	19251.63
797.862	19177.5
798.193	19226.54
798.525	19081.24
798.856	19200.78
799.188	18902.48
799.519	18926.66
799.85	18862.71
800.182	18794.24
800.513	18841.47
800.844	18768.7
801.175	18787.68
801.506	18746.1
801.837	18688.93
802.168	18643.06
802.499	18554.47
802.83	18437.86
803.161	18474.02
803.491	18539.78
803.822	18593.79
804.153	18346.57
804.483	18257.3
804.814	18293.91
805.145	18229.28
805.475	18229.28
805.805	18061.83
806.136	18210.3
806.466	18116.97
806.796	18089.85
807.126	17990.42
807.457	18100.47
807.787	17932.79
808.117	17942.51
808.447	17854.6
808.777	17901.83
809.107	17739.35
809.436	17702.51
809.766	17710.2
810.096	17724.44
810.426	17594.5
810.755	17610.54
811.085	17535.74
811.414	17549.3
811.744	17428.62
812.073	17333.94
812.403	17459.13
812.732	17309.76
813.061	17362.86
813.39	17149.76
813.719	17186.6
814.049	17331.45
814.378	17175.3
814.707	17102.08
815.036	17092.59
815.365	17095.07
815.693	16974.4
816.022	16903.21
816.351	16861.18
816.68	16799.71
817.008	16866.38
817.337	16656.21
817.665	16667.06
817.994	16717.46
818.322	16683.11
818.651	16707.74
818.979	16584.13
819.307	16665.03
819.636	16555.65
819.964	16596.1
820.292	16510.68
820.62	16585.03
820.948	16489.67
821.276	16637.46
821.604	16503.68
821.932	16574.86
822.259	16542.55
822.587	16431.81
822.915	16533.51
823.243	16446.95
823.57	16412.38
823.898	16509.55
824.225	16403.79
824.553	16457.58
824.88	16481.08
825.207	16533.96
825.535	16434.53
825.862	16476.33
826.189	16434.3
826.516	16475.43
826.843	16578.7
827.17	16445.82
827.497	16463.45
827.824	16431.14
828.151	16531.7
828.478	16527.18
828.805	16541.87
829.131	16432.27
829.458	16511.13
829.785	16358.82
830.111	16498.25
830.438	16586.39
830.764	16475.88
831.09	16507.07
831.417	16422.32
831.743	16456.45
832.069	16475.43
832.395	16413.51
832.722	16409.89
833.048	16362.21
833.374	16478.37
833.7	16336.9
834.026	16376.67
834.351	16430.46
834.677	16363.57
835.003	16377.58
835.329	16278.82
835.654	16293.29
835.98	16286.05
836.306	16257.58
836.631	16315.66
836.956	16244.47
837.282	16308.65
837.607	16076.57
837.932	16105.72
838.258	16105.95
838.583	16178.49
838.908	15967.87
839.233	16021.2
839.558	16016.91
839.883	15902.34
840.208	15956.35
840.533	15890.36
840.858	15885.84
841.182	15953.86
841.507	15861.66
841.832	15827.31
842.156	15789.8
842.481	15780.08
842.805	15742.57
843.13	15688.78
843.454	15712.06
843.778	15660.76
844.103	15638.39
844.427	15542.12
844.751	15565.17
845.075	15470.71
845.399	15490.37
845.723	15333.99
846.047	15348.23
846.371	15268.45
846.695	15247.66
847.019	15122.24
847.343	15104.84
847.666	15050.38
847.99	14971.06
848.313	14890.16
848.637	14863.49
848.96	14794.79
849.284	14733.1
849.607	14684.06
849.931	14643.39
850.254	14599.09
850.577	14438.65
850.9	14408.14
851.223	14398.87
851.546	14260.8
851.869	14191.42
852.192	14250.4
852.515	14103.74
852.838	13995.27
853.161	14071.42
853.483	14029.84
853.806	13931.31
854.129	13893.8
854.451	13883.41
854.774	13807.7
855.096	13820.81
855.419	13725.67
855.741	13757.08
856.063	13661.04
856.385	13599.35
856.708	13608.16
857.03	13511.44
857.352	13470.08
857.674	13496.07
857.996	13382.4
858.318	13305.79
858.64	13334.49
858.961	13262.18
859.283	13240.03
859.605	13101.73
859.926	13168.85
860.248	13229.41
860.57	13148.28
860.891	13163.65
861.212	12933.83
861.534	13023.32
861.855	13002.75
862.176	12950.78
862.498	12923.88
862.819	13002.07
863.14	12833.72
863.461	12907.84
863.782	12819.71
864.103	12833.49
864.424	12814.51
864.745	12783.32
865.065	12788.07
865.386	12713.49
865.707	12765.02
866.027	12642.31
866.348	12653.83
866.668	12597.56
866.989	12591.91
867.309	12544.91
867.63	12600.28
867.95	12526.38
868.27	12440.28
868.59	12463.1
868.91	12485.93
869.23	12461.3
869.55	12371.58
869.87	12479.83
870.19	12443.44
870.51	12439.6
870.83	12395.31
871.15	12320.74
871.469	12227.63
871.789	12313.5
872.109	12321.19
872.428	12235.77
872.748	12295.88
873.067	12240.29
873.386	12274.41
873.706	12217.69
874.025	12089.33
874.344	12121.19
874.663	12149.21
874.982	12081.87
875.301	12103.79
875.62	12033.29
875.939	12030.57
876.258	12074.87
876.577	12023.79
876.896	12015.21
877.214	11916.23
877.533	11973.17
877.852	11906.06
878.17	11879.17
878.489	11905.61
878.807	11835.1
879.125	11787.19
879.444	11744.71
879.762	11723.46
880.08	11772.73
880.398	11785.61
880.716	11820.64
881.034	11694.99
881.352	11730.24
881.67	11626.97
881.988	11634.2
882.306	11631.04
882.624	11547.42
882.941	11444.83
883.259	11433.3
883.577	11459.97
883.894	11486.63
884.212	11437.82
884.529	11431.95
884.846	11351.27
885.164	11417.48
885.481	11295.23
885.798	11357.82
886.115	11242.8
886.432	11270.59
886.75	11200.54
887.067	11238.5
887.383	11167.77
887.7	11152.63
888.017	11152.18
888.334	11216.13
888.651	11097.72
888.967	11030.37
889.284	10990.6
889.6	10980.88
889.917	10890.49
890.233	10947.21
890.55	10867.67
890.866	10839.64
891.182	10810.04
891.498	10794.22
891.815	10705.86
892.131	10723.26
892.447	10665.64
892.763	10651.63
893.079	10610.5
893.395	10599.65
893.71	10576.83
894.026	10505.64
894.342	10534.12
894.657	10399.66
894.973	10448.02
895.289	10492.76
895.604	10430.62
895.92	10304.97
896.235	10255.48
896.55	10242.6
896.865	10276.5
897.181	10179.55
897.496	10149.49
897.811	10086.67
898.126	10060.46
898.441	10044.64
898.756	10026.78
899.071	9977.52
899.386	9932.55
899.7	9934.58
900.015	9805.55
900.33	9727.58
900.644	9700.24
900.959	9798.54
901.273	9733.01
901.588	9694.59
901.902	9644.65
902.216	9686.68
902.531	9575.5
902.845	9520.81
903.159	9517.42
903.473	9472.67
903.787	9477.65
904.101	9445.56
904.415	9428.83
904.729	9344.77
905.042	9244.21
905.356	9280.59
905.67	9260.48
905.984	9213.47
906.297	9201.95
906.611	9102.06
906.924	9107.71
907.237	9092.35
907.551	9041.73
907.864	9001.5
908.177	8897.77
908.491	8832.01
908.804	8870.43
909.117	8845.12
909.43	8788.17
909.743	8786.14
910.056	8661.62
910.368	8691.9
910.681	8694.16
910.994	8603.54
911.307	8627.5
911.619	8507.73
911.932	8578.01
912.244	8418.24
912.557	8452.81
912.869	8396.09
913.181	8355.42
913.494	8349.77
913.806	8309.32
914.118	8238.58
914.43	8209.21
914.742	8224.35
915.054	8227.28
915.366	8090.11
915.678	8099.6
915.99	8122.43
916.302	7997.46
916.613	7964.24
916.925	7978.02
917.236	7912.04
917.548	7898.25
917.859	7863
918.171	7883.34
918.482	7790.23
918.794	7778.93
919.105	7765.15
919.416	7704.81
919.727	7649.67
920.038	7641.31
920.349	7574.42
920.66	7562.67
920.971	7558.37
921.282	7561.76
921.593	7492.16
921.903	7442.45
922.214	7382.11
922.525	7377.81
922.835	7305.95
923.146	7259.85
923.456	7259.63
923.767	7296.23
924.077	7222.79
924.387	7220.08
924.697	7146.18
925.008	7174.2
925.318	7126.52
925.628	7108.44
925.938	7073.42
926.248	7030.7
926.558	7002.68
926.867	6941.22
927.177	6971.27
927.487	6926.07
927.796	6848.34
928.106	6830.48
928.416	6798.39
928.725	6793.65
929.034	6770.15
929.344	6742.35
929.653	6700.32
929.962	6646.76
930.271	6669.36
930.581	6593.88
930.89	6621.22
931.199	6543.26
931.508	6563.37
931.817	6545.97
932.125	6509.59
932.434	6523.83
932.743	6357.73
933.051	6351.4
933.36	6342.36
933.669	6349.37
933.977	6343.49
934.286	6307.79
934.594	6280.67
934.902	6174.91
935.21	6213.78
935.519	6199.09
935.827	6136.04
936.135	6123.16
936.443	6070.05
936.751	6052.65
937.059	6045.65
937.367	6033.44
937.674	6022.6
937.982	5992.09
938.29	5981.02
938.597	5936.72
938.905	5876.61
939.213	5887.46
939.52	5803.84
939.827	5862.37
940.135	5816.5
940.442	5746.44
940.749	5722.49
941.056	5801.58
941.363	5667.58
941.67	5705.54
941.977	5619.67
942.284	5556.17
942.591	5598.88
942.898	5574.7
943.205	5604.53
943.511	5566.56
943.818	5520.46
944.125	5492.67
944.431	5459.45
944.738	5515.49
945.044	5395.49
945.35	5374.7
945.657	5366.34
945.963	5338.09
946.269	5306.46
946.575	5329.28
946.881	5300.13
947.187	5281.15
947.493	5228.49
947.799	5211.09
948.105	5146.69
948.41	5161.15
948.716	5155.73
949.022	5096.97
949.327	5120.7
949.633	5071.21
949.938	5042.51
950.244	5024.66
950.549	5056.52
950.854	4975.84
951.16	5002.28
951.465	4949.4
951.77	4919.12
952.075	4866.02
952.38	4949.4
952.685	4901.04
952.99	4845
953.294	4835.51
953.599	4774.95
953.904	4772.23
954.209	4745.57
954.513	4717.55
954.818	4716.42
955.122	4658.79
955.426	4682.07
955.731	4638.45
956.035	4611.56
956.339	4598.23
956.643	4582.63
956.948	4617.89
957.252	4539.7
957.556	4570.43
957.86	4522.07
958.163	4507.83
958.467	4507.61
958.771	4460.6
959.075	4473.03
959.378	4409.76
959.682	4410.89
959.985	4365.92
960.289	4385.8
960.592	4316.2
960.896	4349.65
961.199	4301.74
961.502	4333.6
961.805	4261.51
962.108	4230.1
962.411	4215.19
962.714	4231.91
963.017	4216.54
963.32	4177.22
963.623	4150.33
963.926	4205.69
964.228	4139.93
964.531	4102.87
964.833	4066.94
965.136	3987.17
965.438	4066.26
965.741	4035.08
966.043	3980.62
966.345	3965.47
966.648	4006.6
966.95	3956.44
967.252	3938.13
967.554	3926.15
967.856	3907.62
968.158	3849.09
968.46	3880.51
968.761	3821.07
969.063	3830.34
969.365	3815.2
969.666	3783.33
969.968	3781.52
970.269	3775.42
970.571	3804.58
970.872	3726.61
971.174	3677.57
971.475	3683.9
971.776	3709.66
972.077	3656.78
972.378	3706.27
972.679	3691.81
972.98	3645.48
973.281	3629.21
973.582	3609.1
973.883	3575.2
974.183	3591.25
974.484	3586.73
974.785	3540.63
975.085	3535.66
975.386	3487.97
975.686	3518.71
975.986	3506.5
976.287	3473.51
976.587	3476.9
976.887	3393.29
977.187	3424.47
977.487	3356.45
977.787	3371.82
978.087	3383.34
978.387	3372.72
978.687	3324.59
978.987	3332.05
979.286	3264.25
979.586	3260.86
979.885	3301.76
980.185	3235.1
980.484	3262.89
980.784	3228.32
981.083	3217.7
981.382	3218.6
981.682	3170.02
981.981	3133.63
982.28	3154.87
982.579	3166.17
982.878	3154.2
983.177	3105.61
983.475	3137.25
983.774	3083.92
984.073	3058.15
984.372	3018.38
984.67	3099.06
984.969	3046.18
985.267	3036.91
985.566	3012.96
985.864	3012.73
986.162	2990.59
986.461	2942.22
986.759	2974.09
987.057	2939.74
987.355	2929.34
987.653	2920.76
987.951	2918.72
988.249	2909.68
988.547	2866.29
988.844	2848.67
989.142	2862
989.44	2824.04
989.737	2801.66
990.035	2792.62
990.332	2805.51
990.63	2779.97
990.927	2793.98
991.224	2725.51
991.521	2747.65
991.819	2704.04
992.116	2718.28
992.413	2725.73
992.71	2683.02
993.006	2665.85
993.303	2647.32
993.6	2691.61
993.897	2647.32
994.193	2651.16
994.49	2636.02
994.787	2599.86
995.083	2571.84
995.379	2589.24
995.676	2544.72
995.972	2548.79
996.268	2497.49
996.565	2523.93
996.861	2494.78
997.157	2518.28
997.453	2515.12
997.749	2502.46
998.044	2449.36
998.34	2427.89
998.636	2426.53
998.932	2390.6
999.227	2388.34
999.523	2393.09
999.818	2423.59
1000.114	2364.61
1000.409	2327.55
1000.704	2338.62
1001	2313.09
1001.295	2323.48
1001.59	2321.9
1001.885	2329.13
1002.18	2318.96
1002.475	2249.81
1002.77	2257.5
1003.065	2237.16
1003.359	2223.83
1003.654	2214.56
1003.949	2184.5
1004.243	2195.58
1004.538	2156.03
1004.832	2147.22
1005.127	2158.97
1005.421	2149.93
1005.715	2132.08
1006.009	2119.65
1006.304	2097.05
1006.598	2103.15
1006.892	2091.17
1007.186	2053.21
1007.48	2049.14
1007.773	2050.5
1008.067	2012.08
1008.361	2015.02
1008.655	2000.33
1008.948	2023.6
1009.242	1982.48
1009.535	1943.83
1009.829	1938.18
1010.122	1939.77
1010.415	1942.25
1010.708	1928.69
1011.001	1899.31
1011.295	1907
1011.588	1913.1
1011.881	1856.38
1012.173	1861.8
1012.466	1881.01
1012.759	1886.43
1013.052	1824.51
1013.344	1843.04
1013.637	1818.19
1013.93	1804.85
1014.222	1814.12
1014.514	1801.01
1014.807	1784.06
1015.099	1767.57
1015.391	1759.21
1015.683	1738.19
1015.976	1744.06
1016.268	1735.03
1016.56	1705.42
1016.851	1699.09
1017.143	1709.71
1017.435	1664.29
1017.727	1633.33
1018.018	1659.32
1018.31	1655.48
1018.602	1646.44
1018.893	1617.51
1019.185	1628.59
1019.476	1601.47
1019.767	1614.35
1020.058	1597.63
1020.35	1541.81
1020.641	1577.29
1020.932	1574.58
1021.223	1565.09
1021.514	1547.01
1021.804	1537.74
1022.095	1516.5
1022.386	1490.51
1022.677	1505.65
1022.967	1468.59
1023.258	1473.56
1023.548	1448.03
1023.839	1451.64
1024.129	1420.68
1024.419	1434.69
1024.709	1402.15
1025	1418.2
1025.29	1403.51
1025.58	1383.62
1025.87	1379.55
1026.16	1357.63
1026.449	1350.18
1026.739	1357.18
1027.029	1344.53
1027.319	1335.94
1027.608	1342.94
1027.898	1307.01
1028.187	1289.16
1028.477	1312.21
1028.766	1308.37
1029.055	1292.1
1029.344	1271.76
1029.634	1294.13
1029.923	1255.26
1030.212	1258.88
1030.501	1259.56
1030.79	1244.42
1031.078	1207.36
1031.367	1248.94
1031.656	1227.02
1031.945	1228.82
1032.233	1209.16
1032.522	1201.93
1032.81	1182.27
1033.099	1158.09
1033.387	1184.98
1033.675	1195.15
1033.963	1164.42
1034.251	1136.17
1034.54	1144.98
1034.828	1125.32
1035.116	1112.22
1035.403	1098.43
1035.691	1129.17
1035.979	1088.04
1036.267	1086.23
1036.554	1102.5
1036.842	1069.05
1037.129	1072.44
1037.417	1061.6
1037.704	1064.53
1037.992	1031.99
1038.279	1048.72
1038.566	1039.45
1038.853	1039.45
1039.14	1039.45
