Data from hue_350_FLMS001491_89.txt Node
Date: Mon Feb 06 15:38:39 GMT 2017
User: dcchb
Spectrometer: FLMS00149
Trigger mode: 0
Integration Time (sec): 2.000000E-2
Scans to average: 10
Electric dark correction enabled: true
Nonlinearity correction enabled: false
Boxcar width: 0
XAxis mode: Wavelengths
Number of Pixels in Spectrum: 2048
>>>>>Begin Spectral Data<<<<<
341.393	-16.43
341.776	-16.43
342.16	-16.43
342.543	-71.11
342.927	-57.1
343.31	-79.7
343.693	-67.95
344.077	-45.13
344.46	-56.2
344.843	-61.85
345.226	-40.83
345.61	-25.92
345.993	-0.38
346.376	-1.96
346.759	24.48
347.142	23.8
347.525	20.64
347.908	45.04
348.291	59.05
348.674	97.92
349.057	108.99
349.44	116.45
349.823	163.23
350.206	170.91
350.588	208.2
350.971	214.53
351.354	214.75
351.737	245.71
352.119	248.88
352.502	234.19
352.884	241.65
353.267	263.11
353.65	265.37
354.032	310.8
354.414	300.4
354.797	275.54
355.179	313.28
355.562	317.8
355.944	308.54
356.326	339.5
356.709	339.72
357.091	356.45
357.473	336.33
357.855	329.78
358.238	315.09
358.62	345.15
359.002	341.98
359.384	331.81
359.766	332.94
360.148	327.52
360.53	328.88
360.912	328.88
361.294	337.46
361.676	332.72
362.057	316.67
362.439	318.48
362.821	309.22
363.203	323.23
363.584	329.1
363.966	317.8
364.348	328.42
364.729	320.29
365.111	314.19
365.493	324.81
365.874	299.5
366.256	325.26
366.637	318.25
367.019	335.88
367.4	309.44
367.781	295.88
368.163	306.28
368.544	318.03
368.925	311.47
369.306	316.22
369.688	309.89
370.069	329.1
370.45	314.41
370.831	313.96
371.212	308.09
371.593	314.64
371.974	298.37
372.355	302.66
372.736	316.45
373.117	302.44
373.498	313.96
373.879	315.77
374.26	339.72
374.641	296.56
375.021	297.01
375.402	323.23
375.783	309.44
376.163	311.02
376.544	311.47
376.925	327.07
377.305	326.39
377.686	318.48
378.066	321.19
378.447	318.93
378.827	329.78
379.208	325.26
379.588	314.64
379.968	335.43
380.349	325.03
380.729	329.33
381.109	336.11
381.489	319.84
381.87	341.98
382.25	309.22
382.63	342.21
383.01	335.88
383.39	314.64
383.77	329.1
384.15	348.54
384.53	342.89
384.91	346.5
385.29	354.64
385.67	320.74
386.049	320.97
386.429	349.21
386.809	363
387.189	319.84
387.568	359.61
387.948	344.92
388.328	351.7
388.707	364.81
389.087	332.27
389.466	358.48
389.846	348.54
390.225	346.05
390.605	361.19
390.984	357.58
391.363	357.12
391.743	354.19
392.122	360.51
392.501	382.21
392.881	359.38
393.26	342.21
393.639	374.75
394.018	365.94
394.397	359.38
394.776	351.93
395.155	375.2
395.534	376.11
395.913	374.07
396.292	359.61
396.671	371.59
397.05	392.83
397.429	370.46
397.808	369.1
398.186	365.48
398.565	382.43
398.944	366.39
399.323	391.25
399.701	379.72
400.08	387.86
400.458	386.05
400.837	405.03
401.215	397.35
401.594	418.14
401.972	410.46
402.351	381.53
402.729	390.79
403.107	409.55
403.486	409.55
403.864	375.88
404.242	408.42
404.62	409.55
404.999	381.3
405.377	414.97
405.755	402.09
406.133	412.26
406.511	417.23
406.889	423.11
407.267	418.36
407.645	405.26
408.023	429.66
408.401	437.12
408.779	415.43
409.156	429.66
409.534	426.5
409.912	437.35
410.29	411.13
410.667	440.06
411.045	452.04
411.422	462.66
411.8	446.84
412.178	453.17
412.555	457.46
412.933	458.14
413.31	466.73
413.687	460.17
414.065	448.87
414.442	457.91
414.819	484.35
415.197	467.85
415.574	480.06
415.951	480.06
416.328	483.22
416.705	473.28
417.082	510.79
417.46	492.94
417.837	492.26
418.214	503.56
418.591	501.98
418.967	497.01
419.344	499.04
419.721	512.37
420.098	520.51
420.475	518.02
420.852	513.05
421.228	515.09
421.605	523.67
421.982	516.89
422.358	552.82
422.735	544.69
423.111	538.81
423.488	542.2
423.864	544.92
424.241	567.29
424.617	558.93
424.994	557.57
425.37	565.71
425.746	560.06
426.123	559.38
426.499	561.64
426.875	579.72
427.251	595.31
427.627	583.33
428.003	604.12
428.379	601.86
428.756	619.49
429.132	600.28
429.507	599.15
429.883	605.7
430.259	635.99
430.635	626.49
431.011	618.36
431.387	649.09
431.763	659.49
432.138	649.55
432.514	647.06
432.89	661.07
433.265	654.29
433.641	672.6
434.016	678.47
434.392	677.79
434.767	672.37
435.143	685.7
435.518	679.37
435.894	697.23
436.269	705.81
436.644	719.15
437.02	726.61
437.395	720.5
437.77	724.35
438.145	734.06
438.52	718.47
438.895	737.68
439.271	725.25
439.646	756.43
440.021	746.49
440.395	763.67
440.77	744.01
441.145	765.25
441.52	791.91
441.895	766.6
442.27	786.94
442.645	772.71
443.019	772.03
443.394	763.67
443.769	807.73
444.143	791.24
444.518	795.98
444.892	811.57
445.267	819.71
445.641	802.76
446.016	818.13
446.39	797.79
446.764	811.35
447.139	822.65
447.513	838.92
447.887	849.54
448.262	827.17
448.636	835.08
449.01	830.78
449.384	876.43
449.758	874.62
450.132	868.52
450.506	851.8
450.88	885.92
451.254	889.76
451.628	871.01
452.002	910.33
452.376	858.81
452.75	877.34
453.123	905.81
453.497	893.83
453.871	939.93
454.244	914.4
454.618	925.24
454.992	951.68
455.365	956.2
455.739	957.11
456.112	975.41
456.486	971.12
456.859	975.86
457.232	966.82
457.606	986.49
457.979	988.07
458.352	1016.09
458.725	1022.42
459.099	1041.17
459.472	1052.92
459.845	1064.45
460.218	1053.38
460.591	1071.68
460.964	1066.94
461.337	1112.58
461.71	1103.32
462.083	1090.21
462.456	1118.46
462.829	1094.73
463.201	1139.25
463.574	1167.05
463.947	1162.53
464.32	1173.37
464.692	1171.79
465.065	1176.99
465.438	1183.09
465.81	1221.06
466.183	1238.23
466.555	1236.87
466.928	1252.02
467.3	1252.47
467.672	1290.43
468.045	1305.57
468.417	1309.19
468.789	1308.06
469.161	1325.69
469.534	1335.85
469.906	1354.84
470.278	1409.3
470.65	1360.26
471.022	1381.5
471.394	1437.32
471.766	1402.07
472.138	1452.91
472.51	1478.9
472.882	1510.99
473.253	1516.19
473.625	1528.62
473.997	1576.75
474.369	1562.52
474.74	1607.94
475.112	1626.24
475.484	1641.61
475.855	1692.23
476.227	1691.78
476.598	1742.4
476.97	1751.21
477.341	1765.45
477.713	1776.07
478.084	1787.59
478.455	1853.36
478.827	1879.12
479.198	1927.48
479.569	1952.34
479.94	1976.52
480.311	2009.74
480.682	2037.76
481.053	2100.13
481.424	2128.6
481.795	2148.04
482.166	2193.91
482.537	2192.1
482.908	2219.22
483.279	2250.41
483.65	2280.01
484.021	2354.81
484.391	2378.54
484.762	2391.65
485.133	2411.76
485.503	2460.8
485.874	2536.95
486.244	2545.99
486.615	2596.61
486.985	2618.98
487.356	2633.22
487.726	2703.05
488.097	2710.06
488.467	2715.71
488.837	2810.62
489.207	2858.3
489.578	2885.19
489.948	2885.19
490.318	2921.12
490.688	2941.91
491.058	3007.9
491.428	3026.21
491.798	3065.75
492.168	3164.96
492.538	3134.9
492.908	3212.42
493.278	3204.73
493.648	3252.64
494.017	3261.45
494.387	3306.42
494.757	3322.92
495.126	3373.09
495.496	3356.59
495.866	3396.14
496.235	3426.42
496.605	3471.17
496.974	3496.7
497.344	3526.53
497.713	3554.1
498.082	3544.16
498.452	3579.86
498.821	3641.1
499.19	3658.28
499.559	3637.49
499.928	3718.16
500.298	3713.42
500.667	3751.38
501.036	3749.58
501.405	3785.51
501.774	3830.03
502.143	3794.77
502.512	3823.47
502.88	3861.66
503.249	3859.18
503.618	3896.24
503.987	3854.66
504.356	3909.35
504.724	3933.98
505.093	3947.99
505.462	4004.03
505.83	3999.97
506.199	4050.81
506.567	4077.03
506.936	4074.54
507.304	4115.22
507.672	4093.52
508.041	4115.22
508.409	4152.96
508.777	4176.01
509.145	4206.97
509.514	4216.91
509.882	4210.81
510.25	4259.17
510.618	4243.8
510.986	4248.77
511.354	4281.54
511.722	4350.92
512.09	4351.59
512.458	4340.07
512.826	4400.41
513.193	4411.71
513.561	4395.89
513.929	4415.55
514.297	4430.69
514.664	4515.21
515.032	4474.76
515.4	4499.84
515.767	4556.79
516.135	4553.85
516.502	4520.18
516.869	4599.27
517.237	4584.13
517.604	4555.88
517.972	4582.32
518.339	4628.2
518.706	4658.93
519.073	4631.14
519.44	4683.34
519.808	4697.12
520.175	4677.46
520.542	4700.96
520.909	4780.96
521.276	4755.43
521.643	4804.92
522.009	4836.1
522.376	4828.64
522.743	4853.5
523.11	4872.94
523.477	4898.7
523.843	4894.63
524.21	4969.21
524.577	5008.98
524.943	5010.33
525.31	5046.94
525.676	5065.47
526.043	5094.17
526.409	5080.61
526.776	5177.56
527.142	5161.74
527.508	5192.48
527.874	5226.15
528.241	5255.53
528.607	5270.21
528.973	5298.46
529.339	5288.52
529.705	5331.68
530.071	5379.59
530.437	5427.05
530.803	5429.08
531.169	5520.38
531.535	5469.98
531.901	5531
532.267	5516.08
532.632	5568.51
532.998	5593.37
533.364	5521.96
533.73	5598.34
534.095	5668.17
534.461	5654.16
534.826	5705.91
535.192	5654.61
535.557	5771.22
535.923	5723.76
536.288	5748.62
536.653	5820.26
537.019	5776.87
537.384	5832.46
537.749	5866.81
538.114	5894.6
538.479	5909.97
538.845	5937.09
539.21	5913.59
539.575	5935.96
539.94	5985.9
540.305	6032.45
540.67	6009.18
541.034	6048.95
541.399	6092.34
541.764	6104.09
542.129	6176.63
542.494	6133.24
542.858	6151.1
543.223	6207.59
543.587	6226.57
543.952	6231.77
544.316	6264.54
544.681	6193.35
545.045	6296.85
545.41	6319.45
545.774	6323.75
546.138	6389.51
546.503	6401.26
546.867	6464.99
547.231	6470.63
547.595	6479
547.959	6550.63
548.324	6511.76
548.688	6527.13
549.052	6534.14
549.416	6587.02
549.779	6562.84
550.143	6577.07
550.507	6679.67
550.871	6680.35
551.235	6608.26
551.599	6689.61
551.962	6776.84
552.326	6765.77
552.689	6828.82
553.053	6789.27
553.417	6787.69
553.78	6888.03
554.143	6917.18
554.507	6912.21
554.87	6902.04
555.234	6918.76
555.597	6961.92
555.96	6947.68
556.323	7043.73
556.686	7041.69
557.05	7044.86
557.413	7044.41
557.776	7097.06
558.139	7175.25
558.502	7163.5
558.865	7158.98
559.228	7238.98
559.59	7252.54
559.953	7259.54
560.316	7335.92
560.679	7342.48
561.041	7325.53
561.404	7378.41
561.767	7371.85
562.129	7342.02
562.492	7426.32
562.854	7429.25
563.217	7441.23
563.579	7500.66
563.941	7521
564.304	7597.16
564.666	7569.59
565.028	7650.72
565.39	7645.52
565.753	7628.34
566.115	7673.54
566.477	7727.78
566.839	7728.91
567.201	7836.02
567.563	7809.81
567.925	7848.9
568.287	7911.73
568.648	7853.65
569.01	7904.27
569.372	7943.14
569.734	7968.45
570.095	8040.09
570.457	8008.67
570.819	8050.71
571.18	8133.19
571.542	8130.93
571.903	8184.04
572.265	8238.27
572.626	8322.11
572.987	8347.2
573.349	8303.36
573.71	8423.13
574.071	8437.81
574.432	8505.38
574.794	8576.57
575.155	8567.98
575.516	8605.95
575.877	8680.52
576.238	8694.53
576.599	8817.24
576.96	8812.04
577.32	8867.18
577.681	9009.78
578.042	9024.92
578.403	9135.88
578.763	9135.88
579.124	9316.66
579.485	9419.03
579.845	9514.62
580.206	9605.69
580.566	9650.66
580.927	9745.58
581.287	9886.14
581.648	9982.18
582.008	10198.67
582.368	10260.82
582.728	10421.04
583.089	10506.24
583.449	10717.08
583.809	10846.11
584.169	11010.63
584.529	11070.97
584.889	11334.24
585.249	11477.96
585.609	11565.64
585.969	11798.4
586.329	12027.32
586.688	12212.86
587.048	12353.64
587.408	12524.04
587.768	12756.57
588.127	13008.99
588.487	13195.66
588.846	13522.2
589.206	13641.29
589.565	13844.23
589.925	14232.01
590.284	14428.39
590.643	14613.7
591.003	14973.69
591.362	15266.56
591.721	15437.4
592.08	15672.65
592.44	16014.79
592.799	16416.59
593.158	16481.22
593.517	16771.61
593.876	17124.37
594.235	17402.1
594.593	17663.11
594.952	17878.92
595.311	18137.67
595.67	18556.64
596.029	18879.35
596.387	19170.41
596.746	19479.56
597.104	19691.98
597.463	20008.36
597.822	20331.29
598.18	20427.56
598.538	20917.49
598.897	21141.44
599.255	21351.37
599.613	21937.57
599.972	21884.69
600.33	22253.5
600.688	22479.93
601.046	22773.03
601.404	23158.78
601.762	23481.71
602.12	23786.56
602.478	24107.46
602.836	24205.54
603.194	24431.97
603.552	24835.35
603.91	24906.99
604.268	25467.2
604.625	25489.34
604.983	25941.76
605.341	26044.36
605.698	26358.7
606.056	26549.43
606.413	26836.88
606.771	27134.27
607.128	27476.18
607.485	27551.66
607.843	27717.76
608.2	28189.39
608.557	28396.84
608.914	28470.73
609.272	28844.74
609.629	29014.45
609.986	29357.94
610.343	29369.02
610.7	29888.55
611.057	29984.59
611.414	30112.73
611.771	30398.14
612.127	30757.68
612.484	30799.94
612.841	31074.51
613.198	31030.89
613.554	31301.39
613.911	31693.25
614.267	31711.78
614.624	31890.08
614.98	32102.28
615.337	32445.32
615.693	32454.13
616.05	32564.41
616.406	32815.7
616.762	32905.65
617.118	33139.31
617.475	33142.25
617.831	33481.45
618.187	33590.83
618.543	33714.21
618.899	34046.63
619.255	34187.19
619.611	34160.08
619.967	34404.14
620.323	34556
620.678	34585.83
621.034	34600.29
621.39	34654.98
621.746	34654.3
622.101	35142.65
622.457	35191.01
622.812	35168.64
623.168	35489.53
623.523	35429.42
623.879	35644.33
624.234	35480.27
624.589	35631.9
624.945	35826.25
625.3	35929.07
625.655	35983.53
626.01	36022.85
626.365	36142.85
626.72	36214.71
627.075	36133.81
627.43	36290.19
627.785	36261.94
628.14	36463.52
628.495	36473.91
628.85	36526.79
629.205	36463.07
629.559	36733.12
629.914	36601.82
630.269	36709.84
630.623	36529.96
630.978	36792.78
631.332	36942.83
631.687	37012.88
632.041	36875.03
632.396	36949.38
632.75	36932.43
633.104	37056.95
633.459	36967.46
633.813	36920.91
634.167	37062.37
634.521	36983.5
634.875	37092.88
635.229	37064.63
635.583	37058.53
635.937	37028.25
636.291	37042.26
636.645	37025.76
636.999	36868.03
637.352	37120.45
637.706	36986.44
638.06	37118.87
638.413	37095.59
638.767	37003.39
639.121	37097.85
639.474	36821.25
639.828	36998.19
640.181	37045.88
640.534	37109.83
640.888	36898.99
641.241	36810.18
641.594	36844.75
641.947	37007.23
642.301	36900.34
642.654	36953.68
643.007	36940.79
643.36	36937.18
643.713	36836.84
644.066	37102.82
644.419	36870.06
644.771	36529.73
645.124	36204.54
645.477	36187.37
645.83	36069.4
646.182	35922.97
646.535	35898.34
646.888	35981.5
647.24	35764.33
647.593	36099.46
647.945	35868.73
648.298	35793.48
648.65	35721.62
649.002	35637.55
649.355	35739.24
649.707	35687.72
650.059	35906.47
650.411	36311.66
650.763	36328.83
651.115	36684.3
651.467	36574.48
651.819	36686.11
652.171	36384.2
652.523	36477.3
652.875	36431.66
653.227	36280.25
653.578	36491.31
653.93	36535.38
654.282	36315.95
654.633	36201.15
654.985	36333.35
655.337	36277.31
655.688	36282.05
656.039	36415.38
656.391	36163.87
656.742	36255.39
657.094	36312.11
657.445	36369.51
657.796	36269.63
658.147	36182.62
658.498	36266.69
658.849	36389.85
659.2	36310.08
659.551	36189.85
659.902	36317.08
660.253	36321.6
660.604	36143.53
660.955	36143.08
661.306	36282.73
661.656	36157.76
662.007	36197.76
662.358	36060.82
662.708	36134.49
663.059	36136.52
663.409	36008.39
663.76	36155.5
664.11	36137.2
664.461	36154.83
664.811	36269.85
665.161	36217.2
665.511	36145.56
665.862	36118.89
666.212	36165.45
666.562	36208.61
666.912	36173.81
667.262	36082.96
667.612	36156.63
667.962	36132.45
668.312	36053.36
668.662	36262.39
669.011	36135.39
669.361	36110.31
669.711	36184.2
670.06	36032.8
670.41	35906.47
670.76	35896.08
671.109	36087.03
671.459	36073.25
671.808	35923.65
672.157	35969.52
672.507	35771.56
672.856	35751.67
673.205	35906.02
673.554	35878.68
673.904	35819.69
674.253	35968.84
674.602	35853.14
674.951	35488.85
675.3	35063.78
675.649	35881.16
675.998	35712.58
676.346	35721.84
676.695	35786.25
677.044	35520.72
677.393	35602.52
677.741	35811.33
678.09	35616.99
678.438	35539.48
678.787	35506.71
679.135	35594.39
679.484	35418.12
679.832	35453.38
680.181	35494.73
680.529	35503.32
680.877	35443.66
681.225	35399.59
681.573	35435.98
681.922	35222.87
682.27	35108.3
682.618	35173.61
682.966	35036.44
683.314	35233.27
683.661	34990.11
684.009	34901.98
684.357	34773.62
684.705	34826.73
685.053	34740.17
685.4	34760.74
685.748	34593.29
686.095	34570.01
686.443	34515.55
686.79	34418.37
687.138	34593.51
687.485	34511.03
687.832	34422.67
688.18	34315.1
688.527	34134.77
688.874	34145.16
689.221	34164.82
689.568	34001.89
689.915	33849.12
690.262	33945.39
690.609	33796.7
690.956	33715.79
691.303	33700.65
691.65	33606.42
691.997	33663.59
692.344	33404.84
692.69	33363.04
693.037	33358.74
693.383	33145.41
693.73	33216.82
694.077	33091.63
694.423	33068.35
694.769	32982.48
695.116	32943.16
695.462	32929.83
695.808	32783.16
696.155	32829.04
696.501	32546.33
696.847	32554.24
697.193	32348.82
697.539	32470.86
697.885	32095.05
698.231	32101.15
698.577	32163.97
698.923	31971.21
699.269	31746.81
699.614	31755.17
699.96	31729.86
700.306	31742.51
700.651	31503.42
700.997	31500.49
701.342	31435.63
701.688	31433.59
702.033	31261.62
702.379	31268.4
702.724	31036.99
703.069	31271.56
703.415	30874.97
703.76	30966.49
704.105	30834.97
704.45	30874.74
704.795	30646.5
705.14	30509.78
705.485	30550.91
705.83	30357.92
706.175	30433.39
706.52	30244.47
706.865	30260.29
707.209	30200.41
707.554	30161.76
707.899	30227.98
708.243	30036.12
708.588	30005.16
708.932	29801.55
709.277	29682.91
709.621	29753.41
709.966	29576.92
710.31	29645.39
710.654	29469.35
710.998	29464.15
711.342	29499.18
711.687	29395.23
712.031	29365.17
712.375	29217.16
712.719	29160.43
713.063	29081.79
713.407	29211.96
713.75	29019.19
714.094	29131.73
714.438	28921.57
714.782	28820.1
715.125	28671.63
715.469	28831.85
715.812	28729.26
716.156	28543.05
716.499	28499.66
716.843	28551.18
717.186	28345.31
717.53	28458.31
717.873	28490.85
718.216	28422.37
718.559	28269.16
718.902	28099.22
719.246	28152.32
719.589	27993.23
719.932	27913.69
720.275	27976.74
720.617	28030.75
720.96	27884.54
721.303	27760.7
721.646	27858.77
721.989	27708.72
722.331	27734.03
722.674	27679.57
723.016	27709.17
723.359	27608.16
723.701	27648.61
724.044	27478.44
724.386	27379.46
724.729	27441.61
725.071	27316.41
725.413	27382.85
725.755	27461.5
726.097	27293.36
726.439	27201.62
726.782	27061.96
727.124	27174.95
727.465	27049.3
727.807	27125.23
728.149	26941.96
728.491	26860.83
728.833	27009.3
729.175	26840.49
729.516	26601.63
729.858	26693.83
730.199	26790.33
730.541	26674.85
730.882	26736.09
731.224	26722.08
731.565	26582.42
731.906	26457.91
732.248	26567.28
732.589	26420.62
732.93	26393.05
733.271	26316.89
733.612	26364.8
733.953	26311.92
734.294	26278.02
734.635	26283
734.976	26246.84
735.317	26124.36
735.658	26236.22
735.999	26194.86
736.339	26067.63
736.68	26094.75
737.021	26018.37
737.361	25880.29
737.702	26076
738.042	25901.99
738.383	25861.99
738.723	25950.8
739.063	25768.88
739.404	25932.95
739.744	25734.99
740.084	25675.1
740.424	25569.57
740.764	25642.11
741.104	25640.53
741.444	25599.4
741.784	25436.46
742.124	25521.89
742.464	25468.1
742.804	25466.29
743.143	25437.14
743.483	25396.69
743.823	25254.55
744.162	25263.81
744.502	25317.37
744.841	25060.65
745.181	25269.91
745.52	24951.73
745.86	25114.44
746.199	25039.19
746.538	25095.46
746.877	25026.53
747.216	25053.88
747.556	24905.63
747.895	24987.66
748.234	24940.88
748.573	24837.38
748.911	24841.23
749.25	24787.44
749.589	24720.78
749.928	24600.55
750.267	24662.7
750.605	24604.17
750.944	24584.96
751.283	24555.81
751.621	24541.8
751.96	24471.74
752.298	24403.72
752.636	24344.74
752.975	24270.84
753.313	24203.95
753.651	24190.17
753.989	24173.22
754.327	24154.46
754.666	23967.8
755.004	24046.22
755.342	24093.22
755.679	23919.67
756.017	23782.27
756.355	23886.22
756.693	23822.72
757.031	23794.02
757.368	23703.85
757.706	23608.26
758.044	23503.41
758.381	23555.61
758.719	23492.33
759.056	23515.61
759.394	23422.28
759.731	23193.13
760.068	23203.75
760.405	23140.71
760.743	23088.96
761.08	23134.15
761.417	23017.09
761.754	22923.76
762.091	22885.57
762.428	22829.07
762.765	22700.04
763.102	22753.37
763.438	22665.92
763.775	22543.88
764.112	22498.01
764.449	22520.83
764.785	22419.37
765.122	22290.56
765.458	22198.58
765.795	22130.79
766.131	22128.3
766.467	22067.96
766.804	21985.26
767.14	21974.41
767.476	21888.99
767.812	21753.85
768.148	21720.18
768.485	21686.05
768.821	21656
769.157	21537.13
769.492	21520.63
769.828	21380.98
770.164	21254.43
770.5	21166.52
770.836	21178.95
771.171	20979.41
771.507	21020.31
771.842	20833.2
772.178	20799.07
772.513	20815.57
772.849	20679.98
773.184	20638.62
773.519	20731.95
773.855	20518.18
774.19	20413.32
774.525	20333.1
774.86	20329.71
775.195	20236.6
775.53	20331.74
775.865	20122.25
776.2	19995.03
776.535	19872.32
776.87	19900.34
777.205	19763.62
777.539	19679.55
777.874	19712.09
778.209	19550.07
778.543	19444.08
778.878	19304.87
779.212	19440.69
779.547	19162.73
779.881	19207.48
780.215	19196.63
780.55	19160.02
780.884	19048.84
781.218	19026.24
781.552	19058.1
781.886	18882.74
782.22	18656.08
782.554	18732.46
782.888	18540.83
783.222	18564.78
783.556	18411.79
783.889	18306.93
784.223	18219.03
784.557	18151.23
784.89	18241.85
785.224	18099.48
785.557	18068.3
785.891	18048.18
786.224	17904.01
786.558	17931.12
786.891	17721.64
787.224	17745.14
787.557	17625.14
787.891	17651.36
788.224	17571.36
788.557	17534.75
788.89	17554.86
789.223	17423.34
789.556	17322.78
789.888	17332.95
790.221	17169.79
790.554	16972.96
790.887	17145.38
791.219	17062.22
791.552	17068.32
791.884	16880.53
792.217	16963.47
792.549	16835.33
792.882	16688.45
793.214	16622.46
793.546	16689.35
793.879	16565.51
794.211	16365.29
794.543	16492.29
794.875	16459.98
795.207	16465.63
795.539	16374.78
795.871	16366.87
796.203	16191.74
796.535	16062.47
796.867	16140.44
797.198	16092.53
797.53	16055.47
797.862	15885.53
798.193	15974.11
798.525	15824.97
798.856	15844.85
799.188	15689.38
799.519	15639.43
799.85	15641.69
800.182	15596.72
800.513	15542.71
800.844	15502.26
801.175	15594.01
801.506	15457.07
801.837	15406.9
802.168	15351.08
802.499	15258.65
802.83	15261.82
803.161	15130.75
803.491	15072.44
803.822	15116.28
804.153	15019.56
804.483	14920.36
804.814	14855.73
805.145	14894.82
805.475	14835.61
805.805	14831.55
806.136	14845.56
806.466	14769.17
806.796	14747.71
807.126	14617.09
807.457	14597.43
807.787	14563.08
808.117	14533.93
808.447	14492.57
808.777	14469.75
809.107	14375.96
809.436	14373.93
809.766	14353.82
810.096	14356.98
810.426	14208.96
810.755	14260.26
811.085	14165.35
811.414	14135.97
811.744	14115.86
812.073	14082.86
812.403	14085.35
812.732	13996.99
813.061	13921.51
813.39	13834.96
813.719	13901.85
814.049	13912.47
814.378	13787.73
814.707	13765.36
815.036	13704.57
815.365	13716.55
815.693	13573.73
816.022	13626.38
816.351	13542.31
816.68	13450.56
817.008	13484.01
817.337	13458.02
817.665	13391.13
817.994	13340.51
818.322	13369.44
818.651	13288.76
818.979	13278.37
819.307	13252.15
819.636	13180.52
819.964	13169.67
820.292	13136.22
820.62	13134.87
820.948	13151.36
821.276	13158.37
821.604	13074.98
821.932	13095.09
822.259	13102.32
822.587	13065.94
822.915	13042.67
823.243	13122.21
823.57	13057.81
823.898	13060.07
824.225	13024.13
824.553	13020.75
824.88	13153.62
825.207	13099.39
825.535	13081.53
825.862	13073.63
826.189	13027.07
826.516	13137.8
826.843	13065.49
827.17	13085.38
827.497	13139.61
827.824	13099.16
828.151	13136.45
828.478	13094.19
828.805	13157.24
829.131	13046.06
829.458	13062.1
829.785	12893.52
830.111	13067.07
830.438	13063.46
830.764	13003.8
831.09	13077.69
831.417	12928.32
831.743	13049.9
832.069	13051.25
832.395	12950.69
832.722	12932.16
833.048	12942.78
833.374	12919.28
833.7	12896.91
834.026	12882.67
834.351	12943.69
834.677	12864.59
835.003	12950.24
835.329	12841.09
835.654	12884.7
835.98	12825.5
836.306	12796.8
836.631	12762.9
836.956	12807.42
837.282	12736.46
837.607	12737.59
837.932	12656.24
838.258	12671.83
838.583	12696.46
838.908	12628.67
839.233	12605.39
839.558	12636.12
839.883	12505.05
840.208	12582.11
840.533	12468.9
840.858	12573.98
841.182	12607.87
841.507	12458.73
841.832	12336.47
842.156	12435.45
842.481	12451.49
842.805	12344.6
843.13	12244.95
843.454	12255.34
843.778	12240.65
844.103	12248.56
844.427	12248.79
844.751	12213.76
845.075	12191.84
845.399	12072.75
845.723	12063.26
846.047	12120.2
846.371	12029.36
846.695	11941.9
847.019	11916.14
847.343	11861.45
847.666	11817.39
847.99	11696.49
848.313	11719.31
848.637	11585.75
848.96	11643.15
849.284	11631.86
849.607	11528.13
849.931	11502.82
850.254	11478.19
850.577	11329.26
850.9	11288.59
851.223	11312.99
851.546	11220.11
851.869	11116.61
852.192	11187.57
852.515	11096.28
852.838	11075.26
853.161	11070.51
853.483	10985.32
853.806	10941.7
854.129	11000.46
854.451	10855.83
854.774	10796.17
855.096	10763.4
855.419	10751.43
855.741	10747.81
856.063	10617.87
856.385	10607.7
856.708	10632.56
857.03	10599.11
857.352	10582.62
857.674	10601.15
857.996	10429.4
858.318	10444.54
858.64	10479.34
858.961	10365.45
859.283	10346.92
859.605	10354.37
859.926	10287.26
860.248	10331.78
860.57	10294.94
860.891	10237.99
861.212	10228.28
861.534	10280.93
861.855	10180.37
862.176	10167.94
862.498	10146.47
862.819	10201.16
863.14	10151.89
863.461	10061.5
863.782	10068.73
864.103	9997.55
864.424	9961.39
864.745	9982.63
865.065	10005.68
865.386	9892.24
865.707	9877.78
866.027	9930.66
866.348	9852.24
866.668	9910.77
866.989	9838.23
867.309	9824.45
867.63	9804.11
867.95	9848.63
868.27	9792.13
868.59	9763.2
868.91	9780.6
869.23	9678.01
869.55	9707.39
869.87	9678.69
870.19	9740.38
870.51	9758.68
870.83	9703.09
871.15	9737.67
871.469	9618.8
871.789	9588.97
872.109	9603.21
872.428	9591
872.748	9576.09
873.067	9581.06
873.386	9615.64
873.706	9586.49
874.025	9559.14
874.344	9511.23
874.663	9438.69
874.982	9438.69
875.301	9452.48
875.62	9448.86
875.939	9439.37
876.258	9446.15
876.577	9320.5
876.896	9337.68
877.214	9349.2
877.533	9346.72
877.852	9306.27
878.17	9329.77
878.489	9312.37
878.807	9296.55
879.125	9275.31
879.444	9257.68
879.762	9251.35
880.08	9224.46
880.398	9200.28
880.716	9229.43
881.034	9165.48
881.352	9199.15
881.67	9201.86
881.988	9174.97
882.306	9137.68
882.624	9083.22
882.941	9024.01
883.259	8973.17
883.577	9003.45
883.894	8989.89
884.212	9033.96
884.529	8940.17
884.846	8940.4
885.164	8934.3
885.481	8916.22
885.798	8856.79
886.115	8823.79
886.432	8903.57
886.75	8815.43
887.067	8820.63
887.383	8722.78
887.7	8777.69
888.017	8642.56
888.334	8737.92
888.651	8633.74
888.967	8671.71
889.284	8564.59
889.6	8546.74
889.917	8533.41
890.233	8515.78
890.55	8539.96
890.866	8539.06
891.182	8410.24
891.498	8491.82
891.815	8442.33
892.131	8364.14
892.447	8396.01
892.763	8377.03
893.079	8302.68
893.395	8219.74
893.71	8281.43
894.026	8243.24
894.342	8305.61
894.657	8169.35
894.973	8095
895.289	8187.43
895.604	8129.12
895.92	8099.74
896.235	7991.27
896.55	8054.55
896.865	8030.37
897.181	8050.25
897.496	7940.88
897.811	7926.19
898.126	7945.17
898.441	7875.12
898.756	7873.54
899.071	7762.8
899.386	7799.41
899.7	7773.88
900.015	7739.75
900.33	7713.54
900.644	7657.72
900.959	7681.68
901.273	7647.55
901.588	7565.75
901.902	7582.47
902.216	7608.91
902.531	7601.9
902.845	7530.27
903.159	7431.06
903.473	7426.99
903.787	7436.71
904.101	7357.62
904.415	7368.46
904.729	7386.54
905.042	7299.31
905.356	7337.28
905.67	7202.59
905.984	7230.16
906.297	7217.96
906.611	7168.7
906.924	7168.92
907.237	7164.85
907.551	7137.74
907.864	7037.17
908.177	7037.85
908.491	7039.89
908.804	7015.93
909.117	6968.02
909.43	6909.04
909.743	6917.4
910.056	6906.56
910.368	6811.42
910.681	6849.38
910.994	6764.19
911.307	6746.56
911.619	6746.79
911.932	6715.15
912.244	6660.46
912.557	6630.63
912.869	6650.97
913.181	6619.33
913.494	6593.12
913.806	6536.4
914.118	6540.92
914.43	6465.44
914.742	6486.68
915.054	6412.33
915.366	6412.56
915.678	6394.25
915.99	6380.92
916.302	6297.76
916.613	6334.14
916.925	6317.42
917.236	6293.01
917.548	6211.43
917.859	6249.17
918.171	6180.7
918.482	6170.08
918.794	6114.71
919.105	6146.8
919.416	6074.26
919.727	6078.78
920.038	6051.21
920.349	5977.09
920.66	5948.84
920.971	6033.36
921.282	5947.03
921.593	5908.84
921.903	5864.32
922.214	5851.89
922.525	5838.11
922.835	5825
923.146	5767.83
923.456	5789.97
923.767	5768.51
924.077	5749.98
924.387	5695.74
924.697	5667.49
925.008	5682.18
925.318	5700.26
925.628	5599.02
925.938	5564.44
926.248	5516.08
926.558	5527.16
926.867	5481.06
927.177	5509.3
927.487	5481.96
927.796	5448.51
928.106	5469.31
928.416	5367.61
928.725	5369.65
929.034	5330.1
929.344	5373.04
929.653	5331.23
929.962	5272.93
930.271	5222.98
930.581	5217.79
930.89	5230.67
931.199	5195.87
931.508	5199.93
931.817	5123.78
932.125	5105.25
932.434	5133.49
932.743	5110.9
933.051	5052.14
933.36	5046.94
933.669	5027.28
933.977	5003.55
934.286	4955.19
934.594	4960.62
934.902	4931.01
935.21	4890.56
935.519	4912.03
935.827	4885.59
936.135	4859.38
936.443	4785.26
936.751	4806.72
937.059	4792.94
937.367	4717.91
937.674	4766.5
937.982	4727.86
938.29	4773.28
938.597	4679.27
938.905	4649.89
939.213	4642.89
939.52	4625.94
939.827	4623.23
940.135	4615.54
940.442	4549.78
940.749	4548.2
941.056	4521.76
941.363	4538.26
941.67	4479.5
941.977	4466.62
942.284	4484.02
942.591	4486.73
942.898	4402.44
943.205	4356.57
943.511	4331.71
943.818	4334.65
944.125	4311.6
944.431	4267.76
944.738	4293.52
945.044	4327.19
945.35	4258.26
945.657	4279.73
945.963	4219.17
946.269	4214.88
946.575	4254.2
946.881	4188.44
947.187	4198.83
947.493	4152.05
947.799	4089.45
948.105	4066.86
948.41	4103.69
948.716	4068.89
949.022	4044.48
949.327	4050.36
949.633	3998.38
949.938	4029.57
950.244	3971.72
950.549	3905.28
950.854	3908.67
951.16	3966.97
951.465	3907.54
951.77	3897.37
952.075	3863.25
952.38	3863.02
952.685	3872.29
952.99	3842.46
953.294	3822.34
953.599	3790.48
953.904	3807.88
954.209	3777.37
954.513	3719.52
954.818	3705.96
955.122	3762.01
955.426	3685.4
955.731	3664.16
956.035	3659.41
956.339	3708.22
956.643	3687.43
956.948	3639.07
957.252	3559.98
957.556	3584.61
957.86	3581.45
958.163	3553.65
958.467	3551.39
958.771	3560.2
959.075	3537.15
959.378	3499.64
959.682	3489.47
959.985	3469.58
960.289	3476.82
960.592	3460.77
960.896	3413.77
961.199	3435.69
961.502	3409.25
961.805	3419.42
962.108	3346.42
962.411	3379.42
962.714	3369.25
963.017	3333.32
963.32	3346.88
963.623	3319.53
963.926	3307.33
964.228	3309.81
964.531	3286.31
964.833	3247.67
965.136	3241.12
965.438	3239.08
965.741	3184.62
966.043	3208.57
966.345	3195.47
966.648	3174.22
966.95	3150.72
967.252	3103.27
967.554	3110.05
967.856	3111.18
968.158	3084.51
968.46	3096.49
968.761	3067.56
969.063	3041.57
969.365	3065.53
969.666	3014
969.968	3011.29
970.269	3008.58
970.571	2983.49
970.872	2962.93
971.174	2960.44
971.475	2949.37
971.776	2902.37
972.077	2924.29
972.378	2923.38
972.679	2887
972.98	2878.64
973.281	2894.23
973.582	2888.81
973.883	2827.34
974.183	2822.82
974.484	2819.88
974.785	2818.08
975.085	2825.53
975.386	2788.25
975.686	2772.2
975.986	2761.58
976.287	2753.9
976.587	2726.1
976.887	2724.74
977.187	2742.6
977.487	2724.74
977.787	2682.94
978.087	2668.93
978.387	2651.98
978.687	2674.12
978.987	2666.67
979.286	2630.74
979.586	2607.23
979.885	2629.61
980.185	2581.02
980.484	2556.39
980.784	2615.37
981.083	2507.12
981.382	2529.72
981.682	2529.95
981.981	2562.49
982.28	2530.17
982.579	2498.99
982.878	2507.35
983.177	2488.37
983.475	2491.76
983.774	2476.62
984.073	2454.02
984.372	2466.45
984.67	2456.73
984.969	2438.2
985.267	2432.55
985.566	2401.14
985.864	2372.66
986.162	2414.7
986.461	2363.62
986.759	2354.13
987.057	2308.71
987.355	2366.56
987.653	2324.98
987.951	2324.76
988.249	2332.89
988.547	2273.91
988.844	2286.34
989.142	2294.25
989.44	2279.11
989.737	2298.32
990.035	2243.4
990.332	2242.05
990.63	2230.75
990.927	2184.19
991.224	2217.64
991.521	2180.58
991.819	2195.95
992.116	2196.4
992.413	2168.38
992.71	2174.02
993.006	2163.4
993.303	2169.73
993.6	2128.83
993.897	2110.3
994.193	2115.72
994.49	2104.87
994.787	2089.06
995.083	2079.79
995.379	2078.43
995.676	2065.1
995.972	2078.66
996.268	2056.06
996.565	2030.3
996.861	2049.51
997.157	2007.7
997.453	2021.94
997.749	2005.22
998.044	1988.49
998.34	1970.87
998.636	1921.15
998.932	1984.88
999.227	1917.31
999.523	1922.05
999.818	1954.14
1000.114	1919.34
1000.409	1899.68
1000.704	1906.01
1001	1872.79
1001.295	1890.42
1001.59	1874.37
1001.885	1868.95
1002.18	1850.19
1002.475	1833.69
1002.77	1843.19
1003.065	1826.24
1003.359	1821.49
1003.654	1812.23
1003.949	1789.85
1004.243	1788.27
1004.538	1777.65
1004.832	1775.17
1005.127	1740.36
1005.421	1754.83
1005.715	1748.27
1006.009	1748.05
1006.304	1711.44
1006.598	1699.91
1006.892	1705.34
1007.186	1670.08
1007.48	1669.86
1007.773	1672.34
1008.067	1668.05
1008.361	1654.26
1008.655	1637.77
1008.948	1646.36
1009.242	1616.98
1009.535	1621.95
1009.829	1601.61
1010.122	1581.5
1010.415	1596.86
1010.708	1569.29
1011.001	1567.94
1011.295	1559.8
1011.588	1559.13
1011.881	1530.43
1012.173	1537.21
1012.466	1508.96
1012.759	1528.84
1013.052	1494.95
1013.344	1483.42
1013.637	1498.34
1013.93	1494.27
1014.222	1457.43
1014.514	1458.56
1014.807	1478.9
1015.099	1458.11
1015.391	1444.78
1015.683	1423.31
1015.976	1412.69
1016.268	1425.8
1016.56	1420.15
1016.851	1413.82
1017.143	1406.59
1017.435	1360.26
1017.727	1384.67
1018.018	1359.58
1018.31	1375.63
1018.602	1372.92
1018.893	1310.09
1019.185	1352.8
1019.476	1328.4
1019.767	1317.1
1020.058	1315.29
1020.35	1322.97
1020.641	1319.81
1020.932	1298.79
1021.223	1279.81
1021.514	1271.9
1021.804	1276.42
1022.095	1294.73
1022.386	1225.35
1022.677	1260.83
1022.967	1215.18
1023.258	1231.22
1023.548	1222.19
1023.839	1232.58
1024.129	1194.62
1024.419	1214.28
1024.709	1183.54
1025	1173.6
1025.29	1180.15
1025.58	1182.41
1025.87	1155.75
1026.16	1179.25
1026.449	1136.54
1026.739	1138.35
1027.029	1123.88
1027.319	1123.66
1027.608	1123.2
1027.898	1083.66
1028.187	1081.17
1028.477	1100.83
1028.766	1076.88
1029.055	1059.03
1029.344	1073.71
1029.634	1075.97
1029.923	1096.99
1030.212	1062.19
1030.501	1042.53
1030.79	1029.2
1031.078	1046.82
1031.367	1004.79
1031.656	1032.81
1031.945	1020.61
1032.233	1020.61
1032.522	995.98
1032.81	991.68
1033.099	980.84
1033.387	1000.27
1033.675	972.25
1033.963	957.33
1034.251	952.59
1034.54	961.18
1034.828	953.27
1035.116	961.18
1035.403	950.78
1035.691	952.59
1035.979	935.41
1036.267	927.73
1036.554	931.57
1036.842	923.66
1037.129	908.3
1037.417	901.06
1037.704	904
1037.992	873.49
1038.279	889.31
1038.566	877.56
1038.853	877.56
1039.14	877.56
