Data from hue_310_FLMS001491_6.txt Node
Date: Mon Feb 06 15:48:23 GMT 2017
User: dcchb
Spectrometer: FLMS00149
Trigger mode: 0
Integration Time (sec): 2.000000E-2
Scans to average: 10
Electric dark correction enabled: true
Nonlinearity correction enabled: false
Boxcar width: 0
XAxis mode: Wavelengths
Number of Pixels in Spectrum: 2048
>>>>>Begin Spectral Data<<<<<
341.393	-8.22
341.776	-8.22
342.16	-8.22
342.543	-63.36
342.927	-63.81
343.31	-52.29
343.693	-70.14
344.077	-60.42
344.46	-71.04
344.843	-65.85
345.226	-25.39
345.61	-19.97
345.993	-37.82
346.376	-0.31
346.759	14.38
347.142	36.75
347.525	44.66
347.908	59.57
348.291	51.21
348.674	89.63
349.057	107.03
349.44	125.34
349.823	138.44
350.206	166.46
350.588	206.92
350.971	200.59
351.354	232
351.737	237.2
352.119	231.32
352.502	255.05
352.884	256.86
353.267	278.55
353.65	294.82
354.032	305.9
354.414	293.24
354.797	312.9
355.179	316.74
355.562	315.84
355.944	312
356.326	323.52
356.709	335.27
357.091	328.27
357.473	366.91
357.855	333.47
358.238	341.6
358.62	325.56
359.002	316.52
359.384	336.4
359.766	315.84
360.148	328.49
360.53	316.74
360.912	342.05
361.294	344.54
361.676	333.24
362.057	304.99
362.439	327.36
362.821	335.95
363.203	330.3
363.584	337.08
363.966	326.23
364.348	324.88
364.729	319.45
365.111	348.83
365.493	303.18
365.874	314.48
366.256	322.17
366.637	333.69
367.019	326.91
367.4	306.12
367.781	342.28
368.163	322.84
368.544	298.89
368.925	323.75
369.306	331.66
369.688	301.15
370.069	325.56
370.45	308.61
370.831	309.96
371.212	317.2
371.593	295.95
371.974	316.07
372.355	325.1
372.736	310.87
373.117	318.55
373.498	307.25
373.879	323.97
374.26	330.75
374.641	319
375.021	310.64
375.402	319.23
375.783	316.52
376.163	313.13
376.544	336.63
376.925	337.53
377.305	332.11
377.686	324.2
378.066	328.04
378.447	323.97
378.827	323.97
379.208	335.5
379.588	358.1
379.968	334.82
380.349	327.36
380.729	354.03
381.109	337.08
381.489	344.54
381.87	339.12
382.25	344.76
382.63	341.6
383.01	339.34
383.39	346.35
383.77	346.35
384.15	322.84
384.53	352.22
384.91	349.06
385.29	370.3
385.67	335.73
386.049	357.19
386.429	346.57
386.809	348.38
387.189	361.26
387.568	359.45
387.948	379.79
388.328	356.97
388.707	371.43
389.087	366.46
389.466	348.38
389.846	363.3
390.225	381.37
390.605	366.01
390.984	359.91
391.363	347.7
391.743	374.82
392.122	392.45
392.501	376.63
392.881	366.01
393.26	379.11
393.639	365.1
394.018	379.34
394.397	367.36
394.776	387.93
395.155	359.23
395.534	374.59
395.913	366.69
396.292	393.8
396.671	391.54
397.05	429.06
397.429	420.02
397.808	396.29
398.186	398.55
398.565	389.51
398.944	388.15
399.323	403.29
399.701	402.84
400.08	392
400.458	396.29
400.837	404.42
401.215	409.17
401.594	416.85
401.972	390.19
402.351	413.24
402.729	403.07
403.107	428.15
403.486	410.98
403.864	428.38
404.242	440.58
404.62	437.19
404.999	444.88
405.377	447.81
405.755	458.21
406.133	464.76
406.511	466.12
406.889	448.94
407.267	452.33
407.645	453.46
408.023	485.55
408.401	481.48
408.779	473.35
409.156	494.14
409.534	505.66
409.912	487.36
410.29	509.05
410.667	505.66
411.045	517.64
411.422	508.38
411.8	502.5
412.178	526.46
412.555	521.71
412.933	541.37
413.31	544.31
413.687	572.56
414.065	575.49
414.442	563.52
414.819	580.92
415.197	585.44
415.574	586.34
415.951	591.99
416.328	613.23
416.705	629.73
417.082	616.85
417.46	610.07
417.837	626.57
418.214	654.81
418.591	667.47
418.967	668.82
419.344	678.32
419.721	670.41
420.098	689.16
420.475	700.24
420.852	706.11
421.228	698.65
421.605	726
421.982	738.2
422.358	729.16
422.735	728.71
423.111	748.14
423.488	750.18
423.864	773.45
424.241	757.64
424.617	790.18
424.994	770.06
425.37	794.92
425.746	798.09
426.123	801.7
426.499	797.18
426.875	834.24
427.251	855.26
427.627	838.31
428.003	860.23
428.379	860.01
428.756	862.94
429.132	886.22
429.507	876.73
429.883	911.53
430.259	897.52
430.635	918.54
431.011	954.92
431.387	949.95
431.763	948.82
432.138	982.94
432.514	968.48
432.89	990.4
433.265	1009.38
433.641	1002.6
434.016	1002.6
434.392	1023.62
434.767	1047.12
435.143	1059.77
435.518	1092.09
435.894	1081.02
436.269	1078.98
436.644	1091.64
437.02	1116.04
437.395	1081.24
437.77	1131.18
438.145	1161.24
438.52	1151.07
438.895	1168.92
439.271	1167.79
439.646	1208.02
440.021	1181.35
440.395	1189.49
440.77	1160.56
441.145	1214.35
441.52	1210.5
441.895	1242.59
442.27	1242.82
442.645	1231.3
443.019	1257.96
443.394	1232.65
443.769	1279.2
444.143	1251.41
444.518	1242.14
444.892	1240.56
445.267	1290.5
445.641	1270.39
446.016	1288.69
446.39	1285.31
446.764	1289.6
447.139	1290.95
447.513	1272.42
447.887	1295.7
448.262	1316.72
448.636	1306.55
449.01	1330.05
449.384	1347.68
449.758	1342.48
450.132	1355.13
450.506	1332.76
450.88	1354.46
451.254	1341.8
451.628	1404.4
452.002	1349.94
452.376	1387.68
452.75	1394.23
453.123	1403.04
453.497	1420.22
453.871	1389.03
454.244	1441.91
454.618	1436.49
454.992	1467.67
455.365	1437.62
455.739	1481.68
456.112	1499.76
456.486	1466.54
456.859	1495.24
457.232	1516.71
457.606	1503.83
457.979	1534.11
458.352	1544.51
458.725	1551.51
459.099	1564.39
459.472	1594.68
459.845	1586.99
460.218	1622.47
460.591	1582.02
460.964	1631.28
461.337	1657.5
461.71	1654.56
462.083	1664.73
462.456	1659.53
462.829	1686.65
463.201	1682.58
463.574	1685.07
463.947	1709.25
464.32	1727.33
464.692	1712.86
465.065	1767.55
465.438	1749.7
465.81	1755.12
466.183	1823.14
466.555	1812.97
466.928	1820.66
467.3	1811.85
467.672	1837.16
468.045	1869.02
468.417	1854.1
468.789	1879.19
469.161	1905.4
469.534	1909.24
469.906	1935.01
470.278	1974.55
470.65	1963.93
471.022	2009.81
471.394	2018.17
471.766	2015.91
472.138	2056.36
472.51	2096.13
472.882	2107.66
473.253	2102.01
473.625	2121.22
473.997	2174.55
474.369	2196.02
474.74	2159.41
475.112	2197.37
475.484	2248.44
475.855	2231.04
476.227	2259.29
476.598	2330.48
476.97	2338.84
477.341	2344.94
477.713	2412.96
478.084	2390.13
478.455	2410.25
478.827	2463.58
479.198	2530.24
479.569	2505.84
479.94	2570.7
480.311	2574.31
480.682	2619.28
481.053	2627.19
481.424	2681.43
481.795	2659.96
482.166	2676.91
482.537	2745.61
482.908	2761.2
483.279	2806.85
483.65	2795.32
484.021	2867.86
484.391	2932.27
484.762	2901.31
485.133	2912.16
485.503	2937.92
485.874	2982.66
486.244	2964.58
486.615	3020.63
486.985	3075.09
487.356	3132.04
487.726	3098.82
488.097	3188.53
488.467	3181.07
488.837	3215.65
489.207	3233.73
489.578	3270.34
489.948	3351.24
490.318	3329.55
490.688	3332.26
491.058	3391.01
491.428	3440.5
491.798	3418.13
492.168	3502.65
492.538	3507.39
492.908	3516.88
493.278	3544.23
493.648	3622.19
494.017	3561.86
494.387	3654.06
494.757	3659.93
495.126	3641.63
495.496	3698.58
495.866	3670.33
496.235	3716.88
496.605	3721.63
496.974	3715.3
497.344	3767.5
497.713	3794.39
498.082	3791
498.452	3838.91
498.821	3837.55
499.19	3823.09
499.559	3839.14
499.928	3904.45
500.298	3922.07
500.667	3952.35
501.036	3934.95
501.405	3928.4
501.774	3977.66
502.143	3986.03
502.512	3988.96
502.88	4022.63
503.249	3981.51
503.618	4043.88
503.987	4040.94
504.356	4079.58
504.724	4070.32
505.093	4066.02
505.462	4111.45
505.83	4102.41
506.199	4162.29
506.567	4163.87
506.936	4228.28
507.304	4209.52
507.672	4225.11
508.041	4283.19
508.409	4241.61
508.777	4262.18
509.145	4281.61
509.514	4278.22
509.882	4314.83
510.25	4317.54
510.618	4315.73
510.986	4311.89
511.354	4342.4
511.722	4384.21
512.09	4417.2
512.458	4322.06
512.826	4378.78
513.193	4414.94
513.561	4417.2
513.929	4477.09
514.297	4488.84
514.664	4485.22
515.032	4474.15
515.4	4501.72
515.767	4508.95
516.135	4555.05
516.502	4505.11
516.869	4569.29
517.237	4559.57
517.604	4545.33
517.972	4576.29
518.339	4633.69
518.706	4584.2
519.073	4631.88
519.44	4624.43
519.808	4695.61
520.175	4669.17
520.542	4714.37
520.909	4728.83
521.276	4716.18
521.643	4746.68
522.009	4750.75
522.376	4777.42
522.743	4758.43
523.11	4830.75
523.477	4833.91
523.843	4875.49
524.21	4895.61
524.577	4935.6
524.943	4950.07
525.31	4945.32
525.676	5006.79
526.043	5024.19
526.409	5059.22
526.776	5088.6
527.142	5070.97
527.508	5096.05
527.874	5122.27
528.241	5143.96
528.607	5140.12
528.973	5235.71
529.339	5185.77
529.705	5230.29
530.071	5280
530.437	5251.08
530.803	5330.4
531.169	5371.07
531.535	5334.92
531.901	5331.75
532.267	5358.19
532.632	5393.67
532.998	5413.56
533.364	5487.68
533.73	5474.8
534.095	5498.98
534.461	5568.13
534.826	5582.14
535.192	5574.23
535.557	5625.76
535.923	5606.77
536.288	5659.2
536.653	5675.92
537.019	5695.13
537.384	5680.9
537.749	5760.44
538.114	5722.25
538.479	5748.69
538.845	5716.6
539.21	5777.16
539.575	5801.12
539.94	5819.42
540.305	5821.01
540.67	5873.66
541.034	5903.49
541.399	5929.02
541.764	5935.8
542.129	5975.35
542.494	5988.91
542.858	5999.98
543.223	6070.94
543.587	6080.43
543.952	6110.26
544.316	6143.48
544.681	6152.07
545.045	6182.58
545.41	6158.4
545.774	6205.85
546.138	6220.32
546.503	6240.66
546.867	6281.33
547.231	6311.84
547.595	6305.74
547.959	6318.62
548.324	6366.3
548.688	6399.52
549.052	6388.45
549.416	6446.3
549.779	6460.54
550.143	6472.97
550.507	6549.57
550.871	6532.17
551.235	6510.25
551.599	6535.11
551.962	6627.09
552.326	6598.39
552.689	6638.16
553.053	6615.79
553.417	6642
553.78	6709.34
554.143	6709.57
554.507	6727.42
554.87	6750.47
555.234	6820.3
555.597	6738.72
555.96	6791.83
556.323	6802.22
556.686	6819.4
557.05	6846.51
557.413	6891.49
557.776	6894.65
558.139	6967.87
558.502	6918.38
558.865	7006.96
559.228	6986.17
559.59	6997.25
559.953	7041.54
560.316	7050.13
560.679	7103.46
561.041	7102.1
561.404	7150.24
561.767	7188.2
562.129	7199.05
562.492	7178.48
562.854	7220.52
563.217	7264.81
563.579	7225.94
563.941	7307.97
564.304	7303.23
564.666	7356.33
565.028	7341.64
565.39	7340.97
565.753	7399.72
566.115	7427.74
566.477	7482.88
566.839	7439.49
567.201	7532.6
567.563	7522.66
567.925	7564.24
568.287	7519.94
568.648	7577.57
569.01	7661.63
569.372	7750.45
569.734	7678.58
570.095	7715.64
570.457	7787.51
570.819	7721.07
571.18	7869.76
571.542	7869.99
571.903	7910.89
572.265	7953.15
572.626	7942.08
572.987	8034.28
573.349	8033.83
573.71	8130.32
574.071	8226.82
574.432	8289.87
574.794	8373.03
575.155	8298.91
575.516	8404.67
575.877	8404.67
576.238	8487.38
576.599	8596.53
576.96	8590.65
577.32	8671.33
577.681	8773.7
578.042	8883.07
578.403	8959.23
578.763	9000.81
579.124	9136.85
579.485	9176.4
579.845	9343.4
580.206	9420.01
580.566	9541.59
580.927	9668.81
581.287	9785.65
581.648	9843.5
582.008	10138.41
582.368	10184.28
582.728	10366.2
583.089	10490.71
583.449	10633.31
583.809	10900.42
584.169	11033.75
584.529	11193.52
584.889	11430.35
585.249	11636.67
585.609	11698.14
585.969	11983.78
586.329	12139.26
586.688	12413.83
587.048	12735.17
587.408	12901.04
587.768	13075.28
588.127	13347.13
588.487	13557.07
588.846	13902.37
589.206	14127.91
589.565	14409.93
589.925	14706.42
590.284	14863.71
590.643	15250.36
591.003	15460.07
591.362	15809.9
591.721	16109.32
592.08	16379.37
592.44	16694.39
592.799	16983.2
593.158	17303.87
593.517	17624.99
593.876	17916.96
594.235	18152.66
594.593	18448.47
594.952	18823.15
595.311	19041
595.67	19375.9
596.029	19843.91
596.387	20141.53
596.746	20575.65
597.104	20715.53
597.463	21172.69
597.822	21429.86
598.18	21655.39
598.538	21889.28
598.897	22409.95
599.255	22510.28
599.613	23133.09
599.972	23305.97
600.33	23562.69
600.688	23756.8
601.046	24239.96
601.404	24528.54
601.762	24766.72
602.12	25107.96
602.478	25486.7
602.836	25765.57
603.194	25821.84
603.552	26243.29
603.91	26463.63
604.268	26773.9
604.625	27067.45
604.983	27379.76
605.341	27468.8
605.698	27931.84
606.056	28228.1
606.413	28419.73
606.771	28771.36
607.128	28960.28
607.485	29165.7
607.843	29377.45
608.2	29805.46
608.557	30013.14
608.914	30202.28
609.272	30630.52
609.629	30879.33
609.986	31095.37
610.343	31165.65
610.7	31621.68
611.057	31666.2
611.414	31946.19
611.771	32154.78
612.127	32422.79
612.484	32601.32
612.841	32796.34
613.198	32986.39
613.554	33052.38
613.911	33371.24
614.267	33547.96
614.624	33676.54
614.98	33995.41
615.337	34239.24
615.693	34444.21
616.05	34519.69
616.406	34799
616.762	34745.67
617.118	35055.49
617.475	35118.31
617.831	35459.77
618.187	35435.37
618.543	35653.44
618.899	35928.01
619.255	36042.36
619.611	36218.85
619.967	36265.18
620.323	36604.38
620.678	36528.45
621.034	36596.47
621.39	36688.22
621.746	36629.91
622.101	37318.93
622.457	37152.84
622.812	37305.6
623.168	37532.26
623.523	37424.69
623.879	37690.68
624.234	37672.37
624.589	37856.1
624.945	37960.73
625.3	38002.31
625.655	38171.57
626.01	38218.8
626.365	38308.96
626.72	38217.22
627.075	38424.22
627.43	38411.11
627.785	38429.64
628.14	38518
628.495	38662.85
628.85	38680.03
629.205	38570.43
629.559	38878.22
629.914	38756.64
630.269	38772.23
630.623	38812.91
630.978	38789.4
631.332	39062.62
631.687	39191.2
632.041	38962.05
632.396	39143.97
632.75	39026.46
633.104	39146
633.459	38976.97
633.813	39068.27
634.167	38982.62
634.521	39019.45
634.875	39071.2
635.229	39164.54
635.583	38908.27
635.937	39016.06
636.291	38974.26
636.645	39081.83
636.999	39049.28
637.352	39153.46
637.706	38963.64
638.06	39214.48
638.413	39102.39
638.767	39101.49
639.121	39132.22
639.474	38962.96
639.828	38996.86
640.181	39107.14
640.534	39144.42
640.888	39019.45
641.241	39047.7
641.594	39012.45
641.947	39152.56
642.301	39033.47
642.654	39081.6
643.007	39184.65
643.36	39077.76
643.713	38894.71
644.066	39113.92
644.419	38862.62
644.771	38635.06
645.124	38354.84
645.477	38444.78
645.83	38191.23
646.182	37935.19
646.535	37789.2
646.888	37990.33
647.24	37768.19
647.593	37980.61
647.945	37848.19
648.298	37790.79
648.65	37735.87
649.002	37602.32
649.355	37864.23
649.707	37868.52
650.059	37875.76
650.411	38271.9
650.763	38337.44
651.115	38798.9
651.467	38624.66
651.819	38598.45
652.171	38611.78
652.523	38601.16
652.875	38624.21
653.227	38444.78
653.578	38732
653.93	38610.2
654.282	38401.39
654.633	38371.11
654.985	38468.28
655.337	38431.67
655.688	38511.22
656.039	38597.32
656.391	38194.84
656.742	38281.85
657.094	38417.66
657.445	38403.65
657.796	38401.17
658.147	38373.14
658.498	38284.78
658.849	38396.87
659.2	38381.05
659.551	38245.01
659.902	38335.63
660.253	38297.67
660.604	38252.92
660.955	38207.95
661.306	38267.61
661.656	38149.42
662.007	38355.06
662.358	38195.75
662.708	38287.27
663.059	38185.13
663.409	38027.39
663.76	38312.81
664.11	38190.55
664.461	38207.95
664.811	38318.68
665.161	38129.53
665.511	38111
665.862	38160.95
666.212	38304.9
666.562	38260.83
666.912	38119.36
667.262	38068.97
667.612	38297.89
667.962	38127.95
668.312	38094.05
668.662	38438
669.011	38232.36
669.361	38193.26
669.711	38101.29
670.06	37985.36
670.41	38070.33
670.76	37920.73
671.109	38197.55
671.459	38066.48
671.808	37949.2
672.157	38009.54
672.507	37886.83
672.856	37892.25
673.205	37915.53
673.554	37988.07
673.904	37986.26
674.253	38024.45
674.602	37847.06
674.951	37467.86
675.3	37207.98
675.649	37858.81
675.998	37714.86
676.346	37758.92
676.695	37838.92
677.044	37517.35
677.393	37753.05
677.741	37824.68
678.09	37621.07
678.438	37606.38
678.787	37667.85
679.135	37711.69
679.484	37456.11
679.832	37687.96
680.181	37398.03
680.529	37579.94
680.877	37431.7
681.225	37370.68
681.573	37563.67
681.922	37191.25
682.27	37145.15
682.618	37176.34
682.966	37057.7
683.314	37167.75
683.661	37029.68
684.009	37033.07
684.357	36749.68
684.705	36751.94
685.053	36942.22
685.4	36806.86
685.748	36567.32
686.095	36604.38
686.443	36539.07
686.79	36481.44
687.138	36440.31
687.485	36428.56
687.832	36359.64
688.18	36441.89
688.527	36281.9
688.874	36165.07
689.221	36017.5
689.568	36007.1
689.915	35929.82
690.262	35992.64
690.609	35789.93
690.956	35722.37
691.303	35683.72
691.65	35527.34
691.997	35544.29
692.344	35349.27
692.69	35134.36
693.037	35296.39
693.383	34990.86
693.73	35238.99
694.077	35008.03
694.423	34877.19
694.769	34746.57
695.116	34721.04
695.462	34806.91
695.808	34533.92
696.155	34681.72
696.501	34392.46
696.847	34490.31
697.193	34041.05
697.539	34298.9
697.885	34085.8
698.231	33931.45
698.577	33924.45
698.923	34026.82
699.269	33812.36
699.614	33640.61
699.96	33661.86
700.306	33526.49
700.651	33508.41
700.997	33350.45
701.342	33306.84
701.688	33262.77
702.033	33141.87
702.379	33191.13
702.724	33024.13
703.069	33147.74
703.415	32774.87
703.76	32696.46
704.105	32791.37
704.45	32677.7
704.795	32424.6
705.14	32336.24
705.485	32386.86
705.83	32403.36
706.175	32379.85
706.52	32355.45
706.865	32189.13
707.209	32140.09
707.554	32014.67
707.899	32099.64
708.243	31912.97
708.588	31845.41
708.932	31572.42
709.277	31602.93
709.621	31561.8
709.966	31367.68
710.31	31520.89
710.654	31186.44
710.998	31302.6
711.342	31270.96
711.687	31269.38
712.031	31116.39
712.375	30912.77
712.719	30978.54
713.063	30822.38
713.407	30859.67
713.75	30769.05
714.094	30761.82
714.438	30421.71
714.782	30737.86
715.125	30469.62
715.469	30645.44
715.812	30446.35
716.156	30281.38
716.499	30401.15
716.843	30326.8
717.186	30046.36
717.53	30280.7
717.873	30227.14
718.216	30129.97
718.559	29941.73
718.902	29848.62
719.246	29942.4
719.589	29781.73
719.932	29759.81
720.275	29759.36
720.617	29626.03
720.96	29535.18
721.303	29680.26
721.646	29622.19
721.989	29400.72
722.331	29501.06
722.674	29453.83
723.016	29431.01
723.359	29318.47
723.701	29307.85
724.044	29173.61
724.386	29015.42
724.729	29193.27
725.071	29202.99
725.413	29012.71
725.755	29080.28
726.097	28853.85
726.439	28658.37
726.782	28677.13
727.124	28866.95
727.465	28639.39
727.807	28706.96
728.149	28503.8
728.491	28522.56
728.833	28499.05
729.175	28402.11
729.516	28472.16
729.858	28344.25
730.199	28448.66
730.541	28311.04
730.882	28283.92
731.224	28324.14
731.565	28067.65
731.906	28135.45
732.248	28209.57
732.589	28024.49
732.93	27983.36
733.271	27910.14
733.612	27951.95
733.953	28071.95
734.294	27793.08
734.635	27792.18
734.976	27819.3
735.317	27594.67
735.658	27708.34
735.999	27669.02
736.339	27719.86
736.68	27628.57
737.021	27622.92
737.361	27481
737.702	27536.37
738.042	27438.06
738.383	27413.66
738.723	27394.22
739.063	27354.9
739.404	27306.09
739.744	27239.65
740.084	27233.78
740.424	27177.73
740.764	27170.05
741.104	27141.57
741.444	26962.82
741.784	26990.39
742.124	26972.54
742.464	26917.17
742.804	26791.53
743.143	26832.43
743.483	26827.01
743.823	26736.39
744.162	26681.47
744.502	26674.47
744.841	26615.94
745.181	26759.44
745.52	26622.49
745.86	26692.09
746.199	26611.87
746.538	26475.6
746.877	26412.33
747.216	26483.29
747.556	26476.51
747.895	26382.95
748.234	26284.87
748.573	26277.64
748.911	26003.07
749.25	26151.32
749.589	25969.85
749.928	26208.49
750.267	26190.41
750.605	26037.2
750.944	25971.89
751.283	25756.07
751.621	25940.48
751.96	25805.11
752.298	25840.37
752.636	25743.65
752.975	25492.58
753.313	25514.05
753.651	25677.21
753.989	25563.54
754.327	25395.86
754.666	25292.13
755.004	25409.42
755.342	25279.7
755.679	25198.35
756.017	25112.93
756.355	25155.19
756.693	25064.79
757.031	24983.67
757.368	24939.15
757.706	24906.6
758.044	24864.8
758.381	24838.36
758.719	24692.6
759.056	24799.26
759.394	24594.52
759.731	24482.66
760.068	24447.86
760.405	24295.1
760.743	24246.06
761.08	24291.25
761.417	24187.75
761.754	24114.31
762.091	24037.25
762.428	24032.28
762.765	23856.46
763.102	23954.31
763.438	23749.8
763.775	23724.26
764.112	23663.7
764.449	23727.65
764.785	23484.95
765.122	23411.28
765.458	23333.54
765.795	23328.57
766.131	23289.92
766.467	23234.56
766.804	23114.56
767.14	22879.09
767.476	23003.38
767.812	22853.33
768.148	22767
768.485	22818.07
768.821	22527.46
769.157	22556.38
769.492	22538.98
769.828	22514.13
770.164	22374.24
770.5	22202.95
770.836	22298.09
771.171	22049.28
771.507	22082.5
771.842	21922.95
772.178	21919.11
772.513	21897.42
772.849	21827.59
773.184	21681.15
773.519	21642.96
773.855	21508.5
774.19	21468.96
774.525	21433.48
774.86	21276.87
775.195	21344.89
775.53	21193.48
775.865	21064.22
776.2	21014.96
776.535	20805.7
776.87	20869.2
777.205	20771.12
777.539	20665.13
777.874	20624.23
778.209	20454.07
778.543	20454.97
778.878	20308.31
779.212	20393.96
779.547	20331.13
779.881	20325.93
780.215	20119.16
780.55	20158.26
780.884	20026.06
781.218	19902.67
781.552	20016.79
781.886	19748.77
782.22	19758.72
782.554	19565.73
782.888	19470.14
783.222	19408.44
783.556	19279.86
783.889	19254.55
784.223	19158.51
784.557	19129.58
784.89	19132.97
785.224	18983.37
785.557	18850.27
785.891	18915.12
786.224	18834.22
786.558	18850.04
786.891	18594.68
787.224	18569.82
787.557	18487.56
787.891	18585.42
788.224	18474.23
788.557	18538.18
788.89	18488.02
789.223	18364.86
789.556	18307
789.888	18161.25
790.221	18133.45
790.554	17881.03
790.887	17978.43
791.219	17867.92
791.552	17805.55
791.884	17767.81
792.217	17727.81
792.549	17661.15
792.882	17496.86
793.214	17471.09
793.546	17547.48
793.879	17370.08
794.211	17312.91
794.543	17287.6
794.875	17265.9
795.207	17292.79
795.539	17150.88
795.871	17185
796.203	16996.76
796.535	16920.6
796.867	16884.67
797.198	16880.38
797.53	16801.28
797.862	16651.45
798.193	16754.5
798.525	16566.49
798.856	16641.29
799.188	16507.05
799.519	16379.15
799.85	16293.05
800.182	16284.91
800.513	16343.89
800.844	16151.58
801.175	16206.72
801.506	16103.9
801.837	16077.23
802.168	15999.72
802.499	16016.44
802.83	15907.52
803.161	15881.53
803.491	15918.14
803.822	15888.99
804.153	15761.99
804.483	15651.71
804.814	15607.64
805.145	15601.76
805.475	15545.95
805.805	15491.26
806.136	15579.84
806.466	15438.38
806.796	15457.81
807.126	15317.25
807.457	15324.94
807.787	15271.83
808.117	15279.97
808.447	15190.48
808.777	15145.73
809.107	15079.52
809.436	15063.47
809.766	15071.38
810.096	14987.32
810.426	14971.5
810.755	14999.52
811.085	14858.28
811.414	14837.27
811.744	14745.06
812.073	14711.17
812.403	14684.95
812.732	14664.84
813.061	14582.81
813.39	14602.7
813.719	14555.92
814.049	14459.65
814.378	14484.05
814.707	14449.7
815.036	14410.61
815.365	14304.4
815.693	14239.77
816.022	14268.47
816.351	14211.74
816.68	14114.35
817.008	14211.74
817.337	14044.29
817.665	14098.75
817.994	13948.48
818.322	14004.74
818.651	13983.73
818.979	13923.16
819.307	13954.58
819.636	13888.82
819.964	13823.96
820.292	13851.3
820.62	13903.28
820.948	13761.81
821.276	13869.61
821.604	13786.9
821.932	13823.73
822.259	13794.13
822.587	13757.97
822.915	13805.43
823.243	13711.87
823.57	13745.54
823.898	13812.21
824.225	13762.04
824.553	13731.31
824.88	13678.43
825.207	13762.94
825.535	13590.74
825.862	13738.99
826.189	13623.06
826.516	13786.67
826.843	13749.61
827.17	13676.62
827.497	13728.59
827.824	13818.76
828.151	13687.46
828.478	13716.84
828.805	13759.33
829.131	13722.49
829.458	13693.57
829.785	13564.3
830.111	13581.25
830.438	13644.3
830.764	13684.3
831.09	13603.17
831.417	13622.61
831.743	13640.01
832.069	13628.94
832.395	13551.2
832.722	13561.14
833.048	13536.28
833.374	13589.84
833.7	13490.41
834.026	13548.26
834.351	13547.81
834.677	13599.33
835.003	13539.45
835.329	13577.41
835.654	13459.45
835.98	13505.32
836.306	13419
836.631	13348.94
836.956	13458.77
837.282	13423.52
837.607	13350.07
837.932	13316.85
838.258	13314.59
838.583	13278.21
838.908	13209.51
839.233	13303.52
839.558	13237.08
839.883	13168.61
840.208	13140.36
840.533	13114.82
840.858	13077.76
841.182	13174.94
841.507	13099.23
841.832	13082.06
842.156	12972.91
842.481	12955.73
842.805	12932.23
843.13	12944.89
843.454	12953.92
843.778	12816.53
844.103	12820.37
844.427	12736.76
844.751	12826.02
845.075	12769.75
845.399	12729.52
845.723	12658.57
846.047	12698.11
846.371	12551.68
846.695	12615.18
847.019	12441.85
847.343	12410.89
847.666	12375.41
847.99	12337.67
848.313	12275.52
848.637	12213.61
848.96	12193.72
849.284	12161.4
849.607	12075.76
849.931	12018.36
850.254	11942.2
850.577	11915.08
850.9	11810.68
851.223	11846.16
851.546	11680.74
851.869	11637.58
852.192	11707.63
852.515	11555.77
852.838	11519.39
853.161	11549.67
853.483	11477.35
853.806	11430.12
854.129	11421.08
854.451	11399.62
854.774	11324.59
855.096	11298.83
855.419	11289.79
855.741	11235.33
856.063	11181.77
856.385	11126.18
856.708	11125.95
857.03	11092.96
857.352	11100.64
857.674	11062.45
857.996	11048.89
858.318	10982
858.64	10962.11
858.961	10922.11
859.283	10845.51
859.605	10785.39
859.926	10794.89
860.248	10783.13
860.57	10788.11
860.891	10740.65
861.212	10676.47
861.534	10674.44
861.855	10675.11
862.176	10662.46
862.498	10651.84
862.819	10647.09
863.14	10612.07
863.461	10540.66
863.782	10485.52
864.103	10574.78
864.424	10425.18
864.745	10516.47
865.065	10439.19
865.386	10444.16
865.707	10460.21
866.027	10431.96
866.348	10354.9
866.668	10323.26
866.989	10358.74
867.309	10286.65
867.63	10268.57
867.95	10268.12
868.27	10215.69
868.59	10268.8
868.91	10269.48
869.23	10207.56
869.55	10178.63
869.87	10187.22
870.19	10162.13
870.51	10179.53
870.83	10128.69
871.15	10123.72
871.469	10051.4
871.789	10156.71
872.109	10098.18
872.428	10024.96
872.748	10038.75
873.067	10050.72
873.386	10045.98
873.706	9991.06
874.025	10032.65
874.344	9893.44
874.663	9954
874.982	9880.56
875.301	9928.69
875.62	9844.85
875.939	9880.79
876.258	9832.43
876.577	9789.71
876.896	9853.67
877.214	9807.34
877.533	9780.9
877.852	9769.38
878.17	9791.75
878.489	9769.38
878.807	9747.91
879.125	9716.95
879.444	9701.13
879.762	9677.85
880.08	9676.5
880.398	9589.04
880.716	9647.8
881.034	9614.13
881.352	9556.5
881.67	9511.08
881.988	9529.83
882.306	9478.54
882.624	9414.13
882.941	9453.9
883.259	9455.94
883.577	9372.32
883.894	9381.36
884.212	9308.82
884.529	9362.61
884.846	9336.39
885.164	9294.36
885.481	9255.04
885.798	9281.71
886.115	9174.59
886.432	9174.82
886.75	9194.7
887.067	9208.49
887.383	9128.26
887.7	9172.78
888.017	9068.6
888.334	9154.48
888.651	9054.37
888.967	9064.76
889.284	9060.24
889.6	8985.67
889.917	8902.28
890.233	8966.01
890.55	8958.1
890.866	8926.46
891.182	8893.47
891.498	8851.89
891.815	8805.33
892.131	8785.67
892.447	8751.32
892.763	8721.95
893.079	8714.26
893.395	8692.34
893.71	8660.7
894.026	8648.28
894.342	8701.61
894.657	8590.65
894.973	8587.03
895.289	8587.71
895.604	8517.21
895.92	8481.73
896.235	8424.78
896.55	8431.78
896.865	8376.42
897.181	8377.77
897.496	8350.43
897.811	8276.53
898.126	8296.87
898.441	8294.39
898.756	8195.86
899.071	8174.84
899.386	8204.22
899.7	8124.67
900.015	8119.93
900.33	8045.58
900.644	8079.48
900.959	8029.99
901.273	7962.42
901.588	7940.95
901.902	7917.22
902.216	7940.05
902.531	7873.38
902.845	7795.42
903.159	7784.8
903.473	7771.01
903.787	7719.49
904.101	7705.02
904.415	7776.89
904.729	7646.72
905.042	7594.74
905.356	7574.41
905.67	7571.47
905.984	7624.57
906.297	7547.06
906.611	7523.56
906.924	7471.13
907.237	7476.33
907.551	7393.17
907.864	7375.09
908.177	7365.6
908.491	7352.26
908.804	7354.98
909.117	7310.23
909.43	7268.2
909.743	7224.81
910.056	7196.34
910.368	7171.03
910.681	7163.57
910.994	7110.91
911.307	7055.1
911.619	7051.03
911.932	7024.36
912.244	6973.74
912.557	6970.81
912.869	6894.2
913.181	6924.25
913.494	6889.68
913.806	6877.7
914.118	6836.12
914.43	6728.1
914.742	6751.6
915.054	6752.28
915.366	6738.04
915.678	6610.14
915.99	6568.56
916.302	6582.79
916.613	6571.95
916.925	6539.86
917.236	6532.62
917.548	6487.65
917.859	6500.54
918.171	6454.21
918.482	6456.69
918.794	6397.71
919.105	6344.16
919.416	6376.02
919.727	6325.17
920.038	6330.37
920.349	6261.22
920.66	6229.13
920.971	6200.43
921.282	6243.59
921.593	6144.39
921.903	6157.72
922.214	6110.04
922.525	6080.66
922.835	6082.24
923.146	6071.39
923.456	6018.06
923.767	5943.94
924.077	6026.42
924.387	6005.86
924.697	5959.98
925.008	5906.43
925.318	5870.72
925.628	5824.62
925.938	5808.35
926.248	5776.71
926.558	5752.31
926.867	5728.35
927.177	5738.52
927.487	5658.75
927.796	5670.95
928.106	5647.22
928.416	5661.91
928.725	5596.83
929.034	5573.33
929.344	5560
929.653	5518.41
929.962	5509.15
930.271	5465.31
930.581	5445.65
930.89	5406.1
931.199	5385.08
931.508	5395.71
931.817	5416.95
932.125	5358.42
932.434	5290.4
932.743	5282.49
933.051	5269.83
933.36	5238.65
933.669	5216.05
933.977	5179.21
934.286	5189.84
934.594	5136.5
934.902	5093.57
935.21	5085.43
935.519	5075.94
935.827	5069.84
936.135	5012.89
936.443	5020.12
936.751	5002.72
937.059	4980.8
937.367	4902.84
937.674	4952.1
937.982	4878.66
938.29	4926.11
938.597	4952.1
938.905	4820.13
939.213	4807.47
939.52	4810.41
939.827	4777.64
940.135	4766.57
940.442	4722.05
940.749	4757.53
941.056	4768.15
941.363	4691.32
941.67	4706.91
941.977	4614.94
942.284	4688.15
942.591	4629.17
942.898	4613.81
943.205	4578.55
943.511	4585.78
943.818	4533.58
944.125	4537.42
944.431	4513.24
944.738	4496.07
945.044	4439.8
945.35	4443.19
945.657	4427.14
945.963	4425.34
946.269	4339.01
946.575	4385.79
946.881	4335.39
947.187	4346.69
947.493	4340.37
947.799	4283.42
948.105	4247.94
948.41	4278.22
948.716	4278.67
949.022	4221.27
949.327	4247.94
949.633	4159.13
949.938	4148.28
950.244	4151.22
950.549	4147.83
950.854	4072.12
951.16	4122.97
951.465	4091.11
951.77	4041.84
952.075	4054.95
952.38	4037.55
952.685	4050.43
952.99	4002.3
953.294	3947.16
953.599	3891.79
953.904	3925.69
954.209	3953.94
954.513	3943.77
954.818	3902.41
955.122	3864.45
955.426	3882.07
955.731	3845.24
956.035	3809.53
956.339	3814.28
956.643	3771.79
956.948	3813.15
957.252	3746.26
957.556	3744.22
957.86	3741.51
958.163	3722.08
958.467	3745.35
958.771	3732.02
959.075	3694.51
959.378	3649.08
959.682	3594.17
959.985	3632.81
960.289	3598.46
960.592	3572.93
960.896	3597.56
961.199	3528.86
961.502	3546.26
961.805	3512.14
962.108	3496.55
962.411	3482.08
962.714	3489.77
963.017	3501.29
963.32	3483.89
963.623	3444.8
963.926	3410.22
964.228	3382.43
964.531	3398.02
964.833	3397.57
965.136	3362.31
965.438	3336.78
965.741	3294.29
966.043	3318.25
966.345	3264.01
966.648	3307.17
966.95	3289.77
967.252	3301.07
967.554	3258.13
967.856	3235.54
968.158	3210.68
968.46	3207.51
968.761	3172.94
969.063	3202.54
969.365	3156.22
969.666	3170.23
969.968	3115.31
970.269	3097.46
970.571	3058.14
970.872	3086.61
971.174	3088.87
971.475	3084.13
971.776	3060.4
972.077	3039.16
972.378	3060.4
972.679	2993.96
972.98	3002.32
973.281	2983.11
973.582	2985.6
973.883	2958.93
974.183	2959.16
974.484	2900.18
974.785	2930.46
975.085	2908.31
975.386	2903.12
975.686	2912.38
975.986	2912.16
976.287	2855.43
976.587	2845.49
976.887	2845.04
977.187	2838.71
977.487	2839.39
977.787	2794.42
978.087	2802.33
978.387	2773.18
978.687	2770.01
978.987	2774.76
979.286	2755.55
979.586	2699.28
979.885	2724.36
980.185	2716.91
980.484	2682.78
980.784	2666.06
981.083	2670.58
981.382	2634.42
981.682	2652.73
981.981	2601.2
982.28	2622.22
982.579	2607.08
982.878	2625.61
983.177	2577.47
983.475	2585.84
983.774	2560.3
984.073	2538.83
984.372	2555.78
984.67	2516.69
984.969	2511.26
985.267	2507.87
985.566	2511.49
985.864	2479.85
986.162	2477.36
986.461	2458.83
986.759	2481.88
987.057	2436.24
987.355	2413.86
987.653	2429.46
987.951	2417.03
988.249	2393.3
988.547	2404.6
988.844	2356.92
989.142	2328.89
989.44	2356.92
989.737	2344.26
990.035	2354.2
990.332	2324.6
990.63	2303.81
990.927	2314.2
991.224	2327.76
991.521	2287.31
991.819	2284.6
992.116	2272.17
992.413	2242.79
992.71	2265.84
993.006	2242.34
993.303	2203.93
993.6	2224.49
993.897	2207.09
994.193	2192.4
994.49	2201.21
994.787	2161.89
995.083	2161.21
995.379	2144.49
995.676	2146.07
995.972	2143.81
996.268	2088.45
996.565	2128.67
996.861	2103.14
997.157	2096.36
997.453	2049.35
997.749	2065.85
998.044	2056.58
998.34	2043.93
998.636	2059.07
998.932	2045.29
999.227	2005.51
999.523	2030.14
999.818	2024.27
1000.114	1992.86
1000.409	1974.1
1000.704	1941.33
1001	1957.6
1001.295	1958.73
1001.59	1947.43
1001.885	1928.68
1002.18	1970.48
1002.475	1891.62
1002.77	1880.09
1003.065	1861.34
1003.359	1890.04
1003.654	1868.11
1003.949	1867.21
1004.243	1801.22
1004.538	1841.22
1004.832	1820.43
1005.127	1808.68
1005.421	1766.65
1005.715	1800.55
1006.009	1785.63
1006.304	1795.35
1006.598	1779.3
1006.892	1777.95
1007.186	1760.55
1007.48	1757.16
1007.773	1730.49
1008.067	1718.97
1008.361	1711.96
1008.655	1722.81
1008.948	1701.79
1009.242	1671.51
1009.535	1700.44
1009.829	1639.42
1010.122	1651.62
1010.415	1663.15
1010.708	1610.49
1011.001	1621.34
1011.295	1639.87
1011.588	1614.11
1011.881	1619.76
1012.173	1600.78
1012.466	1582.7
1012.759	1556.71
1013.052	1599.87
1013.344	1549.71
1013.637	1563.26
1013.93	1526.65
1014.222	1541.57
1014.514	1534.34
1014.807	1527.11
1015.099	1522.14
1015.391	1504.06
1015.683	1469.03
1015.976	1463.15
1016.268	1494.57
1016.56	1435.81
1016.851	1456.37
1017.143	1422.7
1017.435	1441.69
1017.727	1421.12
1018.018	1420.89
1018.31	1401.69
1018.602	1391.29
1018.893	1411.18
1019.185	1394.45
1019.476	1365.76
1019.767	1375.25
1020.058	1323.5
1020.35	1381.57
1020.641	1349.48
1020.932	1319.2
1021.223	1321.91
1021.514	1327.34
1021.804	1300.22
1022.095	1293.21
1022.386	1303.61
1022.677	1275.81
1022.967	1293.21
1023.258	1265.87
1023.548	1276.27
1023.839	1266.32
1024.129	1219.32
1024.419	1245.98
1024.709	1224.52
1025	1219.77
1025.29	1203.73
1025.58	1210.28
1025.87	1189.71
1026.16	1201.47
1026.449	1192.65
1026.739	1179.55
1027.029	1155.59
1027.319	1154.91
1027.608	1152.43
1027.898	1153.33
1028.187	1123.95
1028.477	1143.61
1028.766	1124.63
1029.055	1122.15
1029.344	1115.37
1029.634	1096.61
1029.923	1101.36
1030.212	1094.8
1030.501	1090.51
1030.79	1077.85
1031.078	1044.63
1031.367	1052.99
1031.656	1055.03
1031.945	1058.64
1032.233	1044.63
1032.522	1041.7
1032.81	1022.26
1033.099	1019.78
1033.387	1014.8
1033.675	1009.83
1033.963	1028.59
1034.251	970.29
1034.54	987.69
1034.828	999.89
1035.116	991.75
1035.403	973.9
1035.691	988.14
1035.979	989.27
1036.267	956.27
1036.554	941.59
1036.842	934.35
1037.129	928.7
1037.417	902.04
1037.704	930.06
1037.992	928.93
1038.279	936.39
1038.566	907.24
1038.853	907.24
1039.14	907.24
