Data from hue_160_FLMS001491_00034.txt Node
Date: Tue Feb 07 16:51:06 GMT 2017
User: dcchb
Spectrometer: FLMS00149
Trigger mode: 0
Integration Time (sec): 2.000000E-2
Scans to average: 10
Electric dark correction enabled: true
Nonlinearity correction enabled: false
Boxcar width: 0
XAxis mode: Wavelengths
Number of Pixels in Spectrum: 2048
>>>>>Begin Spectral Data<<<<<
341.393	-27.56
341.776	-27.56
342.16	-27.56
342.543	-65.07
342.927	-64.62
343.31	-84.73
343.693	-61
344.077	-58.74
344.46	-57.39
344.843	-37.72
345.226	-32.08
345.61	-51.28
345.993	-21.68
346.376	-8.35
346.759	9.28
347.142	37.3
347.525	33.69
347.908	52.67
348.291	72.55
348.674	98.77
349.057	108.71
349.44	136.06
349.823	138.54
350.206	150.52
350.588	185.09
350.971	204.3
351.354	204.3
351.737	217.41
352.119	246.79
352.502	252.66
352.884	267.35
353.267	280.46
353.65	289.27
354.032	298.54
354.414	317.07
354.797	309.38
355.179	303.28
355.562	314.36
355.944	335.82
356.326	338.54
356.709	346.22
357.091	308.71
357.473	348.03
357.855	331.53
358.238	339.89
358.62	331.08
359.002	337.41
359.384	339.21
359.766	325.43
360.148	320.23
360.53	335.82
360.912	330.85
361.294	332.43
361.676	341.47
362.057	294.24
362.439	319.55
362.821	329.5
363.203	325.2
363.584	308.48
363.966	314.58
364.348	317.97
364.729	315.49
365.111	308.03
365.493	320.91
365.874	300.57
366.256	315.26
366.637	308.25
367.019	323.4
367.4	338.54
367.781	314.36
368.163	323.4
368.544	296.96
368.925	313.45
369.306	326.79
369.688	305.09
370.069	310.74
370.45	315.03
370.831	297.63
371.212	314.81
371.593	301.7
371.974	303.51
372.355	330.85
372.736	323.62
373.117	322.04
373.498	305.32
373.879	322.94
374.26	294.7
374.641	332.21
375.021	304.19
375.402	313.45
375.783	308.48
376.163	326.11
376.544	311.87
376.925	315.03
377.305	322.27
377.686	319.78
378.066	321.81
378.447	331.3
378.827	319.1
379.208	346.45
379.588	315.03
379.968	320.23
380.349	315.03
380.729	332.89
381.109	336.05
381.489	338.08
381.87	325.66
382.25	325.2
382.63	333.79
383.01	349.61
383.39	356.84
383.77	351.42
384.15	338.76
384.53	321.14
384.91	340.57
385.29	332.89
385.67	315.26
386.049	355.03
386.429	348.48
386.809	337.18
387.189	352.32
387.568	355.94
387.948	343.06
388.328	353.68
388.707	348.25
389.087	357.74
389.466	367.91
389.846	355.26
390.225	357.52
390.605	353.9
390.984	341.02
391.363	360.68
391.743	350.29
392.122	354.81
392.501	364.75
392.881	346.22
393.26	357.52
393.639	352.55
394.018	358.42
394.397	365.65
394.776	364.98
395.155	377.18
395.534	369.27
395.913	346.9
396.292	368.82
396.671	362.49
397.05	380.12
397.429	383.96
397.808	365.88
398.186	385.77
398.565	365.88
398.944	393.22
399.323	373.56
399.701	376.95
400.08	385.54
400.458	370.85
400.837	389.16
401.215	393.68
401.594	374.24
401.972	392.77
402.351	372.43
402.729	414.01
403.107	404.75
403.486	391.64
403.864	397.74
404.242	386.9
404.62	393.9
404.999	410.4
405.377	416.05
405.755	402.04
406.133	405.2
406.511	427.8
406.889	417.63
407.267	410.62
407.645	418.08
408.023	418.76
408.401	420.79
408.779	435.71
409.156	420.79
409.534	424.86
409.912	438.19
410.29	445.65
410.667	464.18
411.045	433.45
411.422	481.13
411.8	445.43
412.178	470.51
412.555	472.09
412.933	449.72
413.31	457.4
413.687	466.22
414.065	475.48
414.442	468.48
414.819	464.63
415.197	494.69
415.574	456.05
415.951	487.91
416.328	496.05
416.705	498.31
417.082	484.07
417.46	487.91
417.837	486.78
418.214	483.39
418.591	494.46
418.967	493.11
419.344	503.28
419.721	497.4
420.098	493.79
420.475	525.2
420.852	526.55
421.228	516.84
421.605	521.58
421.982	527.01
422.358	545.08
422.735	544.86
423.111	527.68
423.488	539.89
423.864	536.27
424.241	567
424.617	549.6
424.994	581.02
425.37	550.73
425.746	582.15
426.123	575.59
426.499	565.2
426.875	562.03
427.251	587.57
427.627	597.51
428.003	575.14
428.379	581.02
428.756	609.94
429.132	595.93
429.507	629.6
429.883	613.78
430.259	597.06
430.635	623.5
431.011	625.31
431.387	649.71
431.763	630.28
432.138	616.5
432.514	671.18
432.89	643.84
433.265	649.49
433.641	680.22
434.016	652.2
434.392	696.94
434.767	681.58
435.143	691.3
435.518	687.23
435.894	699.43
436.269	707.79
436.644	705.76
437.02	722.93
437.395	740.79
437.77	748.7
438.145	716.15
438.52	754.57
438.895	730.16
439.271	732.42
439.646	761.8
440.021	748.92
440.395	772.65
440.77	751.41
441.145	761.58
441.52	787.79
441.895	772.88
442.27	800.22
442.645	838.41
443.019	830.27
443.394	795.7
443.769	826.89
444.143	807.9
444.518	831.4
444.892	828.01
445.267	819.43
445.641	827.56
446.016	857.39
446.39	868.24
446.764	858.07
447.139	844.74
447.513	866.43
447.887	852.42
448.262	873.89
448.636	872.76
449.01	878.64
449.384	889.03
449.758	897.84
450.132	902.82
450.506	915.02
450.88	916.15
451.254	929.26
451.628	939.65
452.002	929.48
452.376	951.63
452.75	941.01
453.123	952.53
453.497	952.08
453.871	990.95
454.244	1014.22
454.618	974.9
454.992	1018.52
455.365	1004.28
455.739	1049.93
456.112	1037.5
456.486	1040.66
456.859	1071.62
457.232	1086.54
457.606	1094
457.979	1094.9
458.352	1126.99
458.725	1142.36
459.099	1136.03
459.472	1154.56
459.845	1174.45
460.218	1151.85
460.591	1195.69
460.964	1172.41
461.337	1229.81
461.71	1236.14
462.083	1258.51
462.456	1286.08
462.829	1269.36
463.201	1289.47
463.574	1288.12
463.947	1322.92
464.32	1338.74
464.692	1374.22
465.065	1400.2
465.438	1389.13
465.81	1414.67
466.183	1452.86
466.555	1461.9
466.928	1489.24
467.3	1469.35
467.672	1521.33
468.045	1538.5
468.417	1563.81
468.789	1561.1
469.161	1578.96
469.534	1662.12
469.906	1641.33
470.278	1679.74
470.65	1717.26
471.022	1770.14
471.394	1799.97
471.766	1827.08
472.138	1857.37
472.51	1856.24
472.882	1903.01
473.253	1962.45
473.625	2003.35
473.997	2031.37
474.369	2119.51
474.74	2096.23
475.112	2168.54
475.484	2221.65
475.855	2277.24
476.227	2324.02
476.598	2407.63
476.97	2421.65
477.341	2505.94
477.713	2566.95
478.084	2611.7
478.455	2653.96
478.827	2727.63
479.198	2838.36
479.569	2871.8
479.94	2968.52
480.311	3055.3
480.682	3116.09
481.053	3177.78
481.424	3321.28
481.795	3380.04
482.166	3473.37
482.537	3524.67
482.908	3630.88
483.279	3749.75
483.65	3790.65
484.021	3938.67
484.391	4016.18
484.762	4075.16
485.133	4203.07
485.503	4258.66
485.874	4350.86
486.244	4524.87
486.615	4620.68
486.985	4715.6
487.356	4824.07
487.726	4925.53
488.097	5118.98
488.467	5138.86
488.837	5302.7
489.207	5422.24
489.578	5557.61
489.948	5685.74
490.318	5800.09
490.688	5902.23
491.058	6051.38
491.428	6146.07
491.798	6286.63
492.168	6420.18
492.538	6523.46
492.908	6631.93
493.278	6791.25
493.648	6803.68
494.017	6981.07
494.387	7053.84
494.757	7221.52
495.126	7341.29
495.496	7401.85
495.866	7468.97
496.235	7709.87
496.605	7780.83
496.974	7886.13
497.344	7983.53
497.713	8083.19
498.082	8111.21
498.452	8311.21
498.821	8369.74
499.19	8384.43
499.559	8555.95
499.928	8595.72
500.298	8705.32
500.667	8816.51
501.036	8809.27
501.405	8971.53
501.774	8967.01
502.143	9129.49
502.512	9216.04
502.88	9264.18
503.249	9288.81
503.618	9362.03
503.987	9394.8
504.356	9527.22
504.724	9544.4
505.093	9702.81
505.462	9699.42
505.83	9777.38
506.199	9833.43
506.567	9966.76
506.936	9905.29
507.304	10065.51
507.672	10136.02
508.041	10110.93
508.409	10177.83
508.777	10291.95
509.145	10314.55
509.514	10304.83
509.882	10422.34
510.25	10441.1
510.618	10524.94
510.986	10505.27
511.354	10673.86
511.722	10768.54
512.09	10816
512.458	10719.96
512.826	10907.52
513.193	10924.25
513.561	10837.24
513.929	10903
514.297	10971.48
514.664	10995.21
515.032	11107.97
515.4	11100.06
515.767	11129.44
516.135	11240.85
516.502	11147.52
516.869	11258.93
517.237	11283.56
517.604	11267.06
517.972	11213.5
518.339	11325.37
518.706	11260.73
519.073	11326.5
519.44	11437.91
519.808	11502.54
520.175	11391.13
520.542	11488.07
520.909	11508.64
521.276	11484.68
521.643	11535.76
522.009	11540.95
522.376	11642.87
522.743	11554.74
523.11	11570.56
523.477	11754.96
523.843	11733.49
524.21	11834.73
524.577	11780.04
524.943	11847.16
525.31	11928.97
525.676	11905.46
526.043	11888.29
526.409	11889.19
526.776	12006.93
527.142	11907.05
527.508	11949.08
527.874	11972.58
528.241	11986.59
528.607	11991.11
528.973	12036.08
529.339	12026.82
529.705	12002.18
530.071	12093.03
530.437	12053.93
530.803	11916.54
531.169	12102.07
531.535	11984.33
531.901	11918.12
532.267	11983.65
532.632	12023.88
532.998	11978.23
533.364	11968.29
533.73	11938.01
534.095	11961.28
534.461	11903.88
534.826	11974.61
535.192	11949.3
535.557	12008.06
535.923	11891.68
536.288	11853.71
536.653	11867.27
537.019	11726.94
537.384	11722.19
537.749	11801.96
538.114	11727.16
538.479	11698.69
538.845	11613.49
539.21	11623.66
539.575	11653.94
539.94	11571.01
540.305	11601.52
540.67	11500.5
541.034	11579.37
541.399	11488.53
541.764	11523.78
542.129	11371.69
542.494	11458.92
542.858	11361.07
543.223	11376.66
543.587	11367.17
543.952	11200.4
544.316	11287.17
544.681	11177.8
545.045	11268.19
545.41	11214.63
545.774	11177.35
546.138	11155.2
546.503	11115.65
546.867	11005.37
547.231	11055.09
547.595	10965.15
547.959	10991.82
548.324	10913.63
548.688	10978.48
549.052	10865.94
549.416	10856.68
549.779	10877.69
550.143	10835.21
550.507	10812.16
550.871	10805.15
551.235	10764.02
551.599	10718.83
551.962	10752.95
552.326	10654.65
552.689	10659.62
553.053	10564.71
553.417	10566.74
553.78	10650.13
554.143	10586.4
554.507	10625.27
554.87	10536.01
555.234	10597.02
555.597	10570.13
555.96	10497.37
556.323	10479.29
556.686	10402.23
557.05	10456.46
557.413	10404.26
557.776	10452.62
558.139	10341.89
558.502	10452.85
558.865	10361.1
559.228	10431.6
559.59	10351.15
559.953	10427.08
560.316	10448.55
560.679	10404.71
561.041	10376.01
561.404	10429.34
561.767	10439.51
562.129	10288.11
562.492	10479.96
562.854	10337.14
563.217	10366.07
563.579	10430.02
563.941	10412.62
564.304	10486.29
564.666	10458.27
565.028	10461.43
565.39	10407.42
565.753	10498.95
566.115	10500.3
566.477	10496.24
566.839	10475.44
567.201	10566.29
567.563	10541.66
567.925	10618.94
568.287	10522
568.648	10542.34
569.01	10479.74
569.372	10595.67
569.734	10524.48
570.095	10573.52
570.457	10600.41
570.819	10612.84
571.18	10587.53
571.542	10656.68
571.903	10608.55
572.265	10623.01
572.626	10626.4
572.987	10618.94
573.349	10737.13
573.71	10684.48
574.071	10639.73
574.432	10702.33
574.794	10748.66
575.155	10662.78
575.516	10662.11
575.877	10684.25
576.238	10672.28
576.599	10756.12
576.96	10702.56
577.32	10721.09
577.681	10751.14
578.042	10769.67
578.403	10796.34
578.763	10821.65
579.124	10744.59
579.485	10835.66
579.845	10825.72
580.206	10714.08
580.566	10720.64
580.927	10771.71
581.287	10823.01
581.648	10738.94
582.008	10712.5
582.368	10772.61
582.728	10741.88
583.089	10702.56
583.449	10681.77
583.809	10728.55
584.169	10772.16
584.529	10688.55
584.889	10762.89
585.249	10720.18
585.609	10666.4
585.969	10661.65
586.329	10655.33
586.688	10667.3
587.048	10661.2
587.408	10676.8
587.768	10571.49
588.127	10630.02
588.487	10603.8
588.846	10626.4
589.206	10605.84
589.565	10624.14
589.925	10600.41
590.284	10552.28
590.643	10622.79
591.003	10528.55
591.362	10596.35
591.721	10526.07
592.08	10523.58
592.44	10602.67
592.799	10572.39
593.158	10525.39
593.517	10552.96
593.876	10500.08
594.235	10459.17
594.593	10467.08
594.952	10592.28
595.311	10493.98
595.67	10520.42
596.029	10561.09
596.387	10575.78
596.746	10594.76
597.104	10556.8
597.463	10489.68
597.822	10493.52
598.18	10456.46
598.538	10458.5
598.897	10495.56
599.255	10459.63
599.613	10475.67
599.972	10514.54
600.33	10525.84
600.688	10396.35
601.046	10480.64
601.404	10491.49
601.762	10486.52
602.12	10550.02
602.478	10522.22
602.836	10528.1
603.194	10460.76
603.552	10458.95
603.91	10439.51
604.268	10511.83
604.625	10442.45
604.983	10500.75
605.341	10447.88
605.698	10514.99
606.056	10571.49
606.413	10496.46
606.771	10456.91
607.128	10489.68
607.485	10467.08
607.843	10473.86
608.2	10550.47
608.557	10550.92
608.914	10472.96
609.272	10616.23
609.629	10590.24
609.986	10580.3
610.343	10540.75
610.7	10575.56
611.057	10531.49
611.414	10538.95
611.771	10541.21
612.127	10547.08
612.484	10613.75
612.841	10587.98
613.198	10626.85
613.554	10602.9
613.911	10682.9
614.267	10640.86
614.624	10633.18
614.98	10665.5
615.337	10693.97
615.693	10656.23
616.05	10702.78
616.406	10728.55
616.762	10665.04
617.118	10673.41
617.475	10701.65
617.831	10755.66
618.187	10742.33
618.543	10780.52
618.899	10828.66
619.255	10776.68
619.611	10710.69
619.967	10818.03
620.323	10857.36
620.678	10743.91
621.034	10726.29
621.39	10725.16
621.746	10753.63
622.101	10912.72
622.457	10693.52
622.812	10766.96
623.168	10846.51
623.523	10761.77
623.879	10787.3
624.234	10741.2
624.589	10765.61
624.945	10728.77
625.3	10744.82
625.655	10784.14
626.01	10790.01
626.365	10772.39
626.72	10729
627.075	10740.52
627.43	10776.91
627.785	10727.19
628.14	10799.96
628.495	10778.26
628.85	10749.11
629.205	10708.66
629.559	10686.96
629.914	10683.8
630.269	10692.61
630.623	10648.55
630.978	10703.24
631.332	10796.11
631.687	10681.77
632.041	10627.08
632.396	10756.12
632.75	10641.32
633.104	10650.58
633.459	10539.4
633.813	10668.43
634.167	10581.43
634.521	10632.95
634.875	10613.75
635.229	10551.6
635.583	10500.53
635.937	10564.93
636.291	10519.96
636.645	10516.57
636.999	10509.12
637.352	10476.57
637.706	10442.9
638.06	10514.31
638.413	10501.88
638.767	10383.47
639.121	10359.06
639.474	10382.79
639.828	10362.45
640.181	10429.8
640.534	10369.68
640.888	10321.55
641.241	10340.31
641.594	10281.33
641.947	10332.4
642.301	10354.54
642.654	10325.62
643.007	10332.85
643.36	10326.07
643.713	10308.44
644.066	10383.92
644.419	10294.66
644.771	10357.03
645.124	10109.58
645.477	10131.27
645.83	10087.66
646.182	9999.3
646.535	10033.42
646.888	10035.23
647.24	9995.01
647.593	10015.34
647.945	10060.54
648.298	9989.81
648.65	9937.61
649.002	9909.81
649.355	9977.38
649.707	9972.63
650.059	10021.67
650.411	10153.87
650.763	10205.4
651.115	10238.84
651.467	10149.35
651.819	10281.33
652.171	10167.66
652.523	10133.76
652.875	10155.23
653.227	10127.43
653.578	10216.69
653.93	10135.34
654.282	10134.66
654.633	10088.34
654.985	10064.16
655.337	10117.26
655.688	10211.72
656.039	10182.57
656.391	10130.82
656.742	10185.28
657.094	10165.85
657.445	10232.74
657.796	10178.05
658.147	10079.07
658.498	10104.61
658.849	10223.7
659.2	10140.76
659.551	10218.5
659.902	10172.63
660.253	10184.83
660.604	10218.5
660.955	10162.91
661.306	10193.42
661.656	10167.88
662.007	10147.54
662.358	10141.22
662.708	10181.22
663.059	10200.65
663.409	10114.55
663.76	10209.46
664.11	10195.9
664.461	10303.25
664.811	10227.09
665.161	10258.95
665.511	10204.04
665.862	10233.42
666.212	10233.64
666.562	10243.36
666.912	10201.55
667.262	10184.61
667.612	10200.88
667.962	10234.1
668.312	10210.82
668.662	10249.46
669.011	10237.94
669.361	10248.78
669.711	10192.29
670.06	10206.53
670.41	10141.89
670.76	10130.6
671.109	10157.49
671.459	10206.53
671.808	10187.54
672.157	10170.82
672.507	10175.11
672.856	10203.36
673.205	10178.05
673.554	10239.74
673.904	10074.78
674.253	10204.49
674.602	10124.27
674.951	10003.14
675.3	10022.8
675.649	10083.82
675.998	10039.52
676.346	10086.3
676.695	10117.04
677.044	10050.37
677.393	10020.77
677.741	10049.69
678.09	10040.65
678.438	10030.71
678.787	10046.98
679.135	9987.55
679.484	9951.84
679.832	10025.74
680.181	9909.58
680.529	9969.47
680.877	9906.65
681.225	9919.3
681.573	9935.8
681.922	9906.42
682.27	9809.25
682.618	9869.81
682.966	9878.62
683.314	9812.86
683.661	9802.02
684.009	9756.37
684.357	9764.05
684.705	9817.61
685.053	9715.01
685.4	9682.92
685.748	9619.42
686.095	9633.21
686.443	9579.42
686.79	9615.81
687.138	9653.32
687.485	9597.5
687.832	9532.64
688.18	9552.76
688.527	9497.84
688.874	9466.66
689.221	9485.19
689.568	9457.17
689.915	9376.72
690.262	9402.7
690.609	9405.64
690.956	9345.76
691.303	9297.85
691.65	9306.21
691.997	9228.7
692.344	9150.28
692.69	9209.49
693.037	9176.5
693.383	9090.17
693.73	9139.66
694.077	9121.58
694.423	9067.35
694.769	9079.78
695.116	8942.6
695.462	8905.54
695.808	8931.53
696.155	8950.06
696.501	8804.75
696.847	8894.92
697.193	8771.31
697.539	8762.27
697.885	8796.84
698.231	8749.61
698.577	8713.68
698.923	8644.76
699.269	8645.66
699.614	8613.57
699.96	8582.61
700.306	8572.9
700.651	8550.98
700.997	8489.73
701.342	8486.8
701.688	8399.57
702.033	8428.95
702.379	8412.67
702.724	8372.68
703.069	8321.6
703.415	8256.52
703.76	8297.88
704.105	8268.72
704.45	8237.99
704.795	8108.5
705.14	8137.2
705.485	8089.29
705.83	8114.15
706.175	8174.04
706.52	8114.83
706.865	8087.94
707.209	8034.83
707.554	7966.13
707.899	8012.91
708.243	8020.82
708.588	7957.55
708.932	7906.47
709.277	7911.67
709.621	7913.7
709.966	7847.94
710.31	7847.27
710.654	7841.39
710.998	7815.18
711.342	7783.09
711.687	7825.8
712.031	7701.05
712.375	7741.28
712.719	7718.23
713.063	7730.43
713.407	7725.23
713.75	7647.5
714.094	7650.21
714.438	7613.83
714.782	7670.32
715.125	7593.49
715.469	7614.73
715.812	7566.37
716.156	7482.3
716.499	7471.23
716.843	7487.05
717.186	7464.68
717.53	7519.59
717.873	7484.34
718.216	7477.33
718.559	7429.65
718.902	7428.07
719.246	7445.92
719.589	7418.35
719.932	7421.06
720.275	7435.75
720.617	7360.72
720.96	7475.75
721.303	7384.45
721.646	7373.15
721.989	7295.87
722.331	7364.11
722.674	7370.44
723.016	7328.63
723.359	7352.14
723.701	7367.96
724.044	7294.51
724.386	7283.21
724.729	7285.25
725.071	7290.22
725.413	7263.55
725.755	7263.55
726.097	7202.08
726.439	7188.75
726.782	7246.15
727.124	7260.84
727.465	7256.55
727.807	7242.54
728.149	7259.71
728.491	7196.21
728.833	7219.94
729.175	7204.12
729.516	7223.33
729.858	7219.26
730.199	7202.54
730.541	7182.42
730.882	7201.41
731.224	7252.03
731.565	7126.38
731.906	7125.48
732.248	7192.14
732.589	7197.34
732.93	7106.04
733.271	7192.14
733.612	7187.62
733.953	7141.75
734.294	7106.04
734.635	7174.51
734.976	7188.53
735.317	7132.03
735.658	7177
735.999	7161.63
736.339	7208.41
736.68	7163.67
737.021	7174.51
737.361	7166.15
737.702	7200.95
738.042	7212.25
738.383	7172.93
738.723	7239.82
739.063	7233.72
739.404	7217.9
739.744	7262.42
740.084	7211.58
740.424	7247.73
740.764	7243.67
741.104	7315.3
741.444	7224.68
741.784	7255.64
742.124	7311.46
742.464	7302.65
742.804	7302.65
743.143	7376.32
743.483	7380.39
743.823	7368.41
744.162	7380.84
744.502	7410.21
744.841	7458.12
745.181	7446.37
745.52	7459.93
745.86	7576.31
746.199	7611.57
746.538	7656.99
746.877	7699.47
747.216	7714.16
747.556	7738.57
747.895	7745.35
748.234	7756.87
748.573	7855.4
748.911	7844.33
749.25	7987.37
749.589	7967.49
749.928	8053.36
750.267	8131.78
750.605	8169.06
750.944	8221.72
751.283	8228.72
751.621	8374.94
751.96	8391.66
752.298	8482.73
752.636	8585.1
752.975	8634.82
753.313	8640.46
753.651	8878.65
753.989	8866.67
754.327	9001.59
754.666	9090.85
755.004	9230.73
755.342	9342.37
755.679	9444.51
756.017	9510.5
756.355	9682.92
756.693	9795.91
757.031	9978.06
757.368	10085.4
757.706	10124.72
758.044	10269.57
758.381	10429.34
758.719	10586.18
759.056	10705.5
759.394	10891.03
759.731	10951.59
760.068	11121.08
760.405	11233.17
760.743	11328.08
761.08	11548.86
761.417	11659.37
761.754	11873.6
762.091	12055.06
762.428	12190.65
762.765	12327.37
763.102	12507.93
763.438	12630.19
763.775	12726.23
764.112	13019.56
764.449	13131.19
764.785	13291.64
765.122	13367.12
765.458	13526.89
765.795	13667.45
766.131	13814.34
766.467	13882.81
766.804	14083.03
767.14	14092.98
767.476	14263.37
767.812	14390.6
768.148	14599.86
768.485	14681.89
768.821	14684.83
769.157	14880.07
769.492	15037.81
769.828	15069.22
770.164	15141.31
770.5	15227.64
770.836	15426.73
771.171	15413.62
771.507	15570.68
771.842	15560.96
772.178	15760.96
772.513	15810.67
772.849	15889.09
773.184	15933.38
773.519	15996.2
773.855	16098.35
774.19	16091.12
774.525	16161.62
774.86	16314.16
775.195	16336.53
775.53	16403.88
775.865	16307.38
776.2	16396.42
776.535	16385.12
776.87	16541.73
777.205	16562.52
777.539	16452.01
777.874	16599.35
778.209	16549.18
778.543	16627.6
778.878	16634.15
779.212	16633.7
779.547	16746.01
779.881	16742.17
780.215	16719.57
780.55	16725.22
780.884	16670.99
781.218	16757.09
781.552	16747.14
781.886	16708.28
782.22	16803.41
782.554	16773.36
782.888	16734.49
783.222	16599.8
783.556	16666.02
783.889	16740.59
784.223	16615.4
784.557	16596.87
784.89	16692
785.224	16643.42
785.557	16633.93
785.891	16599.58
786.224	16747.14
786.558	16637.32
786.891	16508.96
787.224	16561.84
787.557	16505.79
787.891	16510.31
788.224	16507.83
788.557	16555.06
788.89	16501.5
789.223	16596.87
789.556	16528.62
789.888	16359.36
790.221	16358
790.554	16287.27
790.887	16299.02
791.219	16222.19
791.552	16266.93
791.884	16260.83
792.217	16140.83
792.549	16113.04
792.882	16069.2
793.214	16017.9
793.546	16071.68
793.879	16002.98
794.211	15956.43
794.543	16016.32
794.875	15897.9
795.207	16043.43
795.539	15926.6
795.871	15887.51
796.203	15770.22
796.535	15725.25
796.867	15742.65
797.198	15684.8
797.53	15664.46
797.862	15629.43
798.193	15621.52
798.525	15599.83
798.856	15553.96
799.188	15410
799.519	15391.25
799.85	15430.79
800.182	15405.71
800.513	15403
800.844	15240.52
801.175	15301.53
801.506	15284.13
801.837	15192.16
802.168	15208.88
802.499	15165.04
802.83	15105.38
803.161	15084.82
803.491	15049.34
803.822	15110.8
804.153	15022.67
804.483	14894.99
804.814	14807.53
805.145	14783.58
805.475	14799.62
805.805	14777.03
806.136	14785.61
806.466	14782.45
806.796	14766.41
807.126	14654.77
807.457	14533.64
807.787	14626.52
808.117	14556.02
808.447	14447.77
808.777	14484.15
809.107	14440.76
809.436	14374.78
809.766	14415.68
810.096	14347.21
810.426	14330.71
810.755	14327.32
811.085	14331.39
811.414	14324.84
811.744	14245.29
812.073	14145.18
812.403	14102.69
812.732	14158.29
813.061	14099.3
813.39	14086.65
813.719	14046.65
814.049	14102.02
814.378	13994.9
814.707	14015.69
815.036	14041.45
815.365	13914.9
815.693	13845.07
816.022	13819.76
816.351	13810.27
816.68	13674
817.008	13835.81
817.337	13660.67
817.665	13593.1
817.994	13711.07
818.322	13704.06
818.651	13587.45
818.979	13583.16
819.307	13662.48
819.636	13525.76
819.964	13508.59
820.292	13504.52
820.62	13569.6
820.948	13492.99
821.276	13557.17
821.604	13512.88
821.932	13555.14
822.259	13407.57
822.587	13527.34
822.915	13457.97
823.243	13573.22
823.57	13491.41
823.898	13505.87
824.225	13442.15
824.553	13398.08
824.88	13506.55
825.207	13577.96
825.535	13549.94
825.862	13443.95
826.189	13438.3
826.516	13552.65
826.843	13569.6
827.17	13559.43
827.497	13548.81
827.824	13502.48
828.151	13492.31
828.478	13509.04
828.805	13574.12
829.131	13416.84
829.458	13485.76
829.785	13434.24
830.111	13477.17
830.438	13569.15
830.764	13481.47
831.09	13581.58
831.417	13395.37
831.743	13441.69
832.069	13504.07
832.395	13462.03
832.722	13519.66
833.048	13440.34
833.374	13456.38
833.7	13321.7
834.026	13368.25
834.351	13459.1
834.677	13368.93
835.003	13424.52
835.329	13413.67
835.654	13364.18
835.98	13272.21
836.306	13298.65
836.631	13340
836.956	13290.29
837.282	13291.64
837.607	13212.1
837.932	13250.06
838.258	13274.24
838.583	13228.37
838.908	13114.7
839.233	13059.33
839.558	13151.08
839.883	13117.18
840.208	13034.7
840.533	13051.65
840.858	13050.52
841.182	13008.71
841.507	13078.99
841.832	12931.88
842.156	12898.88
842.481	12979.33
842.805	12871.31
843.13	12772.11
843.454	12837.87
843.778	12818.43
844.103	12760.36
844.427	12673.81
844.751	12749.06
845.075	12697.99
845.399	12658.89
845.723	12613.92
846.047	12627.25
846.371	12566.69
846.695	12480.59
847.019	12407.6
847.343	12371.89
847.666	12335.51
847.99	12310.88
848.313	12328.96
848.637	12140.03
848.96	12145.46
849.284	12076.08
849.607	12005.35
849.931	11987.04
850.254	12004.44
850.577	11851.91
850.9	11769.65
851.223	11852.81
851.546	11710.44
851.869	11643.78
852.192	11719.03
852.515	11624.12
852.838	11590.67
853.161	11538.02
853.483	11515.19
853.806	11426.15
854.129	11349.77
854.451	11333.95
854.774	11369.21
855.096	11288.76
855.419	11253.05
855.741	11270.9
856.063	11146.39
856.385	11175.99
856.708	11074.98
857.03	11086.05
857.352	11096.9
857.674	10999.27
857.996	11013.51
858.318	10934.64
858.64	10850.8
858.961	10931.03
859.283	10851.71
859.605	10799.28
859.926	10808.09
860.248	10744.36
860.57	10784.36
860.891	10713.4
861.212	10701.43
861.534	10697.13
861.855	10605.84
862.176	10607.19
862.498	10592.28
862.819	10607.87
863.14	10618.49
863.461	10592.5
863.782	10541.88
864.103	10471.83
864.424	10536.23
864.745	10499.85
865.065	10475.9
865.386	10442.68
865.707	10402.68
866.027	10351.15
866.348	10373.3
866.668	10358.16
866.989	10396.58
867.309	10321.78
867.63	10334.66
867.95	10319.06
868.27	10209.46
868.59	10237.49
868.91	10238.39
869.23	10260.31
869.55	10208.11
869.87	10253.53
870.19	10154.78
870.51	10228.22
870.83	10176.92
871.15	10101.22
871.469	10111.16
871.789	10079.75
872.109	10125.4
872.428	10110.93
872.748	10092.86
873.067	10045.4
873.386	10030.26
873.706	10070.03
874.025	9910.49
874.344	9988.9
874.663	9941.45
874.982	9916.82
875.301	9956.59
875.62	9930.15
875.939	9871.62
876.258	9868.91
876.577	9857.38
876.896	9869.81
877.214	9817.38
877.533	9821.9
877.852	9825.97
878.17	9845.4
878.489	9768.8
878.807	9780.1
879.125	9726.54
879.444	9720.66
879.762	9742.58
880.08	9734
880.398	9627.56
880.716	9633.89
881.034	9649.7
881.352	9638.86
881.67	9541.68
881.988	9646.31
882.306	9552.08
882.624	9470.05
882.941	9483.15
883.259	9433.44
883.577	9399.09
883.894	9454.68
884.212	9456.49
884.529	9455.36
884.846	9321.8
885.164	9361.58
885.481	9286.78
885.798	9361.35
886.115	9216.95
886.432	9307.57
886.75	9253.1
887.067	9247.45
887.383	9268.92
887.7	9191.41
888.017	9129.49
888.334	9140.56
888.651	9122.49
888.967	9126.33
889.284	9035.26
889.6	9033.22
889.917	8937.63
890.233	8906.67
890.55	8949.84
890.866	8953.9
891.182	8929.04
891.498	8931.08
891.815	8816.51
892.131	8892.89
892.447	8738.32
892.763	8795.49
893.079	8783.06
893.395	8734.25
893.71	8734.47
894.026	8712.33
894.342	8596.17
894.657	8616.96
894.973	8558.43
895.289	8634.82
895.604	8549.62
895.92	8548.49
896.235	8451.77
896.55	8444.31
896.865	8483.63
897.181	8358.89
897.496	8351.66
897.811	8331.09
898.126	8343.07
898.441	8329.96
898.756	8215.39
899.071	8185.56
899.386	8241.38
899.7	8178.56
900.015	8138.11
900.33	8003.42
900.644	8092.91
900.959	8102.17
901.273	7922.29
901.588	7974.95
901.902	7944.89
902.216	7894.72
902.531	7850.66
902.845	7846.59
903.159	7802.29
903.473	7782.86
903.787	7793.93
904.101	7748.74
904.415	7752.58
904.729	7702.18
905.042	7607.05
905.356	7598.46
905.67	7603.43
905.984	7595.52
906.297	7522.98
906.611	7496.54
906.924	7530.66
907.237	7422.87
907.551	7463.09
907.864	7369.54
908.177	7330.67
908.491	7342.19
908.804	7292.93
909.117	7312.36
909.43	7178.13
909.743	7153.05
910.056	7183.78
910.368	7137
910.681	7136.78
910.994	7127.74
911.307	7084.12
911.619	6993.28
911.932	7077.57
912.244	7026.72
912.557	6934.75
912.869	6886.84
913.181	6865.82
913.494	6939.27
913.806	6817.24
914.118	6768.42
914.43	6781.3
914.742	6725.94
915.054	6713.51
915.366	6721.87
915.678	6683
915.99	6676.22
916.302	6608.65
916.613	6571.37
916.925	6562.78
917.236	6551.25
917.548	6509.67
917.859	6483.91
918.171	6429.68
918.482	6420.86
918.794	6384.93
919.105	6421.09
919.416	6327.76
919.727	6264.71
920.038	6307.64
920.349	6247.53
920.66	6216.8
920.971	6240.98
921.282	6226.07
921.593	6129.12
921.903	6085.05
922.214	6160.98
922.525	6130.93
922.835	6062.91
923.146	6010.48
923.456	5994.43
923.767	5973.19
924.077	5965.06
924.387	5941.33
924.697	5923.25
925.008	5908.56
925.318	5873.53
925.628	5854.78
925.938	5826.75
926.248	5788.34
926.558	5709.69
926.867	5759.86
927.177	5733.87
927.487	5721.9
927.796	5677.38
928.106	5654.33
928.416	5644.61
928.725	5633.76
929.034	5604.84
929.344	5568.68
929.653	5569.59
929.962	5526.65
930.271	5520.77
930.581	5522.35
930.89	5415.69
931.199	5434.67
931.508	5426.99
931.817	5431.28
932.125	5421.79
932.434	5345.18
932.743	5309.25
933.051	5290.5
933.36	5299.76
933.669	5220.22
933.977	5205.53
934.286	5168.69
934.594	5230.84
934.902	5098.19
935.21	5143.38
935.519	5144.51
935.827	5086.21
936.135	5062.48
936.443	5026.77
936.751	5020
937.059	5018.19
937.367	5039.66
937.674	5027
937.982	5014.35
938.29	4939.55
938.597	4932.99
938.905	4911.3
939.213	4898.87
939.52	4857.74
939.827	4900
940.135	4815.03
940.442	4818.42
940.749	4781.36
941.056	4760.57
941.363	4745.43
941.67	4722.38
941.977	4683.73
942.284	4657.52
942.591	4627.92
942.898	4632.21
943.205	4662.26
943.511	4607.12
943.818	4576.62
944.125	4550.63
944.431	4565.54
944.738	4499.56
945.044	4486
945.35	4471.31
945.657	4453.68
945.963	4495.26
946.269	4428.15
946.575	4436.96
946.881	4396.96
947.187	4404.87
947.493	4364.87
947.799	4300.24
948.105	4313.35
948.41	4252.78
948.716	4271.99
949.022	4254.59
949.327	4217.76
949.633	4201.94
949.938	4246.46
950.244	4214.14
950.549	4154.48
950.854	4136.85
951.16	4145.89
951.465	4117.19
951.77	4105.22
952.075	4069.74
952.38	4079.23
952.685	4096.86
952.99	4021.38
953.294	4000.81
953.599	4013.24
953.904	4019.57
954.209	3954.03
954.513	3959.68
954.818	3918.33
955.122	3899.12
955.426	3907.93
955.731	3914.94
956.035	3872.68
956.339	3802.4
956.643	3846.69
956.948	3796.52
957.252	3781.61
957.556	3793.59
957.86	3800.59
958.163	3747.03
958.467	3740.03
958.771	3752.91
959.075	3742.29
959.378	3688.73
959.682	3677.21
959.985	3675.62
960.289	3630.2
960.592	3627.49
960.896	3631.33
961.199	3607.38
961.502	3570.99
961.805	3585.23
962.108	3540.03
962.411	3539.13
962.714	3494.39
963.017	3482.18
963.32	3513.59
963.623	3469.53
963.926	3469.75
964.228	3439.7
964.531	3403.31
964.833	3355.63
965.136	3356.54
965.438	3365.12
965.741	3320.38
966.043	3395.41
966.345	3338.46
966.648	3300.04
966.95	3339.36
967.252	3327.84
967.554	3317.89
967.856	3290.1
968.158	3215.75
968.46	3235.18
968.761	3224.34
969.063	3248.97
969.365	3164.22
969.666	3164.68
969.968	3164
970.269	3187.27
970.571	3166.26
970.872	3152.25
971.174	3129.65
971.475	3098.92
971.776	3095.07
972.077	3098.92
972.378	3097.79
972.679	3041.29
972.98	3048.97
973.281	3060.27
973.582	2991.12
973.883	3011.23
974.183	2995.42
974.484	2983.89
974.785	2976.21
975.085	2959.48
975.386	2922.65
975.686	2928.07
975.986	2914.74
976.287	2898.92
976.587	2896.66
976.887	2871.8
977.187	2860.28
977.487	2853.72
977.787	2868.41
978.087	2780.51
978.387	2836.32
978.687	2832.03
978.987	2776.21
979.286	2762.43
979.586	2786.61
979.885	2754.29
980.185	2752.03
980.484	2717.91
980.784	2722.88
981.083	2679.72
981.382	2725.14
981.682	2726.5
981.981	2670.9
982.28	2666.84
982.579	2655.76
982.878	2668.64
983.177	2607.63
983.475	2629.1
983.774	2554.3
984.073	2583
984.372	2566.95
984.67	2594.52
984.969	2508.65
985.267	2575.09
985.566	2552.04
985.864	2487.41
986.162	2513.62
986.461	2458.93
986.759	2508.42
987.057	2439.72
987.355	2458.93
987.653	2462.32
987.951	2413.06
988.249	2418.93
988.547	2448.99
988.844	2431.59
989.142	2357.24
989.44	2366.96
989.737	2350.69
990.035	2333.06
990.332	2354.3
990.63	2326.05
990.927	2340.52
991.224	2328.09
991.521	2301.65
991.819	2267.98
992.116	2326.73
992.413	2285.6
992.71	2270.24
993.006	2239.5
993.303	2249.67
993.6	2226.17
993.897	2205.15
994.193	2227.3
994.49	2186.62
994.787	2231.14
995.083	2195.44
995.379	2186.17
995.676	2148.43
995.972	2171.03
996.268	2142.33
996.565	2138.04
996.861	2140.52
997.157	2092.84
997.453	2081.54
997.749	2095.33
998.044	2084.48
998.34	2071.15
998.636	2088.09
998.932	2034.99
999.227	2034.31
999.523	2029.79
999.818	2013.75
1000.114	2006.97
1000.409	2007.19
1000.704	1963.13
1001	1955.89
1001.295	1962.67
1001.59	1950.02
1001.885	1974.2
1002.18	1927.65
1002.475	1906.86
1002.77	1931.26
1003.065	1922.22
1003.359	1897.59
1003.654	1873.64
1003.949	1867.99
1004.243	1896.01
1004.538	1876.8
1004.832	1845.39
1005.127	1817.82
1005.421	1823.02
1005.715	1804.49
1006.009	1863.47
1006.304	1824.6
1006.598	1765.17
1006.892	1798.38
1007.186	1769.46
1007.48	1731.04
1007.773	1738.95
1008.067	1754.09
1008.361	1726.3
1008.655	1705.51
1008.948	1715
1009.242	1691.72
1009.535	1701.21
1009.829	1686.07
1010.122	1669.8
1010.415	1647.88
1010.708	1682.91
1011.001	1643.36
1011.295	1597.26
1011.588	1592.74
1011.881	1610.37
1012.173	1609.24
1012.466	1602.23
1012.759	1604.72
1013.052	1562.46
1013.344	1555.23
1013.637	1542.57
1013.93	1560.88
1014.222	1523.36
1014.514	1566.53
1014.807	1545.51
1015.099	1537.6
1015.391	1531.5
1015.683	1497.6
1015.976	1490.82
1016.268	1487.43
1016.56	1470.48
1016.851	1452.18
1017.143	1421.9
1017.435	1445.63
1017.727	1431.39
1018.018	1404.5
1018.31	1417.83
1018.602	1407.21
1018.893	1382.12
1019.185	1389.13
1019.476	1385.06
1019.767	1388.9
1020.058	1365.63
1020.35	1367.89
1020.641	1341.67
1020.932	1349.13
1021.223	1340.09
1021.514	1315.01
1021.804	1328.11
1022.095	1328.79
1022.386	1285.18
1022.677	1273.43
1022.967	1259.64
1023.258	1256.25
1023.548	1311.62
1023.839	1281.79
1024.129	1231.62
1024.419	1225.07
1024.709	1230.49
1025	1218.74
1025.29	1209.25
1025.58	1208.34
1025.87	1199.08
1026.16	1205.41
1026.449	1183.71
1026.739	1166.99
1027.029	1160.44
1027.319	1144.16
1027.608	1160.44
1027.898	1184.16
1028.187	1151.85
1028.477	1139.42
1028.766	1133.54
1029.055	1122.7
1029.344	1111.4
1029.634	1093.77
1029.923	1129.25
1030.212	1117.72
1030.501	1094.45
1030.79	1068.23
1031.078	1084.96
1031.367	1056.94
1031.656	1056.26
1031.945	1062.13
1032.233	1038.86
1032.522	1070.95
1032.81	1051.06
1033.099	1035.02
1033.387	1016.71
1033.675	1020.78
1033.963	985.98
1034.251	1004.06
1034.54	1021.91
1034.828	987.33
1035.116	971.29
1035.403	973.32
1035.691	978.52
1035.979	942.81
1036.267	938.52
1036.554	948.24
1036.842	950.72
1037.129	937.39
1037.417	935.81
1037.704	937.39
1037.992	911.85
1038.279	903.72
1038.566	886.77
1038.853	886.77
1039.14	886.77
