Data from hue_150_FLMS001491_00083.txt Node
Date: Tue Feb 07 16:54:39 GMT 2017
User: dcchb
Spectrometer: FLMS00149
Trigger mode: 0
Integration Time (sec): 2.000000E-2
Scans to average: 10
Electric dark correction enabled: true
Nonlinearity correction enabled: false
Boxcar width: 0
XAxis mode: Wavelengths
Number of Pixels in Spectrum: 2048
>>>>>Begin Spectral Data<<<<<
341.393	-26.09
341.776	-26.09
342.16	-26.09
342.543	-74
342.927	-56.14
343.31	-45.52
343.693	-62.47
344.077	-56.14
344.46	-73.09
344.843	-75.35
345.226	-46.65
345.61	-34.45
345.993	-12.3
346.376	-2.81
346.759	17.75
347.142	22.27
347.525	55.49
347.908	54.81
348.291	63.63
348.674	91.2
349.057	103.63
349.44	126.45
349.823	158.77
350.206	151.76
350.588	215.04
350.971	211.87
351.354	229.95
351.737	233.79
352.119	232.89
352.502	266.56
352.884	264.75
353.267	274.47
353.65	286.9
354.032	296.62
354.414	315.15
354.797	311.76
355.179	331.42
355.562	325.99
355.944	329.38
356.326	314.02
356.709	345.43
357.091	345.2
357.473	367.8
357.855	350.63
358.238	365.77
358.62	338.2
359.002	343.39
359.384	327.35
359.766	357.41
360.148	349.5
360.53	334.13
360.912	358.76
361.294	334.58
361.676	328.93
362.057	340.23
362.439	329.16
362.821	313.57
363.203	338.88
363.584	339.78
363.966	315.37
364.348	333
364.729	334.58
365.111	349.27
365.493	329.84
365.874	320.34
366.256	326.45
366.637	319.67
367.019	303.85
367.4	332.55
367.781	311.31
368.163	323.28
368.544	344.98
368.925	318.08
369.306	315.83
369.688	315.83
370.069	328.25
370.45	316.73
370.831	310.4
371.212	314.47
371.593	312.66
371.974	325.54
372.355	328.03
372.736	314.92
373.117	335.03
373.498	322.15
373.879	313.11
374.26	317.86
374.641	308.82
375.021	326.45
375.402	338.65
375.783	325.54
376.163	316.95
376.544	346.11
376.925	331.42
377.305	333.9
377.686	344.52
378.066	352.66
378.447	330.51
378.827	334.81
379.208	347.46
379.588	335.03
379.968	335.71
380.349	343.17
380.729	341.59
381.109	349.72
381.489	371.42
381.87	336.16
382.25	337.52
382.63	350.17
383.01	343.62
383.39	351.3
383.77	344.75
384.15	359.67
384.53	356.05
384.91	345.88
385.29	344.75
385.67	344.52
386.049	343.62
386.429	368.25
386.809	355.82
387.189	354.47
387.568	359.44
387.948	357.86
388.328	380.91
388.707	371.19
389.087	371.64
389.466	367.35
389.846	371.64
390.225	350.17
390.605	371.87
390.984	361.02
391.363	368.48
391.743	389.72
392.122	384.07
392.501	391.53
392.881	396.95
393.26	398.31
393.639	394.92
394.018	395.6
394.397	399.44
394.776	371.87
395.155	404.41
395.534	380.91
395.913	372.09
396.292	387.46
396.671	390.17
397.05	419.33
397.429	404.18
397.808	408.48
398.186	386.33
398.565	393.79
398.944	409.38
399.323	410.96
399.701	420.46
400.08	407.35
400.458	398.08
400.837	419.33
401.215	404.86
401.594	415.48
401.972	414.13
402.351	417.52
402.729	410.96
403.107	414.35
403.486	412.77
403.864	440.57
404.242	443.96
404.62	451.19
404.999	437.18
405.377	430.85
405.755	444.64
406.133	432.66
406.511	411.64
406.889	449.15
407.267	442.38
407.645	450.74
408.023	468.59
408.401	467.46
408.779	473.34
409.156	453
409.534	452.09
409.912	464.75
410.29	469.27
410.667	480.79
411.045	492.09
411.422	494.58
411.8	485.99
412.178	489.15
412.555	486.89
412.933	505.2
413.31	503.62
413.687	508.81
414.065	506.78
414.442	500.23
414.819	484.63
415.197	507.46
415.574	509.49
415.951	515.82
416.328	518.76
416.705	507.23
417.082	535.03
417.46	542.03
417.837	545.42
418.214	539.1
418.591	547.68
418.967	540.23
419.344	557.4
419.721	542.71
420.098	553.78
420.475	569.6
420.852	560.34
421.228	543.84
421.605	585.65
421.982	543.84
422.358	566.89
422.735	590.85
423.111	580
423.488	595.82
423.864	606.66
424.241	612.77
424.617	622.26
424.994	615.93
425.37	615.25
425.746	604.41
426.123	615.7
426.499	637.17
426.875	614.8
427.251	636.95
427.627	636.04
428.003	653.9
428.379	653.44
428.756	662.93
429.132	671.52
429.507	675.59
429.883	677.17
430.259	677.17
430.635	687.34
431.011	686.21
431.387	673.78
431.763	689.15
432.138	709.04
432.514	707.45
432.89	710.16
433.265	734.12
433.641	721.01
434.016	723.72
434.392	763.5
434.767	765.76
435.143	745.19
435.518	760.56
435.894	779.77
436.269	785.19
436.644	796.94
437.02	800.11
437.395	787.68
437.77	816.15
438.145	789.71
438.52	815.02
438.895	838.3
439.271	841.91
439.646	845.3
440.021	845.08
440.395	880.56
440.77	840.33
441.145	859.77
441.52	889.6
441.895	875.36
442.27	891.18
442.645	888.47
443.019	905.64
443.394	904.96
443.769	888.69
444.143	904.74
444.518	912.65
444.892	914.45
445.267	934.11
445.641	933.89
446.016	941.12
446.39	936.83
446.764	943.38
447.139	952.64
447.513	958.29
447.887	973.89
448.262	951.74
448.636	947.9
449.01	999.2
449.384	1000.78
449.758	998.29
450.132	1016.15
450.506	1012.08
450.88	1033.32
451.254	1015.92
451.628	1026.54
452.002	1059.08
452.376	1050.72
452.75	1050.72
453.123	1094.11
453.497	1091.85
453.871	1077.84
454.244	1132.98
454.618	1083.26
454.992	1142.47
455.365	1138.18
455.739	1185.63
456.112	1193.32
456.486	1181.79
456.859	1208
457.232	1223.37
457.606	1196.93
457.979	1247.55
458.352	1248.91
458.725	1277.61
459.099	1270.15
459.472	1300.88
459.845	1325.52
460.218	1313.76
460.591	1341.79
460.964	1351.96
461.337	1369.58
461.71	1413.2
462.083	1394.21
462.456	1421.33
462.829	1433.08
463.201	1497.26
463.574	1470.37
463.947	1507.43
464.32	1498.84
464.692	1523.25
465.065	1526.87
465.438	1569.35
465.81	1606.41
466.183	1585.17
466.555	1654.77
466.928	1666.98
467.3	1683.92
467.672	1738.61
468.045	1746.75
468.417	1762.34
468.789	1774.54
469.161	1797.14
469.534	1825.16
469.906	1889.12
470.278	1915.56
470.65	1939.06
471.022	1999.85
471.394	2007.08
471.766	2055.21
472.138	2095.89
472.51	2130.69
472.882	2193.74
473.253	2224.02
473.625	2266.96
473.997	2317.13
474.369	2322.55
474.74	2385.83
475.112	2424.24
475.484	2472.83
475.855	2576.33
476.227	2549.21
476.598	2673.96
476.97	2717.34
477.341	2816.78
477.713	2864.01
478.084	2906.72
478.455	3009.54
478.827	3052.93
479.198	3186.71
479.569	3232.13
479.94	3283.43
480.311	3340.15
480.682	3471.67
481.053	3589.64
481.424	3672.35
481.795	3755.51
482.166	3874.6
482.537	3894.49
482.908	4064.88
483.279	4133.58
483.65	4228.26
484.021	4406.34
484.391	4424.87
484.762	4523.17
485.133	4619.44
485.503	4774.46
485.874	4852.43
486.244	4965.65
486.615	5162.93
486.985	5262.59
487.356	5351.85
487.726	5478.4
488.097	5630.49
488.467	5708.9
488.837	5872.29
489.207	6010.82
489.578	6134.88
489.948	6293.07
490.318	6371.03
490.688	6486.74
491.058	6602.44
491.428	6792.94
491.798	6953.16
492.168	7078.81
492.538	7201.29
492.908	7348.18
493.278	7495.98
493.648	7602.19
494.017	7698
494.387	7836.98
494.757	7981.84
495.126	8107.48
495.496	8195.17
495.866	8359
496.235	8431.77
496.605	8562.84
496.974	8653.01
497.344	8807.13
497.713	8873.11
498.082	9011.64
498.452	9144.07
498.821	9232.88
499.19	9276.72
499.559	9398.75
499.928	9520.1
500.298	9640.33
500.667	9750.83
501.036	9801.23
501.405	9879.42
501.774	9956.25
502.143	10122.57
502.512	10172.06
502.88	10311.95
503.249	10274.89
503.618	10349.23
503.987	10484.82
504.356	10574.76
504.724	10588.32
505.093	10656.12
505.462	10751.03
505.83	10856.79
506.199	10898.82
506.567	11087.75
506.936	11111.02
507.304	11149.21
507.672	11204.8
508.041	11302.43
508.409	11345.82
508.777	11487.96
509.145	11557.56
509.514	11609.99
509.882	11612.48
510.25	11660.61
510.618	11811.79
510.986	11755.52
511.354	11965.69
511.722	11991.45
512.09	12037.32
512.458	11999.36
512.826	12179.02
513.193	12207.94
513.561	12166.36
513.929	12283.87
514.297	12376.52
514.664	12437.54
515.032	12465.79
515.4	12557.76
515.767	12547.82
516.135	12643.41
516.502	12496.75
516.869	12708.49
517.237	12695.39
517.604	12603.19
517.972	12780.81
518.339	12857.87
518.706	12797.08
519.073	12859
519.44	12887.7
519.808	12978.77
520.175	12951.65
520.542	13126.11
520.909	13028.26
521.276	13075.04
521.643	13166.79
522.009	13149.84
522.376	13275.94
522.743	13265.99
523.11	13380.57
523.477	13397.06
523.843	13414.24
524.21	13507.79
524.577	13549.38
524.943	13560
525.31	13601.35
525.676	13660.33
526.043	13648.81
526.409	13609.71
526.776	13782.14
527.142	13797.96
527.508	13787.56
527.874	13816.94
528.241	13856.26
528.607	13799.99
528.973	13896.26
529.339	13869.82
529.705	13886.54
530.071	13942.59
530.437	13961.34
530.803	13917.05
531.169	13927.9
531.535	13909.59
531.901	13886.09
532.267	13926.54
532.632	13988.69
532.998	13942.36
533.364	13956.6
533.73	13952.3
534.095	13983.94
534.461	14001.11
534.826	13976.71
535.192	13905.52
535.557	13978.97
535.923	13912.76
536.288	13957.95
536.653	13876.37
537.019	13849.25
537.384	13830.5
537.749	13896.26
538.114	13775.13
538.479	13801.8
538.845	13768.8
539.21	13724.96
539.575	13679.77
539.94	13710.5
540.305	13691.74
540.67	13637.06
541.034	13638.64
541.399	13565.87
541.764	13639.99
542.129	13544.86
542.494	13548.7
542.858	13559.77
543.223	13507.12
543.587	13506.44
543.952	13421.24
544.316	13381.24
544.681	13403.84
545.045	13334.47
545.41	13369.04
545.774	13393.45
546.138	13312.09
546.503	13208.82
546.867	13113.68
547.231	13228.03
547.595	13186
547.959	13170.63
548.324	13236.39
548.688	13100.35
549.052	13058.54
549.416	13018.54
549.779	13027.58
550.143	13040.24
550.507	12969.5
550.871	13049.28
551.235	13006.79
551.599	13052.89
551.962	12965.66
552.326	12992.33
552.689	13045.89
553.053	12876.4
553.417	12894.03
553.78	12938.77
554.143	12882.5
554.507	12817.42
554.87	12830.3
555.234	12895.83
555.597	12837.76
555.96	12815.38
556.323	12739.23
556.686	12782.62
557.05	12834.37
557.413	12769.73
557.776	12844.31
558.139	12790.3
558.502	12793.46
558.865	12709.62
559.228	12793.69
559.59	12809.28
559.953	12727.25
560.316	12820.35
560.679	12778.55
561.041	12785.78
561.404	12780.81
561.767	12921.14
562.129	12755.05
562.492	12873.46
562.854	12887.7
563.217	12821.03
563.579	12845.67
563.941	12859.68
564.304	12883.86
564.666	12974.48
565.028	12946.45
565.39	12949.39
565.753	13001.82
566.115	13047.47
566.477	12981.93
566.839	12950.07
567.201	13027.58
567.563	12991.2
567.925	13129.5
568.287	13108.71
568.648	13076.17
569.01	13115.26
569.372	13221.93
569.734	13118.43
570.095	13208.59
570.457	13122.72
570.819	13106
571.18	13120.01
571.542	13159.56
571.903	13237.97
572.265	13204.53
572.626	13267.35
572.987	13250.63
573.349	13350.51
573.71	13310.06
574.071	13362.04
574.432	13289.5
574.794	13370.17
575.155	13414.24
575.516	13242.26
575.877	13345.54
576.238	13370.17
576.599	13392.09
576.96	13371.98
577.32	13349.83
577.681	13393.67
578.042	13442.94
578.403	13444.75
578.763	13370.17
579.124	13391.19
579.485	13444.29
579.845	13489.72
580.206	13457.63
580.566	13451.07
580.927	13444.07
581.287	13489.26
581.648	13390.51
582.008	13499.43
582.368	13417.85
582.728	13449.94
583.089	13440.68
583.449	13453.78
583.809	13471.41
584.169	13517.51
584.529	13415.82
584.889	13505.76
585.249	13439.55
585.609	13395.03
585.969	13384.41
586.329	13248.37
586.688	13365.88
587.048	13360.23
587.408	13357.29
587.768	13318.65
588.127	13256.05
588.487	13261.47
588.846	13316.61
589.206	13256.95
589.565	13272.32
589.925	13267.57
590.284	13237.52
590.643	13308.25
591.003	13219.44
591.362	13305.09
591.721	13343.05
592.08	13265.09
592.44	13243.85
592.799	13273.22
593.158	13258.08
593.517	13308.03
593.876	13325.43
594.235	13216.73
594.593	13240.91
594.952	13326.33
595.311	13198.2
595.67	13244.98
596.029	13316.84
596.387	13358.19
596.746	13327.69
597.104	13263.28
597.463	13271.87
597.822	13320.45
598.18	13218.08
598.538	13193.9
598.897	13276.16
599.255	13049.28
599.613	13317.07
599.972	13138.99
600.33	13117.52
600.688	13134.25
601.046	13275.71
601.404	13187.8
601.762	13194.81
602.12	13239.1
602.478	13260.34
602.836	13230.29
603.194	13161.59
603.552	13209.5
603.91	13161.14
604.268	13228.48
604.625	13200.01
604.983	13165.43
605.341	13140.8
605.698	13257.41
606.056	13258.76
606.413	13203.4
606.771	13209.5
607.128	13282.04
607.485	13234.13
607.843	13270.74
608.2	13307.57
608.557	13326.78
608.914	13273
609.272	13287.91
609.629	13294.92
609.986	13324.75
610.343	13246.78
610.7	13381.02
611.057	13395.93
611.414	13323.17
611.771	13362.71
612.127	13405.2
612.484	13487.46
612.841	13442.94
613.198	13412.88
613.554	13460.79
613.911	13506.66
614.267	13503.95
614.624	13457.17
614.98	13461.92
615.337	13543.95
615.693	13432.99
616.05	13461.92
616.406	13538.08
616.762	13501.47
617.118	13560
617.475	13491.75
617.831	13544.63
618.187	13543.5
618.543	13504.86
618.899	13610.62
619.255	13538.53
619.611	13624.63
619.967	13611.52
620.323	13719.09
620.678	13606.1
621.034	13606.77
621.39	13587.79
621.746	13596.83
622.101	13758.86
622.457	13638.41
622.812	13591.41
623.168	13708.24
623.523	13630.05
623.879	13677.28
624.234	13608.13
624.589	13597.51
624.945	13697.17
625.3	13659.88
625.655	13647.68
626.01	13558.19
626.365	13641.58
626.72	13582.37
627.075	13659.2
627.43	13546.21
627.785	13514.57
628.14	13583.95
628.495	13653.33
628.85	13514.8
629.205	13551.86
629.559	13675.7
629.914	13546.89
630.269	13591.41
630.623	13524.07
630.978	13522.26
631.332	13478.19
631.687	13543.05
632.041	13456.5
632.396	13437.29
632.75	13520.45
633.104	13489.04
633.459	13487
633.813	13340.34
634.167	13351.19
634.521	13361.58
634.875	13408.14
635.229	13374.46
635.583	13364.52
635.937	13326.33
636.291	13269.16
636.645	13266.67
636.999	13297.63
637.352	13338.53
637.706	13265.99
638.06	13303.73
638.413	13203.4
638.767	13136.5
639.121	13217.86
639.474	13150.29
639.828	13101.25
640.181	13154.58
640.534	13140.35
640.888	13137.18
641.241	13073.91
641.594	13064.64
641.947	13136.73
642.301	13099.9
642.654	13100.12
643.007	13150.06
643.36	13080.01
643.713	13002.95
644.066	13073
644.419	13045.21
644.771	12944.87
645.124	12908.26
645.477	12880.69
645.83	12790.3
646.182	12633.69
646.535	12660.13
646.888	12630.98
647.24	12567.93
647.593	12628.72
647.945	12597.99
648.298	12557.31
648.65	12535.84
649.002	12572.9
649.355	12590.08
649.707	12555.5
650.059	12691.32
650.411	12825.55
650.763	12793.01
651.115	12977.19
651.467	12899.45
651.819	12805.67
652.171	12807.7
652.523	12827.36
652.875	12876.62
653.227	12814.03
653.578	12960.01
653.93	12915.95
654.282	12710.98
654.633	12708.95
654.985	12793.46
655.337	12772.67
655.688	12787.81
656.039	12820.58
656.391	12735.16
656.742	12718.44
657.094	12742.84
657.445	12806.12
657.796	12790.07
658.147	12780.58
658.498	12747.81
658.849	12780.36
659.2	12778.55
659.551	12797.3
659.902	12810.86
660.253	12784.42
660.604	12788.72
660.955	12755.72
661.306	12810.19
661.656	12702.84
662.007	12813.12
662.358	12805.67
662.708	12809.06
663.059	12787.59
663.409	12748.27
663.76	12839.79
664.11	12790.98
664.461	12896.06
664.811	12928.83
665.161	12848.38
665.511	12746.46
665.862	12888.83
666.212	12898.55
666.562	12872.11
666.912	12826.46
667.262	12807.93
667.612	12801.6
667.962	12840.69
668.312	12802.73
668.662	12843.86
669.011	12800.47
669.361	12812.22
669.711	12830.3
670.06	12789.62
670.41	12743.07
670.76	12821.94
671.109	12787.36
671.459	12805.89
671.808	12766.8
672.157	12791.43
672.507	12687.93
672.856	12728.61
673.205	12764.76
673.554	12883.86
673.904	12698.32
674.253	12795.04
674.602	12746.23
674.951	12575.62
675.3	12495.39
675.649	12634.82
675.998	12650.19
676.346	12667.82
676.695	12710.08
677.044	12578.55
677.393	12615.16
677.741	12632.79
678.09	12580.36
678.438	12564.32
678.787	12628.27
679.135	12548.72
679.484	12480.48
679.832	12624.2
680.181	12491.32
680.529	12507.37
680.877	12439.8
681.225	12409.74
681.573	12487.71
681.922	12393.7
682.27	12408.84
682.618	12426.02
682.966	12308.73
683.314	12294.49
683.661	12334.94
684.009	12251.56
684.357	12214.5
684.705	12229.86
685.053	12262.86
685.4	12198
685.748	12077.32
686.095	12067.61
686.443	12051.56
686.79	12023.99
687.138	12052.24
687.485	12112.13
687.832	12006.37
688.18	12043.65
688.527	11893.37
688.874	11906.25
689.221	11858.8
689.568	11815.64
689.915	11808.86
690.262	11768.86
690.609	11792.13
690.956	11714.4
691.303	11798.69
691.65	11656.77
691.997	11699.93
692.344	11611.57
692.69	11611.8
693.037	11570.44
693.383	11448.41
693.73	11495.19
694.077	11409.77
694.423	11370
694.769	11332.03
695.116	11306.72
695.462	11293.62
695.808	11214.97
696.155	11291.36
696.501	11258.59
696.847	11179.27
697.193	11032.38
697.539	11062.89
697.885	11021.53
698.231	10961.87
698.577	10945.6
698.923	10977.24
699.269	10811.59
699.614	10800.52
699.96	10696.57
700.306	10841.42
700.651	10690.92
700.997	10617.02
701.342	10734.99
701.688	10720.75
702.033	10544.48
702.379	10509
702.724	10508.55
703.069	10584.93
703.415	10419.51
703.76	10397.37
704.105	10457.71
704.45	10383.81
704.795	10324.6
705.14	10246.41
705.485	10297.48
705.83	10171.84
706.175	10177.94
706.52	10153.76
706.865	10145.4
707.209	10104.95
707.554	10029.47
707.899	10034.44
708.243	10088
708.588	10025.85
708.932	9958.28
709.277	9920.09
709.621	9937.04
709.966	9853.2
710.31	9906.31
710.654	9862.92
710.998	9821.56
711.342	9844.61
711.687	9772.53
712.031	9801.68
712.375	9737.5
712.719	9692.08
713.063	9694.56
713.407	9766.88
713.75	9649.14
714.094	9615.02
714.438	9624.28
714.782	9561.01
715.125	9525.07
715.469	9620.67
715.812	9538.41
716.156	9530.5
716.499	9492.31
716.843	9528.46
717.186	9396.94
717.53	9479.65
717.873	9472.87
718.216	9425.19
718.559	9359.2
718.902	9346.77
719.246	9363.72
719.589	9295.48
719.932	9261.58
720.275	9277.85
720.617	9313.1
720.96	9306.32
721.303	9314.46
721.646	9303.61
721.989	9236.49
722.331	9296.38
722.674	9268.81
723.016	9207.79
723.359	9184.29
723.701	9189.72
724.044	9109.72
724.386	9086.67
724.729	9143.39
725.071	9145.42
725.413	9133.67
725.755	9156.04
726.097	9078.76
726.439	9030.62
726.782	9107.01
727.124	9094.35
727.465	8993.34
727.807	9056.39
728.149	9012.55
728.491	9027.91
728.833	8998.08
729.175	8991.3
729.516	9024.07
729.858	9022.94
730.199	9011.19
730.541	9053.45
730.882	8942.49
731.224	8997.63
731.565	8920.8
731.906	8985.43
732.248	8969.38
732.589	8945.65
732.93	8981.36
733.271	8942.04
733.612	8964.86
733.953	8978.65
734.294	8939.55
734.635	8972.55
734.976	8907.92
735.317	8898.2
735.658	8909.5
735.999	8915.6
736.339	8944.75
736.68	8995.37
737.021	8988.37
737.361	8984.07
737.702	8973.22
738.042	9028.36
738.383	8975.94
738.723	9005.31
739.063	8996.05
739.404	8981.36
739.744	8972.55
740.084	8946.56
740.424	8983.62
740.764	8953.56
741.104	9008.25
741.444	8962.83
741.784	8965.32
742.124	9074.46
742.464	9078.76
742.804	9083.73
743.143	9055.26
743.483	9125.99
743.823	9101.58
744.162	9177.06
744.502	9165.31
744.841	9216.38
745.181	9262.93
745.52	9168.25
745.86	9307.23
746.199	9276.04
746.538	9356.27
746.877	9379.99
747.216	9423.16
747.556	9430.39
747.895	9516.49
748.234	9459.54
748.573	9537.96
748.911	9637.16
749.25	9690.95
749.589	9668.57
749.928	9783.82
750.267	9810.26
750.605	9896.36
750.944	9951.05
751.283	10045.51
751.621	10169.8
751.96	10219.75
752.298	10325.96
752.636	10402.34
752.975	10421.55
753.313	10464.71
753.651	10635.1
753.989	10681.2
754.327	10720.98
754.666	10847.75
755.004	10984.02
755.342	11097.01
755.679	11167.74
756.017	11169.32
756.355	11534.51
756.693	11471.69
757.031	11727.05
757.368	11827.16
757.706	11883.88
758.044	12021.28
758.381	12203.42
758.719	12315.28
759.056	12477.77
759.394	12588.72
759.731	12667.82
760.068	12772.22
760.405	12999.11
760.743	13110.52
761.08	13298.99
761.417	13430.73
761.754	13624.4
762.091	13736.26
762.428	13831.4
762.765	14006.76
763.102	14249.02
763.438	14271.62
763.775	14420.31
764.112	14686.29
764.449	14791.38
764.785	14960.64
765.122	15065.72
765.458	15129.9
765.795	15297.35
766.131	15538.25
766.467	15571.92
766.804	15686.04
767.14	15781.18
767.476	15946.37
767.812	16016.66
768.148	16155.18
768.485	16257.78
768.821	16323.09
769.157	16515.17
769.492	16539.81
769.828	16876.97
770.164	16789.97
770.5	16915.84
770.836	17079.68
771.171	17047.59
771.507	17207.81
771.842	17291.65
772.178	17407.13
772.513	17497.97
772.849	17530.74
773.184	17524.41
773.519	17617.74
773.855	17674.92
774.19	17750.85
774.525	17720.79
774.86	17904.74
775.195	17972.08
775.53	17978.41
775.865	17968.69
776.2	17883.72
776.535	17894.8
776.87	18095.24
777.205	18120.78
777.539	18031.52
777.874	18156.71
778.209	18111.29
778.543	18267.9
778.878	18088.92
779.212	18280.55
779.547	18186.32
779.881	18317.61
780.215	18214.56
780.55	18344.96
780.884	18290.04
781.218	18338.85
781.552	18424.73
781.886	18253.88
782.22	18231.51
782.554	18317.39
782.888	18189.71
783.222	18205.75
783.556	18193.1
783.889	18208.24
784.223	18051.86
784.557	18133.44
784.89	18171.85
785.224	18163.04
785.557	18084.85
785.891	18083.04
786.224	18043.72
786.558	18041.23
786.891	17959.43
787.224	17922.59
787.557	17932.54
787.891	17914.01
788.224	17890.96
788.557	18065.41
788.89	17948.13
789.223	17851.64
789.556	17825.2
789.888	17724.41
790.221	17819.55
790.554	17736.38
790.887	17719.66
791.219	17630.62
791.552	17651.64
791.884	17602.15
792.217	17601.47
792.549	17514.92
792.882	17361.03
793.214	17455.04
793.546	17441.25
793.879	17394.92
794.211	17306.79
794.543	17394.25
794.875	17217.3
795.207	17350.18
795.539	17197.64
795.871	17231.09
796.203	17134.59
796.535	16979.34
796.867	17014.82
797.198	17015.5
797.53	17013.69
797.862	16891.89
798.193	16916.29
798.525	16882.62
798.856	16918.55
799.188	16728.05
799.519	16693.47
799.85	16521.27
800.182	16696.19
800.513	16631.78
800.844	16510.65
801.175	16624.1
801.506	16598.33
801.837	16446.47
802.168	16461.84
802.499	16389.07
802.83	16325.35
803.161	16301.17
803.491	16247.61
803.822	16309.53
804.153	16207.61
804.483	16119.93
804.814	16019.37
805.145	16056.88
805.475	16024.56
805.805	15932.59
806.136	16015.3
806.466	15991.57
806.796	15875.42
807.126	15763.1
807.457	15817.11
807.787	15799.94
808.117	15634.52
808.447	15662.54
808.777	15641.52
809.107	15589.55
809.436	15561.98
809.766	15646.04
810.096	15486.5
810.426	15474.07
810.755	15551.13
811.085	15451.7
811.414	15445.82
811.744	15365.6
812.073	15331.02
812.403	15341.64
812.732	15257.81
813.061	15336
813.39	15126.74
813.719	15182.33
814.049	15238.14
814.378	15129.9
814.707	15085.61
815.036	15110.01
815.365	15049.22
815.693	14964.93
816.022	14938.49
816.351	14936.68
816.68	14869.34
817.008	14895.33
817.337	14690.59
817.665	14750.93
817.994	14729.91
818.322	14805.39
818.651	14682.68
818.979	14646.07
819.307	14677.03
819.636	14702.11
819.964	14598.16
820.292	14607.43
820.62	14677.26
820.948	14504.83
821.276	14628.44
821.604	14575.34
821.932	14488.56
822.259	14618.95
822.587	14636.13
822.915	14559.07
823.243	14629.8
823.57	14542.34
823.898	14526.3
824.225	14470.71
824.553	14544.83
824.88	14510.71
825.207	14521.1
825.535	14512.51
825.862	14593.87
826.189	14472.51
826.516	14637.26
826.843	14565.39
827.17	14491.72
827.497	14531.5
827.824	14535.56
828.151	14637.48
828.478	14501.44
828.805	14677.71
829.131	14494.44
829.458	14470.93
829.785	14398.84
830.111	14563.13
830.438	14592.51
830.764	14549.8
831.09	14572.85
831.417	14514.32
831.743	14629.8
832.069	14538.5
832.395	14519.07
832.722	14552.06
833.048	14460.54
833.374	14454.44
833.7	14433.42
834.026	14460.99
834.351	14502.34
834.677	14467.32
835.003	14453.76
835.329	14454.89
835.654	14454.89
835.98	14375.79
836.306	14423.7
836.631	14306.64
836.956	14411.73
837.282	14358.39
837.607	14316.36
837.932	14229.13
838.258	14327.89
838.583	14225.52
838.908	14231.39
839.233	14230.04
839.558	14158.85
839.883	14134.67
840.208	14079.3
840.533	14007.22
840.858	14097.38
841.182	14076.82
841.507	14052.41
841.832	13952.08
842.156	13997.73
842.481	13981.45
842.805	13899.42
843.13	13915.69
843.454	13843.6
843.778	13805.64
844.103	13734.91
844.427	13728.13
844.751	13714.57
845.075	13764.51
845.399	13708.69
845.723	13623.5
846.047	13705.3
846.371	13440.23
846.695	13422.6
847.019	13289.95
847.343	13316.39
847.666	13240
847.99	13257.18
848.313	13183.06
848.637	13067.13
848.96	13112.1
849.284	13034.59
849.607	13031.42
849.931	12960.69
850.254	12836.85
850.577	12786.91
850.9	12716.18
851.223	12742.62
851.546	12646.57
851.869	12554.83
852.192	12656.07
852.515	12424.43
852.838	12460.82
853.161	12462.85
853.483	12363.87
853.806	12384.89
854.129	12239.13
854.451	12191.22
854.774	12265.34
855.096	12179.69
855.419	12164.55
855.741	12099.24
856.063	12001.39
856.385	12020.6
856.708	11999.13
857.03	11956.2
857.352	11953.71
857.674	11900.61
857.996	11905.12
858.318	11798.69
858.64	11798.23
858.961	11713.49
859.283	11678.92
859.605	11659.03
859.926	11755.98
860.248	11675.3
860.57	11604.12
860.891	11579.71
861.212	11591.46
861.534	11558.47
861.855	11526.6
862.176	11411.8
862.498	11511.01
862.819	11478.7
863.14	11419.04
863.461	11357.12
863.782	11384.69
864.103	11289.1
864.424	11228.53
864.745	11273.28
865.065	11293.62
865.386	11230.79
865.707	11223.79
866.027	11234.41
866.348	11187.86
866.668	11158.03
866.989	11102.43
867.309	11159.38
867.63	11076.9
867.95	11114.19
868.27	11036.22
868.59	10998.48
868.91	11069.21
869.23	11001.87
869.55	10968.65
869.87	11076.67
870.19	10989.44
870.51	10942.66
870.83	10967.3
871.15	10840.52
871.469	10884.36
871.789	10888.88
872.109	10906.28
872.428	10902.67
872.748	10897.47
873.067	10792.84
873.386	10841.2
873.706	10741.99
874.025	10767.98
874.344	10723.23
874.663	10756
874.982	10695.21
875.301	10680.98
875.62	10683.69
875.939	10664.71
876.258	10659.96
876.577	10586.29
876.896	10613.18
877.214	10625.38
877.533	10572.5
877.852	10494.09
878.17	10478.95
878.489	10532.05
878.807	10546.29
879.125	10526.4
879.444	10503.35
879.762	10394.2
880.08	10476.01
880.398	10337.26
880.716	10449.34
881.034	10347.65
881.352	10351.27
881.67	10395.56
881.988	10333.64
882.306	10302.68
882.624	10287.99
882.941	10185.62
883.259	10205.51
883.577	10229.46
883.894	10151.95
884.212	10174.32
884.529	10125.06
884.846	10120.99
885.164	10080.54
885.481	10009.36
885.798	10064.95
886.115	9930.49
886.432	10053.2
886.75	9932.07
887.067	9986.31
887.383	9877.38
887.7	9966.19
888.017	9799.87
888.334	9925.06
888.651	9799.87
888.967	9790.83
889.284	9771.62
889.6	9778.18
889.917	9730.49
890.233	9709.02
890.55	9556.03
890.866	9650.04
891.182	9671.96
891.498	9610.5
891.815	9574.11
892.131	9516.71
892.447	9546.77
892.763	9422.93
893.079	9446.43
893.395	9464.51
893.71	9353.33
894.026	9364.4
894.342	9310.84
894.657	9278.98
894.973	9222.48
895.289	9271.75
895.604	9250.28
895.92	9132.32
896.235	9104.52
896.55	9067.23
896.865	9095.03
897.181	9017.29
897.496	9036.73
897.811	8997.63
898.126	8925.77
898.441	8942.72
898.756	8820.91
899.071	8848.26
899.386	8896.39
899.7	8822.04
900.015	8748.82
900.33	8704.31
900.644	8645.55
900.959	8638.54
901.273	8589.05
901.588	8580.69
901.902	8534.82
902.216	8515.61
902.531	8491.2
902.845	8507.93
903.159	8453.92
903.473	8389.74
903.787	8399.45
904.101	8316.07
904.415	8287.82
904.729	8273.36
905.042	8266.12
905.356	8218.44
905.67	8185.9
905.984	8175.73
906.297	8121.95
906.611	8119.24
906.924	8079.24
907.237	8018.22
907.551	8023.42
907.864	8021.39
908.177	7916.53
908.491	7970.99
908.804	7836.76
909.117	7782.52
909.43	7799.02
909.743	7672.24
910.056	7736.42
910.368	7704.33
910.681	7701.39
910.994	7637.21
911.307	7665.91
911.619	7528.74
911.932	7553.83
912.244	7551.12
912.557	7402.87
912.869	7485.81
913.181	7376.2
913.494	7333.72
913.806	7358.13
914.118	7255.08
914.43	7244.46
914.742	7231.35
915.054	7215.08
915.366	7150.9
915.678	7240.16
915.99	7158.81
916.302	7069.32
916.613	7039.26
916.925	7039.26
917.236	7047.17
917.548	6956.33
917.859	7058.02
918.171	6935.76
918.482	6885.6
918.794	6896.67
919.105	6900.96
919.416	6795.88
919.727	6824.35
920.038	6797.46
920.349	6763.57
920.66	6766.95
920.971	6675.43
921.282	6695.09
921.593	6657.13
921.903	6631.82
922.214	6601.31
922.525	6604.7
922.835	6556.79
923.146	6495.32
923.456	6486.74
923.767	6491.71
924.077	6482.89
924.387	6383.24
924.697	6384.59
925.008	6391.37
925.318	6349.79
925.628	6363.58
925.938	6317.48
926.248	6217.36
926.558	6263.69
926.867	6187.76
927.177	6171.26
927.487	6169.68
927.796	6127.65
928.106	6144.15
928.416	6091.04
928.725	6138.27
929.034	6018.05
929.344	5980.31
929.653	6014.21
929.962	5973.3
930.271	5950.93
930.581	5864.61
930.89	5846.75
931.199	5863.7
931.508	5873.19
931.817	5793.42
932.125	5754.78
932.434	5744.61
932.743	5708.9
933.051	5748
933.36	5643.14
933.669	5690.6
933.977	5637.72
934.286	5676.59
934.594	5616.48
934.902	5517.5
935.21	5529.25
935.519	5527.67
935.827	5539.64
936.135	5484.95
936.443	5469.36
936.751	5403.15
937.059	5421.68
937.367	5441.11
937.674	5380.55
937.982	5427.56
938.29	5328.57
938.597	5350.27
938.905	5287.45
939.213	5266.43
939.52	5216.94
939.827	5201.12
940.135	5163.83
940.442	5162.93
940.749	5146.43
941.056	5143.72
941.363	5077.28
941.67	5014.01
941.977	5116.6
942.284	5017.85
942.591	5028.47
942.898	4973.78
943.205	4979.66
943.511	4921.81
943.818	4911.86
944.125	4880.9
944.431	4888.81
944.738	4886.1
945.044	4815.14
945.35	4840.45
945.657	4757.74
945.963	4821.7
946.269	4765.88
946.575	4725.65
946.881	4699.89
947.187	4688.82
947.493	4721.13
947.799	4655.82
948.105	4633.68
948.41	4627.12
948.716	4621.7
949.022	4620.12
949.327	4609.5
949.633	4513.68
949.938	4552.32
950.244	4528.6
950.549	4456.73
950.854	4448.37
951.16	4466.22
951.465	4421.93
951.77	4392.78
952.075	4363.18
952.38	4371.76
952.685	4381.93
952.99	4342.84
953.294	4342.84
953.599	4328.6
953.904	4295.61
954.209	4260.13
954.513	4216.51
954.818	4242.5
955.122	4207.7
955.426	4168.61
955.731	4179.23
956.035	4165.22
956.339	4138.55
956.643	4158.89
956.948	4102.39
957.252	4086.57
957.556	4100.58
957.86	4007.48
958.163	4035.5
958.467	4045.44
958.771	3993.47
959.075	4004.32
959.378	3985.79
959.682	3937.88
959.985	3912.57
960.289	3906.24
960.592	3890.65
960.896	3862.85
961.199	3869.18
961.502	3884.32
961.805	3850.2
962.108	3828.05
962.411	3835.73
962.714	3772.01
963.017	3777.2
963.32	3789.18
963.623	3768.84
963.926	3697.88
964.228	3725.9
964.531	3657.66
964.833	3672.12
965.136	3641.39
965.438	3653.14
965.741	3581.28
966.043	3607.49
966.345	3596.19
966.648	3571.33
966.95	3561.39
967.252	3525.01
967.554	3519.36
967.856	3513.03
968.158	3499.92
968.46	3502.18
968.761	3503.99
969.063	3462.63
969.365	3412.24
969.666	3419.25
969.968	3411.79
970.269	3388.29
970.571	3375.86
970.872	3382.41
971.174	3341.73
971.475	3325.01
971.776	3282.53
972.077	3303.32
972.378	3297.89
972.679	3311
972.98	3267.16
973.281	3236.88
973.582	3231.91
973.883	3214.51
974.183	3206.6
974.484	3246.37
974.785	3167.5
975.085	3181.29
975.386	3187.61
975.686	3171.57
975.986	3135.64
976.287	3088.41
976.587	3080.27
976.887	3092.25
977.187	3023.55
977.487	3060.61
977.787	3056.54
978.087	3048.63
978.387	3000.95
978.687	3025.81
978.987	2969.77
979.286	2986.94
979.586	2960.28
979.885	2952.14
980.185	2928.64
980.484	2903.1
980.784	2911.01
981.083	2908.3
981.382	2864.91
981.682	2868.07
981.981	2870.79
982.28	2856.32
982.579	2807.51
982.878	2819.04
983.177	2792.6
983.475	2781.3
983.774	2760.73
984.073	2781.97
984.372	2753.28
984.67	2759.83
984.969	2712.15
985.267	2722.54
985.566	2711.92
985.864	2695.88
986.162	2724.8
986.461	2680.06
986.759	2653.39
987.057	2660.85
987.355	2648.87
987.653	2619.49
987.951	2633.73
988.249	2614.52
988.547	2604.58
988.844	2605.48
989.142	2572.94
989.44	2526.61
989.737	2565.71
990.035	2531.36
990.332	2525.03
990.63	2518.93
990.927	2482.1
991.224	2510.57
991.521	2500.85
991.819	2461.76
992.116	2427.86
992.413	2448.2
992.71	2440.97
993.006	2407.3
993.303	2416.56
993.6	2381.99
993.897	2372.72
994.193	2403.45
994.49	2360.97
994.787	2350.57
995.083	2359.61
995.379	2351.25
995.676	2331.59
995.972	2340.86
996.268	2301.76
996.565	2277.36
996.861	2251.82
997.157	2263.57
997.453	2247.53
997.749	2241.2
998.044	2212.27
998.34	2216.79
998.636	2186.96
998.932	2191.71
999.227	2171.14
999.523	2177.7
999.818	2176.57
1000.114	2137.92
1000.409	2150.58
1000.704	2117.81
1001	2068.77
1001.295	2103.35
1001.59	2066.29
1001.885	2081.43
1002.18	2068.1
1002.475	2028.1
1002.77	2039.4
1003.065	2007.53
1003.359	2010.24
1003.654	2022.67
1003.949	2027.42
1004.243	2016.8
1004.538	1971.15
1004.832	1936.57
1005.127	1961.43
1005.421	1937.7
1005.715	1908.55
1006.009	1920.08
1006.304	1907.42
1006.598	1909.68
1006.892	1896.35
1007.186	1880.08
1007.48	1861.1
1007.773	1857.25
1008.067	1840.76
1008.361	1841.21
1008.655	1810.93
1008.948	1834.2
1009.242	1811.83
1009.535	1805.96
1009.829	1786.29
1010.122	1777.93
1010.415	1747.2
1010.708	1775
1011.001	1771.15
1011.295	1753.08
1011.588	1742.45
1011.881	1702.46
1012.173	1708.33
1012.466	1694.55
1012.759	1683.47
1013.052	1687.31
1013.344	1671.04
1013.637	1638.95
1013.93	1628.11
1014.222	1633.53
1014.514	1612.51
1014.807	1617.49
1015.099	1607.77
1015.391	1626.75
1015.683	1622.46
1015.976	1602.57
1016.268	1554.21
1016.56	1571.84
1016.851	1538.39
1017.143	1538.39
1017.435	1512.63
1017.727	1516.7
1018.018	1522.12
1018.31	1519.86
1018.602	1477.83
1018.893	1497.71
1019.185	1490.48
1019.476	1486.19
1019.767	1440.32
1020.058	1423.82
1020.35	1398.73
1020.641	1421.78
1020.932	1412.52
1021.223	1398.96
1021.514	1394.21
1021.804	1401.22
1022.095	1407.32
1022.386	1394.44
1022.677	1349.7
1022.967	1363.48
1023.258	1324.61
1023.548	1369.81
1023.839	1342.24
1024.129	1350.83
1024.419	1312.41
1024.709	1320.54
1025	1294.78
1025.29	1291.62
1025.58	1273.99
1025.87	1277.83
1026.16	1255.91
1026.449	1270.15
1026.739	1259.3
1027.029	1239.64
1027.319	1245.97
1027.608	1207.33
1027.898	1210.72
1028.187	1231.06
1028.477	1202.81
1028.766	1218.17
1029.055	1184.5
1029.344	1197.61
1029.634	1171.17
1029.923	1131.4
1030.212	1171.85
1030.501	1136.59
1030.79	1149.25
1031.078	1140.21
1031.367	1125.75
1031.656	1148.8
1031.945	1137.05
1032.233	1110.61
1032.522	1114.9
1032.81	1116.03
1033.099	1088.23
1033.387	1071.96
1033.675	1062.7
1033.963	1045.3
1034.251	1074.22
1034.54	1043.94
1034.828	1035.35
1035.116	1029.7
1035.403	1037.16
1035.691	1055.01
1035.979	1015.02
1036.267	1023.83
1036.554	993.77
1036.842	994
1037.129	991.29
1037.417	980.21
1037.704	969.37
1037.992	982.02
1038.279	963.49
1038.566	975.92
1038.853	975.92
1039.14	975.92
