Data from hue_32_FLMS001491_00014.txt Node
Date: Tue Feb 07 17:22:58 GMT 2017
User: dcchb
Spectrometer: FLMS00149
Trigger mode: 0
Integration Time (sec): 2.000000E-2
Scans to average: 10
Electric dark correction enabled: true
Nonlinearity correction enabled: false
Boxcar width: 0
XAxis mode: Wavelengths
Number of Pixels in Spectrum: 2048
>>>>>Begin Spectral Data<<<<<
341.393	-12.29
341.776	-12.29
342.16	-12.29
342.543	-53.42
342.927	-64.94
343.31	-63.81
343.693	-51.61
344.077	-55.22
344.46	-64.26
344.843	-58.84
345.226	-36.92
345.61	-41.44
345.993	-24.26
346.376	-27.2
346.759	-18.39
347.142	27.49
347.525	32.91
347.908	73.36
348.291	88.27
348.674	99.35
349.057	120.59
349.44	116.07
349.823	165.56
350.206	191.1
350.588	215.5
350.971	216.63
351.354	223.86
351.737	217.54
352.119	242.85
352.502	266.12
352.884	272.68
353.267	302.05
353.65	316.29
354.032	290.98
354.414	320.81
354.797	328.04
355.179	332.79
355.562	326.69
355.944	321.04
356.326	324.65
356.709	348.83
357.091	368.49
357.473	358.32
357.855	333.01
358.238	335.73
358.62	355.84
359.002	334.14
359.384	340.47
359.766	339.79
360.148	328.95
360.53	353.58
360.912	349.28
361.294	355.39
361.676	335.5
362.057	318.78
362.439	338.89
362.821	335.27
363.203	339.57
363.584	338.44
363.966	326.01
364.348	323.97
364.729	339.57
365.111	325.1
365.493	330.98
365.874	338.89
366.256	312.9
366.637	302.73
367.019	333.47
367.4	334.37
367.781	311.32
368.163	305.9
368.544	299.57
368.925	301.15
369.306	319.68
369.688	326.69
370.069	297.08
370.45	309.06
370.831	309.06
371.212	330.3
371.593	302.96
371.974	321.04
372.355	321.26
372.736	325.33
373.117	315.84
373.498	309.29
373.879	319.91
374.26	344.76
374.641	319.23
375.021	336.18
375.402	327.82
375.783	338.89
376.163	313.35
376.544	349.51
376.925	300.25
377.305	305.9
377.686	331.21
378.066	328.27
378.447	330.08
378.827	343.86
379.208	333.24
379.588	309.96
379.968	349.74
380.349	353.35
380.729	336.4
381.109	344.76
381.489	372.79
381.87	331.21
382.25	366.23
382.63	348.61
383.01	345.44
383.39	337.31
383.77	349.74
384.15	346.57
384.53	333.01
384.91	340.02
385.29	339.34
385.67	354.26
386.049	363.3
386.429	349.51
386.809	371.43
387.189	343.64
387.568	353.58
387.948	360.13
388.328	350.87
388.707	369.62
389.087	363.3
389.466	378.89
389.846	366.23
390.225	355.16
390.605	379.57
390.984	375.05
391.363	376.85
391.743	350.87
392.122	385.44
392.501	361.04
392.881	364.2
393.26	370.98
393.639	380.7
394.018	383.41
394.397	402.62
394.776	371.88
395.155	363.07
395.534	380.47
395.913	404.2
396.292	397.42
396.671	383.41
397.05	383.18
397.429	386.12
397.808	402.39
398.186	401.26
398.565	396.51
398.944	404.42
399.323	389.06
399.701	395.16
400.08	387.7
400.458	401.49
400.837	415.95
401.215	421.6
401.594	412.79
401.972	394.48
402.351	408.49
402.729	391.54
403.107	422.95
403.486	435.38
403.864	434.03
404.242	421.15
404.62	436.74
404.999	423.86
405.377	433.35
405.755	409.62
406.133	435.38
406.511	432.67
406.889	433.12
407.267	449.62
407.645	445.33
408.023	418.21
408.401	446.68
408.779	435.16
409.156	416.4
409.534	442.62
409.912	467.47
410.29	454.14
410.667	441.26
411.045	453.46
411.422	456.63
411.8	454.59
412.178	472.45
412.555	459.34
412.933	480.58
413.31	485.78
413.687	470.19
414.065	488.72
414.442	492.11
414.819	482.16
415.197	474.25
415.574	479
415.951	514.48
416.328	527.13
416.705	514.7
417.082	497.53
417.46	512.22
417.837	510.86
418.214	491.2
418.591	516.96
418.967	511.77
419.344	519
419.721	510.18
420.098	521.03
420.475	532.1
420.852	531.65
421.228	538.66
421.605	530.52
421.982	542.5
422.358	542.95
422.735	550.18
423.111	550.86
423.488	551.99
423.864	561.48
424.241	564.87
424.617	570.52
424.994	557.41
425.37	562.16
425.746	543.86
426.123	582.5
426.499	576.85
426.875	582.95
427.251	589.05
427.627	593.35
428.003	599.9
428.379	603.29
428.756	593.12
429.132	630.86
429.507	628.37
429.883	632.22
430.259	669.5
430.635	649.84
431.011	646.68
431.387	647.58
431.763	650.52
432.138	655.94
432.514	670.41
432.89	665.43
433.265	686.68
433.641	659.56
434.016	672.21
434.392	674.25
434.767	694.59
435.143	721.25
435.518	695.49
435.894	717.64
436.269	717.18
436.644	705.89
437.02	692.78
437.395	718.99
437.77	729.84
438.145	728.94
438.52	725.77
438.895	753.34
439.271	740.46
439.646	766.45
440.021	744.75
440.395	744.75
440.77	747.92
441.145	770.74
441.52	782.95
441.895	777.97
442.27	782.95
442.645	790.4
443.019	811.19
443.394	800.35
443.769	833.57
444.143	803.28
444.518	798.76
444.892	785.66
445.267	802.83
445.641	837.18
446.016	811.87
446.39	827.24
446.764	846.67
447.139	831.31
447.513	843.28
447.887	836.73
448.262	850.74
448.636	833.79
449.01	846.22
449.384	851.87
449.758	881.7
450.132	887.12
450.506	879.67
450.88	913.34
451.254	891.19
451.628	915.6
452.002	902.94
452.376	908.37
452.75	936.84
453.123	949.27
453.497	921.25
453.871	966.44
454.244	946.56
454.618	942.04
454.992	995.82
455.365	962.83
455.739	1017.29
456.112	1012.09
456.486	1001.7
456.859	1021.13
457.232	1038.31
457.606	1031.3
457.979	1061.36
458.352	1083.28
458.725	1074.69
459.099	1101.58
459.472	1130.51
459.845	1122.6
460.218	1093.9
460.591	1120.56
460.964	1100.68
461.337	1128.47
461.71	1160.56
462.083	1199.43
462.456	1187.91
462.829	1186.1
463.201	1204.18
463.574	1230.39
463.947	1204.4
464.32	1248.02
464.692	1271.97
465.065	1262.25
465.438	1271.97
465.81	1293.44
466.183	1337.51
466.555	1352.65
466.928	1345.19
467.3	1344.29
467.672	1386.55
468.045	1406.21
468.417	1416.15
468.789	1424.74
469.161	1452.53
469.534	1478.29
469.906	1532.98
470.278	1538.41
470.65	1538.41
471.022	1555.58
471.394	1589.93
471.766	1605.07
472.138	1631.96
472.51	1655.69
472.882	1693.66
473.253	1736.14
473.625	1724.39
473.997	1804.61
474.369	1786.08
474.74	1835.8
475.112	1871.5
475.484	1939.53
475.855	1975.23
476.227	1972.97
476.598	2029.47
476.97	2053.65
477.341	2130.48
477.713	2128.67
478.084	2187.88
478.455	2250.48
478.827	2267.2
479.198	2337.71
479.569	2403.24
479.94	2450.47
480.311	2525.27
480.682	2553.52
481.053	2656.79
481.424	2679.62
481.795	2732.27
482.166	2826.96
482.537	2830.12
482.908	2926.39
483.279	3002.1
483.65	3057.91
484.021	3111.7
484.391	3212.03
484.762	3263.33
485.133	3284.8
485.503	3381.52
485.874	3470.11
486.244	3557.56
486.615	3603.89
486.985	3742.64
487.356	3820.83
487.726	3858.12
488.097	3968.17
488.467	3994.61
488.837	4141.28
489.207	4179.24
489.578	4294.94
489.948	4396.18
490.318	4513.24
490.688	4509.85
491.058	4573.81
491.428	4694.93
491.798	4758.89
492.168	4919.33
492.538	4915.94
492.908	5051.08
493.278	5125.43
493.648	5142.15
494.017	5245.43
494.387	5307.8
494.757	5405.2
495.126	5464.4
495.496	5519.77
495.866	5606.1
496.235	5740.1
496.605	5783.72
496.974	5849.7
497.344	5946.65
497.713	5989.81
498.082	6005.86
498.452	6122.01
498.821	6159.75
499.19	6220.54
499.559	6329.92
499.928	6404.49
500.298	6464.38
500.667	6495.34
501.036	6563.81
501.405	6634.54
501.774	6693.07
502.143	6780.08
502.512	6786.63
502.88	6844.26
503.249	6923.58
503.618	6927.87
503.987	7085.83
504.356	7049.45
504.724	7114.53
505.093	7196.34
505.462	7245.15
505.83	7278.14
506.199	7407.18
506.567	7451.7
506.936	7442.66
507.304	7624.8
507.672	7562.88
508.041	7639.94
508.409	7752.03
508.777	7756.77
509.145	7778.69
509.514	7843.78
509.882	7960.84
510.25	7936.88
510.618	8003.77
510.986	8031.34
511.354	8177.33
511.722	8308.85
512.09	8304.33
512.458	8267.27
512.826	8366.47
513.193	8430.88
513.561	8401.28
513.929	8462.29
514.297	8575.96
514.664	8556.75
515.032	8618.22
515.4	8720.14
515.767	8749.74
516.135	8740.93
516.502	8764.43
516.869	8918.32
517.237	8926.91
517.604	8769.18
517.972	9008.49
518.339	9057.53
518.706	9025.44
519.073	9034.93
519.44	9136.17
519.808	9251.88
520.175	9241.93
520.542	9281.25
520.909	9361.03
521.276	9355.38
521.643	9427.46
522.009	9457.07
522.376	9551.98
522.743	9603.5
523.11	9672.2
523.477	9831.3
523.843	9824.06
524.21	9919.2
524.577	9985.87
524.943	9985.87
525.31	10043.04
525.676	10126.2
526.043	10151.06
526.409	10211.85
526.776	10377.72
527.142	10364.39
527.508	10373.2
527.874	10453.65
528.241	10563.93
528.607	10615.46
528.973	10627.43
529.339	10658.39
529.705	10739.07
530.071	10823.59
530.437	10891.61
530.803	10971.38
531.169	10933.19
531.535	10997.82
531.901	11044.82
532.267	11149.45
532.632	11174.99
532.998	11173.63
533.364	11260.41
533.73	11308.54
534.095	11374.08
534.461	11415.66
534.826	11553.51
535.192	11471.48
535.557	11613.4
535.923	11640.97
536.288	11636.22
536.653	11688.42
537.019	11685.94
537.384	11742.21
537.749	11852.71
538.114	11855.65
538.479	11859.26
538.845	11921.18
539.21	12004.57
539.575	12078.92
539.94	12090.44
540.305	12188.97
540.67	12247.5
541.034	12257.9
541.399	12331.79
541.764	12312.81
542.129	12348.52
542.494	12381.06
542.858	12440.04
543.223	12478.68
543.587	12567.72
543.952	12517.55
544.316	12653.14
544.681	12638
545.045	12689.3
545.41	12799.58
545.774	12800.93
546.138	12866.47
546.503	12905.11
546.867	12947.82
547.231	13047.71
547.595	13032.11
547.959	13130.42
548.324	13057.88
548.688	13175.39
549.052	13259.23
549.416	13209.74
549.779	13280.92
550.143	13419.68
550.507	13522.05
550.871	13496.96
551.235	13454.7
551.599	13520.24
551.962	13642.04
552.326	13668.48
552.689	13680.01
553.053	13715.94
553.417	13724.53
553.78	13858.99
554.143	13875.48
554.507	13876.61
554.87	13988.47
555.234	14104.63
555.597	13983.05
555.96	14096.49
556.323	14134.68
556.686	14125.87
557.05	14245.64
557.413	14274.57
557.776	14281.12
558.139	14383.94
558.502	14393.89
558.865	14501.45
559.228	14622.36
559.59	14609.02
559.953	14656.93
560.316	14734.67
560.679	14773.76
561.041	14771.96
561.404	14906.42
561.767	14938.96
562.129	14920.88
562.492	15051.27
562.854	15022.35
563.217	15137.82
563.579	15176.92
563.941	15307.76
564.304	15352.73
564.666	15431.15
565.028	15397.25
565.39	15357.7
565.753	15508.21
566.115	15546.4
566.477	15599.73
566.839	15656.9
567.201	15805.6
567.563	15726.73
567.925	15857.8
568.287	15961.53
568.648	15863
569.01	15946.61
569.372	16165.14
569.734	16108.42
570.095	16207.4
570.457	16278.81
570.819	16350.67
571.18	16377.11
571.542	16468.86
571.903	16607.84
572.265	16585.24
572.626	16661.62
572.987	16740.94
573.349	16847.61
573.71	16903.88
574.071	17030.65
574.432	17039.92
574.794	17366.92
575.155	17238.78
575.516	17298.67
575.877	17410.98
576.238	17511.55
576.599	17726.91
576.96	17723.29
577.32	17792.44
577.681	17977.52
578.042	18059.78
578.403	18212.32
578.763	18300.68
579.124	18394.01
579.485	18647.56
579.845	18780.66
580.206	18869.02
580.566	19000.09
580.927	19092.29
581.287	19413.64
581.648	19403.92
582.008	19712.62
582.368	19860.64
582.728	20045.49
583.089	20179.27
583.449	20449.55
583.809	20589.66
584.169	20813.83
584.529	20950.32
584.889	21322.97
585.249	21443.87
585.609	21574.04
585.969	21983.52
586.329	22048.38
586.688	22278.88
587.048	22532.66
587.408	22698.3
587.768	22944.62
588.127	23147.1
588.487	23357.72
588.846	23837.48
589.206	23769.01
589.565	24119.96
589.925	24492.83
590.284	24752.03
590.643	24961.07
591.003	25224.56
591.362	25677.21
591.721	25863.87
592.08	26168.04
592.44	26460.01
592.799	26791.98
593.158	26807.12
593.517	27191.74
593.876	27611.84
594.235	27671.05
594.593	28056.13
594.952	28294.99
595.311	28481.65
595.67	28869.44
596.029	29171.58
596.387	29375.64
596.746	29674.62
597.104	29814.5
597.463	30140.14
597.822	30424.2
598.18	30624.42
598.538	30821.48
598.897	31334.01
599.255	31279.77
599.613	32042.91
599.972	32105.29
600.33	32342.79
600.688	32404.03
601.046	32725.61
601.404	33084.02
601.762	33321.75
602.12	33641.52
602.478	33781.63
602.836	34000.38
603.194	34006.7
603.552	34310.88
603.91	34406.69
604.268	34876.96
604.625	34861.37
604.983	35362.6
605.341	35455.71
605.698	35738.64
606.056	35981.57
606.413	36066.31
606.771	36367.55
607.128	36593.08
607.485	36625.84
607.843	36878.49
608.2	37147.64
608.557	37386.73
608.914	37444.35
609.272	37824.68
609.629	37918.92
609.986	38250.21
610.343	38103.32
610.7	38584.21
611.057	38687.49
611.414	38819.46
611.771	38872.34
612.127	39224.19
612.484	39266.91
612.841	39660.57
613.198	39488.14
613.554	39665.09
613.911	39965.42
614.267	39963.38
614.624	40126.77
614.98	40157.73
615.337	40603.37
615.693	40589.13
616.05	40595.23
616.406	41013.07
616.762	40936.47
617.118	41085.16
617.475	41156.35
617.831	41308.89
618.187	41496.23
618.543	41593.62
618.899	41936.44
619.255	41891.24
619.611	41973.5
619.967	42204.91
620.323	42239.03
620.678	42158.13
621.034	42199.26
621.39	42354.28
621.746	42348.18
622.101	42803.76
622.457	42659.13
622.812	42688.06
623.168	42895.28
623.523	42962.63
623.879	43110.42
624.234	42920.82
624.589	43203.75
624.945	43167.37
625.3	43280.81
625.655	43341.37
626.01	43386.8
626.365	43545.44
626.72	43456.4
627.075	43604.87
627.43	43526.45
627.785	43503.18
628.14	43718.54
628.495	43756.96
628.85	43720.35
629.205	43596.74
629.559	43794.92
629.914	43695.04
630.269	43914.24
630.623	43694.81
630.978	43632.67
631.332	43915.6
631.687	44014.13
632.041	43887.57
632.396	43925.09
632.75	43787.92
633.104	44069.26
633.459	43788.14
633.813	43911.53
634.167	43845.99
634.521	43840.12
634.875	43893.45
635.229	43838.08
635.583	43660.24
635.937	43716.73
636.291	43641.03
636.645	43859.55
636.999	43807.58
637.352	43839.44
637.706	43667.69
638.06	43731.65
638.413	43754.25
638.767	43733.23
639.121	43740.91
639.474	43521.48
639.828	43584.08
640.181	43754.02
640.534	43744.75
640.888	43627.92
641.241	43389.73
641.594	43538.66
641.947	43644.19
642.301	43570.07
642.654	43696.17
643.007	43561.26
643.36	43480.13
643.713	43535.72
644.066	43728.26
644.419	43457.08
644.771	43219.8
645.124	42847.83
645.477	42698.91
645.83	42647.61
646.182	42442.64
646.535	42332.14
646.888	42332.36
647.24	42274.74
647.593	42479.02
647.945	42212.82
648.298	42139.15
648.65	42130.56
649.002	42098.92
649.355	42141.41
649.707	42269.31
650.059	42405.35
650.411	42848.05
650.763	42856.19
651.115	43271.32
651.467	42912.01
651.819	43174.83
652.171	43049.4
652.523	42914.27
652.875	42942.29
653.227	42790.2
653.578	43082.85
653.93	42959.24
654.282	42879.69
654.633	42841.73
654.985	42782.52
655.337	42901.61
655.688	42876.08
656.039	43022.29
656.391	42573.49
656.742	42743.42
657.094	42805.34
657.445	42802.63
657.796	42810.32
658.147	42649.19
658.498	42609.87
658.849	42761.05
659.2	42581.39
659.551	42446.93
659.902	42741.62
660.253	42582.07
660.604	42670.88
660.955	42618
661.306	42730.32
661.656	42538.91
662.007	42709.07
662.358	42693.03
662.708	42517.44
663.059	42591.79
663.409	42298.24
663.76	42674.05
664.11	42658.91
664.461	42745.01
664.811	42615.52
665.161	42559.93
665.511	42404.45
665.862	42554.28
666.212	42497.78
666.562	42583.43
666.912	42515.63
667.262	42445.8
667.612	42502.07
667.962	42512.24
668.312	42335.98
668.662	42548.85
669.011	42531.9
669.361	42478.12
669.711	42378.01
670.06	42293.04
670.41	42228.41
670.76	42191.8
671.109	42371.23
671.459	42366.71
671.808	42330.1
672.157	42514.05
672.507	42036.32
672.856	42223.21
673.205	42150.22
673.554	42298.01
673.904	42140.28
674.253	42460.95
674.602	42237.45
674.951	41615.32
675.3	41633.85
675.649	42097.79
675.998	42085.36
676.346	42237.45
676.695	42312.93
677.044	41905.25
677.393	42060.05
677.741	42030.9
678.09	42075.65
678.438	41828.65
678.787	41839.95
679.135	41969.21
679.484	41565.6
679.832	41800.62
680.181	41806.5
680.529	41839.72
680.877	41537.13
681.225	41562.44
681.573	41834.75
681.922	41398.6
682.27	41192.28
682.618	41519.28
682.966	41227.08
683.314	41342.78
683.661	41318.83
684.009	41073.64
684.357	41065.28
684.705	40897.37
685.053	41115.22
685.4	40933.75
685.748	40878.61
686.095	40790.03
686.443	40713.42
686.79	40564.72
687.138	40765.62
687.485	40659.41
687.832	40448.8
688.18	40514.56
688.527	40416.25
688.874	40406.31
689.221	40267.56
689.568	40121.35
689.915	40032.08
690.262	40050.61
690.609	39941.92
690.956	39834.57
691.303	39772.43
691.65	39725.88
691.997	39626.67
692.344	39333.12
692.69	39315.27
693.037	39372.67
693.383	39102.62
693.73	39171.77
694.077	39037.98
694.423	38894.26
694.769	38886.35
695.116	38808.84
695.462	38586.47
695.808	38580.14
696.155	38706.47
696.501	38249.53
696.847	38458.11
697.193	38163.43
697.539	38330.88
697.885	37987.39
698.231	37873.5
698.577	38021.29
698.923	37835.3
699.269	37582.88
699.614	37530
699.96	37562.09
700.306	37462.89
700.651	37293.62
700.997	37135.44
701.342	37118.49
701.688	37101.31
702.033	36899.51
702.379	37047.08
702.724	36942.9
703.069	36935.22
703.415	36510.14
703.76	36558.5
704.105	36570.71
704.45	36386.98
704.795	36252.07
705.14	36054.79
705.485	36166.2
705.83	35934.34
706.175	36039.87
706.52	35833.1
706.865	35710.39
707.209	35713.1
707.554	35760.78
707.899	35694.8
708.243	35432.88
708.588	35350.62
708.932	35263.85
709.277	35173.23
709.621	35269.72
709.966	35002.16
710.31	35125.77
710.654	34759.91
710.998	34813.69
711.342	34831.54
711.687	34683.75
712.031	34671.55
712.375	34511.78
712.719	34537.31
713.063	34652.11
713.407	34719.23
713.75	34490.99
714.094	34346.36
714.438	34208.73
714.782	34236.08
715.125	34038.12
715.469	34051.9
715.812	33951.79
716.156	33826.37
716.499	33780.72
716.843	33830.89
717.186	33642.65
717.53	33787.73
717.873	33893.94
718.216	33659.82
718.559	33474.06
718.902	33202.43
719.246	33301.64
719.589	33190
719.932	33262.32
720.275	33145.03
720.617	33069.1
720.96	32971.93
721.303	33148.42
721.646	32980.74
721.989	32780.07
722.331	32939.84
722.674	32884.7
723.016	32823.68
723.359	32791.14
723.701	32717.7
724.044	32636.12
724.386	32428.44
724.729	32540.98
725.071	32414.88
725.413	32473.64
725.755	32503.24
726.097	32245.62
726.439	32216.24
726.782	32135.57
727.124	32362.45
727.465	32070.03
727.807	32074.1
728.149	31976.02
728.491	32045.63
728.833	31942.13
729.175	31854.9
729.516	31737.39
729.858	31753.66
730.199	31837.27
730.541	31750.04
730.882	31743.94
731.224	31744.62
731.565	31613.77
731.906	31583.72
732.248	31588.92
732.589	31415.13
732.93	31272.09
733.271	31336.04
733.612	31248.36
733.953	31369.03
734.294	31142.15
734.635	31098.31
734.976	31271.41
735.317	31062.83
735.658	30993.68
735.999	30953.45
736.339	30997.74
736.68	31032.09
737.021	30975.6
737.361	30750.07
737.702	30943.96
738.042	30820.12
738.383	30673.91
738.723	30750.97
739.063	30630.07
739.404	30680.69
739.744	30516.18
740.084	30485.89
740.424	30358.89
740.764	30420.36
741.104	30477.08
741.444	30397.31
741.784	30292.23
742.124	30344.2
742.464	30353.69
742.804	30216.97
743.143	30188.05
743.483	30144.21
743.823	29955.96
744.162	30023.31
744.502	30010.65
744.841	29858.34
745.181	29997.54
745.52	29884.55
745.86	29918.22
746.199	29828.96
746.538	29778.12
746.877	29861.05
747.216	29707.16
747.556	29698.34
747.895	29650.89
748.234	29631
748.573	29337
748.911	29425.36
749.25	29292.25
749.589	29359.82
749.928	29357.34
750.267	29343.32
750.605	29303.55
750.944	29292.7
751.283	29102.88
751.621	29155.31
751.96	28969.55
752.298	29003.67
752.636	29052.48
752.975	28918.7
753.313	28800.51
753.651	28954.41
753.989	28747.63
754.327	28635.09
754.666	28607.52
755.004	28643.68
755.342	28643.46
755.679	28563.68
756.017	28356.68
756.355	28421.54
756.693	28369.79
757.031	28260.42
757.368	28068.33
757.706	28051.83
758.044	28080.53
758.381	28047.77
758.719	27952.85
759.056	27819.07
759.394	27869.24
759.731	27692.29
760.068	27634.89
760.405	27511.51
760.743	27425.63
761.08	27481.9
761.417	27496.14
761.754	27323.26
762.091	27210.95
762.428	27047.11
762.765	27027
763.102	27042.14
763.438	26943.16
763.775	26761.92
764.112	26821.13
764.449	26896.16
764.785	26635.15
765.122	26501.37
765.458	26532.78
765.795	26428.6
766.131	26338.43
766.467	26301.14
766.804	26112.45
767.14	26088.72
767.476	26010.08
767.812	25897.09
768.148	25968.27
768.485	25770.09
768.821	25652.8
769.157	25719.01
769.492	25647.6
769.828	25399.93
770.164	25262.98
770.5	25300.49
770.836	25279.93
771.171	25051.46
771.507	25015.08
771.842	24711.81
772.178	24790.68
772.513	24713.39
772.849	24683.79
773.184	24556.78
773.519	24515.88
773.855	24477.46
774.19	24320.63
774.525	24237.02
774.86	24210.13
775.195	24209
775.53	24137.13
775.865	23972.84
776.2	23742.12
776.535	23677.48
776.87	23685.85
777.205	23513.87
777.539	23386.64
777.874	23406.08
778.209	23254.9
778.543	23134.9
778.878	23134.22
779.212	23152.53
779.547	23081.57
779.881	22974.23
780.215	22781.92
780.55	22829.6
780.884	22739.88
781.218	22716.61
781.552	22669.15
781.886	22528.36
782.22	22402.04
782.554	22320.46
782.888	22125.66
783.222	22053.35
783.556	21901.03
783.889	22011.77
784.223	21887.48
784.557	21758.67
784.89	21720.47
785.224	21587.37
785.557	21493.81
785.891	21376.3
786.224	21274.84
786.558	21320.48
786.891	21109.64
787.224	21043.66
787.557	20983.09
787.891	20987.39
788.224	20882.08
788.557	20963.88
788.89	20730.9
789.223	20844.79
789.556	20734.51
789.888	20642.99
790.221	20513.95
790.554	20329.32
790.887	20353.96
791.219	20258.14
791.552	20255.43
791.884	20133.85
792.217	20135.43
792.549	19940.41
792.882	19965.72
793.214	19781.09
793.546	19824.93
793.879	19699.74
794.211	19608.21
794.543	19629.23
794.875	19532.96
795.207	19511.72
795.539	19430.36
795.871	19442.12
796.203	19250.03
796.535	19136.14
796.867	19127.1
797.198	19022.69
797.53	19101.56
797.862	18946.31
798.193	18925.07
798.525	18810.95
798.856	18892.53
799.188	18685.75
799.519	18525.08
799.85	18575.02
800.182	18559.2
800.513	18485.98
800.844	18343.84
801.175	18417.96
801.506	18397.17
801.837	18266.33
802.168	18279.89
802.499	18154.01
802.83	18143.84
803.161	18107.24
803.491	18107.24
803.822	18104.52
804.153	17836.06
804.483	17805.32
804.814	17885.09
805.145	17725.32
805.475	17756.51
805.805	17584.76
806.136	17558.55
806.466	17618.44
806.796	17529.85
807.126	17455.73
807.457	17431.55
807.787	17319.23
808.117	17308.39
808.447	17287.14
808.777	17302.51
809.107	17118.56
809.436	17178.22
809.766	17080.37
810.096	17020.71
810.426	16973.25
810.755	16976.19
811.085	16928.06
811.414	16890.09
811.744	16794.28
812.073	16736.65
812.403	16712.02
812.732	16764.9
813.061	16589.31
813.39	16555.19
813.719	16441.06
814.049	16510.67
814.378	16453.72
814.707	16392.7
815.036	16416.43
815.365	16298.47
815.693	16079.04
816.022	16122.2
816.351	16092.83
816.68	16011.02
817.008	16084.92
817.337	15980.51
817.665	15983.22
817.994	15947.97
818.322	16001.53
818.651	15846.05
818.979	15784.81
819.307	15844.02
819.636	15762.44
819.964	15707.3
820.292	15807.64
820.62	15664.36
820.948	15684.93
821.276	15698.26
821.604	15586.85
821.932	15681.54
822.259	15668.66
822.587	15629.79
822.915	15657.13
823.243	15633.18
823.57	15571.71
823.898	15583.23
824.225	15615.78
824.553	15561.54
824.88	15594.99
825.207	15678.37
825.535	15530.35
825.862	15571.03
826.189	15521.09
826.516	15587.3
826.843	15601.99
827.17	15594.53
827.497	15572.39
827.824	15544.14
828.151	15626.62
828.478	15570.35
828.805	15629.33
829.131	15548.43
829.458	15536.23
829.785	15465.05
830.111	15542.33
830.438	15688.09
830.764	15561.09
831.09	15555.21
831.417	15449.9
831.743	15497.81
832.069	15528.32
832.395	15420.07
832.722	15523.35
833.048	15456.01
833.374	15422.11
833.7	15341.66
834.026	15352.28
834.351	15435.89
834.677	15435.22
835.003	15413.52
835.329	15347.08
835.654	15352.28
835.98	15338.72
836.306	15343.47
836.631	15253.3
836.956	15170.14
837.282	15254.2
837.607	15153.64
837.932	15139.86
838.258	15083.36
838.583	15172.62
838.908	15064.6
839.233	15042.68
839.558	14992.74
839.883	14926.08
840.208	14910.48
840.533	14937.83
840.858	14931.27
841.182	14893.99
841.507	14825.29
841.832	14848.11
842.156	14762.01
842.481	14797.72
842.805	14715.91
843.13	14703.26
843.454	14719.75
843.778	14632.98
844.103	14527.22
844.427	14546.43
844.751	14555.46
845.075	14379.88
845.399	14463.49
845.723	14380.33
846.047	14396.82
846.371	14234.8
846.695	14229.82
847.019	14173.55
847.343	14099.88
847.666	14051.52
847.99	13918.65
848.313	14021.69
848.637	13922.49
848.96	13881.81
849.284	13820.79
849.607	13600.24
849.931	13729.72
850.254	13621.03
850.577	13528.6
850.9	13421.48
851.223	13407.02
851.546	13313.46
851.869	13277.31
852.192	13346.23
852.515	13156.63
852.838	13130.42
853.161	13197.31
853.483	13029.4
853.806	12988.27
854.129	13012.23
854.451	12985.34
854.774	12915.73
855.096	12892.91
855.419	12815.62
855.741	12817.21
856.063	12766.59
856.385	12679.36
856.708	12609.98
857.03	12630.09
857.352	12638.45
857.674	12468.74
857.996	12512.35
858.318	12472.81
858.64	12486.59
858.961	12331.12
859.283	12334.05
859.605	12281.4
859.926	12306.26
860.248	12405.01
860.57	12249.54
860.891	12161.4
861.212	12231.46
861.534	12097.22
861.855	12079.15
862.176	12058.58
862.498	12067.85
862.819	12074.85
863.14	11992.82
863.461	11955.31
863.782	11927.74
864.103	11928.42
864.424	11924.12
864.745	11996.44
865.065	11846.84
865.386	11788.98
865.707	11808.42
866.027	11830.79
866.348	11730.91
866.668	11819.04
866.989	11776.1
867.309	11623.34
867.63	11655.2
867.95	11708.99
868.27	11589.89
868.59	11637.35
868.91	11617.46
869.23	11604.58
869.55	11512.15
869.87	11600.06
870.19	11542.66
870.51	11531.14
870.83	11460.86
871.15	11424.25
871.469	11521.19
871.789	11509.9
872.109	11491.59
872.428	11378.37
872.748	11470.12
873.067	11370.92
873.386	11415.21
873.706	11336.57
874.025	11273.52
874.344	11269
874.663	11300.41
874.982	11240.75
875.301	11212.05
875.62	11221.77
875.939	11174.31
876.258	11264.25
876.577	11147.42
876.896	11132.73
877.214	11031.26
877.533	11083.24
877.852	11134.76
878.17	11122.56
878.489	11072.39
878.807	11103.8
879.125	11051.15
879.444	11022.22
879.762	10994.2
880.08	10924.6
880.398	10898.16
880.716	10912.17
881.034	10891.83
881.352	10890.93
881.67	10792.17
881.988	10852.51
882.306	10793.53
882.624	10784.04
882.941	10724.83
883.259	10726.86
883.577	10691.61
883.894	10647.54
884.212	10649.58
884.529	10681.44
884.846	10579.98
885.164	10552.63
885.481	10542.69
885.798	10527.55
886.115	10448.23
886.432	10469.92
886.75	10465.18
887.067	10404.39
887.383	10337.72
887.7	10456.14
888.017	10325.97
888.334	10372.75
888.651	10344.5
888.967	10268.35
889.284	10207.1
889.6	10247.56
889.917	10143.38
890.233	10123.04
890.55	10079.65
890.866	10122.36
891.182	10084.4
891.498	10039.43
891.815	10004.17
892.131	9973.44
892.447	9921.69
892.763	9955.13
893.079	9917.62
893.395	9864.74
893.71	9873.33
894.026	9730.96
894.342	9802.14
894.657	9730.51
894.973	9682.37
895.289	9770.51
895.604	9633.79
895.92	9601.02
896.235	9587.01
896.55	9535.48
896.865	9533.68
897.181	9534.81
897.496	9473.11
897.811	9489.38
898.126	9443.73
898.441	9355.83
898.756	9378.2
899.071	9316.73
899.386	9268.82
899.7	9218.2
900.015	9126.91
900.33	9144.31
900.644	9097.3
900.959	9111.77
901.273	9134.59
901.588	9076.06
901.902	8967.82
902.216	8928.72
902.531	8962.62
902.845	8947.7
903.159	8836.97
903.473	8858.44
903.787	8823.86
904.101	8769.85
904.415	8781.83
904.729	8762.4
905.042	8684.43
905.356	8697.09
905.67	8642.63
905.984	8589.29
906.297	8571.89
906.611	8514.27
906.924	8596.53
907.237	8496.87
907.551	8456.19
907.864	8349.07
908.177	8407.38
908.491	8315.85
908.804	8308.4
909.117	8240.15
909.43	8259.36
909.743	8212.13
910.056	8136.88
910.368	8174.16
910.681	8045.58
910.994	8063.88
911.307	8019.14
911.619	7973.26
911.932	8001.74
912.244	7975.3
912.557	7854.85
912.869	7903.89
913.181	7828.18
913.494	7850.78
913.806	7789.31
914.118	7765.36
914.43	7662.99
914.742	7694.18
915.054	7583.67
915.366	7625.48
915.678	7646.04
915.99	7531.24
916.302	7452.6
916.613	7517.23
916.925	7466.84
917.236	7425.71
917.548	7356.56
917.859	7377.35
918.171	7307.07
918.482	7274.53
918.794	7309.55
919.105	7247.86
919.416	7211.25
919.727	7182.55
920.038	7159.05
920.349	7091.93
920.66	7068.66
920.971	7105.49
921.282	6995.44
921.593	6998.6
921.903	6964.03
922.214	6959.05
922.525	6910.92
922.835	6885.84
923.146	6886.06
923.456	6843.35
923.767	6813.3
924.077	6782.11
924.387	6724.71
924.697	6641.32
925.008	6655.11
925.318	6646.97
925.628	6610.14
925.938	6621.89
926.248	6505.28
926.558	6516.58
926.867	6514.09
927.177	6535.56
927.487	6477.71
927.796	6411.05
928.106	6403.36
928.416	6357.49
928.725	6336.25
929.034	6345.06
929.344	6258.96
929.653	6293.76
929.962	6229.36
930.271	6148.45
930.581	6173.76
930.89	6146.42
931.199	6088.34
931.508	6091.96
931.817	6078.17
932.125	6068.23
932.434	6039.3
932.743	6046.31
933.051	6010.6
933.36	5953.88
933.669	5906.65
933.977	5859.42
934.286	5877.5
934.594	5844.96
934.902	5790.05
935.21	5808.35
935.519	5715.92
935.827	5728.35
936.135	5750.5
936.443	5646.09
936.751	5681.8
937.059	5620.11
937.367	5646.32
937.674	5621.91
937.982	5567
938.29	5560.22
938.597	5548.02
938.905	5440.22
939.213	5480.45
939.52	5445.65
939.827	5472.31
940.135	5408.81
940.442	5377.17
940.749	5344.41
941.056	5338.76
941.363	5321.36
941.67	5311.41
941.977	5301.7
942.284	5202.94
942.591	5187.12
942.898	5194.13
943.205	5218.76
943.511	5127.69
943.818	5104.87
944.125	5154.13
944.431	5147.8
944.738	5112.1
945.044	5071.42
945.35	5009.5
945.657	5007.69
945.963	4975.15
946.269	4934.47
946.575	4993.91
946.881	4915.04
947.187	4887.47
947.493	4850.64
947.799	4844.31
948.105	4827.36
948.41	4784.2
948.716	4787.36
949.022	4812.22
949.327	4766.57
949.633	4679.34
949.938	4689.74
950.244	4682.73
950.549	4662.84
950.854	4657.19
951.16	4678.66
951.465	4605.67
951.77	4549.17
952.075	4546.01
952.38	4568.61
952.685	4557.76
952.99	4468.27
953.294	4462.62
953.599	4456.52
953.904	4434.83
954.209	4403.64
954.513	4402.96
954.818	4397.31
955.122	4363.87
955.426	4376.07
955.731	4324.32
956.035	4317.32
956.339	4274.38
956.643	4333.13
956.948	4241.16
957.252	4233.48
957.556	4240.48
957.86	4174.49
958.163	4182.86
958.467	4179.47
958.771	4176.08
959.075	4174.04
959.378	4130.65
959.682	4083.65
959.985	4098.79
960.289	4038
960.592	4065.12
960.896	4041.39
961.199	3993.48
961.502	4000.94
961.805	3961.17
962.108	3985.35
962.411	3976.31
962.714	3905.12
963.017	3873.94
963.32	3915.29
963.623	3891.34
963.926	3884.56
964.228	3839.14
964.531	3821.74
964.833	3843.66
965.136	3765.92
965.438	3725.92
965.741	3744.9
966.043	3729.76
966.345	3733.15
966.648	3723.66
966.95	3697.67
967.252	3680.95
967.554	3705.81
967.856	3616.09
968.158	3623.55
968.46	3577.22
968.761	3598.24
969.063	3557.79
969.365	3594.17
969.666	3577.22
969.968	3557.11
970.269	3508.98
970.571	3491.35
970.872	3493.61
971.174	3478.02
971.475	3440.73
971.776	3463.1
972.077	3405.7
972.378	3417.23
972.679	3380.39
972.98	3372.71
973.281	3348.75
973.582	3337.45
973.883	3353.05
974.183	3348.98
974.484	3334.97
974.785	3314.4
975.085	3278.02
975.386	3262.65
975.686	3251.81
975.986	3202.09
976.287	3217.91
976.587	3163.22
976.887	3189.44
977.187	3210
977.487	3165.03
977.787	3162.77
978.087	3149.44
978.387	3127.52
978.687	3092.04
978.987	3061.3
979.286	3074.41
979.586	3088.87
979.885	3052.04
980.185	3017.46
980.484	3016.79
980.784	3005.03
981.083	3013.62
981.382	2986.96
981.682	3000.74
981.981	2931.14
982.28	2927.75
982.579	2918.03
982.878	2908.09
983.177	2916.67
983.475	2882.33
983.774	2883.46
984.073	2886.39
984.372	2853.85
984.67	2843.46
984.969	2861.53
985.267	2778.6
985.566	2873.74
985.864	2799.84
986.162	2749.9
986.461	2781.31
986.759	2777.92
987.057	2745.15
987.355	2739.05
987.653	2742.44
987.951	2714.19
988.249	2693.18
988.547	2681.88
988.844	2676.23
989.142	2683.91
989.44	2636.46
989.737	2627.64
990.035	2628.32
990.332	2599.62
990.63	2590.36
990.927	2585.84
991.224	2581.09
991.521	2583.12
991.819	2566.63
992.116	2559.62
992.413	2545.39
992.71	2495.22
993.006	2521.88
993.303	2501.54
993.6	2463.58
993.897	2449.12
994.193	2443.24
994.49	2407.99
994.787	2393.07
995.083	2416.8
995.379	2422.68
995.676	2381.32
995.972	2399.85
996.268	2385.39
996.565	2358.5
996.861	2335.67
997.157	2321.21
997.453	2327.31
997.749	2327.76
998.044	2308.33
998.34	2308.56
998.636	2307.65
998.932	2271.95
999.227	2241.44
999.523	2238.05
999.818	2279.86
1000.114	2221.55
1000.409	2170.48
1000.704	2192.63
1001	2209.35
1001.295	2177.71
1001.59	2182
1001.885	2162.57
1002.18	2137.49
1002.475	2139.97
1002.77	2106.53
1003.065	2052.29
1003.359	2070.6
1003.654	2090.48
1003.949	2086.87
1004.243	2080.76
1004.538	2054.55
1004.832	2068.56
1005.127	2012.97
1005.421	2009.81
1005.715	1986.3
1006.009	1981.56
1006.304	1968.23
1006.598	1975.68
1006.892	1968.23
1007.186	1979.3
1007.48	1924.61
1007.773	1934.1
1008.067	1900.43
1008.361	1887.32
1008.655	1885.74
1008.948	1899.3
1009.242	1891.62
1009.535	1843.48
1009.829	1852.52
1010.122	1828.57
1010.415	1821.79
1010.708	1806.42
1011.001	1837.61
1011.295	1801.45
1011.588	1794.9
1011.881	1777.27
1012.173	1768.23
1012.466	1758.97
1012.759	1756.93
1013.052	1739.98
1013.344	1721.9
1013.637	1685.75
1013.93	1700.44
1014.222	1719.64
1014.514	1702.47
1014.807	1664.96
1015.099	1650.72
1015.391	1677.61
1015.683	1649.14
1015.976	1647.33
1016.268	1639.19
1016.56	1626.54
1016.851	1624.05
1017.143	1605.07
1017.435	1592.87
1017.727	1556.71
1018.018	1575.47
1018.31	1566.43
1018.602	1562.81
1018.893	1533.89
1019.185	1553.09
1019.476	1548.8
1019.767	1532.3
1020.058	1497.28
1020.35	1508.12
1020.641	1452.76
1020.932	1472.64
1021.223	1451.18
1021.514	1429.93
1021.804	1441.91
1022.095	1417.05
1022.386	1444.4
1022.677	1430.16
1022.967	1418.41
1023.258	1400.56
1023.548	1396.94
1023.839	1391.97
1024.129	1374.57
1024.419	1344.51
1024.709	1328.69
1025	1349.48
1025.29	1327.56
1025.58	1341.35
1025.87	1304.51
1026.16	1287.11
1026.449	1311.52
1026.739	1300.45
1027.029	1286.44
1027.319	1255.93
1027.608	1253.89
1027.898	1266.32
1028.187	1240.79
1028.477	1226.1
1028.766	1252.09
1029.055	1239.88
1029.344	1209.6
1029.634	1224.52
1029.923	1213.44
1030.212	1190.39
1030.501	1194.46
1030.79	1180.22
1031.078	1160.34
1031.367	1149.26
1031.656	1148.81
1031.945	1187.91
1032.233	1150.17
1032.522	1133.44
1032.81	1140.45
1033.099	1126.89
1033.387	1097.29
1033.675	1137.74
1033.963	1115.14
1034.251	1076.95
1034.54	1070.62
1034.828	1081.02
1035.116	1079.66
1035.403	1063.62
1035.691	1035.82
1035.979	1046.44
1036.267	1027.23
1036.554	1029.94
1036.842	1014.58
1037.129	1019.1
1037.417	990.17
1037.704	1016.61
1037.992	1001.47
1038.279	996.73
1038.566	984.07
1038.853	984.07
1039.14	984.07
