Data from hue_200_FLMS001491_00032.txt Node
Date: Tue Feb 07 16:43:11 GMT 2017
User: dcchb
Spectrometer: FLMS00149
Trigger mode: 0
Integration Time (sec): 2.000000E-2
Scans to average: 10
Electric dark correction enabled: true
Nonlinearity correction enabled: false
Boxcar width: 0
XAxis mode: Wavelengths
Number of Pixels in Spectrum: 2048
>>>>>Begin Spectral Data<<<<<
341.393	-14.32
341.776	-14.32
342.16	-14.32
342.543	-57.48
342.927	-85.28
343.31	-78.27
343.693	-57.26
344.077	-74.66
344.46	-58.39
344.843	-50.25
345.226	-40.31
345.61	-24.49
345.993	-16.36
346.376	-12.51
346.759	16.19
347.142	16.64
347.525	52.8
347.908	60.48
348.291	73.81
348.674	90.08
349.057	102.51
349.44	116.75
349.823	137.99
350.206	166.01
350.588	185.67
350.971	205.33
351.354	206.69
351.737	234.03
352.119	263.19
352.502	253.69
352.884	275.61
353.267	288.95
353.65	295.5
354.032	290.53
354.414	316.74
354.797	307.93
355.179	302.73
355.562	322.62
355.944	310.64
356.326	327.59
356.709	353.13
357.091	341.83
357.473	341.6
357.855	332.11
358.238	345.22
358.62	353.13
359.002	345.44
359.384	346.12
359.766	330.75
360.148	342.51
360.53	348.38
360.912	336.63
361.294	338.89
361.676	348.38
362.057	338.66
362.439	336.18
362.821	330.98
363.203	333.24
363.584	317.65
363.966	325.33
364.348	341.6
364.729	331.66
365.111	319.23
365.493	290.98
365.874	310.87
366.256	337.31
366.637	316.07
367.019	317.42
367.4	318.78
367.781	321.71
368.163	321.94
368.544	297.53
368.925	307.25
369.306	318.55
369.688	315.84
370.069	315.39
370.45	323.75
370.831	299.57
371.212	309.29
371.593	312.68
371.974	303.64
372.355	323.3
372.736	308.38
373.117	305.9
373.498	326.01
373.879	318.1
374.26	340.7
374.641	301.38
375.021	311.55
375.402	331.88
375.783	320.81
376.163	325.56
376.544	338.44
376.925	328.95
377.305	361.49
377.686	340.47
378.066	337.31
378.447	332.11
378.827	333.24
379.208	339.79
379.588	326.01
379.968	338.21
380.349	352.9
380.729	344.76
381.109	360.36
381.489	349.28
381.87	350.64
382.25	326.01
382.63	342.96
383.01	342.73
383.39	341.83
383.77	357.19
384.15	337.99
384.53	354.71
384.91	344.09
385.29	375.5
385.67	363.07
386.049	364.88
386.429	354.03
386.809	355.16
387.189	342.05
387.568	365.78
387.948	370.3
388.328	378.21
388.707	366.01
389.087	377.08
389.466	382.73
389.846	378.66
390.225	375.95
390.605	391.32
390.984	379.57
391.363	373.46
391.743	381.37
392.122	401.03
392.501	382.96
392.881	406.46
393.26	403.07
393.639	398.55
394.018	376.18
394.397	395.39
394.776	387.48
395.155	410.07
395.534	403.29
395.913	413.92
396.292	421.37
396.671	404.88
397.05	431.32
397.429	424.31
397.808	421.15
398.186	399.9
398.565	397.87
398.944	429.28
399.323	405.78
399.701	435.38
400.08	437.42
400.458	434.48
400.837	435.16
401.215	455.72
401.594	449.39
401.972	451.65
402.351	468.15
402.729	453.24
403.107	452.11
403.486	465.44
403.864	465.21
404.242	481.03
404.62	456.4
404.999	478.77
405.377	504.08
405.755	498.21
406.133	495.72
406.511	504.99
406.889	505.44
407.267	478.55
407.645	513.35
408.023	484.87
408.401	538.21
408.779	524.87
409.156	567.36
409.534	560.58
409.912	543.63
410.29	551.54
410.667	565.1
411.045	581.37
411.422	610.52
411.8	588.83
412.178	599.9
412.555	616.85
412.933	616.4
413.31	636.28
413.687	636.73
414.065	657.75
414.442	653.23
414.819	671.99
415.197	675.6
415.574	706.79
415.951	723.29
416.328	726.9
416.705	724.42
417.082	756.28
417.46	745.43
417.837	740.46
418.214	752.66
418.591	784.98
418.967	770.06
419.344	809.16
419.721	815.94
420.098	812.32
420.475	841.93
420.852	827.92
421.228	863.62
421.605	914.92
421.982	907.91
422.358	915.82
422.735	924.41
423.111	958.08
423.488	971.87
423.864	978.65
424.241	973.67
424.617	1009.83
424.994	1009.61
425.37	1038.98
425.746	1049.38
426.123	1083.05
426.499	1064.75
426.875	1133.22
427.251	1102.03
427.627	1157.85
428.003	1180.68
428.379	1193.78
428.756	1175.7
429.132	1190.17
429.507	1244.85
429.883	1224.52
430.259	1255.48
430.635	1246.66
431.011	1292.08
431.387	1312.42
431.763	1325.08
432.138	1302.93
432.514	1356.49
432.89	1360.33
433.265	1438.75
433.641	1454.57
434.016	1465.41
434.392	1487.56
434.767	1525.75
435.143	1563.49
435.518	1599.42
435.894	1579.08
436.269	1619.31
436.644	1657.27
437.02	1668.35
437.395	1691.17
437.77	1725.97
438.145	1772.98
438.52	1776.82
438.895	1817.27
439.271	1833.77
439.646	1899.98
440.021	1927.77
440.395	1941.56
440.77	1922.35
441.145	1970.94
441.52	1983.37
441.895	2035.12
442.27	2041.67
442.645	2061.33
443.019	2076.92
443.394	2086.64
443.769	2118.5
444.143	2166.19
444.518	2200.76
444.892	2178.39
445.267	2193.08
445.641	2249.35
446.016	2228.56
446.39	2280.31
446.764	2296.58
447.139	2294.54
447.513	2362.56
447.887	2341.77
448.262	2340.87
448.636	2405.5
449.01	2408.67
449.384	2450.7
449.758	2461.09
450.132	2513.97
450.506	2519.4
450.88	2548.32
451.254	2536.57
451.628	2551.03
452.002	2590.36
452.376	2616.57
452.75	2659.96
453.123	2649.11
453.497	2707.41
453.871	2736.79
454.244	2806.17
454.618	2784.93
454.992	2830.8
455.365	2850.91
455.739	2887.07
456.112	2932.27
456.486	2962.78
456.859	2990.12
457.232	3069.67
457.606	3043
457.979	3089.1
458.352	3134.75
458.725	3161.41
459.099	3175.42
459.472	3268.08
459.845	3310.56
460.218	3312.37
460.591	3358.47
460.964	3411.35
461.337	3466.04
461.71	3460.62
462.083	3550.1
462.456	3553.95
462.829	3555.75
463.201	3663.55
463.574	3655.41
463.947	3698.8
464.32	3759.59
464.692	3826.93
465.065	3841.17
465.438	3904.9
465.81	3939.02
466.183	4004.78
466.555	4076.19
466.928	4060.83
467.3	4097.89
467.672	4148.05
468.045	4302.63
468.417	4270.09
468.789	4278.22
469.161	4348.28
469.534	4453.13
469.906	4505.56
470.278	4567.93
470.65	4631.88
471.022	4712.79
471.394	4733.8
471.766	4821.26
472.138	4866.45
472.51	4927.92
472.882	5001.59
473.253	5103.51
473.625	5125.43
473.997	5229.16
474.369	5283.84
474.74	5362.49
475.112	5390.28
475.484	5483.61
475.855	5626.43
476.227	5600.67
476.598	5802.7
476.97	5823.94
477.341	5926.54
477.713	5989.81
478.084	6107.33
478.455	6224.84
478.827	6273.87
479.198	6369.24
479.569	6433.19
479.94	6616.69
480.311	6668.67
480.682	6769.68
481.053	6989.56
481.424	6971.26
481.795	7073.18
482.166	7177.81
482.537	7300.06
482.908	7401.98
483.279	7488.31
483.65	7577.12
484.021	7733.95
484.391	7789.77
484.762	7918.35
485.133	7979.82
485.503	8022.3
485.874	8226.14
486.244	8244.67
486.615	8411.45
486.985	8525.11
487.356	8609.63
487.726	8666.35
488.097	8895.27
488.467	8886.24
488.837	8997.42
489.207	9109.73
489.578	9262.72
489.948	9369.84
490.318	9419.55
490.688	9449.84
491.058	9587.23
491.428	9665.65
491.798	9771.86
492.168	9958.3
492.538	9994.68
492.908	10063.38
493.278	10161
493.648	10186.99
494.017	10376.14
494.387	10396.03
494.757	10541.56
495.126	10516.93
495.496	10610.03
495.866	10711.5
496.235	10702.01
496.605	10827.65
496.974	10912.4
497.344	10958.05
497.713	10973.19
498.082	11004.82
498.452	11087.76
498.821	11185.61
499.19	11144.03
499.559	11227.87
499.928	11252.27
500.298	11388.09
500.667	11434.64
501.036	11407.52
501.405	11509.9
501.774	11512.15
502.143	11481.2
502.512	11632.15
502.88	11668.53
503.249	11695.2
503.618	11687.97
503.987	11676.9
504.356	11801.86
504.724	11835.31
505.093	11865.59
505.462	11796.89
505.83	11890.68
506.199	11988.07
506.567	12089.09
506.936	12051.12
507.304	12204.79
507.672	12252.7
508.041	12167.5
508.409	12269.88
508.777	12355.07
509.145	12295.86
509.514	12324.79
509.882	12444.56
510.25	12405.46
510.618	12443.66
510.986	12383.32
511.354	12539.47
511.722	12590.54
512.09	12613.14
512.458	12547.38
512.826	12639.13
513.193	12641.62
513.561	12651.79
513.929	12694.04
514.297	12742.18
514.664	12861.27
515.032	12851.55
515.4	12919.12
515.767	12838.9
516.135	12845.91
516.502	12781.95
516.869	12959.35
517.237	12923.42
517.604	12988.27
517.972	12988.5
518.339	13004.55
518.706	12949.63
519.073	12995.51
519.44	12996.86
519.808	13166.57
520.175	12995.05
520.542	13179
520.909	13099.91
521.276	13057.65
521.643	13184.65
522.009	13214.26
522.376	13192.11
522.743	13328.6
523.11	13290.19
523.477	13442.05
523.843	13333.58
524.21	13394.14
524.577	13512.55
524.943	13448.83
525.31	13557.75
525.676	13522.5
526.043	13556.85
526.409	13495.83
526.776	13576.28
527.142	13461.48
527.508	13629.39
527.874	13529.05
528.241	13553.01
528.607	13498.32
528.973	13553.23
529.339	13497.19
529.705	13600.24
530.071	13587.81
530.437	13532.89
530.803	13642.27
531.169	13572.89
531.535	13573.8
531.901	13510.52
532.267	13479.79
532.632	13546.23
532.998	13407.47
533.364	13614.02
533.73	13356.4
534.095	13525.89
534.461	13417.42
534.826	13350.52
535.192	13393.91
535.557	13432.1
535.923	13314.14
536.288	13331.77
536.653	13358.66
537.019	13212.45
537.384	13273.01
537.749	13125.67
538.114	13198.89
538.479	13092.45
538.845	13109.63
539.21	13061.72
539.575	12979.23
539.94	12937.65
540.305	13038.22
540.67	12917.09
541.034	12908.5
541.399	12932.46
541.764	12868.28
542.129	12802.29
542.494	12743.08
542.858	12687.94
543.223	12676.19
543.587	12750.09
543.952	12552.13
544.316	12602.3
544.681	12512.35
545.045	12552.35
545.41	12496.31
545.774	12439.14
546.138	12405.46
546.503	12341.96
546.867	12299.03
547.231	12328.86
547.595	12285.92
547.959	12300.83
548.324	12145.13
548.688	12014.29
549.052	12155.3
549.416	11967.51
549.779	11981.52
550.143	11960.28
550.507	11992.82
550.871	11930.9
551.235	11908.3
551.599	11846.16
551.962	11844.35
552.326	11730.91
552.689	11787.18
553.053	11667.63
553.417	11598.48
553.78	11723.45
554.143	11643.45
554.507	11645.03
554.87	11596.9
555.234	11660.4
555.597	11575.66
555.96	11509.67
556.323	11572.72
556.686	11491.59
557.05	11512.38
557.413	11447.3
557.776	11489.1
558.139	11470.12
558.502	11419.28
558.865	11409.78
559.228	11401.65
559.59	11356.68
559.953	11390.58
560.316	11430.8
560.679	11359.84
561.041	11490.69
561.404	11384.93
561.767	11421.08
562.129	11326.85
562.492	11429.67
562.854	11379.96
563.217	11360.29
563.579	11362.1
563.941	11312.61
564.304	11371.82
564.666	11328.43
565.028	11265.61
565.39	11422.21
565.753	11383.8
566.115	11373.85
566.477	11414.3
566.839	11397.81
567.201	11498.6
567.563	11406.39
567.925	11474.64
568.287	11501.31
568.648	11424.25
569.01	11443
569.372	11493.62
569.734	11419.95
570.095	11473.29
570.457	11529.56
570.819	11506.51
571.18	11525.94
571.542	11538.82
571.903	11562.55
572.265	11518.03
572.626	11553.28
572.987	11570.68
573.349	11551.93
573.71	11546.05
574.071	11649.1
574.432	11616.56
574.794	11671.02
575.155	11609.1
575.516	11583.57
575.877	11626.73
576.238	11635.77
576.599	11595.77
576.96	11592.83
577.32	11619.95
577.681	11671.25
578.042	11704.47
578.403	11684.35
578.763	11630.12
579.124	11673.51
579.485	11705.14
579.845	11732.04
580.206	11729.1
580.566	11644.35
580.927	11623.11
581.287	11699.49
581.648	11631.7
582.008	11632.38
582.368	11609.55
582.728	11673.96
583.089	11658.59
583.449	11683.22
583.809	11668.76
584.169	11630.8
584.529	11718.48
584.889	11700.4
585.249	11675.54
585.609	11603.23
585.969	11661.53
586.329	11660.85
586.688	11619.04
587.048	11640.97
587.408	11662.89
587.768	11632.83
588.127	11598.71
588.487	11541.98
588.846	11636.22
589.206	11575.43
589.565	11523.68
589.925	11608.88
590.284	11528.2
590.643	11575.88
591.003	11631.25
591.362	11636.67
591.721	11570.01
592.08	11550.57
592.44	11647.07
592.799	11605.94
593.158	11473.51
593.517	11440.97
593.876	11501.08
594.235	11461.53
594.593	11532.27
594.952	11466.05
595.311	11460.18
595.67	11458.37
596.029	11495.88
596.387	11522.1
596.746	11541.98
597.104	11380.63
597.463	11437.13
597.822	11493.62
598.18	11357.13
598.538	11452.04
598.897	11481.42
599.255	11378.15
599.613	11533.62
599.972	11519.39
600.33	11482.1
600.688	11455.66
601.046	11488.2
601.404	11517.35
601.762	11510.12
602.12	11458.82
602.478	11472.16
602.836	11504.47
603.194	11384.93
603.552	11451.59
603.91	11409.78
604.268	11453.17
604.625	11402.55
604.983	11455.89
605.341	11376.34
605.698	11505.6
606.056	11441.42
606.413	11452.27
606.771	11549.44
607.128	11484.13
607.485	11419.05
607.843	11486.62
608.2	11406.17
608.557	11540.63
608.914	11477.13
609.272	11491.59
609.629	11514.41
609.986	11527.3
610.343	11517.8
610.7	11541.98
611.057	11565.94
611.414	11561.42
611.771	11618.82
612.127	11640.29
612.484	11594.86
612.841	11602.32
613.198	11573.4
613.554	11577.46
613.911	11655.2
614.267	11570.68
614.624	11663.34
614.98	11668.53
615.337	11664.02
615.693	11717.12
616.05	11700.17
616.406	11699.04
616.762	11623.11
617.118	11718.03
617.475	11657.01
617.831	11705.82
618.187	11711.7
618.543	11745.6
618.899	11799.15
619.255	11760.28
619.611	11832.82
619.967	11788.76
620.323	11831.02
620.678	11688.87
621.034	11751.02
621.39	11712.38
621.746	11747.85
622.101	11852.26
622.457	11692.72
622.812	11742.21
623.168	11818.14
623.523	11736.56
623.879	11774.97
624.234	11713.73
624.589	11791.7
624.945	11749.89
625.3	11767.29
625.655	11741.53
626.01	11754.18
626.365	11722.54
626.72	11755.31
627.075	11682.09
627.43	11697.23
627.785	11721.64
628.14	11698.82
628.495	11668.53
628.85	11706.95
629.205	11652.72
629.559	11721.41
629.914	11646.16
630.269	11580.85
630.623	11661.76
630.978	11643.68
631.332	11609.1
631.687	11691.59
632.041	11606.39
632.396	11657.01
632.75	11510.8
633.104	11581.31
633.459	11481.65
633.813	11551.02
634.167	11516.45
634.521	11451.59
634.875	11456.56
635.229	11468.09
635.583	11372.5
635.937	11413.85
636.291	11420.86
636.645	11354.42
636.999	11352.84
637.352	11374.53
637.706	11269
638.06	11288.21
638.413	11365.49
638.767	11288.43
639.121	11287.98
639.474	11179.28
639.828	11257.25
640.181	11219.96
640.534	11209.56
640.888	11193.07
641.241	11169.34
641.594	11173.86
641.947	11312.39
642.301	11186.74
642.654	11236.68
643.007	11155.33
643.36	11189.23
643.713	11170.47
644.066	11240.52
644.419	11058.16
644.771	11031.94
645.124	11003.69
645.477	10967.31
645.83	10899.52
646.182	10886.86
646.535	10790.59
646.888	10836.47
647.24	10774.77
647.593	10798.28
647.945	10799.86
648.298	10696.13
648.65	10711.95
649.002	10645.06
649.355	10832.62
649.707	10741.33
650.059	10825.62
650.411	10914.88
650.763	10918.72
651.115	11102.67
651.467	11035.33
651.819	10998.27
652.171	10977.71
652.523	10963.02
652.875	10942
653.227	10837.6
653.578	11053.18
653.93	10915.56
654.282	10891.38
654.633	10892.96
654.985	10902.23
655.337	10966.41
655.688	10913.07
656.039	11050.47
656.391	10902.68
656.742	10997.82
657.094	10937.93
657.445	10975.45
657.796	10991.94
658.147	10946.52
658.498	10957.14
658.849	10987.2
659.2	11022.22
659.551	10911.27
659.902	11000.08
660.253	10974.09
660.604	11014.09
660.955	10895.45
661.306	11005.05
661.656	10967.54
662.007	10884.6
662.358	10975.22
662.708	11100.87
663.059	11028.33
663.409	10920.53
663.76	11063.58
664.11	11014.77
664.461	11004.15
664.811	11025.16
665.161	11051.38
665.511	11008.44
665.862	11031.94
666.212	11065.16
666.562	11068.78
666.912	11014.99
667.262	11032.17
667.612	11086.86
667.962	11047.99
668.312	11009.12
668.662	11125.72
669.011	11021.32
669.361	10965.05
669.711	10991.26
670.06	10994.43
670.41	10993.52
670.76	10968.67
671.109	10963.69
671.459	11074.65
671.808	10947.88
672.157	11012.06
672.507	10833.98
672.856	10933.41
673.205	10898.84
673.554	10912.62
673.904	10899.74
674.253	10988.33
674.602	10904.71
674.951	10741.78
675.3	10737.71
675.649	10809.57
675.998	10847.09
676.346	10800.99
676.695	10889.57
677.044	10818.84
677.393	10826.98
677.741	10821.1
678.09	10810.03
678.438	10800.99
678.787	10738.16
679.135	10687.77
679.484	10673.98
679.832	10702.46
680.181	10680.09
680.529	10678.5
680.877	10671.5
681.225	10642.8
681.573	10677.83
681.922	10591.73
682.27	10538.62
682.618	10543.14
682.966	10553.99
683.314	10538.17
683.661	10427.21
684.009	10469.24
684.357	10438.06
684.705	10408
685.053	10422.92
685.4	10375.46
685.748	10309.02
686.095	10378.63
686.443	10326.65
686.79	10283.71
687.138	10260.89
687.485	10230.61
687.832	10268.57
688.18	10222.47
688.527	10078.52
688.874	10135.47
689.221	10121.01
689.568	10108.35
689.915	10061.35
690.262	10092.31
690.609	9972.76
690.956	9981.12
691.303	9958.3
691.65	9954.68
691.997	9909.94
692.344	9924.85
692.69	9797.4
693.037	9781.13
693.383	9735.25
693.73	9709.49
694.077	9657.51
694.423	9579.32
694.769	9588.14
695.116	9558.76
695.462	9567.35
695.808	9601.02
696.155	9531.19
696.501	9453.9
696.847	9504.52
697.193	9398.99
697.539	9393.11
697.885	9382.04
698.231	9304.08
698.577	9369.39
698.923	9244.64
699.269	9162.61
699.614	9110.86
699.96	9130.97
700.306	9082.61
700.651	9062.73
700.997	9011.88
701.342	8985.22
701.688	9010.53
702.033	8922.17
702.379	8892.56
702.724	8893.47
703.069	8893.92
703.415	8836.07
703.76	8782.51
704.105	8746.8
704.45	8723.53
704.795	8667.48
705.14	8680.14
705.485	8656.86
705.83	8662.29
706.175	8565.79
706.52	8556.98
706.865	8520.37
707.209	8523.98
707.554	8546.36
707.899	8520.82
708.243	8459.13
708.588	8444.21
708.932	8443.76
709.277	8396.3
709.621	8413.48
709.966	8247.83
710.31	8347.72
710.654	8221.39
710.998	8221.62
711.342	8251.22
711.687	8241.28
712.031	8222.07
712.375	8135.97
712.719	8198.8
713.063	8120.61
713.407	8210.09
713.75	8137.1
714.094	8135.75
714.438	8126.26
714.782	8099.36
715.125	8055.97
715.469	8106.37
715.812	8042.42
716.156	7965.81
716.499	7987.73
716.843	7956.32
717.186	7935.98
717.53	7969.2
717.873	7990.44
718.216	7954.06
718.559	7851.46
718.902	7881.06
719.246	7850.56
719.589	7892.14
719.932	7788.64
720.275	7831.12
720.617	7811.91
720.96	7855.98
721.303	7878.35
721.646	7793.38
721.989	7749.09
722.331	7798.81
722.674	7730.11
723.016	7822.99
723.359	7762.42
723.701	7793.83
724.044	7707.06
724.386	7645.14
724.729	7760.16
725.071	7685.59
725.413	7737.79
725.755	7672.93
726.097	7669.09
726.439	7642.65
726.782	7691.92
727.124	7642.2
727.465	7698.92
727.807	7640.84
728.149	7578.7
728.491	7628.19
728.833	7630.22
729.175	7645.82
729.516	7620.73
729.858	7611.47
730.199	7667.96
730.541	7625.7
730.882	7594.07
731.224	7644.91
731.565	7600.39
731.906	7563.33
732.248	7652.82
732.589	7550.23
732.93	7554.52
733.271	7607.85
733.612	7590.45
733.953	7627.06
734.294	7560.85
734.635	7562.43
734.976	7616.21
735.317	7596.55
735.658	7539.83
735.999	7566.04
736.339	7561.98
736.68	7638.36
737.021	7604.91
737.361	7587.74
737.702	7634.52
738.042	7592.94
738.383	7614.4
738.723	7568.53
739.063	7616.89
739.404	7696.44
739.744	7694.85
740.084	7647.62
740.424	7600.85
740.764	7604.46
741.104	7712.71
741.444	7738.69
741.784	7685.14
742.124	7710.9
742.464	7695.53
742.804	7722.2
743.143	7809.88
743.483	7779.6
743.823	7806.04
744.162	7812.59
744.502	7858.69
744.841	7856.43
745.181	7944.79
745.52	7944.34
745.86	7958.12
746.199	8017.78
746.538	8062.98
746.877	8099.36
747.216	8177.55
747.556	8155.18
747.895	8224.11
748.234	8254.16
748.573	8353.14
748.911	8353.59
749.25	8365.57
749.589	8443.08
749.928	8564.44
750.267	8595.85
750.605	8697.09
750.944	8762.17
751.283	8890.75
751.621	8902.73
751.96	9010.3
752.298	9145.21
752.636	9221.59
752.975	9245.1
753.313	9324.42
753.651	9527.57
753.989	9579.1
754.327	9720.56
754.666	9761.24
755.004	9917.39
755.342	10069.71
755.679	10233.09
756.017	10281.68
756.355	10494.78
756.693	10565.29
757.031	10792.85
757.368	10807.09
757.706	10992.85
758.044	11131.83
758.381	11361.2
758.719	11565.03
759.056	11722.09
759.394	11837.34
759.731	11901.07
760.068	12090.67
760.405	12344.68
760.743	12536.31
761.08	12703.76
761.417	12799.13
761.754	13063.75
762.091	13213.58
762.428	13374.25
762.765	13483.63
763.102	13781.7
763.438	13915.93
763.775	14117.74
764.112	14397.73
764.449	14531.51
764.785	14655.8
765.122	14772.41
765.458	14909.35
765.795	15162.91
766.131	15310.7
766.467	15428.66
766.804	15638.15
767.14	15682.89
767.476	15955.43
767.812	16029.55
768.148	16194.97
768.485	16334.18
768.821	16455.3
769.157	16616.43
769.492	16762.86
769.828	16934.84
770.164	17048.96
770.5	17175.06
770.836	17352.45
771.171	17333.7
771.507	17505.9
771.842	17553.35
772.178	17707.25
772.513	17831.76
772.849	17956.05
773.184	18057.29
773.519	18118.76
773.855	18117.4
774.19	18336.83
774.525	18416.38
774.86	18478.3
775.195	18561.69
775.53	18552.2
775.865	18728.91
776.2	18596.94
776.535	18646.43
776.87	18792.87
777.205	18829.7
777.539	18827.89
777.874	18996.03
778.209	18868.12
778.543	18899.76
778.878	18944.05
779.212	18989.92
779.547	18993.09
779.881	19188.56
780.215	19058.85
780.55	19178.39
780.884	19187.21
781.218	19201.67
781.552	19280.09
781.886	19234.89
782.22	19148.11
782.554	19183.37
782.888	19200.09
783.222	19254.78
783.556	19192.18
783.889	19119.19
784.223	18980.43
784.557	19250.48
784.89	19239.41
785.224	19102.92
785.557	19065.63
785.891	19083.26
786.224	19109.92
786.558	19147.21
786.891	19044.16
787.224	18991.05
787.557	19053.65
787.891	18973.88
788.224	19095.01
788.557	19090.94
788.89	18953.54
789.223	19082.13
789.556	18971.85
789.888	18929.14
790.221	18915.12
790.554	18804.39
790.887	18856.14
791.219	18730.72
791.552	18763.72
791.884	18689.59
792.217	18748.35
792.549	18764.17
792.882	18491.63
793.214	18540.67
793.546	18619.76
793.879	18537.05
794.211	18393.33
794.543	18475.81
794.875	18406.66
795.207	18618.41
795.539	18374.57
795.871	18432.2
796.203	18241.7
796.535	18222.03
796.867	18177.74
797.198	18169.83
797.53	18133
797.862	18091.42
798.193	18085.54
798.525	18003.06
798.856	17975.04
799.188	17883.06
799.519	17859.78
799.85	17789.28
800.182	17764.42
800.513	17766.45
800.844	17639.9
801.175	17668.38
801.506	17770.75
801.837	17609.17
802.168	17615.95
802.499	17644.2
802.83	17515.39
803.161	17482.62
803.491	17501.15
803.822	17566.68
804.153	17417.76
804.483	17323.75
804.814	17232
805.145	17265
805.475	17220.93
805.805	17150.88
806.136	17189.29
806.466	17169.18
806.796	17136.64
807.126	16970.32
807.457	17060.03
807.787	16968.28
808.117	16842.18
808.447	16814.61
808.777	16824.11
809.107	16780.04
809.436	16811.68
809.766	16726.26
810.096	16732.81
810.426	16568.97
810.755	16670.44
811.085	16688.52
811.414	16645.13
811.744	16540.27
812.073	16478.35
812.403	16505.7
812.732	16430.9
813.061	16396.09
813.39	16340.05
813.719	16259.6
814.049	16445.36
814.378	16282.2
814.707	16223.44
815.036	16224.8
815.365	16110
815.693	16044.24
816.022	15969.21
816.351	16134.41
816.68	15974.41
817.008	16010.12
817.337	15869.1
817.665	15846.73
817.994	15879.95
818.322	15857.13
818.651	15738.48
818.979	15806.05
819.307	15815.54
819.636	15753.85
819.964	15640.63
820.292	15759.05
820.62	15677.92
820.948	15636.57
821.276	15726.51
821.604	15678.6
821.932	15717.92
822.259	15695.32
822.587	15598.15
822.915	15593.4
823.243	15745.26
823.57	15703.91
823.898	15664.81
824.225	15605.61
824.553	15545.27
824.88	15633.18
825.207	15724.25
825.535	15671.59
825.862	15693.29
826.189	15549.11
826.516	15615.32
826.843	15737.81
827.17	15673.63
827.497	15722.89
827.824	15725.6
828.151	15753.63
828.478	15693.51
828.805	15779.61
829.131	15603.57
829.458	15721.54
829.785	15620.3
830.111	15724.47
830.438	15748.88
830.764	15755.43
831.09	15686.28
831.417	15645.61
831.743	15703.91
832.069	15747.75
832.395	15700.52
832.722	15683.8
833.048	15647.41
833.374	15633.63
833.7	15619.17
834.026	15670.24
834.351	15684.7
834.677	15652.39
835.003	15563.8
835.329	15576.91
835.654	15674.53
835.98	15472.28
836.306	15547.53
836.631	15497.81
836.956	15471.37
837.282	15625.04
837.607	15509.79
837.932	15265.5
838.258	15348.89
838.583	15291.04
838.908	15244.71
839.233	15427.31
839.558	15291.49
839.883	15267.08
840.208	15234.77
840.533	15180.08
840.858	15188.22
841.182	15131.95
841.507	15178.27
841.832	15125.62
842.156	15032.06
842.481	15116.58
842.805	15042.68
843.13	15018.96
843.454	14910.26
843.778	14901.22
844.103	14860.54
844.427	14860.77
844.751	14830.49
845.075	14819.64
845.399	14782.8
845.723	14648.57
846.047	14688.79
846.371	14587.33
846.695	14635.46
847.019	14510.95
847.343	14368.35
847.666	14297.17
847.99	14263.72
848.313	14261.01
848.637	14139.2
848.96	14148.92
849.284	14062.37
849.607	14014.24
849.931	13920.23
850.254	13914.13
850.577	13844.75
850.9	13636.62
851.223	13828.93
851.546	13652.21
851.869	13626.9
852.192	13654.47
852.515	13549.62
852.838	13483.63
853.161	13409.51
853.483	13362.05
853.806	13343.29
854.129	13295.16
854.451	13305.1
854.774	13277.08
855.096	13133.13
855.419	13150.53
855.741	13098.55
856.063	12997.99
856.385	12973.81
856.708	12961.61
857.03	12895.85
857.352	12894.04
857.674	12807.26
857.996	12863.53
858.318	12822.85
858.64	12632.8
858.961	12693.14
859.283	12633.26
859.605	12594.84
859.926	12658.57
860.248	12548.29
860.57	12571.34
860.891	12541.28
861.212	12480.94
861.534	12461.51
861.855	12387.61
862.176	12419.25
862.498	12444.79
862.819	12361.17
863.14	12347.61
863.461	12279.82
863.782	12248.63
864.103	12252.25
864.424	12143.55
864.745	12225.36
865.065	12195.53
865.386	12082.08
865.707	12115.3
866.027	12020.84
866.348	12084.8
866.668	12090.9
866.989	12017
867.309	11948.08
867.63	11970.22
867.95	11965.48
868.27	11881.64
868.59	11905.59
868.91	11912.37
869.23	11883.67
869.55	11796.22
869.87	11920.73
870.19	11787.85
870.51	11884.8
870.83	11810.68
871.15	11818.36
871.469	11744.92
871.789	11813.16
872.109	11701.53
872.428	11665.6
872.748	11663.11
873.067	11660.4
873.386	11674.18
873.706	11659.72
874.025	11604.81
874.344	11555.54
874.663	11585.15
874.982	11538.59
875.301	11561.19
875.62	11595.54
875.939	11492.27
876.258	11551.02
876.577	11436
876.896	11433.51
877.214	11435.09
877.533	11393.51
877.852	11400.97
878.17	11367.53
878.489	11354.42
878.807	11379.28
879.125	11327.75
879.444	11355.32
879.762	11278.26
880.08	11293.63
880.398	11256.12
880.716	11255.44
881.034	11184.71
881.352	11245.95
881.67	11165.72
881.988	11101.77
882.306	11100.87
882.624	11062.68
882.941	10991.04
883.259	11018.16
883.577	10955.11
883.894	10984.49
884.212	11014.09
884.529	10888.67
884.846	10863.36
885.164	10911.04
885.481	10802.12
885.798	10899.52
886.115	10791.04
886.432	10743.14
886.75	10757.82
887.067	10768.67
887.383	10637.15
887.7	10677.37
888.017	10583.59
888.334	10599.18
888.651	10651.61
888.967	10535.46
889.284	10499.07
889.6	10509.47
889.917	10442.13
890.233	10391.51
890.55	10332.75
890.866	10445.52
891.182	10274.45
891.498	10305.18
891.815	10260.44
892.131	10189.03
892.447	10157.61
892.763	10199.42
893.079	10150.83
893.395	10110.16
893.71	10179.31
894.026	10042.36
894.342	10040.56
894.657	10028.13
894.973	10041.46
895.289	9922.82
895.604	9943.61
895.92	9816.83
896.235	9799.21
896.55	9860.22
896.865	9802.82
897.181	9771.41
897.496	9763.27
897.811	9621.58
898.126	9655.71
898.441	9619.55
898.756	9576.39
899.071	9501.59
899.386	9564.18
899.7	9444.64
900.015	9409.61
900.33	9304.08
900.644	9312.89
900.959	9388.59
901.273	9326.68
901.588	9223.4
901.902	9181.14
902.216	9188.15
902.531	9206
902.845	9095.72
903.159	9038.55
903.473	9046.68
903.787	9027.02
904.101	8921.94
904.415	8959
904.729	8917.19
905.042	8842.17
905.356	8847.59
905.67	8770.31
905.984	8831.77
906.297	8737.99
906.611	8695.05
906.924	8696.41
907.237	8660.7
907.551	8560.37
907.864	8530.09
908.177	8549.29
908.491	8433.59
908.804	8524.89
909.117	8387.27
909.43	8352.92
909.743	8264.56
910.056	8333.71
910.368	8286.93
910.681	8290.77
910.994	8220.72
911.307	8206.25
911.619	8128.97
911.932	8134.16
912.244	8123.32
912.557	8051.23
912.869	8034.51
913.181	8022.08
913.494	7977.78
913.806	7883.78
914.118	7928.75
914.43	7845.58
914.742	7828.86
915.054	7825.02
915.366	7833.16
915.678	7748.19
915.99	7717.9
916.302	7599.94
916.613	7655.31
916.925	7613.5
917.236	7571.69
917.548	7507.51
917.859	7558.59
918.171	7440.4
918.482	7470.91
918.794	7364.02
919.105	7436.78
919.416	7318.59
919.727	7312.49
920.038	7378.7
920.349	7250.12
920.66	7258.26
920.971	7256.45
921.282	7213.96
921.593	7131.71
921.903	7078.37
922.214	7106.4
922.525	7063.46
922.835	7087.64
923.146	6999.51
923.456	6971.71
923.767	6940.3
924.077	6897.59
924.387	6861.2
924.697	6910.24
925.008	6846.97
925.318	6775.78
925.628	6785.05
925.938	6689
926.248	6734.65
926.558	6675.9
926.867	6664.82
927.177	6657.14
927.487	6617.14
927.796	6569.46
928.106	6532.62
928.416	6586.41
928.725	6500.08
929.034	6458.05
929.344	6525.39
929.653	6424.38
929.962	6393.65
930.271	6356.36
930.581	6341.44
930.89	6306.42
931.199	6297.83
931.508	6270.71
931.817	6265.97
932.125	6198.62
932.434	6265.51
932.743	6197.49
933.051	6173.76
933.36	6097.16
933.669	6065.52
933.977	6083.15
934.286	6047.21
934.594	6058.06
934.902	5928.57
935.21	5936.93
935.519	5952.08
935.827	5953.21
936.135	5899.87
936.443	5879.31
936.751	5809.25
937.059	5822.14
937.367	5772.64
937.674	5807.67
937.982	5773.1
938.29	5738.3
938.597	5704.4
938.905	5632.54
939.213	5611.75
939.52	5621.69
939.827	5609.26
940.135	5562.03
940.442	5535.59
940.749	5569.26
941.056	5538.98
941.363	5473.9
941.67	5501.24
941.977	5437.96
942.284	5403.84
942.591	5372.66
942.898	5325.88
943.205	5389.6
943.511	5327.91
943.818	5300.11
944.125	5307.35
944.431	5284.52
944.738	5250.62
945.044	5237.74
945.35	5173.34
945.657	5131.53
945.963	5121.14
946.269	5106.67
946.575	5113.23
946.881	5080.91
947.187	5045.88
947.493	5007.47
947.799	5033.46
948.105	4992.1
948.41	4952.33
948.716	4941.03
949.022	4907.36
949.327	4917.98
949.633	4825.55
949.938	4861.48
950.244	4860.35
950.549	4828.26
950.854	4802.95
951.16	4762.73
951.465	4753.91
951.77	4695.84
952.075	4703.97
952.38	4677.08
952.685	4685.44
952.99	4686.57
953.294	4598.89
953.599	4627.59
953.904	4589.4
954.209	4565.22
954.513	4556.63
954.818	4536.29
955.122	4534.49
955.426	4503.98
955.731	4461.04
956.035	4433.7
956.339	4413.58
956.643	4421.27
956.948	4387.37
957.252	4363.19
957.556	4334.04
957.86	4340.14
958.163	4345.79
958.467	4309.86
958.771	4309.41
959.075	4295.4
959.378	4216.3
959.682	4262.18
959.985	4192.35
960.289	4192.8
960.592	4192.35
960.896	4186.25
961.199	4179.24
961.502	4098.11
961.805	4090.66
962.108	4104.89
962.411	4042.52
962.714	4032.8
963.017	4047.72
963.32	4040.94
963.623	3975.63
963.926	4004.56
964.228	3976.76
964.531	3979.25
964.833	3915.07
965.136	3875.75
965.438	3894.05
965.741	3862.19
966.043	3816.76
966.345	3835.52
966.648	3805.92
966.95	3847.95
967.252	3812.47
967.554	3762.3
967.856	3798.23
968.158	3756.43
968.46	3744.68
968.761	3723.43
969.063	3729.99
969.365	3699.25
969.666	3646.15
969.968	3633.94
970.269	3625.81
970.571	3632.59
970.872	3579.03
971.174	3546.94
971.475	3562.31
971.776	3581.06
972.077	3524.12
972.378	3555.53
972.679	3522.31
972.98	3528.18
973.281	3498.35
973.582	3476.89
973.883	3429.88
974.183	3446.38
974.484	3410
974.785	3400.96
975.085	3437.11
975.386	3393.95
975.686	3364.57
975.986	3344.69
976.287	3324.57
976.587	3330.68
976.887	3326.16
977.187	3269.89
977.487	3272.82
977.787	3266.5
978.087	3242.54
978.387	3216.78
978.687	3258.36
978.987	3210.68
979.286	3165.93
979.586	3186.72
979.885	3177.01
980.185	3116.9
980.484	3115.54
980.784	3104.47
981.083	3067.41
981.382	3093.62
981.682	3118.25
981.981	3070.79
982.28	3028.76
982.579	3049.55
982.878	3022.89
983.177	2973.4
983.475	2986.5
983.774	2931.36
984.073	2932.72
984.372	2951.7
984.67	2915.32
984.969	2934.98
985.267	2923.68
985.566	2895.43
985.864	2863.34
986.162	2876.9
986.461	2819.95
986.759	2843.91
987.057	2786.51
987.355	2810.91
987.653	2796
987.951	2769.33
988.249	2743.12
988.547	2774.31
988.844	2763.46
989.142	2751.03
989.44	2727.98
989.737	2693.4
990.035	2711.03
990.332	2685.27
990.63	2690.47
990.927	2683.69
991.224	2672.16
991.521	2662.9
991.819	2614.99
992.116	2613.18
992.413	2594.88
992.71	2585.84
993.006	2600.98
993.303	2567.53
993.6	2576.57
993.897	2534.54
994.193	2495.22
994.49	2544.48
994.787	2520.53
995.083	2502.9
995.379	2485.27
995.676	2459.29
995.972	2465.61
996.268	2456.35
996.565	2427.65
996.861	2411.83
997.157	2393.75
997.453	2410.02
997.749	2390.36
998.044	2344.26
998.34	2371.38
998.636	2377.93
998.932	2332.28
999.227	2345.39
999.523	2311.27
999.818	2288.89
1000.114	2287.54
1000.409	2231.72
1000.704	2269.69
1001	2269.23
1001.295	2221.33
1001.59	2207.31
1001.885	2204.6
1002.18	2218.84
1002.475	2204.38
1002.77	2172.51
1003.065	2166.64
1003.359	2173.42
1003.654	2146.07
1003.949	2135
1004.243	2121.67
1004.538	2088.67
1004.832	2085.06
1005.127	2094.55
1005.421	2071.05
1005.715	2066.98
1006.009	2021.33
1006.304	2055.45
1006.598	2012.97
1006.892	2015.68
1007.186	2008.22
1007.48	1967.55
1007.773	1964.16
1008.067	1966.87
1008.361	1951.95
1008.655	1963.03
1008.948	1925.06
1009.242	1935.68
1009.535	1937.27
1009.829	1921.9
1010.122	1874.89
1010.415	1860.66
1010.708	1843.26
1011.001	1871.05
1011.295	1827.89
1011.588	1829.02
1011.881	1806.42
1012.173	1813.2
1012.466	1796.48
1012.759	1788.12
1013.052	1782.69
1013.344	1780.43
1013.637	1780.43
1013.93	1756.03
1014.222	1727.33
1014.514	1712.19
1014.807	1692.75
1015.099	1719.87
1015.391	1716.71
1015.683	1704.73
1015.976	1689.36
1016.268	1659.98
1016.56	1653.43
1016.851	1657.05
1017.143	1641.45
1017.435	1657.5
1017.727	1610.49
1018.018	1615.92
1018.31	1581.34
1018.602	1605.97
1018.893	1583.6
1019.185	1572.53
1019.476	1557.61
1019.767	1566.2
1020.058	1523.94
1020.35	1500.44
1020.641	1532.76
1020.932	1490.5
1021.223	1496.37
1021.514	1498.86
1021.804	1470.16
1022.095	1457.28
1022.386	1467.67
1022.677	1474
1022.967	1437.39
1023.258	1410.73
1023.548	1404.62
1023.839	1408.24
1024.129	1421.35
1024.419	1412.99
1024.709	1367.79
1025	1378.41
1025.29	1348.81
1025.58	1368.69
1025.87	1363.95
1026.16	1314.46
1026.449	1330.73
1026.739	1337.06
1027.029	1318.75
1027.319	1291.63
1027.608	1298.86
1027.898	1288.47
1028.187	1288.02
1028.477	1257.51
1028.766	1274.01
1029.055	1248.92
1029.344	1251.41
1029.634	1239.2
1029.923	1212.31
1030.212	1222.26
1030.501	1197.85
1030.79	1194.69
1031.078	1213.22
1031.367	1199.43
1031.656	1170.96
1031.945	1175.48
1032.233	1154.24
1032.522	1149.26
1032.81	1138.42
1033.099	1120.56
1033.387	1121.47
1033.675	1136.38
1033.963	1123.28
1034.251	1118.98
1034.54	1110.85
1034.828	1117.85
1035.116	1095.03
1035.403	1096.16
1035.691	1102.49
1035.979	1045.31
1036.267	1059.32
1036.554	1041.92
1036.842	1067.23
1037.129	1043.5
1037.417	1033.56
1037.704	1028.36
1037.992	999.89
1038.279	1025.2
1038.566	1001.47
1038.853	1001.47
1039.14	1001.47
