Data from hue_150_FLMS001491_00019.txt Node
Date: Tue Feb 07 16:53:42 GMT 2017
User: dcchb
Spectrometer: FLMS00149
Trigger mode: 0
Integration Time (sec): 2.000000E-2
Scans to average: 10
Electric dark correction enabled: true
Nonlinearity correction enabled: false
Boxcar width: 0
XAxis mode: Wavelengths
Number of Pixels in Spectrum: 2048
>>>>>Begin Spectral Data<<<<<
341.393	6.48
341.776	6.48
342.16	6.48
342.543	-77.36
342.927	-93.4
343.31	-74.64
343.693	-87.53
344.077	-61.99
344.46	-64.48
344.843	-46.17
345.226	-33.06
345.61	-24.25
345.993	-35.55
346.376	3.09
346.759	11.23
347.142	21.62
347.525	40.15
347.908	57.55
348.291	78.35
348.674	95.52
349.057	120.15
349.44	141.39
349.823	162.19
350.206	135.97
350.588	196.53
350.971	189.08
351.354	235.4
351.737	227.49
352.119	266.82
352.502	255.52
352.884	265.91
353.267	274.05
353.65	296.42
354.032	283.31
354.414	307.94
354.797	311.79
355.179	330.99
355.562	314.27
355.944	316.76
356.326	333.71
356.709	324.67
357.091	344.1
357.473	342.75
357.855	330.54
358.238	330.54
358.62	334.38
359.002	359.69
359.384	340.49
359.766	352.91
360.148	318.79
360.53	313.14
360.912	346.36
361.294	319.92
361.676	320.37
362.057	321.5
362.439	320.15
362.821	332.12
363.203	322.63
363.584	318.79
363.966	331.22
364.348	332.58
364.729	349.75
365.111	334.84
365.493	312.01
365.874	316.76
366.256	302.29
366.637	333.03
367.019	322.41
367.4	327.83
367.781	296.87
368.163	334.38
368.544	330.09
368.925	312.92
369.306	308.4
369.688	330.09
370.069	309.07
370.45	315.4
370.831	312.46
371.212	304.1
371.593	315.63
371.974	311.33
372.355	319.47
372.736	314.5
373.117	293.03
373.498	313.14
373.879	319.69
374.26	327.15
374.641	303.65
375.021	314.72
375.402	311.11
375.783	324.21
376.163	339.36
376.544	319.69
376.925	343.42
377.305	325.57
377.686	343.65
378.066	318.57
378.447	331.45
378.827	320.6
379.208	339.81
379.588	341.16
379.968	354.5
380.349	344.1
380.729	332.12
381.109	331.45
381.489	341.84
381.87	335.29
382.25	343.65
382.63	347.26
383.01	343.88
383.39	345.23
383.77	350.43
384.15	355.85
384.53	347.26
384.91	336.19
385.29	332.35
385.67	361.28
386.049	347.94
386.429	369.19
386.809	342.52
387.189	361.5
387.568	365.57
387.948	367.15
388.328	347.04
388.707	366.7
389.087	361.95
389.466	385.91
389.846	375.51
390.225	365.57
390.605	378.22
390.984	369.64
391.363	353.82
391.743	376.19
392.122	370.99
392.501	371.22
392.881	390.65
393.26	374.83
393.639	382.29
394.018	389.07
394.397	418
394.776	384.33
395.155	381.61
395.534	410.31
395.913	380.94
396.292	394.72
396.671	390.88
397.05	415.51
397.429	403.31
397.808	388.62
398.186	392.46
398.565	413.93
398.944	396.3
399.323	402.63
399.701	410.77
400.08	399.69
400.458	398.56
400.837	419.58
401.215	399.01
401.594	419.13
401.972	431.33
402.351	413.25
402.729	426.36
403.107	416.42
403.486	437.21
403.864	418.9
404.242	409.64
404.62	427.04
404.999	444.21
405.377	458.45
405.755	432.91
406.133	432.46
406.511	440.14
406.889	461.16
407.267	485.34
407.645	465.68
408.023	458.67
408.401	470.2
408.779	461.84
409.156	458.45
409.534	457.09
409.912	465.23
410.29	479.01
410.667	488.28
411.045	490.76
411.422	487.6
411.8	489.86
412.178	497.32
412.555	509.29
412.933	504.1
413.31	488.96
413.687	512.91
414.065	512.46
414.442	534.6
414.819	514.04
415.197	523.98
415.574	521.95
415.951	524.89
416.328	519.46
416.705	548.39
417.082	518.11
417.46	554.27
417.837	558.56
418.214	545.23
418.591	545.23
418.967	562.63
419.344	564.66
419.721	579.35
420.098	546.13
420.475	556.98
420.852	582.06
421.228	580.93
421.605	585
421.982	584.77
422.358	586.81
422.735	596.52
423.111	588.61
423.488	615.73
423.864	608.27
424.241	590.65
424.617	605.11
424.994	633.81
425.37	625
425.746	633.13
426.123	639.23
426.499	646.69
426.875	654.38
427.251	668.84
427.627	683.3
428.003	659.12
428.379	673.58
428.756	686.92
429.132	688.27
429.507	681.95
429.883	696.41
430.259	708.16
430.635	722.62
431.011	702.51
431.387	721.49
431.763	739.8
432.138	743.41
432.514	724.66
432.89	735.5
433.265	749.97
433.641	756.07
434.016	765.11
434.392	796.74
434.767	801.72
435.143	817.99
435.518	812.34
435.894	795.84
436.269	788.84
436.644	816.86
437.02	825.22
437.395	834.94
437.77	872
438.145	855.95
438.52	853.69
438.895	871.32
439.271	867.03
439.646	857.53
440.021	888.49
440.395	900.02
440.77	865.9
441.145	916.74
441.52	922.62
441.895	913.58
442.27	913.58
442.645	915.84
443.019	950.41
443.394	941.83
443.769	955.61
444.143	977.53
444.518	961.94
444.892	981.6
445.267	962.16
445.641	979.34
446.016	987.02
446.39	995.61
446.764	972.79
447.139	984.54
447.513	1001.26
447.887	1008.94
448.262	1029.51
448.636	1018.21
449.01	1027.02
449.384	1057.3
449.758	1051.65
450.132	1082.61
450.506	1078.32
450.88	1051.65
451.254	1070.86
451.628	1095.72
452.002	1113.57
452.376	1131.65
452.75	1121.48
453.123	1121.93
453.497	1157.87
453.871	1176.62
454.244	1181.82
454.618	1167.81
454.992	1195.15
455.365	1200.58
455.739	1232.21
456.112	1220.69
456.486	1261.14
456.859	1244.42
457.232	1280.35
457.606	1276.05
457.979	1305.66
458.352	1302.95
458.725	1344.75
459.099	1356.73
459.472	1358.09
459.845	1380.46
460.218	1407.8
460.591	1398.54
460.964	1468.82
461.337	1470.85
461.71	1490.51
462.083	1489.61
462.456	1511.98
462.829	1518.53
463.201	1546.56
463.574	1547.23
463.947	1592.88
464.32	1633.11
464.692	1624.75
465.065	1620.68
465.438	1701.13
465.81	1697.96
466.183	1703.61
466.555	1747.68
466.928	1768.47
467.3	1762.59
467.672	1850.73
468.045	1898.18
468.417	1860.67
468.789	1894.34
469.161	1919.65
469.534	1969.82
469.906	2015.92
470.278	2078.07
470.65	2056.37
471.022	2113.32
471.394	2173.43
471.766	2215.46
472.138	2244.62
472.51	2288
472.882	2330.49
473.253	2337.72
473.625	2432.63
473.997	2472.63
474.369	2463.37
474.74	2513.76
475.112	2624.95
475.484	2656.36
475.855	2728.9
476.227	2796.24
476.598	2864.03
476.97	2952.85
477.341	3019.29
477.713	3071.71
478.084	3127.98
478.455	3282.78
478.827	3279.17
479.198	3382.67
479.569	3429.44
479.94	3562.32
480.311	3622.66
480.682	3746.5
481.053	3859.49
481.424	3922.99
481.795	4010.22
482.166	4113.95
482.537	4228.97
482.908	4374.73
483.279	4438.23
483.65	4530.88
484.021	4693.14
484.391	4798.45
484.762	4884.55
485.133	4992.11
485.503	5075.73
485.874	5255.16
486.244	5369.51
486.615	5523.4
486.985	5653.11
487.356	5799.32
487.726	5892.43
488.097	6018.08
488.467	6130.84
488.837	6291.52
489.207	6438.4
489.578	6597.5
489.948	6706.87
490.318	6887.43
490.688	7003.14
491.058	7151.61
491.428	7291.72
491.798	7395.44
492.168	7613.51
492.538	7773.74
492.908	7915.88
493.278	8051.47
493.648	8105.25
494.017	8284.46
494.387	8420.5
494.757	8533.26
495.126	8672.92
495.496	8774.39
495.866	8979.35
496.235	9007.83
496.605	9175.51
496.974	9285.56
497.344	9466.8
497.713	9519
498.082	9702.73
498.452	9814.59
498.821	9912.21
499.19	10006.45
499.559	10093
499.928	10283.5
500.298	10338.64
500.667	10514.23
501.036	10533.21
501.405	10612.53
501.774	10685.52
502.143	10816.59
502.512	10939.08
502.88	11018.85
503.249	11050.26
503.618	11195.57
503.987	11141.78
504.356	11339.29
504.724	11424.49
505.093	11524.82
505.462	11522.56
505.83	11679.17
506.199	11732.05
506.567	11871.48
506.936	11915.1
507.304	12012.72
507.672	12163.68
508.041	12130.01
508.409	12230.57
508.777	12436.66
509.145	12380.85
509.514	12425.82
509.882	12494.97
510.25	12506.72
510.618	12565.25
510.986	12646.6
511.354	12673.49
511.722	12932.24
512.09	13001.17
512.458	12983.77
512.826	12967.5
513.193	13224.21
513.561	13137.89
513.929	13216.53
514.297	13338.56
514.664	13338.79
515.032	13352.35
515.4	13405.23
515.767	13513.47
516.135	13521.16
516.502	13424.66
516.869	13641.15
517.237	13604.09
517.604	13565.22
517.972	13727.93
518.339	13792.79
518.706	13737.65
519.073	13808.15
519.44	13903.74
519.808	13922.28
520.175	13922.05
520.542	14115.94
520.909	14062.84
521.276	14032.78
521.643	14127.47
522.009	14173.12
522.376	14234.13
522.743	14276.84
523.11	14332.43
523.477	14520.45
523.843	14472.09
524.21	14546.67
524.577	14580.34
524.943	14617.62
525.31	14611.75
525.676	14758.86
526.043	14687
526.409	14689.03
526.776	14797.05
527.142	14789.82
527.508	14827.34
527.874	14875.24
528.241	14933.77
528.607	14930.84
528.973	14970.38
529.339	14917.5
529.705	14961.12
530.071	15057.61
530.437	15020.78
530.803	15054.22
531.169	15020.78
531.535	14943.49
531.901	15103.26
532.267	15039.99
532.632	15172.19
532.998	15061.23
533.364	15061.23
533.73	15046.77
534.095	15112.98
534.461	15133.99
534.826	15127.44
535.192	15081.34
535.557	15128.57
535.923	15035.92
536.288	15077.27
536.653	15055.35
537.019	14943.04
537.384	14918.86
537.749	15016.48
538.114	14882.7
538.479	14857.17
538.845	14877.28
539.21	14743.72
539.575	14902.14
539.94	14735.59
540.305	14860.33
540.67	14771.52
541.034	14794.12
541.399	14746.66
541.764	14757.28
542.129	14682.26
542.494	14619.66
542.858	14650.62
543.223	14668.47
543.587	14572.65
543.952	14488.81
544.316	14458.76
544.681	14490.4
545.045	14578.3
545.41	14517.74
545.774	14468.25
546.138	14459.44
546.503	14435.03
546.867	14279.33
547.231	14312.55
547.595	14360.46
547.959	14309.38
548.324	14283.85
548.688	14211.08
549.052	14202.72
549.416	14129.5
549.779	14164.75
550.143	14170.63
550.507	14170.4
550.871	14140.57
551.235	14120.46
551.599	14126.56
551.962	14096.28
552.326	14073.68
552.689	14098.54
553.053	14032.55
553.417	13966.79
553.78	14179.9
554.143	13981.03
554.507	14015.38
554.87	13924.08
555.234	14130.18
555.597	13997.75
555.96	13944.2
556.323	13864.2
556.686	13920.24
557.05	13973.35
557.413	13950.52
557.776	13851.54
558.139	13893.35
558.502	13853.35
558.865	13834.37
559.228	13916.4
559.59	13906
559.953	13857.64
560.316	13990.3
560.679	13854.48
561.041	13973.8
561.404	14012.44
561.767	14037.53
562.129	13983.29
562.492	14147.58
562.854	14014.48
563.217	13967.02
563.579	14028.49
563.941	14105.1
564.304	14107.36
564.666	14193.68
565.028	14116.39
565.39	14091.31
565.753	14101.71
566.115	14192.1
566.477	14178.54
566.839	14216.05
567.201	14271.64
567.563	14209.05
567.925	14338.76
568.287	14265.54
568.648	14363.85
569.01	14293.79
569.372	14382.38
569.734	14351.19
570.095	14409.95
570.457	14387.8
570.819	14499.89
571.18	14404.97
571.542	14506.44
571.903	14423.73
572.265	14415.6
572.626	14479.77
572.987	14495.82
573.349	14540.34
573.71	14546.67
574.071	14511.86
574.432	14606.1
574.794	14641.8
575.155	14634.57
575.516	14424.18
575.877	14516.38
576.238	14580.11
576.599	14597.74
576.96	14580.11
577.32	14626.21
577.681	14584.4
578.042	14630.96
578.403	14647.68
578.763	14612.88
579.124	14639.09
579.485	14618.08
579.845	14654.23
580.206	14776.72
580.566	14727.68
580.927	14678.19
581.287	14653.56
581.648	14729.94
582.008	14661.92
582.368	14667.79
582.728	14752.76
583.089	14778.98
583.449	14682.71
583.809	14600.45
584.169	14642.93
584.529	14634.57
584.889	14700.56
585.249	14578.08
585.609	14588.7
585.969	14607.68
586.329	14633.89
586.688	14595.25
587.048	14621.47
587.408	14573.78
587.768	14570.62
588.127	14622.14
588.487	14574.24
588.846	14640.45
589.206	14523.62
589.565	14574.46
589.925	14620.56
590.284	14452.66
590.643	14497.85
591.003	14558.19
591.362	14568.13
591.721	14494.01
592.08	14495.82
592.44	14456.27
592.799	14477.51
593.158	14456.72
593.517	14471.19
593.876	14385.31
594.235	14449.94
594.593	14422.83
594.952	14479.77
595.311	14338.54
595.67	14355.03
596.029	14518.64
596.387	14444.3
596.746	14487.01
597.104	14491.75
597.463	14345.99
597.822	14568.13
598.18	14351.64
598.538	14374.01
598.897	14501.69
599.255	14326.56
599.613	14517.29
599.972	14536.95
600.33	14478.87
600.688	14420.57
601.046	14478.42
601.404	14466.44
601.762	14475.48
602.12	14535.59
602.478	14449.27
602.836	14535.59
603.194	14409.72
603.552	14373.79
603.91	14357.07
604.268	14432.54
604.625	14353.9
604.983	14390.74
605.341	14352.77
605.698	14437.74
606.056	14469.15
606.413	14476.84
606.771	14507.12
607.128	14557.96
607.485	14470.96
607.843	14503.5
608.2	14548.25
608.557	14526.55
608.914	14407.01
609.272	14594.12
609.629	14617.62
609.986	14626.21
610.343	14539.21
610.7	14715.47
611.057	14612.2
611.414	14508.93
611.771	14677.51
612.127	14618.08
612.484	14740.33
612.841	14663.72
613.198	14640.22
613.554	14651.97
613.911	14681.35
614.267	14661.92
614.624	14708.92
614.98	14757.73
615.337	14782.37
615.693	14790.5
616.05	14694.91
616.406	14828.92
616.762	14784.85
617.118	14775.36
617.475	14745.98
617.831	14773.33
618.187	14805.64
618.543	14847.67
618.899	14925.64
619.255	14875.47
619.611	14832.99
619.967	14890.84
620.323	14966.32
620.678	14961.12
621.034	14841.12
621.39	14833.21
621.746	14841.57
622.101	15019.65
622.457	14873.21
622.812	14904.85
623.168	14840.44
623.523	14898.75
623.879	14952.3
624.234	14839.77
624.589	14945.3
624.945	14875.02
625.3	14927.22
625.655	14975.13
626.01	14981.23
626.365	15004.73
626.72	14896.26
627.075	14887.45
627.43	14856.26
627.785	14835.7
628.14	14832.99
628.495	14920.89
628.85	14858.3
629.205	14829.6
629.559	14859.88
629.914	14806.77
630.269	14814.68
630.623	14783.27
630.978	14729.71
631.332	14759.09
631.687	14798.18
632.041	14729.71
632.396	14821.23
632.75	14641.35
633.104	14737.85
633.459	14735.36
633.813	14601.58
634.167	14624.4
634.521	14627.12
634.875	14576.04
635.229	14630.73
635.583	14578.08
635.937	14534.01
636.291	14513.45
636.645	14521.58
636.999	14507.34
637.352	14507.57
637.706	14404.97
638.06	14433.45
638.413	14376.27
638.767	14397.97
639.121	14362.49
639.474	14332.21
639.828	14320.91
640.181	14354.58
640.534	14327.24
640.888	14278.88
641.241	14283.85
641.594	14247.69
641.947	14395.48
642.301	14270.51
642.654	14344.18
643.007	14343.51
643.36	14288.14
643.713	14257.18
644.066	14307.58
644.419	14154.13
644.771	14150.52
645.124	13942.16
645.477	13972.44
645.83	13903.52
646.182	13768.38
646.535	13757.99
646.888	13728.83
647.24	13743.52
647.593	13720.92
647.945	13701.94
648.298	13740.59
648.65	13669.17
649.002	13636.86
649.355	13753.24
649.707	13771.32
650.059	13856.06
650.411	13953.23
650.763	13987.36
651.115	14079.56
651.467	14065.32
651.819	14087.47
652.171	14047.7
652.523	14062.84
652.875	13939.22
653.227	13966.57
653.578	14082.5
653.93	14028.71
654.282	14013.8
654.633	13845.22
654.985	14008.6
655.337	14021.26
655.688	14028.26
656.039	13978.54
656.391	13867.81
656.742	13944.87
657.094	13923.63
657.445	13957.53
657.796	14011.76
658.147	13937.42
658.498	13948.04
658.849	14028.26
659.2	14026.68
659.551	13983.52
659.902	14006.57
660.253	14023.29
660.604	14062.38
660.955	13999.79
661.306	14025.1
661.656	13955.27
662.007	14006.11
662.358	14044.31
662.708	14033.23
663.059	13967.7
663.409	13915.95
663.76	14067.13
664.11	14028.71
664.461	14080.24
664.811	14060.35
665.161	14112.78
665.511	13990.52
665.862	14002.5
666.212	14115.72
666.562	14048.6
666.912	14003.4
667.262	14002.05
667.612	13995.95
667.962	14002.05
668.312	13955.49
668.662	14083.17
669.011	14100.8
669.361	14006.79
669.711	13865.78
670.06	13975.83
670.41	13946.91
670.76	13938.09
671.109	13907.36
671.459	13946.68
671.808	13856.29
672.157	13970.86
672.507	13914.14
672.856	13841.37
673.205	13856.97
673.554	13924.54
673.904	13939.68
674.253	14009.73
674.602	13857.19
674.951	13645.45
675.3	13600.7
675.649	13873.91
675.998	13879.79
676.346	13852.22
676.695	13803.18
677.044	13767.93
677.393	13745.1
677.741	13792.34
678.09	13781.04
678.438	13571.1
678.787	13738.1
679.135	13672.56
679.484	13564.32
679.832	13664.88
680.181	13598.67
680.529	13563.87
680.877	13523.19
681.225	13507.82
681.573	13563.64
681.922	13482.06
682.27	13456.3
682.618	13440.93
682.966	13450.88
683.314	13437.32
683.661	13383.76
684.009	13336.3
684.357	13281.16
684.705	13314.61
685.053	13341.95
685.4	13204.55
685.748	13193.71
686.095	13172.92
686.443	13167.94
686.79	13134.5
687.138	13097.44
687.485	13146.7
687.832	13093.14
688.18	13141.73
688.527	12999.14
688.874	12963.66
689.221	12989.19
689.568	12892.7
689.915	12914.39
690.262	12856.31
690.609	12837.11
690.956	12801.4
691.303	12720.72
691.65	12678.69
691.997	12657.45
692.344	12623.33
692.69	12567.06
693.037	12548.53
693.383	12372.26
693.73	12502.2
694.077	12386.04
694.423	12348.53
694.769	12270.79
695.116	12301.07
695.462	12205.48
695.808	12232.83
696.155	12233.51
696.501	12078.48
696.847	12117.8
697.193	11932.95
697.539	12114.87
697.885	11985.6
698.231	11937.69
698.577	11945.83
698.923	11856.79
699.269	11770.24
699.614	11721.88
699.96	11734.08
700.306	11761.43
700.651	11649.79
700.997	11611.6
701.342	11665.39
701.688	11530.7
702.033	11493.64
702.379	11448.67
702.724	11421.1
703.069	11396.92
703.415	11335.68
703.76	11323.25
704.105	11373.19
704.45	11375.68
704.795	11150.82
705.14	11165.51
705.485	11147.43
705.83	11101.33
706.175	11138.62
706.52	11009.81
706.865	11001.45
707.209	11013.65
707.554	10915.12
707.899	10893.43
708.243	10915.57
708.588	10844.84
708.932	10754.67
709.277	10758.74
709.621	10761.68
709.966	10634.45
710.31	10687.33
710.654	10666.77
710.998	10581.35
711.342	10626.32
711.687	10613.66
712.031	10541.8
712.375	10525.08
712.719	10610.95
713.063	10589.93
713.407	10509.26
713.75	10417.06
714.094	10484.85
714.438	10465.64
714.782	10383.61
715.125	10412.99
715.469	10406.44
715.812	10372.09
716.156	10346.55
716.499	10301.58
716.843	10332.31
717.186	10228.36
717.53	10263.61
717.873	10297.06
718.216	10340
718.559	10167.57
718.902	10122.6
719.246	10194.24
719.589	10053.68
719.932	10011.87
720.275	10032.66
720.617	10023.39
720.96	9994.24
721.303	10022.72
721.646	9968.71
721.989	9962.38
722.331	10029.95
722.674	10046.22
723.016	9966.67
723.359	9980.46
723.701	10028.14
724.044	9984.75
724.386	9869.5
724.729	9942.04
725.071	9910.63
725.413	9884.42
725.755	9940.91
726.097	9891.42
726.439	9855.04
726.782	9791.08
727.124	9916.5
727.465	9848.71
727.807	9842.16
728.149	9826.56
728.491	9789.95
728.833	9842.83
729.175	9776.85
729.516	9759.45
729.858	9788.6
730.199	9707.47
730.541	9741.37
730.882	9714.7
731.224	9816.17
731.565	9738.43
731.906	9771.2
732.248	9694.36
732.589	9753.8
732.93	9701.82
733.271	9622.5
733.612	9718.32
733.953	9639.45
734.294	9676.74
734.635	9679.45
734.976	9647.59
735.317	9626.79
735.658	9723.97
735.999	9712.67
736.339	9691.2
736.68	9703.18
737.021	9666.79
737.361	9600.13
737.702	9758.09
738.042	9700.01
738.383	9755.83
738.723	9713.35
739.063	9684.42
739.404	9715.38
739.744	9738.2
740.084	9759.22
740.424	9753.12
740.764	9684.19
741.104	9824.53
741.444	9756.51
741.784	9739.79
742.124	9810.29
742.464	9862.72
742.804	9792.89
743.143	9839.44
743.483	9863.62
743.823	9914.47
744.162	9901.59
744.502	9966
744.841	9945.66
745.181	9974.58
745.52	10039.67
745.86	10035.6
746.199	10073.79
746.538	10093.45
746.877	10162.15
747.216	10199.44
747.556	10181.13
747.895	10250.73
748.234	10309.94
748.573	10330.28
748.911	10394.01
749.25	10493.21
749.589	10514.23
749.928	10552.87
750.267	10599.65
750.605	10676.03
750.944	10745.41
751.283	10716.03
751.621	10868.12
751.96	10927.78
752.298	11021.56
752.636	11124.38
752.975	11153.53
753.313	11207.77
753.651	11327.32
753.989	11523.24
754.327	11521.43
754.666	11606.86
755.004	11862.67
755.342	11961.2
755.679	12061.31
756.017	12207.97
756.355	12434.4
756.693	12404.8
757.031	12532.48
757.368	12666.94
757.706	12849.54
758.044	12997.55
758.381	13132.69
758.719	13202.97
759.056	13428.28
759.394	13556.41
759.731	13674.6
760.068	13718.44
760.405	13963.63
760.743	14028.94
761.08	14227.8
761.417	14354.35
761.754	14550.51
762.091	14693.55
762.428	14923.38
762.765	14869.59
763.102	15201.11
763.438	15336.48
763.775	15458.51
764.112	15569.69
764.449	15849.91
764.785	15913.41
765.122	16063.24
765.458	16134.65
765.795	16389.78
766.131	16543.22
766.467	16577.57
766.804	16784.35
767.14	16885.14
767.476	17051.68
767.812	17164.22
768.148	17359.02
768.485	17396.08
768.821	17536.87
769.157	17578.68
769.492	17842.4
769.828	17943.41
770.164	17956.07
770.5	17969.63
770.836	18153.12
771.171	18200.58
771.507	18313.35
771.842	18327.13
772.178	18460.23
772.513	18578.42
772.849	18658.42
773.184	18716.73
773.519	18841.47
773.855	18834.24
774.19	18922.37
774.525	18918.53
774.86	19076.49
775.195	19139.99
775.53	19078.52
775.865	19117.17
776.2	19166.21
776.535	19082.37
776.87	19217.73
777.205	19293.66
777.539	19222.47
777.874	19361
778.209	19378.4
778.543	19252.3
778.878	19289.59
779.212	19370.27
779.547	19378.18
779.881	19548.57
780.215	19381.11
780.55	19566.65
780.884	19392.41
781.218	19417.27
781.552	19535.23
781.886	19446.42
782.22	19447.55
782.554	19546.76
782.888	19304.28
783.222	19384.28
783.556	19273.09
783.889	19335.24
784.223	19277.39
784.557	19339.53
784.89	19352.19
785.224	19232.42
785.557	19218.63
785.891	19198.97
786.224	19248.69
786.558	19238.29
786.891	19158.07
787.224	19159.2
787.557	19080.11
787.891	19120.78
788.224	19186.54
788.557	19206.66
788.89	19143.61
789.223	19049.15
789.556	19049.37
789.888	18980.9
790.221	18952.43
790.554	18860.9
790.887	18854.35
791.219	18760.79
791.552	18798.31
791.884	18773.67
792.217	18620.68
792.549	18654.13
792.882	18681.7
793.214	18512.89
793.546	18645.77
793.879	18435.38
794.211	18424.98
794.543	18446.45
794.875	18526.9
795.207	18587.69
795.539	18402.84
795.871	18407.13
796.203	18225.66
796.535	18138.66
796.867	18226.34
797.198	18174.82
797.53	18165.78
797.862	18075.84
798.193	18081.26
798.525	17985.9
798.856	18057.08
799.188	17882.62
799.519	17834.94
799.85	17699.35
800.182	17792.23
800.513	17761.5
800.844	17701.84
801.175	17698.9
801.506	17611.44
801.837	17597.21
802.168	17559.92
802.499	17490.54
802.83	17364.22
803.161	17399.7
803.491	17384.78
803.822	17339.36
804.153	17264.56
804.483	17156.31
804.814	17159.7
805.145	17149.31
805.475	17070.22
805.805	16955.42
806.136	17092.59
806.466	16997.22
806.796	17033.61
807.126	16860.73
807.457	16847.85
807.787	16766.72
808.117	16827.28
808.447	16701.19
808.777	16821.18
809.107	16670.45
809.436	16544.35
809.766	16600.85
810.096	16542.09
810.426	16510
810.755	16521.98
811.085	16538.7
811.414	16514.75
811.744	16246.96
812.073	16347.75
812.403	16336.22
812.732	16255.1
813.061	16267.98
813.39	16146.62
813.719	16137.13
814.049	16220.07
814.378	16104.36
814.707	16122.67
815.036	16115.44
815.365	15917.25
815.693	15940.08
816.022	15913.86
816.351	15938.95
816.68	15825.95
817.008	15907.08
817.337	15703.47
817.665	15703.47
817.994	15738.05
818.322	15668.9
818.651	15608.33
818.979	15604.26
819.307	15680.65
819.636	15688.56
819.964	15502.35
820.292	15578.05
820.62	15620.99
820.948	15478.84
821.276	15598.62
821.604	15576.24
821.932	15600.42
822.259	15558.62
822.587	15445.85
822.915	15443.59
823.243	15660.53
823.57	15515.45
823.898	15551.84
824.225	15530.37
824.553	15523.14
824.88	15494.66
825.207	15580.99
825.535	15507.54
825.862	15580.31
826.189	15518.62
826.516	15575.57
826.843	15602.01
827.17	15576.69
827.497	15687.65
827.824	15592.51
828.151	15610.37
828.478	15458.28
828.805	15618.05
829.131	15565.62
829.458	15544.15
829.785	15460.09
830.111	15531.27
830.438	15614.21
830.764	15538.96
831.09	15538.28
831.417	15464.38
831.743	15562.91
832.069	15531.05
832.395	15440.88
832.722	15517.04
833.048	15420.31
833.374	15403.37
833.7	15407.66
834.026	15444.04
834.351	15484.95
834.677	15423.25
835.003	15391.16
835.329	15398.17
835.654	15359.3
835.98	15386.42
836.306	15237.49
836.631	15240.21
836.956	15310.94
837.282	15360.88
837.607	15176.93
837.932	15206.08
838.258	15228.23
838.583	15257.61
838.908	15129.93
839.233	15086.54
839.558	15024.17
839.883	14973.32
840.208	14956.37
840.533	15040.89
840.858	15042.7
841.182	14901.91
841.507	14844.06
841.832	14924.06
842.156	14870.95
842.481	14837.51
842.805	14777.17
843.13	14768.58
843.454	14727.9
843.778	14692.65
844.103	14764.29
844.427	14651.3
844.751	14616.04
845.075	14635.02
845.399	14438.19
845.723	14434.13
846.047	14487.91
846.371	14348.25
846.695	14369.04
847.019	14278.2
847.343	14153.23
847.666	14131.54
847.99	14110.97
848.313	14036.85
848.637	13960.01
848.96	13927.92
849.284	13946
849.607	13841.15
849.931	13826.01
850.254	13693.81
850.577	13703.75
850.9	13432.34
851.223	13517.99
851.546	13456.52
851.869	13459.69
852.192	13542.62
852.515	13314.61
852.838	13268.06
853.161	13237.32
853.483	13164.33
853.806	13142.63
854.129	13156.65
854.451	13086.82
854.774	13002.75
855.096	12833.04
855.419	12964.33
855.741	12910.55
856.063	12840.27
856.385	12769.31
856.708	12822.64
857.03	12734.28
857.352	12707.39
857.674	12719.14
857.996	12632.82
858.318	12531.58
858.64	12544.23
858.961	12425.59
859.283	12516.89
859.605	12417.23
859.926	12422.65
860.248	12364.58
860.57	12369.55
860.891	12339.72
861.212	12292.71
861.534	12270.12
861.855	12167.07
862.176	12175.43
862.498	12172.72
862.819	12217.91
863.14	12160.97
863.461	12204.58
863.782	12100.63
864.103	12028.31
864.424	12112.61
864.745	12033.51
865.065	11917.58
865.386	11898.83
865.707	11917.36
866.027	11946.51
866.348	11927.98
866.668	11970.24
866.989	11864.7
867.309	11756
867.63	11839.39
867.95	11820.41
868.27	11710.81
868.59	11777.7
868.91	11705.84
869.23	11688.89
869.55	11725.95
869.87	11737.25
870.19	11677.36
870.51	11708.77
870.83	11602.56
871.15	11572.28
871.469	11600.75
871.789	11606.63
872.109	11562.11
872.428	11534.09
872.748	11565.73
873.067	11550.36
873.386	11534.32
873.706	11444.6
874.025	11372.29
874.344	11356.24
874.663	11509.46
874.982	11359.18
875.301	11403.92
875.62	11378.39
875.939	11324.6
876.258	11360.76
876.577	11257.26
876.896	11226.98
877.214	11195.79
877.533	11202.8
877.852	11207.77
878.17	11208.9
878.489	11227.2
878.807	11226.75
879.125	11132.97
879.444	11114.89
879.762	11102.69
880.08	11059.53
880.398	11090.94
880.716	11085.74
881.034	10964.61
881.352	11038.74
881.67	11039.41
881.988	11014.33
882.306	10976.59
882.624	10988.57
882.941	10881.23
883.259	10834.67
883.577	10895.01
883.894	10819.98
884.212	10829.02
884.529	10798.06
884.846	10776.37
885.164	10761.68
885.481	10672.19
885.798	10769.82
886.115	10581.8
886.432	10601.01
886.75	10608.24
887.067	10578.86
887.383	10494.12
887.7	10532.31
888.017	10517.17
888.334	10530.05
888.651	10447.79
888.967	10437.17
889.284	10368.24
889.6	10347
889.917	10302.26
890.233	10235.14
890.55	10222.03
890.866	10250.73
891.182	10181.58
891.498	10231.75
891.815	10127.35
892.131	10088.25
892.447	10052.77
892.763	10058.2
893.079	9952.21
893.395	9931.65
893.71	9939.78
894.026	9904.53
894.342	9948.82
894.657	9856.39
894.973	9807.36
895.289	9834.93
895.604	9856.39
895.92	9670.64
896.235	9728.49
896.55	9671.99
896.865	9676.74
897.181	9523.07
897.496	9549.73
897.811	9537.76
898.126	9501.83
898.441	9481.94
898.756	9430.19
899.071	9425.44
899.386	9364.65
899.7	9341.15
900.015	9298.67
900.33	9229.52
900.644	9201.95
900.959	9222.51
901.273	9105.23
901.588	9176.41
901.902	9129.18
902.216	9061.39
902.531	9055.06
902.845	8967.6
903.159	8901.62
903.473	8867.04
903.787	8944.1
904.101	8815.29
904.415	8874.5
904.729	8723.99
905.042	8741.39
905.356	8674.96
905.67	8632.02
905.984	8636.99
906.297	8593.83
906.611	8587.27
906.924	8602.87
907.237	8613.94
907.551	8458.92
907.864	8437.45
908.177	8439.48
908.491	8424.34
908.804	8375.98
909.117	8346.38
909.43	8261.18
909.743	8220.5
910.056	8255.76
910.368	8121.75
910.681	8094.18
910.994	8050.79
911.307	8098.47
911.619	7982.09
911.932	8079.04
912.244	7988.65
912.557	7958.36
912.869	7912.94
913.181	7869.78
913.494	7872.26
913.806	7783
914.118	7787.97
914.43	7767.41
914.742	7733.96
915.054	7714.08
915.366	7706.62
915.678	7601.99
915.99	7569.9
916.302	7569
916.613	7512.95
916.925	7465.72
917.236	7471.15
917.548	7454.87
917.859	7458.49
918.171	7381.66
918.482	7369.68
918.794	7362.67
919.105	7297.82
919.416	7265.05
919.727	7278.61
920.038	7187.09
920.349	7176.01
920.66	7158.84
920.971	7183.47
921.282	7094.43
921.593	7072.51
921.903	7028.67
922.214	7026.41
922.525	6938.05
922.835	6985.96
923.146	6844.72
923.456	6921.78
923.767	6830.71
924.077	6883.14
924.387	6771.95
924.697	6754.1
925.008	6723.82
925.318	6724.05
925.628	6742.8
925.938	6696.48
926.248	6539.64
926.558	6581.9
926.867	6604.05
927.177	6545.75
927.487	6512.75
927.796	6474.34
928.106	6512.98
928.416	6430.04
928.725	6431.17
929.034	6357.95
929.344	6373.77
929.653	6337.16
929.962	6278.63
930.271	6243.38
930.581	6222.82
930.89	6246.54
931.199	6159.99
931.508	6149.6
931.817	6163.16
932.125	6115.02
932.434	6168.81
932.743	6093.55
933.051	6029.6
933.36	5977.17
933.669	5974.69
933.977	5948.02
934.286	5945.54
934.594	5947.34
934.902	5881.58
935.21	5850.62
935.519	5855.82
935.827	5799.55
936.135	5755.48
936.443	5719.55
936.751	5708.93
937.059	5784.41
937.367	5699.21
937.674	5695.15
937.982	5698.08
938.29	5644.07
938.597	5624.41
938.905	5566.11
939.213	5511.87
939.52	5535.15
939.827	5513.91
940.135	5489.5
940.442	5485.89
940.749	5415.61
941.056	5480.92
941.363	5349.17
941.67	5359.34
941.977	5364.31
942.284	5326.57
942.591	5342.84
942.898	5240.24
943.205	5304.42
943.511	5247.02
943.818	5240.02
944.125	5162.28
944.431	5213.13
944.738	5197.08
945.044	5164.54
945.35	5148.04
945.657	5057.88
945.963	4994.83
946.269	5014.26
946.575	5036.86
946.881	5007.93
947.187	4990.08
947.493	4950.99
947.799	4962.51
948.105	4898.56
948.41	4873.25
948.716	4890.65
949.022	4832.8
949.327	4838.45
949.633	4749.41
949.938	4827.83
950.244	4788.05
950.549	4750.31
950.854	4699.69
951.16	4651.56
951.465	4713.48
951.77	4661.95
952.075	4627.15
952.38	4628.51
952.685	4652.69
952.99	4556.19
953.294	4545.12
953.599	4520.04
953.904	4521.62
954.209	4443.2
954.513	4462.41
954.818	4470.55
955.122	4473.48
955.426	4426.93
955.731	4392.36
956.035	4379.02
956.339	4408.63
956.643	4360.04
956.948	4320.95
957.252	4306.26
957.556	4315.07
957.86	4292.7
958.163	4258.12
958.467	4236.43
958.771	4195.53
959.075	4208.63
959.378	4197.56
959.682	4149.42
959.985	4160.05
960.289	4139.71
960.592	4129.31
960.896	4121.63
961.199	4101.74
961.502	4058.13
961.805	4066.72
962.108	4019.48
962.411	4003.44
962.714	3959.6
963.017	4006.38
963.32	3981.07
963.623	3897.91
963.926	3939.49
964.228	3898.81
964.531	3861.75
964.833	3878.92
965.136	3852.94
965.438	3861.97
965.741	3858.58
966.043	3838.02
966.345	3805.03
966.648	3751.47
966.95	3706.5
967.252	3765.03
967.554	3744.01
967.856	3717.8
968.158	3667.4
968.46	3670.57
968.761	3645.94
969.063	3663.56
969.365	3583.56
969.666	3623.34
969.968	3624.01
970.269	3564.36
970.571	3558.71
970.872	3575.43
971.174	3545.15
971.475	3498.59
971.776	3508.76
972.077	3493.4
972.378	3495.43
972.679	3460.18
972.98	3462.89
973.281	3416.34
973.582	3386.06
973.883	3407.52
974.183	3393.06
974.484	3368.88
974.785	3320.97
975.085	3343.8
975.386	3316.45
975.686	3330.69
975.986	3295.44
976.287	3300.18
976.587	3242.1
976.887	3229.9
977.187	3243.23
977.487	3237.58
977.787	3173.86
978.087	3202.56
978.387	3205.49
978.687	3159.39
978.987	3165.95
979.286	3149.9
979.586	3098.38
979.885	3041.66
980.185	3074.2
980.484	3070.36
980.784	3083.01
981.083	3074.2
981.382	3034.65
981.682	3044.82
981.981	2996.46
982.28	3027.42
982.579	2966.18
982.878	2959.4
983.177	2998.72
983.475	2958.95
983.774	2924.15
984.073	2945.84
984.372	2888.44
984.67	2861.78
984.969	2873.53
985.267	2903.36
985.566	2850.48
985.864	2821.55
986.162	2820.19
986.461	2806.64
986.759	2811.83
987.057	2799.86
987.355	2767.54
987.653	2776.35
987.951	2747.43
988.249	2715.11
988.547	2746.98
988.844	2723.47
989.142	2700.42
989.44	2674.66
989.737	2644.15
990.035	2646.19
990.332	2647.54
990.63	2681.44
990.927	2604.15
991.224	2600.99
991.521	2600.09
991.819	2604.61
992.116	2568.45
992.413	2576.13
992.71	2530.48
993.006	2566.19
993.303	2561.9
993.6	2521.45
993.897	2542.91
994.193	2494.1
994.49	2516.93
994.787	2477.6
995.083	2464.95
995.379	2427.89
995.676	2453.42
995.972	2419.75
996.268	2402.8
996.565	2398.51
996.861	2386.76
997.157	2405.06
997.453	2354.67
997.749	2360.55
998.044	2332.52
998.34	2332.07
998.636	2264.28
998.932	2304.95
999.227	2314.9
999.523	2292.3
999.818	2236.03
1000.114	2265.18
1000.409	2213.88
1000.704	2185.63
1001	2210.04
1001.295	2215.24
1001.59	2194
1001.885	2162.58
1002.18	2171.4
1002.475	2186.54
1002.77	2165.07
1003.065	2110.38
1003.359	2121.46
1003.654	2128.69
1003.949	2100.21
1004.243	2090.27
1004.538	2038.97
1004.832	2060.89
1005.127	2021.57
1005.421	2037.39
1005.715	2051.85
1006.009	2036.94
1006.304	2005.07
1006.598	1989.93
1006.892	1988.35
1007.186	1961.23
1007.48	1970.5
1007.773	1961.46
1008.067	1933.66
1008.361	1900.44
1008.655	1920.78
1008.948	1912.87
1009.242	1877.62
1009.535	1894.57
1009.829	1871.07
1010.122	1874
1010.415	1856.38
1010.708	1854.8
1011.001	1845.53
1011.295	1805.08
1011.588	1821.35
1011.881	1779.09
1012.173	1798.75
1012.466	1765.31
1012.759	1743.84
1013.052	1721.47
1013.344	1767.34
1013.637	1768.47
1013.93	1740.9
1014.222	1721.69
1014.514	1728.7
1014.807	1721.92
1015.099	1704.74
1015.391	1696.61
1015.683	1659.77
1015.976	1649.15
1016.268	1650.73
1016.56	1639.66
1016.851	1631.75
1017.143	1609.83
1017.435	1608.02
1017.727	1617.29
1018.018	1616.61
1018.31	1597.63
1018.602	1575.93
1018.893	1552.43
1019.185	1551.53
1019.476	1523.96
1019.767	1536.39
1020.058	1505.65
1020.35	1506.78
1020.641	1500.45
1020.932	1479.66
1021.223	1485.09
1021.514	1468.14
1021.804	1443.06
1022.095	1442.38
1022.386	1430.85
1022.677	1424.75
1022.967	1406.67
1023.258	1398.08
1023.548	1387.24
1023.839	1377.52
1024.129	1371.19
1024.419	1399.67
1024.709	1369.84
1025	1377.75
1025.29	1338.65
1025.58	1312.44
1025.87	1312.89
1026.16	1316.28
1026.449	1304.98
1026.739	1295.71
1027.029	1304.08
1027.319	1265.66
1027.608	1284.87
1027.898	1265.21
1028.187	1274.02
1028.477	1254.81
1028.766	1261.59
1029.055	1239.9
1029.344	1228.37
1029.634	1229.05
1029.923	1213
1030.212	1201.93
1030.501	1184.76
1030.79	1186.11
1031.078	1181.82
1031.367	1169.84
1031.656	1171.88
1031.945	1137.53
1032.233	1144.08
1032.522	1149.96
1032.81	1145.89
1033.099	1157.87
1033.387	1139.79
1033.675	1116.28
1033.963	1105.44
1034.251	1106.34
1034.54	1104.76
1034.828	1113.8
1035.116	1100.01
1035.403	1088.94
1035.691	1064.08
1035.979	1094.59
1036.267	1075.38
1036.554	1064.08
1036.842	1057.98
1037.129	1044.65
1037.417	1039.22
1037.704	1027.25
1037.992	1008.49
1038.279	1003.74
1038.566	1000.58
1038.853	1000.58
1039.14	1000.58
