Data from hue_310_FLMS001491_85.txt Node
Date: Mon Feb 06 15:50:20 GMT 2017
User: dcchb
Spectrometer: FLMS00149
Trigger mode: 0
Integration Time (sec): 2.000000E-2
Scans to average: 10
Electric dark correction enabled: true
Nonlinearity correction enabled: false
Boxcar width: 0
XAxis mode: Wavelengths
Number of Pixels in Spectrum: 2048
>>>>>Begin Spectral Data<<<<<
341.393	-10.89
341.776	-10.89
342.16	-10.89
342.543	-71
342.927	-72.81
343.31	-59.02
343.693	-84.33
344.077	-56.31
344.46	-35.97
344.843	-45.46
345.226	-56.09
345.61	-41.85
345.993	-31
346.376	-8.63
346.759	11.93
347.142	17.36
347.525	28.88
347.908	63.23
348.291	74.53
348.674	94.42
349.057	128.32
349.44	117.69
349.823	135.32
350.206	156.34
350.588	208.09
350.971	215.77
351.354	211.48
351.737	240.63
352.119	242.21
352.502	245.37
352.884	281.31
353.267	283.11
353.65	286.5
354.032	315.2
354.414	308.42
354.797	294.87
355.179	323.79
355.562	336.45
355.944	328.76
356.326	355.65
356.709	344.36
357.091	342.77
357.473	334.64
357.855	333.96
358.238	347.07
358.62	326.95
359.002	345.49
359.384	338.71
359.766	345.49
360.148	338.71
360.53	332.15
360.912	335.54
361.294	338.71
361.676	331.7
362.057	339.61
362.439	326.5
362.821	312.49
363.203	326.28
363.584	330.57
363.966	332.83
364.348	320.18
364.729	319.5
365.111	310.01
365.493	317.92
365.874	324.02
366.256	309.33
366.637	311.81
367.019	333.73
367.4	322.21
367.781	313.62
368.163	295.32
368.544	321.53
368.925	311.81
369.306	312.49
369.688	300.74
370.069	309.78
370.45	309.33
370.831	322.44
371.212	311.81
371.593	314.98
371.974	307.07
372.355	336.45
372.736	323.56
373.117	334.86
373.498	287.86
373.879	297.58
374.26	332.83
374.641	300.51
375.021	308.2
375.402	323.11
375.783	322.21
376.163	324.24
376.544	335.09
376.925	354.3
377.305	329.67
377.686	345.03
378.066	339.61
378.447	321.31
378.827	339.16
379.208	331.93
379.588	332.15
379.968	321.76
380.349	331.47
380.729	331.25
381.109	356.78
381.489	325.37
381.87	351.59
382.25	307.75
382.63	346.16
383.01	329.21
383.39	329.44
383.77	339.38
384.15	344.13
384.53	327.18
384.91	335.77
385.29	354.98
385.67	337.35
386.049	343.68
386.429	370.12
386.809	353.85
387.189	356.78
387.568	340.51
387.948	359.95
388.328	361.98
388.707	356.33
389.087	359.95
389.466	358.82
389.846	360.17
390.225	357.69
390.605	375.54
390.984	356.33
391.363	390.91
391.743	377.57
392.122	366.73
392.501	383.45
392.881	391.59
393.26	372.6
393.639	386.61
394.018	388.2
394.397	371.93
394.776	369.67
395.155	385.48
395.534	414.18
395.913	397.69
396.292	392.26
396.671	384.58
397.05	405.6
397.429	407.86
397.808	399.72
398.186	394.07
398.565	402.43
398.944	405.6
399.323	415.31
399.701	385.03
400.08	398.14
400.458	392.94
400.837	407.18
401.215	423.22
401.594	420.06
401.972	410.57
402.351	437.46
402.729	423.45
403.107	407.63
403.486	443.11
403.864	451.92
404.242	447.18
404.62	444.01
404.999	442.43
405.377	423.45
405.755	441.08
406.133	451.47
406.511	459.15
406.889	459.83
407.267	460.28
407.645	466.61
408.023	472.71
408.401	473.62
408.779	483.11
409.156	476.56
409.534	498.48
409.912	499.61
410.29	504.35
410.667	540.96
411.045	514.75
411.422	529.66
411.8	527.4
412.178	536.21
412.555	569.43
412.933	559.72
413.31	580.06
413.687	553.62
414.065	557.23
414.442	556.55
414.819	593.61
415.197	597
415.574	626.83
415.951	621.41
416.328	621.86
416.705	625.48
417.082	634.07
417.46	658.92
417.837	633.39
418.214	684.23
418.591	675.19
418.967	690.79
419.344	672.48
419.721	701.63
420.098	703.89
420.475	712.26
420.852	719.71
421.228	706.83
421.605	752.25
421.982	747.28
422.358	740.73
422.735	752.71
423.111	757
423.488	785.7
423.864	757.45
424.241	791.35
424.617	800.16
424.994	792.03
425.37	804.68
425.746	821.4
426.123	815.3
426.499	852.59
426.875	854.85
427.251	855.3
427.627	870.67
428.003	886.26
428.379	893.72
428.756	895.98
429.132	918.13
429.507	950.89
429.883	926.94
430.259	928.97
430.635	935.3
431.011	956.09
431.387	987.05
431.763	995.64
432.138	1000.61
432.514	1002.19
432.89	1013.04
433.265	1032.7
433.641	1037.22
434.016	1041.96
434.392	1076.09
434.767	1079.48
435.143	1088.52
435.518	1098.23
435.894	1139.14
436.269	1129.42
436.644	1135.52
437.02	1144.56
437.395	1164.67
437.77	1189.08
438.145	1160.15
438.52	1204.22
438.895	1205.8
439.271	1230.66
439.646	1224.33
440.021	1234.73
440.395	1230.66
440.77	1232.02
441.145	1242.86
441.52	1276.99
441.895	1248.74
442.27	1290.09
442.645	1286.48
443.019	1300.71
443.394	1276.53
443.769	1309.98
444.143	1330.77
444.518	1314.27
444.892	1342.75
445.267	1332.13
445.641	1309.08
446.016	1331.45
446.39	1355.85
446.764	1348.62
447.139	1347.49
447.513	1361.96
447.887	1352.24
448.262	1368.74
448.636	1357.89
449.01	1375.97
449.384	1374.61
449.758	1409.19
450.132	1402.63
450.506	1410.09
450.88	1405.8
451.254	1405.8
451.628	1406.25
452.002	1416.19
452.376	1429.07
452.75	1453.93
453.123	1476.08
453.497	1468.62
453.871	1447.6
454.244	1521.5
454.618	1507.71
454.992	1517.21
455.365	1523.53
455.739	1550.2
456.112	1562.18
456.486	1577.09
456.859	1520.14
457.232	1579.13
457.606	1587.94
457.979	1606.7
458.352	1647.6
458.725	1613.47
459.099	1656.86
459.472	1657.99
459.845	1665
460.218	1699.57
460.591	1687.14
460.964	1701.16
461.337	1713.36
461.71	1742.28
462.083	1772.79
462.456	1774.83
462.829	1767.59
463.201	1782.28
463.574	1791.55
463.947	1812.11
464.32	1825.45
464.692	1841.72
465.065	1885.56
465.438	1874.71
465.81	1886.24
466.183	1910.42
466.555	1939.79
466.928	1935.73
467.3	1937.31
467.672	1963.97
468.045	1987.93
468.417	1991.77
468.789	1997.65
469.161	2031.77
469.534	2093.91
469.906	2114.03
470.278	2107.02
470.65	2119.45
471.022	2143.86
471.394	2221.14
471.766	2159.67
472.138	2187.47
472.51	2284.19
472.882	2271.31
473.253	2276.06
473.625	2289.84
473.997	2306.79
474.369	2344.08
474.74	2375.26
475.112	2387.24
475.484	2418.88
475.855	2449.61
476.227	2442.83
476.598	2512.89
476.97	2474.92
477.341	2566.9
477.713	2586.33
478.084	2609.15
478.455	2651.64
478.827	2648.48
479.198	2696.16
479.569	2669.72
479.94	2770.73
480.311	2787.23
480.682	2845.98
481.053	2889.15
481.424	2919.43
481.795	2920.11
482.166	2968.92
482.537	2969.37
482.908	3047.34
483.279	3013.89
483.65	3113.1
484.021	3156.94
484.391	3158.07
484.762	3155.81
485.133	3149.48
485.503	3171.85
485.874	3250.04
486.244	3306.31
486.615	3323.26
486.985	3367.55
487.356	3412.75
487.726	3454.56
488.097	3465.63
488.467	3476.02
488.837	3540.88
489.207	3586.08
489.578	3599.86
489.948	3605.06
490.318	3658.17
490.688	3676.7
491.058	3733.64
491.428	3786.52
491.798	3817.48
492.168	3828.11
492.538	3829.24
492.908	3874.66
493.278	3954.2
493.648	3932.06
494.017	3991.72
494.387	4018.16
494.757	4004.6
495.126	4076.46
495.496	4051.83
495.866	4097.48
496.235	4133.41
496.605	4118.04
496.974	4159.62
497.344	4163.01
497.713	4189
498.082	4244.59
498.452	4279.62
498.821	4240.52
499.19	4272.84
499.559	4302.9
499.928	4318.94
500.298	4307.41
500.667	4352.84
501.036	4343.35
501.405	4411.37
501.774	4397.58
502.143	4428.54
502.512	4445.49
502.88	4480.29
503.249	4483.91
503.618	4483.91
503.987	4506.51
504.356	4542.44
504.724	4574.3
505.093	4571.59
505.462	4551.25
505.83	4618.37
506.199	4618.82
506.567	4700.62
506.936	4681.64
507.304	4673.28
507.672	4698.14
508.041	4729.32
508.409	4755.99
508.777	4780.4
509.145	4800.06
509.514	4751.25
509.882	4829.44
510.25	4820.17
510.618	4874.86
510.986	4859.72
511.354	4897
511.722	4876.44
512.09	4970.45
512.458	4944.01
512.826	4959.15
513.193	4961.86
513.561	4982.43
513.929	5031.24
514.297	5073.27
514.664	5031.69
515.032	5062.2
515.4	5111.69
515.767	5085.02
516.135	5136.55
516.502	5088.41
516.869	5137.22
517.237	5127.05
517.604	5156.88
517.972	5217.9
518.339	5171.35
518.706	5193.04
519.073	5211.35
519.44	5248.41
519.808	5295.19
520.175	5283.21
520.542	5330.66
520.909	5362.3
521.276	5307.16
521.643	5391.23
522.009	5430.32
522.376	5387.84
522.743	5427.84
523.11	5467.84
523.477	5515.52
523.843	5533.6
524.21	5536.54
524.577	5583.99
524.943	5613.37
525.31	5640.26
525.676	5681.62
526.043	5732.69
526.409	5708.96
526.776	5768.62
527.142	5758
527.508	5817.21
527.874	5851.33
528.241	5863.98
528.607	5921.38
528.973	5961.38
529.339	5908.73
529.705	5970.65
530.071	6001.16
530.437	6008.84
530.803	6082.28
531.169	6068.72
531.535	6060.82
531.901	6108.95
532.267	6122.51
532.632	6193.24
532.998	6199.57
533.364	6252.45
533.73	6268.49
534.095	6276.63
534.461	6360.24
534.826	6347.81
535.192	6310.07
535.557	6427.81
535.923	6373.35
536.288	6424.65
536.653	6504.19
537.019	6419.22
537.384	6530.18
537.749	6507.13
538.114	6577.64
538.479	6585.55
538.845	6627.81
539.21	6627.13
539.575	6621.48
539.94	6632.33
540.305	6742.15
540.67	6712.32
541.034	6749.61
541.399	6774.02
541.764	6795.26
542.129	6839.55
542.494	6902.83
542.858	6888.36
543.223	6889.95
543.587	6921.81
543.952	6991.86
544.316	7031.19
544.681	7038.19
545.045	7067.34
545.41	7145.08
545.774	7112.54
546.138	7128.36
546.503	7163.16
546.867	7134.46
547.231	7219.65
547.595	7228.24
547.959	7300.78
548.324	7310.05
548.688	7322.93
549.052	7369.26
549.416	7301.91
549.779	7348.92
550.143	7342.36
550.507	7441.34
550.871	7467.56
551.235	7441.12
551.599	7439.54
551.962	7533.09
552.326	7531.06
552.689	7607.44
553.053	7554.79
553.417	7570.61
553.78	7648.57
554.143	7612.19
554.507	7716.14
554.87	7703.71
555.234	7753.65
555.597	7690.38
555.96	7764.5
556.323	7860.77
556.686	7762.92
557.05	7847.43
557.413	7856.25
557.776	7897.6
558.139	7871.39
558.502	7935.57
558.865	7981.67
559.228	8018.73
559.59	8028.9
559.953	8055.57
560.316	8129.69
560.679	8059.41
561.041	8118.39
561.404	8202.23
561.767	8191.61
562.129	8160.87
562.492	8238.61
562.854	8309.12
563.217	8232.74
563.579	8292.85
563.941	8357.25
564.304	8325.84
564.666	8417.82
565.028	8431.37
565.39	8412.17
565.753	8493.97
566.115	8474.09
566.477	8562.9
566.839	8541.43
567.201	8565.83
567.563	8614.87
567.925	8671.82
568.287	8674.08
568.648	8750.46
569.01	8801.76
569.372	8834.98
569.734	8753.17
570.095	8800.4
570.457	8898.25
570.819	8851.93
571.18	8959.04
571.542	8970.8
571.903	9025.26
572.265	9020.96
572.626	9147.74
572.987	9121.75
573.349	9200.39
573.71	9271.58
574.071	9377.79
574.432	9384.12
574.794	9480.61
575.155	9466.6
575.516	9539.37
575.877	9618.24
576.238	9632.25
576.599	9713.83
576.96	9818
577.32	9890.55
577.681	10007.6
578.042	10105.23
578.403	10162.63
578.763	10255.96
579.124	10370.53
579.485	10536.63
579.845	10600.81
580.206	10720.81
580.566	10835.38
580.927	10969.16
581.287	11083.73
581.648	11207.57
582.008	11328.93
582.368	11516.94
582.728	11645.3
583.089	11882.13
583.449	11962.13
583.809	12214.78
584.169	12344.49
584.529	12477.14
584.889	12730.7
585.249	12887.3
585.609	13026.73
585.969	13389.89
586.329	13600.28
586.688	13782.65
587.048	14052.7
587.408	14233.71
587.768	14450.43
588.127	14813.81
588.487	14908.72
588.846	15372.89
589.206	15488.59
589.565	15717.51
589.925	16157.05
590.284	16298.74
590.643	16715.9
591.003	16968.78
591.362	17276.57
591.721	17394.98
592.08	17809.43
592.44	18141.85
592.799	18453.71
593.158	18585.46
593.517	19005.79
593.876	19329.17
594.235	19557.41
594.593	19836.27
594.952	20247.56
595.311	20472.64
595.67	20779.52
596.029	21240.3
596.387	21610.69
596.746	21926.39
597.104	22166.83
597.463	22345.13
597.822	22762.07
598.18	22948.05
598.538	23244.32
598.897	23765.89
599.255	23818.99
599.613	24524.96
599.972	24665.75
600.33	25028.9
600.688	25260.31
601.046	25587.31
601.404	25930.12
601.762	26107.07
602.12	26449.43
602.478	26703.44
602.836	27175.97
603.194	27203.99
603.552	27594.49
603.91	27738.89
604.268	28196.96
604.625	28333.68
604.983	28717.17
605.341	28818.86
605.698	29325.06
606.056	29579.74
606.413	29774.54
606.771	30138.6
607.128	30316.67
607.485	30548.31
607.843	30769.54
608.2	31134.73
608.557	31356.2
608.914	31543.31
609.272	31861.04
609.629	32150.98
609.986	32419.44
610.343	32499.67
610.7	32946.21
611.057	33092.87
611.414	33212.19
611.771	33428.23
612.127	33701.44
612.484	33850.82
612.841	34167.19
613.198	34156.12
613.554	34433.4
613.911	34808.53
614.267	34890.34
614.624	35030.67
614.98	35213.5
615.337	35553.6
615.693	35581.62
616.05	35695.06
616.406	36024.77
616.762	36066.58
617.118	36122.17
617.475	36350.64
617.831	36552.22
618.187	36768.48
618.543	37056.61
618.899	37111.52
619.255	37264.97
619.611	37264.51
619.967	37555.13
620.323	37752.41
620.678	37611.4
621.034	37765.97
621.39	37796.25
621.746	37920.54
622.101	38449.57
622.457	38246.64
622.812	38413.64
623.168	38671.03
623.523	38669.45
623.879	38850.91
624.234	38887.97
624.589	39052.72
624.945	39115.09
625.3	39086.16
625.655	39172.26
626.01	39324.8
626.365	39360.05
626.72	39381.52
627.075	39372.48
627.43	39458.13
627.785	39559.14
628.14	39603.44
628.495	39790.1
628.85	39764.79
629.205	39756.88
629.559	39957.1
629.914	39937.89
630.269	39968.17
630.623	39902.86
630.978	39966.59
631.332	40045.01
631.687	40231.67
632.041	40033.93
632.396	40217.88
632.75	40098.79
633.104	40268.73
633.459	40144.89
633.813	40115.29
634.167	40221.95
634.521	40261.27
634.875	40326.13
635.229	40242.74
635.583	40280.71
635.937	40132.01
636.291	40054.05
636.645	40198.9
636.999	40216.75
637.352	40347.82
637.706	40047.49
638.06	40460.81
638.413	40220.59
638.767	40266.02
639.121	40230.09
639.474	39980.38
639.828	40091.33
640.181	40235.28
640.534	40315.06
640.888	40078
641.241	39824.45
641.594	40074.38
641.947	40124.55
642.301	40083.88
642.654	40009.75
643.007	40237.32
643.36	39994.61
643.713	40121.39
644.066	40091.11
644.419	39825.13
644.771	39835.29
645.124	39366.83
645.477	39455.42
645.83	39191.92
646.182	39082.77
646.535	38869.44
646.888	38985.6
647.24	38884.36
647.593	39130.23
647.945	38868.09
648.298	38696.34
648.65	38709.45
649.002	38727.75
649.355	38905.15
649.707	38800.52
650.059	38943.34
650.411	39255.65
650.763	39360.28
651.115	39714.17
651.467	39669.2
651.819	39637.79
652.171	39574.74
652.523	39558.01
652.875	39556.88
653.227	39304.46
653.578	39673.94
653.93	39542.42
654.282	39393.27
654.633	39397.34
654.985	39436.43
655.337	39415.19
655.688	39388.53
656.039	39540.39
656.391	39188.76
656.742	39313.73
657.094	39435.98
657.445	39536.55
657.796	39269.66
658.147	39290.22
658.498	39209.32
658.849	39419.49
659.2	39368.19
659.551	39273.28
659.902	39376.1
660.253	39324.8
660.604	39315.31
660.955	39080.29
661.306	39329.09
661.656	39286.38
662.007	39242.77
662.358	39136.33
662.708	39129.32
663.059	39154.18
663.409	39005.49
663.76	39330.22
664.11	39282.77
664.461	39224.69
664.811	39228.53
665.161	39195.76
665.511	39106.73
665.862	39159.61
666.212	39178.81
666.562	39384.23
666.912	39181.75
667.262	39090
667.612	39104.24
667.962	39234.41
668.312	39106.95
668.662	39232.82
669.011	39075.09
669.361	39017.01
669.711	39024.02
670.06	39025.82
670.41	38953.96
670.76	38841.2
671.109	39024.47
671.459	38899.27
671.808	38841.87
672.157	39008.88
672.507	38660.41
672.856	38806.17
673.205	38766.62
673.554	38917.8
673.904	38852.72
674.253	39067.18
674.602	38775.66
674.951	38264.26
675.3	38013.42
675.649	38807.52
675.998	38687.3
676.346	38554.42
676.695	38825.6
677.044	38477.82
677.393	38649.56
677.741	38799.16
678.09	38649.34
678.438	38445.95
678.787	38587.64
679.135	38642.33
679.484	38289.12
679.832	38572.95
680.181	38280.08
680.529	38298.39
680.877	38325.05
681.225	38164.83
681.573	38447.08
681.922	38164.15
682.27	38002.12
682.618	38045.74
682.966	38000.31
683.314	37920.77
683.661	37932.75
684.009	37833.31
684.357	37815.23
684.705	37675.35
685.053	37726.42
685.4	37731.85
685.748	37401.46
686.095	37467
686.443	37354.23
686.79	37396.04
687.138	37391.29
687.485	37414.12
687.832	37203.5
688.18	37325.53
688.527	37113.56
688.874	37060
689.221	37031.07
689.568	36922.6
689.915	36867.01
690.262	36865.2
690.609	36668.82
690.956	36542.5
691.303	36560.58
691.65	36468.6
691.997	36292.79
692.344	36197.42
692.69	36285.56
693.037	36190.64
693.383	35876.75
693.73	35925.57
694.077	35810.54
694.423	35813.03
694.769	35678.12
695.116	35623.43
695.462	35593.82
695.808	35563.32
696.155	35522.41
696.501	35317
696.847	35280.84
697.193	35037.23
697.539	35217.79
697.885	34907.29
698.231	34777.8
698.577	34682.66
698.923	34801.08
699.269	34617.58
699.614	34413.06
699.96	34319.06
700.306	34418.71
700.651	34317.47
700.997	34190.25
701.342	34129.68
701.688	34090.13
702.033	34020.08
702.379	34000.87
702.724	33865.96
703.069	34019.63
703.415	33559.08
703.76	33537.61
704.105	33552.52
704.45	33525.63
704.795	33311.62
705.14	33174.23
705.485	33232.08
705.83	33043.83
706.175	33155.92
706.52	33006.32
706.865	32799.55
707.209	32876.83
707.554	32743.5
707.899	32762.71
708.243	32622.38
708.588	32513.68
708.932	32326.34
709.277	32404.3
709.621	32353.91
709.966	32200.47
710.31	32261.48
710.654	32064.43
710.998	32133.35
711.342	32060.58
711.687	31984.2
712.031	31746.24
712.375	31664.44
712.719	31662.18
713.063	31623.53
713.407	31793.47
713.75	31449.98
714.094	31661.95
714.438	31426.48
714.782	31471.22
715.125	31191.45
715.469	31403.43
715.812	31156.43
716.156	31082.53
716.499	31067.62
716.843	31085.24
717.186	30795.08
717.53	31133.15
717.873	30965.25
718.216	30877.34
718.559	30684.35
718.902	30689.77
719.246	30653.61
719.589	30510.79
719.932	30386.05
720.275	30462.89
720.617	30371.59
720.96	30392.83
721.303	30362.55
721.646	30307.18
721.989	30196
722.331	30288.65
722.674	30011.6
723.016	30215.43
723.359	30073.29
723.701	30177.02
724.044	29904.93
724.386	29683.7
724.729	29856.57
725.071	29742.23
725.413	29702.23
725.755	29721.44
726.097	29468.34
726.439	29388.11
726.782	29458.84
727.124	29548.33
727.465	29349.92
727.807	29434.89
728.149	29266.76
728.491	29258.62
728.833	29272.18
729.175	29121.45
729.516	29177.5
729.858	29073.09
730.199	29065.63
730.541	28971.17
730.882	29082.58
731.224	29007.78
731.565	28888.46
731.906	28812.99
732.248	28848.69
732.589	28734.34
732.93	28606.89
733.271	28610.5
733.612	28702.71
733.953	28655.25
734.294	28467.68
734.635	28483.95
734.976	28530.28
735.317	28427.01
735.658	28443.28
735.999	28247.12
736.339	28375.03
736.68	28278.54
737.021	28279.44
737.361	28135.72
737.702	28311.53
738.042	28115.38
738.383	28148.14
738.723	28070.41
739.063	27965.1
739.404	28020.46
739.744	28038.77
740.084	27821.37
740.424	27965.55
740.764	27796.51
741.104	27810.07
741.444	27666.8
741.784	27577.31
742.124	27682.17
742.464	27644.43
742.804	27633.81
743.143	27554.71
743.483	27536.41
743.823	27406.92
744.162	27393.14
744.502	27388.62
744.841	27332.12
745.181	27357.2
745.52	27191.33
745.86	27283.76
746.199	27266.13
746.538	27083.54
746.877	27153.59
747.216	27082.86
747.556	27098.23
747.895	26953.37
748.234	26947.72
748.573	26823.89
748.911	26939.59
749.25	26811.68
749.589	26579.82
749.928	26685.36
750.267	26834.73
750.605	26651.69
750.944	26596.09
751.283	26396.78
751.621	26618.01
751.96	26300.96
752.298	26387.06
752.636	26395.2
752.975	26092.83
753.313	26099.38
753.651	26225.71
753.989	26076.56
754.327	26055.54
754.666	25886.28
755.004	25961.76
755.342	25913.17
755.679	25795.21
756.017	25673.63
756.355	25761.09
756.693	25650.58
757.031	25656.01
757.368	25514.77
757.706	25597.25
758.044	25339.63
758.381	25395.45
758.719	25316.58
759.056	25296.47
759.394	25257.37
759.731	25092.18
760.068	24926.53
760.405	24946.19
760.743	24838.63
761.08	24800.44
761.417	24752.98
761.754	24754.33
762.091	24641.8
762.428	24544.17
762.765	24405.42
763.102	24548.92
763.438	24307.12
763.775	24148.48
764.112	24287.91
764.449	24232.77
764.785	24123.84
765.122	23873
765.458	23881.59
765.795	23847.24
766.131	23732.89
766.467	23687.47
766.804	23598.43
767.14	23569.06
767.476	23560.92
767.812	23257.2
768.148	23381.26
768.485	23248.39
768.821	23084.55
769.157	23193.02
769.492	23031.44
769.828	22969.07
770.164	22795.06
770.5	22766.36
770.836	22636.65
771.171	22520.5
771.507	22519.14
771.842	22375.87
772.178	22279.6
772.513	22235.98
772.849	22326.83
773.184	22066.04
773.519	22107.62
773.855	21998.48
774.19	21912.15
774.525	21818.14
774.86	21864.92
775.195	21799.38
775.53	21688.88
775.865	21635.09
776.2	21484.36
776.535	21245.95
776.87	21367.31
777.205	21283.47
777.539	21080.53
777.874	21166.86
778.209	20883.93
778.543	20934.55
778.878	20755.34
779.212	20772.97
779.547	20676.25
779.881	20651.17
780.215	20479.42
780.55	20538.63
780.884	20480.1
781.218	20431.06
781.552	20319.42
781.886	20215.92
782.22	19949.26
782.554	20024.29
782.888	19908.36
783.222	19909.04
783.556	19710.85
783.889	19663.85
784.223	19560.12
784.557	19574.13
784.89	19587.47
785.224	19478.32
785.557	19346.12
785.891	19243.52
786.224	19205.78
786.558	19263.18
786.891	19071.09
787.224	18953.58
787.557	18870.42
787.891	18860.03
788.224	18853.25
788.557	18820.93
788.89	18775.74
789.223	18662.07
789.556	18509.98
789.888	18561.96
790.221	18450.55
790.554	18326.93
790.887	18361.06
791.219	18265.01
791.552	18281.28
791.884	18130.1
792.217	18139.37
792.549	18049.88
792.882	17933.05
793.214	17807.17
793.546	17922.88
793.879	17812.37
794.211	17606.73
794.543	17672.49
794.875	17638.14
795.207	17681.53
795.539	17524.24
795.871	17516.79
796.203	17413.74
796.535	17219.62
796.867	17221.43
797.198	17261.65
797.53	17230.47
797.862	16985.95
798.193	17112.73
798.525	16922
798.856	16891.04
799.188	16807.43
799.519	16752.74
799.85	16739.63
800.182	16792.96
800.513	16642.46
800.844	16543.93
801.175	16622.12
801.506	16589.8
801.837	16484.72
802.168	16410.83
802.499	16345.74
802.83	16312.52
803.161	16261.68
803.491	16213.32
803.822	16220.77
804.153	16126.09
804.483	15986.43
804.814	15909.37
805.145	15895.81
805.475	15908.24
805.805	15816.94
806.136	15926.09
806.466	15797.06
806.796	15737.85
807.126	15625.08
807.457	15606.1
807.787	15608.81
808.117	15579.43
808.447	15519.32
808.777	15539.44
809.107	15442.94
809.436	15288.6
809.766	15325.88
810.096	15274.81
810.426	15188.03
810.755	15302.38
811.085	15193.46
811.414	15127.47
811.744	15150.52
812.073	15117.53
812.403	15026.46
812.732	14948.94
813.061	14929.28
813.39	14851.32
813.719	14814.26
814.049	14970.19
814.378	14827.36
814.707	14791.43
815.036	14694.71
815.365	14709.85
815.693	14605.45
816.022	14561.38
816.351	14481.16
816.68	14481.38
817.008	14512.12
817.337	14283.2
817.665	14287.04
817.994	14363.65
818.322	14261.5
818.651	14208.62
818.979	14175.18
819.307	14383.99
819.636	14143.77
819.964	14045.92
820.292	14134.28
820.62	14174.95
820.948	14031
821.276	14172.24
821.604	14152.58
821.932	14101.28
822.259	14119.81
822.587	14061.28
822.915	13981.51
823.243	14099.7
823.57	14000.27
823.898	14094.95
824.225	13978.57
824.553	13966.82
824.88	13918.01
825.207	14058.35
825.535	13971.79
825.862	14053.83
826.189	13969.08
826.516	14062.64
826.843	14063.77
827.17	14009.31
827.497	14052.47
827.824	13971.79
828.151	14061.73
828.478	14034.62
828.805	14101.73
829.131	13956.2
829.458	13970.89
829.785	13859.71
830.111	13986.26
830.438	13972.02
830.764	13951.46
831.09	14011.57
831.417	13880.04
831.743	14009.31
832.069	13858.12
832.395	13926.37
832.722	13940.61
833.048	13898.8
833.374	13921.4
833.7	13890.89
834.026	13836.2
834.351	13863.77
834.677	13826.49
835.003	13847.73
835.329	13809.54
835.654	13824.68
835.98	13771.35
836.306	13745.58
836.631	13682.08
836.956	13702.2
837.282	13735.64
837.607	13636.21
837.932	13600.73
838.258	13687.96
838.583	13655.64
838.908	13525.25
839.233	13588.75
839.558	13507.4
839.883	13480.06
840.208	13455.65
840.533	13480.96
840.858	13378.36
841.182	13462.65
841.507	13373.62
841.832	13326.61
842.156	13286.39
842.481	13230.57
842.805	13277.57
843.13	13148.76
843.454	13214.98
843.778	13052.27
844.103	13109.44
844.427	13109.44
844.751	13025.15
845.075	13050.01
845.399	12985.83
845.723	12855.89
846.047	12841.43
846.371	12785.61
846.695	12867.64
847.019	12682.34
847.343	12659.96
847.666	12628.78
847.99	12539.06
848.313	12513.98
848.637	12486.41
848.96	12516.24
849.284	12387.2
849.607	12283.48
849.931	12379.29
850.254	12273.53
850.577	12151.5
850.9	12067.89
851.223	12086.19
851.546	12024.05
851.869	11924.84
852.192	11972.07
852.515	11878.06
852.838	11885.75
853.161	11829.7
853.483	11680.78
853.806	11711.51
854.129	11701.12
854.451	11660.89
854.774	11589.26
855.096	11475.59
855.419	11480.11
855.741	11483.27
856.063	11400.34
856.385	11361.92
856.708	11399.21
857.03	11275.82
857.352	11346.1
857.674	11255.93
857.996	11311.07
858.318	11141.36
858.64	11181.81
858.961	11107.91
859.283	11158.53
859.605	11013.23
859.926	11090.29
860.248	11025.43
860.57	10968.71
860.891	10974.58
861.212	10934.36
861.534	10897.98
861.855	10890.07
862.176	10888.48
862.498	10870.41
862.819	10944.75
863.14	10833.57
863.461	10801.48
863.782	10776.4
864.103	10800.13
864.424	10677.87
864.745	10671.09
865.065	10662.95
865.386	10691.43
865.707	10628.6
866.027	10640.58
866.348	10579.34
866.668	10616.4
866.989	10612.79
867.309	10436.75
867.63	10531.21
867.95	10461.38
868.27	10428.16
868.59	10533.01
868.91	10432.45
869.23	10401.94
869.55	10390.42
869.87	10458.67
870.19	10424.99
870.51	10402.4
870.83	10346.8
871.15	10281.95
871.469	10292.57
871.789	10365.56
872.109	10345.45
872.428	10165.79
872.748	10261.16
873.067	10217.99
873.386	10260.7
873.706	10217.77
874.025	10142.06
874.344	10146.13
874.663	10189.52
874.982	10104.32
875.301	10121.5
875.62	10047.83
875.939	10108.84
876.258	10037.43
876.577	10084.21
876.896	10021.16
877.214	9994.05
877.533	9926.02
877.852	9942.75
878.17	9940.94
878.489	9939.81
878.807	9939.13
879.125	9944.55
879.444	9887.16
879.762	9922.63
880.08	9812.35
880.398	9782.98
880.716	9769.87
881.034	9777.55
881.352	9782.3
881.67	9808.06
881.988	9695.52
882.306	9764.67
882.624	9693.71
882.941	9687.16
883.259	9651.91
883.577	9605.13
883.894	9673.6
884.212	9569.65
884.529	9600.84
884.846	9552.25
885.164	9561.74
885.481	9500.27
885.798	9547.05
886.115	9459.82
886.432	9463.21
886.75	9379.6
887.067	9440.16
887.383	9324.01
887.7	9355.87
888.017	9298.47
888.334	9267.06
888.651	9265.25
888.967	9329.43
889.284	9199.94
889.6	9205.37
889.917	9059.15
890.233	9127.4
890.55	9079.27
890.866	9089.66
891.182	8994.3
891.498	9054.63
891.815	9011.25
892.131	8987.74
892.447	8933.06
892.763	8877.46
893.079	8905.94
893.395	8859.61
893.71	8891.48
894.026	8847.63
894.342	8822.55
894.657	8731.03
894.973	8758.15
895.289	8714.08
895.604	8731.03
895.92	8704.81
896.235	8611.71
896.55	8608.09
896.865	8640.86
897.181	8534.42
897.496	8537.81
897.811	8479.73
898.126	8449.9
898.441	8434.99
898.756	8480.64
899.071	8380.75
899.386	8381.43
899.7	8275.22
900.015	8326.74
900.33	8194.54
900.644	8201.55
900.959	8237.26
901.273	8142.34
901.588	8142.79
901.902	8066.86
902.216	8020.76
902.531	8084.94
902.845	8041.1
903.159	8009.24
903.473	7995.45
903.787	7904.83
904.101	7924.5
904.415	7870.94
904.729	7847.89
905.042	7738.29
905.356	7713.65
905.67	7750.49
905.984	7781.22
906.297	7666.65
906.611	7626.42
906.924	7695.12
907.237	7599.31
907.551	7566.99
907.864	7514.56
908.177	7518.4
908.491	7463.04
908.804	7456.26
909.117	7419.2
909.43	7355.47
909.743	7325.64
910.056	7334
910.368	7322.48
910.681	7216.04
910.994	7254.91
911.307	7166.77
911.619	7150.28
911.932	7193.21
912.244	7136.72
912.557	7099.88
912.869	7035.48
913.181	7051.75
913.494	6979.21
913.806	6979.21
914.118	6926.1
914.43	6879.78
914.742	6920
915.054	6848.82
915.366	6863.28
915.678	6873.68
915.99	6818.31
916.302	6791.87
916.613	6743.06
916.925	6735.15
917.236	6728.14
917.548	6648.82
917.859	6668.48
918.171	6625.32
918.482	6576.06
918.794	6614.02
919.105	6520.01
919.416	6479.79
919.727	6454.25
920.038	6447.92
920.349	6402.73
920.66	6435.04
920.971	6382.39
921.282	6318.66
921.593	6278.89
921.903	6314.14
922.214	6225.33
922.525	6232.11
922.835	6139.91
923.146	6160.02
923.456	6122.06
923.767	6161.83
924.077	6138.33
924.387	6091.55
924.697	6049.97
925.008	6001.61
925.318	5998.67
925.628	6035.51
925.938	5978.33
926.248	5895.62
926.558	5926.58
926.867	5855.62
927.177	5805.91
927.487	5817.66
927.796	5760.03
928.106	5765.91
928.416	5767.04
928.725	5745.57
929.034	5700.15
929.344	5667.61
929.653	5680.26
929.962	5586.25
930.271	5556.42
930.581	5586.25
930.89	5560.26
931.199	5561.39
931.508	5489.08
931.817	5480.94
932.125	5500.38
932.434	5487.95
932.743	5427.16
933.051	5398.01
933.36	5418.35
933.669	5344
933.977	5319.14
934.286	5275.98
934.594	5329.54
934.902	5292.02
935.21	5288.63
935.519	5183.78
935.827	5237.79
936.135	5127.73
936.443	5127.51
936.751	5128.18
937.059	5094.29
937.367	5121.86
937.674	5086.83
937.982	5000.28
938.29	4989.43
938.597	5073.27
938.905	4935.65
939.213	4939.49
939.52	4912.14
939.827	4939.04
940.135	4909.43
940.442	4857.91
940.749	4879.83
941.056	4866.5
941.363	4782.43
941.67	4793.28
941.977	4788.76
942.284	4718.48
942.591	4725.94
942.898	4718.7
943.205	4729.78
943.511	4668.76
943.818	4650.91
944.125	4630.8
944.431	4613.17
944.738	4593.51
945.044	4536.56
945.35	4560.06
945.657	4491.82
945.963	4560.74
946.269	4497.92
946.575	4483.91
946.881	4445.04
947.187	4468.77
947.493	4439.84
947.799	4403.23
948.105	4435.32
948.41	4346.51
948.716	4360.29
949.022	4303.12
949.327	4326.4
949.633	4265.83
949.938	4247.76
950.244	4260.18
950.549	4248.21
950.854	4199.85
951.16	4146.52
951.465	4179.51
951.77	4153.52
952.075	4133.63
952.38	4115.33
952.685	4078.95
952.99	4100.64
953.294	4095.67
953.599	4080.53
953.904	3974.99
954.209	4009.8
954.513	4021.55
954.818	4000.98
955.122	3937.03
955.426	3937.71
955.731	3956.01
956.035	3877.82
956.339	3884.83
956.643	3887.77
956.948	3844.38
957.252	3856.81
957.556	3839.18
957.86	3832.17
958.163	3820.2
958.467	3782.91
958.771	3731.84
959.075	3750.59
959.378	3743.81
959.682	3732.06
959.985	3698.39
960.289	3707.88
960.592	3680.54
960.896	3642.57
961.199	3612.52
961.502	3632.4
961.805	3639.41
962.108	3597.6
962.411	3550.15
962.714	3595.57
963.017	3571.62
963.32	3538.17
963.623	3506.53
963.926	3486.19
964.228	3533.42
964.531	3472.18
964.833	3448.23
965.136	3424.95
965.438	3395.8
965.741	3381.34
966.043	3386.08
966.345	3352.64
966.648	3372.07
966.95	3355.35
967.252	3334.79
967.554	3305.18
967.856	3248.91
968.158	3262.7
968.46	3263.37
968.761	3292.3
969.063	3243.94
969.365	3248.91
969.666	3230.61
969.968	3184.51
970.269	3168.46
970.571	3188.35
970.872	3152.87
971.174	3150.84
971.475	3155.81
971.776	3125.07
972.077	3116.03
972.378	3072.19
972.679	3079.42
972.98	3063.83
973.281	3083.72
973.582	3032.42
973.883	3041.69
974.183	3011.63
974.484	2998.75
974.785	2982.93
975.085	2980.67
975.386	2956.04
975.686	2970.73
975.986	2958.3
976.287	2934.12
976.587	2889.37
976.887	2906.32
977.187	2878.98
977.487	2878.75
977.787	2860.67
978.087	2816.38
978.387	2820.22
978.687	2796.95
978.987	2792.88
979.286	2799.66
979.586	2746.1
979.885	2787.23
980.185	2743.16
980.484	2747.68
980.784	2742.03
981.083	2705.42
981.382	2723.73
981.682	2731.19
981.981	2673.79
982.28	2683.05
982.579	2633.11
982.878	2648.02
983.177	2613.9
983.475	2648.25
983.774	2588.59
984.073	2632.66
984.372	2627.46
984.67	2610.06
984.969	2588.36
985.267	2546.56
985.566	2570.96
985.864	2541.36
986.162	2529.61
986.461	2504.3
986.759	2552.88
987.057	2511.08
987.355	2471.08
987.653	2471.76
987.951	2463.85
988.249	2459.33
988.547	2450.29
988.844	2451.19
989.142	2452.55
989.44	2414.13
989.737	2413.68
990.035	2361.48
990.332	2384.08
990.63	2350.18
990.927	2344.08
991.224	2324.87
991.521	2350.86
991.819	2341.82
992.116	2365.55
992.413	2300.24
992.71	2297.75
993.006	2278.77
993.303	2272.44
993.6	2266.79
993.897	2240.35
994.193	2259.33
994.49	2227.7
994.787	2204.87
995.083	2220.46
995.379	2229.73
995.676	2176.4
995.972	2170.52
996.268	2148.83
996.565	2123.74
996.861	2140.01
997.157	2169.39
997.453	2102.05
997.749	2149.73
998.044	2123.29
998.34	2083.74
998.636	2085.1
998.932	2058.43
999.227	2072.22
999.523	2066.12
999.818	2042.84
1000.114	2029.73
1000.409	2016.85
1000.704	2031.77
1001	1984.09
1001.295	1984.54
1001.59	1980.7
1001.885	1994.03
1002.18	1947.7
1002.475	1933.92
1002.77	1964.88
1003.065	1921.26
1003.359	1930.75
1003.654	1901.38
1003.949	1872.68
1004.243	1905.9
1004.538	1864.09
1004.832	1865.67
1005.127	1867.25
1005.421	1840.81
1005.715	1839.01
1006.009	1808.5
1006.304	1822.28
1006.598	1794.94
1006.892	1797.2
1007.186	1753.13
1007.48	1785.9
1007.773	1750.87
1008.067	1756.07
1008.361	1741.61
1008.655	1724.66
1008.948	1715.62
1009.242	1696.18
1009.535	1715.62
1009.829	1712.68
1010.122	1688.5
1010.415	1693.02
1010.708	1707.26
1011.001	1687.6
1011.295	1654.15
1011.588	1657.77
1011.881	1654.15
1012.173	1620.93
1012.466	1609.63
1012.759	1627.26
1013.052	1596.3
1013.344	1582.97
1013.637	1578.45
1013.93	1545.45
1014.222	1550.65
1014.514	1536.64
1014.807	1522.86
1015.099	1529.63
1015.391	1498.68
1015.683	1505
1015.976	1496.64
1016.268	1527.15
1016.56	1482.18
1016.851	1467.72
1017.143	1460.03
1017.435	1459.58
1017.727	1466.36
1018.018	1442.63
1018.31	1454.61
1018.602	1438.11
1018.893	1443.54
1019.185	1401.5
1019.476	1412.35
1019.767	1392.69
1020.058	1382.75
1020.35	1355.4
1020.641	1369.41
1020.932	1348.62
1021.223	1324.89
1021.514	1357.21
1021.804	1335.29
1022.095	1341.84
1022.386	1306.36
1022.677	1312.69
1022.967	1298.91
1023.258	1304.56
1023.548	1295.29
1023.839	1277.89
1024.129	1274.73
1024.419	1265.46
1024.709	1252.13
1025	1228.85
1025.29	1241.73
1025.58	1226.59
1025.87	1225.01
1026.16	1210.77
1026.449	1213.49
1026.739	1206.93
1027.029	1188.17
1027.319	1152.02
1027.608	1142.98
1027.898	1156.76
1028.187	1165.12
1028.477	1146.14
1028.766	1132.58
1029.055	1147.72
1029.344	1137.78
1029.634	1131
1029.923	1135.3
1030.212	1119.93
1030.501	1102.53
1030.79	1088.52
1031.078	1079.93
1031.367	1092.81
1031.656	1083.77
1031.945	1055.75
1032.233	1070.21
1032.522	1070.66
1032.81	1058.69
1033.099	1028.41
1033.387	1019.37
1033.675	1043.77
1033.963	998.35
1034.251	1021.4
1034.54	977.79
1034.828	1010.78
1035.116	998.8
1035.403	991.12
1035.691	984.79
1035.979	997.45
1036.267	950.89
1036.554	972.59
1036.842	954.73
1037.129	978.46
1037.417	929.2
1037.704	959.48
1037.992	929.65
1038.279	921.97
1038.566	927.62
1038.853	927.62
1039.14	927.62
