Data from hue_290_FLMS001491_00021.txt Node
Date: Tue Feb 07 15:52:30 GMT 2017
User: dcchb
Spectrometer: FLMS00149
Trigger mode: 0
Integration Time (sec): 2.000000E-2
Scans to average: 10
Electric dark correction enabled: true
Nonlinearity correction enabled: false
Boxcar width: 0
XAxis mode: Wavelengths
Number of Pixels in Spectrum: 2048
>>>>>Begin Spectral Data<<<<<
341.393	-15.14
341.776	-15.14
342.16	-15.14
342.543	-59.21
342.927	-74.12
343.31	-82.03
343.693	-41.35
344.077	-71.86
344.46	-45.65
344.843	-67.34
345.226	-31.41
345.61	-46.1
345.993	-5.2
346.376	-8.36
346.759	23.5
347.142	16.72
347.525	41.81
347.908	58.3
348.291	66.44
348.674	81.81
349.057	110.73
349.44	136.04
349.823	140.79
350.206	172.42
350.588	192.76
350.971	193.44
351.354	212.2
351.737	218.07
352.119	235.02
352.502	272.76
352.884	264.4
353.267	301.01
353.65	274.34
354.032	308.01
354.414	325.87
354.797	295.36
355.179	311.18
355.562	305.53
355.944	312.99
356.326	338.75
356.709	319.77
357.091	320.44
357.473	331.06
357.855	331.06
358.238	351.63
358.62	339.43
359.002	327.68
359.384	334.91
359.766	355.92
360.148	348.69
360.53	351.4
360.912	351.4
361.294	349.37
361.676	345.98
362.057	324.51
362.439	309.6
362.821	321.12
363.203	312.76
363.584	348.69
363.966	327
364.348	331.52
364.729	309.82
365.111	307.79
365.493	323.61
365.874	278.64
366.256	309.37
366.637	318.86
367.019	328.58
367.4	324.06
367.781	310.27
368.163	320.9
368.544	313.21
368.925	331.29
369.306	316.6
369.688	302.36
370.069	288.58
370.45	303.27
370.831	337.39
371.212	311.18
371.593	303.04
371.974	321.8
372.355	306.66
372.736	319.09
373.117	300.33
373.498	314.12
373.879	307.34
374.26	318.86
374.641	324.51
375.021	294.23
375.402	315.92
375.783	322.7
376.163	332.87
376.544	320.22
376.925	327.45
377.305	327.22
377.686	330.84
378.066	324.74
378.447	339.43
378.827	322.7
379.208	313.21
379.588	317.05
379.968	324.06
380.349	317.28
380.729	325.64
381.109	324.51
381.489	324.96
381.87	348.01
382.25	361.8
382.63	351.4
383.01	351.86
383.39	329.71
383.77	338.07
384.15	341.46
384.53	347.11
384.91	332.19
385.29	361.12
385.67	354.79
386.049	362.48
386.429	350.95
386.809	361.8
387.189	357.28
387.568	345.75
387.948	358.41
388.328	347.79
388.707	370.39
389.087	352.31
389.466	368.58
389.846	359.54
390.225	361.12
390.605	359.76
390.984	380.1
391.363	367.9
391.743	364.96
392.122	374.23
392.501	398.41
392.881	386.43
393.26	382.14
393.639	384.62
394.018	380.78
394.397	382.14
394.776	388.69
395.155	388.69
395.534	388.24
395.913	381.91
396.292	390.05
396.671	393.89
397.05	406.77
397.429	414
397.808	403.83
398.186	376.26
398.565	394.11
398.944	401.8
399.323	415.81
399.701	425.07
400.08	425.3
400.458	420.55
400.837	423.94
401.215	418.97
401.594	429.37
401.972	416.71
402.351	415.36
402.729	427.33
403.107	425.53
403.486	434.79
403.864	449.71
404.242	439.99
404.62	467.11
404.999	460.55
405.377	449.48
405.755	456.26
406.133	459.42
406.511	470.95
406.889	452.64
407.267	475.47
407.645	484.96
408.023	489.03
408.401	487.9
408.779	485.41
409.156	486.77
409.534	482.47
409.912	504.39
410.29	525.41
410.667	524.96
411.045	514.79
411.422	543.26
411.8	561.57
412.178	540.55
412.555	563.38
412.933	567.67
413.31	568.35
413.687	577.84
414.065	554.79
414.442	583.94
414.819	571.28
415.197	600.44
415.574	609.7
415.951	628.46
416.328	624.16
416.705	624.62
417.082	628.91
417.46	646.08
417.837	654.67
418.214	670.94
418.591	674.33
418.967	692.64
419.344	703.03
419.721	688.34
420.098	707.55
420.475	710.26
420.852	710.94
421.228	724.95
421.605	731.28
421.982	734.67
422.358	747.1
422.735	785.97
423.111	769.25
423.488	779.87
423.864	774.44
424.241	809.92
424.617	823.03
424.994	842.69
425.37	813.76
425.746	824.39
426.123	824.39
426.499	858.06
426.875	860.99
427.251	891.95
427.627	896.93
428.003	868
428.379	903.25
428.756	915
429.132	908.68
429.507	939.18
429.883	923.82
430.259	948.68
430.635	957.04
431.011	976.92
431.387	983.03
431.763	1007.43
432.138	999.3
432.514	1035.23
432.89	1002.01
433.265	1045.17
433.641	1034.1
434.016	1059.63
434.392	1065.73
434.767	1102.12
435.143	1105.28
435.518	1136.69
435.894	1140.08
436.269	1138.05
436.644	1147.77
437.02	1170.82
437.395	1189.8
437.77	1172.85
438.145	1212.62
438.52	1230.7
438.895	1232.96
439.271	1227.54
439.646	1263.92
440.021	1293.07
440.395	1283.13
440.77	1278.16
441.145	1296.01
441.52	1310.7
441.895	1297.14
442.27	1320.19
442.645	1309.8
443.019	1343.69
443.394	1345.73
443.769	1329.91
444.143	1345.28
444.518	1364.48
444.892	1350.47
445.267	1399.06
445.641	1362.22
446.016	1367.65
446.39	1406.97
446.764	1395.67
447.139	1401.32
447.513	1402.67
447.887	1421.43
448.262	1415.78
448.636	1429.34
449.01	1424.14
449.384	1444.48
449.758	1441.54
450.132	1454.65
450.506	1476.57
450.88	1498.94
451.254	1499.85
451.628	1491.49
452.002	1509.11
452.376	1509.11
452.75	1540.75
453.123	1525.84
453.497	1519.73
453.871	1548.21
454.244	1551.37
454.618	1575.55
454.992	1587.98
455.365	1600.86
455.739	1626.17
456.112	1660.75
456.486	1647.64
456.859	1653.06
457.232	1676.11
457.606	1690.35
457.979	1704.14
458.352	1703.01
458.725	1713.18
459.099	1753.4
459.472	1745.26
459.845	1782.33
460.218	1772.61
460.591	1792.5
460.964	1803.57
461.337	1845.6
461.71	1839.05
462.083	1881.98
462.456	1871.59
462.829	1873.4
463.201	1919.27
463.574	1941.64
463.947	1905.26
464.32	1951.81
464.692	1983.68
465.065	1975.54
465.438	1990.68
465.81	1975.99
466.183	2007.4
466.555	2061.41
466.928	2037.91
467.3	2024.58
467.672	2060.06
468.045	2142.09
468.417	2148.19
468.789	2121.98
469.161	2161.53
469.534	2185.71
469.906	2205.37
470.278	2214.18
470.65	2250.34
471.022	2284.91
471.394	2292.82
471.766	2341.41
472.138	2331.69
472.51	2364.01
472.882	2404.68
473.253	2432.48
473.625	2455.75
473.997	2500.5
474.369	2506.6
474.74	2487.62
475.112	2491.91
475.484	2585.47
475.855	2550.22
476.227	2606.49
476.598	2657.11
476.97	2697.1
477.341	2727.39
477.713	2745.46
478.084	2760.61
478.455	2820.26
478.827	2822.75
479.198	2876.08
479.569	2884.67
479.94	2940.94
480.311	2990.2
480.682	3038.11
481.053	3088.96
481.424	3122.4
481.795	3130.09
482.166	3181.16
482.537	3216.86
482.908	3266.81
483.279	3259.8
483.65	3277.65
484.021	3381.15
484.391	3360.36
484.762	3363.98
485.133	3399.46
485.503	3444.88
485.874	3495.05
486.244	3521.72
486.615	3569.17
486.985	3626.35
487.356	3650.07
487.726	3674.03
488.097	3713.35
488.467	3723.74
488.837	3802.39
489.207	3786.57
489.578	3894.13
489.948	3846.23
490.318	3911.08
490.688	3945.43
491.058	3997.63
491.428	4023.62
491.798	4031.08
492.168	4107.69
492.538	4084.86
492.908	4142.49
493.278	4205.54
493.648	4229.27
494.017	4255.03
494.387	4317.17
494.757	4290.73
495.126	4305.42
495.496	4349.49
495.866	4355.37
496.235	4370.96
496.605	4411.41
496.974	4447.57
497.344	4437.17
497.713	4447.57
498.082	4526.66
498.452	4535.02
498.821	4534.12
499.19	4560.11
499.559	4602.59
499.928	4649.37
500.298	4666.09
500.667	4694.11
501.036	4687.79
501.405	4685.07
501.774	4709.48
502.143	4712.42
502.512	4756.71
502.88	4767.56
503.249	4777.73
503.618	4809.37
503.987	4842.58
504.356	4805.98
504.724	4869.7
505.093	4861.12
505.462	4862.7
505.83	4909.48
506.199	4952.86
506.567	5007.33
506.936	4950.38
507.304	4994.44
507.672	5023.14
508.041	5063.6
508.409	5088.68
508.777	5113.09
509.145	5073.99
509.514	5110.6
509.882	5094.78
510.25	5118.06
510.618	5142.46
510.986	5139.75
511.354	5202.12
511.722	5240.09
512.09	5246.19
512.458	5251.84
512.826	5280.31
513.193	5267.43
513.561	5278.51
513.929	5330.71
514.297	5293.19
514.664	5405.28
515.032	5372.97
515.4	5377.26
515.767	5403.93
516.135	5378.84
516.502	5408.22
516.869	5490.7
517.237	5464.94
517.604	5438.05
517.972	5491.38
518.339	5509.01
518.706	5510.36
519.073	5520.31
519.44	5610.47
519.808	5598.27
520.175	5610.7
520.542	5618.61
520.909	5610.93
521.276	5595.11
521.643	5753.3
522.009	5661.77
522.376	5723.47
522.743	5775.67
523.11	5779.74
523.477	5822.9
523.843	5878.49
524.21	5855.44
524.577	5925.72
524.943	5919.62
525.31	5939.28
525.676	6020.86
526.043	6075.32
526.409	6002.1
526.776	6091.37
527.142	6081.42
527.508	6072.16
527.874	6155.77
528.241	6125.71
528.607	6178.59
528.973	6194.41
529.339	6202.77
529.705	6246.84
530.071	6327.52
530.437	6329.1
530.803	6357.8
531.169	6335.88
531.535	6337.23
531.901	6360.51
532.267	6370.91
532.632	6411.13
532.998	6435.31
533.364	6464.46
533.73	6542.65
534.095	6549.43
534.461	6549.21
534.826	6532.03
535.192	6614.06
535.557	6604.8
535.923	6689.09
536.288	6614.29
536.653	6678.69
537.019	6690.45
537.384	6670.11
537.749	6714.63
538.114	6755.53
538.479	6722.99
538.845	6765.02
539.21	6783.55
539.575	6816.77
539.94	6819.03
540.305	6853.61
540.67	6880.72
541.034	6848.18
541.399	6884.11
541.764	6909.87
542.129	6900.61
542.494	6919.14
542.858	6943.55
543.223	6992.58
543.587	7043.2
543.952	6988.74
544.316	7038.46
544.681	7058.35
545.045	7077.1
545.41	7133.37
545.774	7124.33
546.138	7152.13
546.503	7135.86
546.867	7188.96
547.231	7209.98
547.595	7216.99
547.959	7212.47
548.324	7225.35
548.688	7240.49
549.052	7316.42
549.416	7256.31
549.779	7320.94
550.143	7314.84
550.507	7357.09
550.871	7425.79
551.235	7349.41
551.599	7444.78
551.962	7410.2
552.326	7420.37
552.689	7450.65
553.053	7487.26
553.417	7483.42
553.78	7518.67
554.143	7513.7
554.507	7581.27
554.87	7562.96
555.234	7639.8
555.597	7574.94
555.96	7574.26
556.323	7641.61
556.686	7688.61
557.05	7702.62
557.413	7683.41
557.776	7698.1
558.139	7729.06
558.502	7734.26
558.865	7769.06
559.228	7819
559.59	7820.59
559.953	7799.57
560.316	7922.73
560.679	7844.09
561.041	7946.46
561.404	7938.32
561.767	7961.82
562.129	7888.61
562.492	8007.47
562.854	8033.46
563.217	8010.41
563.579	8036.17
563.941	8052.44
564.304	8136.51
564.666	8113.23
565.028	8222.38
565.39	8163.85
565.753	8256.73
566.115	8214.02
566.477	8266
566.839	8242.27
567.201	8393.23
567.563	8333.57
567.925	8424.64
568.287	8405.65
568.648	8441.59
569.01	8470.51
569.372	8571.98
569.734	8489.27
570.095	8598.42
570.457	8533.33
570.819	8603.16
571.18	8563.84
571.542	8658.76
571.903	8677.96
572.265	8747.57
572.626	8761.8
572.987	8804.97
573.349	8805.19
573.71	8854.91
574.071	8931.74
574.432	8978.07
574.794	9007.45
575.155	9034.34
575.516	9055.13
575.877	9129.25
576.238	9201.57
576.599	9249.7
576.96	9189.36
577.32	9265.52
577.681	9390.94
578.042	9409.24
578.403	9515.68
578.763	9538.51
579.124	9518.39
579.485	9661.21
579.845	9717.26
580.206	9807.2
580.566	9873.41
580.927	9876.12
581.287	10030.92
581.648	9961.09
582.008	10143.01
582.368	10224.36
582.728	10330.58
583.089	10405.83
583.449	10466.62
583.809	10618.48
584.169	10670.68
584.529	10743.22
584.889	10950.9
585.249	10950.22
585.609	11012.59
585.969	11117
586.329	11263.43
586.688	11369.64
587.048	11531
587.408	11548.4
587.768	11684.66
588.127	11781.61
588.487	11921.04
588.846	12148.38
589.206	12194.26
589.565	12321.71
589.925	12447.13
590.284	12571.19
590.643	12682.6
591.003	12862.49
591.362	13072.42
591.721	13194
592.08	13221.57
592.44	13436.71
592.799	13525.07
593.158	13641.22
593.517	13871.05
593.876	13997.37
594.235	14026.52
594.593	14262.45
594.952	14354.65
595.311	14491.82
595.67	14678.71
596.029	14775.2
596.387	14963.67
596.746	15079.15
597.104	15213.39
597.463	15315.3
597.822	15476.43
598.18	15533.83
598.538	15566.14
598.897	15858.79
599.255	15970.43
599.613	16256.3
599.972	16183.98
600.33	16415.16
600.688	16396.86
601.046	16533.8
601.404	16808.82
601.762	16901.48
602.12	16978.99
602.478	17036.16
602.836	17221.24
603.194	17191.86
603.552	17323.61
603.91	17352.31
604.268	17553.66
604.625	17534.68
604.983	17673.21
605.341	17704.17
605.698	17842.92
606.056	18107.32
606.413	18118.62
606.771	18281.33
607.128	18287.65
607.485	18299.86
607.843	18365.62
608.2	18649.23
608.557	18776.23
608.914	18715.67
609.272	18839.05
609.629	18944.13
609.986	19073.62
610.343	19071.81
610.7	19230.23
611.057	19246.27
611.414	19257.57
611.771	19334.86
612.127	19505.48
612.484	19587.51
612.841	19761.97
613.198	19608.75
613.554	19708.18
613.911	19973.26
614.267	19884
614.624	19869.08
614.98	20067.49
615.337	20199.02
615.693	20136.87
616.05	20218
616.406	20420.93
616.762	20290.09
617.118	20439.91
617.475	20528.27
617.831	20517.65
618.187	20570.08
618.543	20585.9
618.899	20768.04
619.255	20770.3
619.611	20700.47
619.967	20870.41
620.323	20985.44
620.678	20865.67
621.034	20970.75
621.39	20931.65
621.746	20859.11
622.101	21216.84
622.457	21039.67
622.812	21113.57
623.168	21178.43
623.523	21221.59
623.879	21304.52
624.234	21217.3
624.589	21262.04
624.945	21252.55
625.3	21370.74
625.655	21330.06
626.01	21436.95
626.365	21430.85
626.72	21436.5
627.075	21384.52
627.43	21405.99
627.785	21398.76
628.14	21460
628.495	21504.07
628.85	21568.92
629.205	21424.3
629.559	21558.3
629.914	21428.59
630.269	21418.87
630.623	21381.81
630.978	21433.33
631.332	21454.8
631.687	21530.73
632.041	21406.22
632.396	21489.6
632.75	21380.91
633.104	21426.33
633.459	21302.04
633.813	21267.46
634.167	21416.16
634.521	21400.57
634.875	21423.39
635.229	21345.2
635.583	21278.54
635.937	21403.05
636.291	21348.37
636.645	21399.66
636.999	21304.98
637.352	21306.78
637.706	21238.31
638.06	21370.96
638.413	21327.35
638.767	21250.97
639.121	21249.16
639.474	21239.22
639.828	21211.42
640.181	21236.28
640.534	21224.3
640.888	21044.42
641.241	20996.74
641.594	21147.24
641.947	21092.33
642.301	21128.71
642.654	21167.13
643.007	21130.07
643.36	21068.6
643.713	21047.36
644.066	21072.21
644.419	20941.6
644.771	20831.32
645.124	20703.41
645.477	20638.33
645.83	20594.49
646.182	20482.63
646.535	20476.52
646.888	20502.06
647.24	20348.17
647.593	20561.72
647.945	20448.73
648.298	20403.31
648.65	20407.15
649.002	20320.14
649.355	20417.99
649.707	20447.6
650.059	20531.66
650.411	20701.6
650.763	20750.64
651.115	21059.56
651.467	20925.33
651.819	20976.85
652.171	20884.65
652.523	20915.38
652.875	20887.36
653.227	20833.58
653.578	21001.26
653.93	20916.51
654.282	20901.37
654.633	20780.47
654.985	20931.43
655.337	20849.17
655.688	20913.12
656.039	20959.67
656.391	20820.92
656.742	20850.53
657.094	20919.22
657.445	20932.33
657.796	20921.26
658.147	20968.49
658.498	20935.95
658.849	20804.2
659.2	20990.86
659.551	20803.97
659.902	20962.39
660.253	20927.59
660.604	20967.36
660.955	20915.83
661.306	20902.28
661.656	20970.3
662.007	20911.77
662.358	20909.28
662.708	21015.27
663.059	21009.17
663.409	20916.96
663.76	21024.53
664.11	21066.56
664.461	21085.1
664.811	20948.6
665.161	20974.36
665.511	20939.11
665.862	20968.71
666.212	21035.61
666.562	21008.49
666.912	21017.3
667.262	21022.05
667.612	20986.34
667.962	20896.85
668.312	20948.15
668.662	21056.85
669.011	20980.01
669.361	20851.88
669.711	20847.59
670.06	20882.16
670.41	20873.12
670.76	20880.35
671.109	21007.13
671.459	20858.66
671.808	20684.43
672.157	20841.26
672.507	20761.71
672.856	20766.23
673.205	20776.18
673.554	20899.79
673.904	20704.54
674.253	20927.36
674.602	20776.85
674.951	20613.92
675.3	20452.57
675.649	20881.71
675.998	20655.73
676.346	20798.78
676.695	20730.53
677.044	20534.38
677.393	20706.57
677.741	20659.8
678.09	20664.09
678.438	20577.54
678.787	20570.31
679.135	20641.49
679.484	20563.98
679.832	20522.62
680.181	20427.94
680.529	20375.74
680.877	20446.24
681.225	20372.8
681.573	20521.95
681.922	20394.04
682.27	20383.87
682.618	20262.52
682.966	20195.18
683.314	20367.15
683.661	20227.26
684.009	19970.32
684.357	20036.99
684.705	20053.26
685.053	20121.28
685.4	20045.12
685.748	19893.04
686.095	19970.1
686.443	19807.61
686.79	19768.75
687.138	19853.72
687.485	19790.67
687.832	19696.21
688.18	19766.26
688.527	19617.34
688.874	19637.68
689.221	19603.1
689.568	19445.36
689.915	19434.52
690.262	19348.87
690.609	19315.42
690.956	19262.09
691.303	19277.46
691.65	19203.11
691.997	19161.53
692.344	18986.85
692.69	18999.95
693.037	19020.29
693.383	18806.74
693.73	18823.91
694.077	18667.98
694.423	18818.26
694.769	18665.72
695.116	18653.07
695.462	18648.1
695.808	18552.73
696.155	18505.28
696.501	18395.9
696.847	18491.04
697.193	18286.98
697.539	18291.95
697.885	18032.07
698.231	18000.88
698.577	18042.92
698.923	18021.9
699.269	17884.73
699.614	17802.02
699.96	17731.29
700.306	17808.35
700.651	17718.86
700.997	17617.62
701.342	17595.47
701.688	17622.59
702.033	17514.12
702.379	17436.6
702.724	17383.27
703.069	17448.13
703.415	17206.1
703.76	17374.23
704.105	17193.45
704.45	17106.89
704.795	17109.38
705.14	16967.46
705.485	16958.65
705.83	16874.36
706.175	16890.63
706.52	16842.95
706.865	16728.37
707.209	16802.5
707.554	16681.37
707.899	16702.61
708.243	16681.82
708.588	16555.5
708.932	16487.02
709.277	16383.52
709.621	16557.98
709.966	16357.08
710.31	16395.05
710.654	16236.64
710.998	16137.65
711.342	16261.49
711.687	16156.41
712.031	16067.83
712.375	16068.05
712.719	16072.12
713.063	16152.57
713.407	16046.36
713.75	15991.22
714.094	15979.47
714.438	15874.61
714.782	15820.83
715.125	15797.55
715.469	15805.91
715.812	15749.87
716.156	15680.94
716.499	15610.21
716.843	15756.2
717.186	15612.24
717.53	15680.94
717.873	15625.8
718.216	15599.82
718.559	15526.82
718.902	15465.81
719.246	15506.48
719.589	15452.25
719.932	15429.88
720.275	15472.59
720.617	15476.2
720.96	15397.34
721.303	15446.6
721.646	15432.59
721.989	15306.94
722.331	15314.63
722.674	15342.87
723.016	15239.15
723.359	15282.99
723.701	15372.48
724.044	15174.06
724.386	15146.95
724.729	15138.81
725.071	15168.87
725.413	15106.04
725.755	15170.67
726.097	15009.1
726.439	14974.75
726.782	15114.63
727.124	15136.55
727.465	14982.2
727.807	15039.38
728.149	15009.1
728.491	14980.62
728.833	14906.27
729.175	14933.39
729.516	14910.12
729.858	14917.8
730.199	14941.53
730.541	14935.88
730.882	14923.68
731.224	15033.73
731.565	14893.85
731.906	14825.15
732.248	14935.43
732.589	14827.63
732.93	14779.72
733.271	14797.35
733.612	14882.77
733.953	14878.7
734.294	14760.52
734.635	14818.37
734.976	14819.5
735.317	14736.79
735.658	14760.52
735.999	14857.91
736.339	14787.41
736.68	14902.66
737.021	14775.43
737.361	14724.58
737.702	14791.7
738.042	14775.88
738.383	14712.61
738.723	14822.89
739.063	14735.66
739.404	14820.63
739.744	14760.29
740.084	14715.09
740.424	14782.89
740.764	14838.93
741.104	14892.49
741.444	14835.99
741.784	14908.08
742.124	14885.94
742.464	14938.59
742.804	14864.24
743.143	14790.8
743.483	14930.45
743.823	14939.04
744.162	14923
744.502	14950.57
744.841	14902.88
745.181	15046.38
745.52	15031.24
745.86	15160.28
746.199	15044.35
746.538	15141.07
746.877	15252.71
747.216	15234.85
747.556	15208.19
747.895	15359.6
748.234	15301.07
748.573	15386.26
748.911	15435.07
749.25	15483.21
749.589	15499.71
749.928	15631
750.267	15676.65
750.605	15746.93
750.944	15809.98
751.283	15784.9
751.621	16023.53
751.96	16033.93
752.298	16076.64
752.636	16195.51
752.975	16179.46
753.313	16208.39
753.651	16486.35
753.989	16587.36
754.327	16585.78
754.666	16715.04
755.004	16882.72
755.342	16955.49
755.679	16975.37
756.017	17088.14
756.355	17185.76
756.693	17243.16
757.031	17388.24
757.368	17453.1
757.706	17512.08
758.044	17637.28
758.381	17788.68
758.719	17883.37
759.056	17977.15
759.394	18036.59
759.731	18047.89
760.068	18221.89
760.405	18307.09
760.743	18332.17
761.08	18592.05
761.417	18576.23
761.754	18655.1
762.091	18760.41
762.428	18882.67
762.765	18990.46
763.102	19156.33
763.438	19064.36
763.775	19091.93
764.112	19259.15
764.449	19311.81
764.785	19446.27
765.122	19427.96
765.458	19522.88
765.795	19538.47
766.131	19761.29
766.467	19711.8
766.804	19758.12
767.14	19854.17
767.476	19868.86
767.812	19951.57
768.148	19943.66
768.485	19935.97
768.821	19965.12
769.157	20068.62
769.492	19992.69
769.828	20193.14
770.164	20006.93
770.5	19994.28
770.836	20182.29
771.171	20110.21
771.507	20206.47
771.842	20018.91
772.178	20230.65
772.513	20171.67
772.849	20113.6
773.184	20072.47
773.519	20189.3
773.855	20127.61
774.19	20122.63
774.525	20083.99
774.86	20140.49
775.195	20125.8
775.53	20096.87
775.865	20088.06
776.2	19934.17
776.535	19805.58
776.87	19920.83
777.205	19910.89
777.539	19834.05
777.874	19980.94
778.209	19823.43
778.543	19787.05
778.878	19726.49
779.212	19787.05
779.547	19660.5
779.881	19714.51
780.215	19672.7
780.55	19697.79
780.884	19633.61
781.218	19557.68
781.552	19592.03
781.886	19486.27
782.22	19364.46
782.554	19273.39
782.888	19267.29
783.222	19210.57
783.556	19208.76
783.889	19136.67
784.223	19038.37
784.557	19096.45
784.89	19057.8
785.224	18953.4
785.557	18875.44
785.891	18944.81
786.224	18771.71
786.558	18829.79
786.891	18682.22
787.224	18600.64
787.557	18528.55
787.891	18606.52
788.224	18548.44
788.557	18615.1
788.89	18553.86
789.223	18417.82
789.556	18340.76
789.888	18322.91
790.221	18125.63
790.554	18065.97
790.887	18271.38
791.219	18077.49
791.552	18104.16
791.884	17897.83
792.217	18032.52
792.549	17939.64
792.882	17746.65
793.214	17759.76
793.546	17679.76
793.879	17621.46
794.211	17518.86
794.543	17619.88
794.875	17513.21
795.207	17562.93
795.539	17421.91
795.871	17418.75
796.203	17256.04
796.535	17260.34
796.867	17150.96
797.198	17183.5
797.53	17114.13
797.862	17065.99
798.193	17068.25
798.525	16902.61
798.856	16968.14
799.188	16737.64
799.519	16806.79
799.85	16583.74
800.182	16717.75
800.513	16623.29
800.844	16520.02
801.175	16669.17
801.506	16682.27
801.837	16416.74
802.168	16466.46
802.499	16392.79
802.83	16348.27
803.161	16242.06
803.491	16232.12
803.822	16289.74
804.153	16094.04
804.483	16038
804.814	16041.61
805.145	16020.14
805.475	16078
805.805	15924.78
806.136	15950.32
806.466	15892.46
806.796	15929.75
807.126	15726.59
807.457	15702.41
807.787	15697.44
808.117	15611.11
808.447	15654.28
808.777	15694.5
809.107	15600.95
809.436	15473.49
809.766	15501.51
810.096	15473.94
810.426	15443.66
810.755	15446.37
811.085	15317.11
811.414	15332.48
811.744	15239.83
812.073	15202.09
812.403	15195.08
812.732	15061.75
813.061	15104.24
813.39	15035.08
813.719	14974.52
814.049	15053.39
814.378	14992.83
814.707	14871.02
815.036	14958.48
815.365	14842.1
815.693	14650.01
816.022	14758.93
816.351	14628.77
816.68	14620.41
817.008	14701.76
817.337	14467.64
817.665	14526.4
817.994	14588.32
818.322	14584.25
818.651	14455.44
818.979	14375.89
819.307	14496.34
819.636	14409.34
819.964	14420.19
820.292	14408.66
820.62	14370.47
820.948	14305.39
821.276	14290.25
821.604	14307.87
821.932	14328.44
822.259	14346.97
822.587	14376.12
822.915	14304.48
823.243	14291.6
823.57	14253.41
823.898	14276.23
824.225	14154.66
824.553	14216.58
824.88	14200.53
825.207	14296.8
825.535	14229.46
825.862	14250.25
826.189	14197.37
826.516	14273.52
826.843	14227.2
827.17	14183.36
827.497	14210.93
827.824	14259.74
828.151	14210.02
828.478	14266.07
828.805	14281.66
829.131	14196.91
829.458	14229.68
829.785	14204.15
830.111	14202.34
830.438	14221.09
830.764	14118.5
831.09	14250.92
831.417	14143.58
831.743	14146.52
832.069	14228.33
832.395	14119.4
832.722	14218.84
833.048	14171.15
833.374	14053.64
833.7	14057.94
834.026	14096.58
834.351	14046.41
834.677	14105.39
835.003	14066.75
835.329	14088.9
835.654	13974.55
835.98	14022.68
836.306	13999.41
836.631	13909.24
836.956	14041.21
837.282	14049.12
837.607	13884.61
837.932	13894.78
838.258	13967.54
838.583	13883.48
838.908	13855.68
839.233	13854.78
839.558	13714.89
839.883	13762.12
840.208	13723.03
840.533	13690.94
840.858	13671.73
841.182	13756.7
841.507	13693.88
841.832	13608.46
842.156	13622.47
842.481	13510.38
842.805	13548.12
843.13	13501.11
843.454	13451.62
843.778	13451.4
844.103	13412.3
844.427	13328.24
844.751	13329.37
845.075	13246.43
845.399	13233.1
845.723	13177.51
846.047	13231.29
846.371	13067.23
846.695	13074.23
847.019	12921.92
847.343	12939.32
847.666	12795.37
847.99	12866.33
848.313	12827.69
848.637	12715.15
848.96	12759.66
849.284	12643.06
849.607	12599.67
849.931	12496.85
850.254	12517.64
850.577	12368.26
850.9	12326.23
851.223	12340.01
851.546	12243.97
851.869	12215.5
852.192	12299.11
852.515	12184.09
852.838	12103.41
853.161	12063.86
853.483	12072.68
853.806	12028.16
854.129	11979.35
854.451	11906.81
854.774	11833.14
855.096	11857.54
855.419	11750.88
855.741	11749.3
856.063	11664.1
856.385	11698.22
856.708	11625.46
857.03	11592.46
857.352	11612.8
857.674	11536.65
857.996	11487.16
858.318	11420.04
858.64	11378.91
858.961	11392.92
859.283	11412.58
859.605	11280.16
859.926	11290.78
860.248	11290.55
860.57	11272.02
860.891	11205.58
861.212	11104.57
861.534	11204
861.855	11090.33
862.176	11158.58
862.498	11077.45
862.819	11093.95
863.14	10935.53
863.461	10996.32
863.782	10981.18
864.103	10982.76
864.424	11005.59
864.745	11059.14
865.065	10910.22
865.386	10875.65
865.707	10846.04
866.027	10903.67
866.348	10879.26
866.668	10797.91
866.989	10776.44
867.309	10695.54
867.63	10815.31
867.95	10794.74
868.27	10633.84
868.59	10657.8
868.91	10710
869.23	10673.62
869.55	10634.97
869.87	10738.47
870.19	10605.82
870.51	10718.81
870.83	10620.29
871.15	10581.87
871.469	10511.36
871.789	10497.8
872.109	10563.34
872.428	10476.56
872.748	10527.18
873.067	10497.8
873.386	10549.1
873.706	10511.36
874.025	10487.41
874.344	10389.33
874.663	10357.69
874.982	10404.7
875.301	10358.15
875.62	10321.54
875.939	10312.95
876.258	10264.81
876.577	10292.16
876.896	10243.57
877.214	10258.49
877.533	10167.42
877.852	10199.51
878.17	10247.19
878.489	10213.74
878.807	10176.68
879.125	10181.2
879.444	10105.72
879.762	10161.31
880.08	10061.43
880.398	10096.01
880.716	10074.54
881.034	10024.82
881.352	10020.98
881.67	10018.04
881.988	9965.61
882.306	9967.42
882.624	9919.06
882.941	9911.83
883.259	9856.92
883.577	9860.31
883.894	9801.32
884.212	9833.64
884.529	9808.33
884.846	9783.7
885.164	9729.69
885.481	9723.59
885.798	9655.79
886.115	9616.7
886.432	9627.09
886.75	9597.26
887.067	9565.17
887.383	9554.55
887.7	9575.12
888.017	9560.65
888.334	9500.54
888.651	9506.42
888.967	9497.83
889.284	9377.38
889.6	9423.26
889.917	9327.44
890.233	9331.73
890.55	9304.39
890.866	9283.37
891.182	9305.97
891.498	9278.17
891.815	9169.25
892.131	9141.68
892.447	9186.65
892.763	9164.28
893.079	9116.37
893.395	9079.54
893.71	9108.01
894.026	9047.67
894.342	9011.74
894.657	9011.06
894.973	9007.9
895.289	8984.17
895.604	8925.64
895.92	8846.1
896.235	8780.33
896.55	8847.45
896.865	8794.12
897.181	8752.99
897.496	8745.76
897.811	8699.43
898.126	8706.44
898.441	8650.85
898.756	8638.42
899.071	8609.04
899.386	8544.86
899.7	8466.9
900.015	8488.59
900.33	8416.28
900.644	8383.96
900.959	8438.42
901.273	8402.26
901.588	8358.65
901.902	8257.18
902.216	8264.87
902.531	8189.39
902.845	8193
903.159	8122.5
903.473	8116.62
903.787	8073.23
904.101	8111.88
904.415	8122.95
904.729	7977.64
905.042	7986
905.356	7956.63
905.67	7921.83
905.984	7896.29
906.297	7924.31
906.611	7820.81
906.924	7814.94
907.237	7789.63
907.551	7712.79
907.864	7683.64
908.177	7642.06
908.491	7632.12
908.804	7574.26
909.117	7615.39
909.43	7621.04
909.743	7533.59
910.056	7495.17
910.368	7392.57
910.681	7399.81
910.994	7405.46
911.307	7395.29
911.619	7273.48
911.932	7306.47
912.244	7274.61
912.557	7243.65
912.869	7165.91
913.181	7173.14
913.494	7097.67
913.806	7106.48
914.118	7116.88
914.43	7098.8
914.742	7038.01
915.054	7040.27
915.366	7004.56
915.678	6927.5
915.99	6908.97
916.302	6886.15
916.613	6915.75
916.925	6834.85
917.236	6847.73
917.548	6819.03
917.859	6792.59
918.171	6668.53
918.482	6669.2
918.794	6706.49
919.105	6632.37
919.416	6565.03
919.727	6564.57
920.038	6567.51
920.349	6545.14
920.66	6477.57
920.971	6461.75
921.282	6440.96
921.593	6436.44
921.903	6366.39
922.214	6349.66
922.525	6394.41
922.835	6347.4
923.146	6264.47
923.456	6261.76
923.767	6189.44
924.077	6273.96
924.387	6201.64
924.697	6151.25
925.008	6186.5
925.318	6129.1
925.628	6114.64
925.938	6073.29
926.248	6071.7
926.558	6067.86
926.867	6044.59
927.177	5977.47
927.487	5939.73
927.796	5884.82
928.106	5921.2
928.416	5863.12
928.725	5826.06
929.034	5845.95
929.344	5770.02
929.653	5788.55
929.962	5697.03
930.271	5724.14
930.581	5677.59
930.89	5709
931.199	5643.47
931.508	5580.42
931.817	5565.5
932.125	5551.04
932.434	5586.52
932.743	5508.56
933.051	5492.96
933.36	5449.8
933.669	5449.8
933.977	5397.82
934.286	5379.29
934.594	5399.63
934.902	5329.13
935.21	5340.88
935.519	5344.72
935.827	5311.5
936.135	5257.04
936.443	5237.6
936.751	5254.1
937.059	5211.16
937.367	5168.23
937.674	5197.6
937.982	5141.56
938.29	5130.49
938.597	5084.16
938.905	5087.78
939.213	5073.31
939.52	4994.9
939.827	5049.36
940.135	5030.38
940.442	4956.48
940.749	4922.81
941.056	4940.21
941.363	4922.58
941.67	4848.46
941.977	4803.26
942.284	4845.07
942.591	4817.73
942.898	4858.63
943.205	4753.55
943.511	4752.19
943.818	4737.95
944.125	4689.59
944.431	4730.5
944.738	4702.48
945.044	4671.52
945.35	4610.27
945.657	4585.42
945.963	4582.03
946.269	4544.06
946.575	4523.5
946.881	4550.61
947.187	4481.92
947.493	4496.83
947.799	4408.47
948.105	4450.73
948.41	4422.93
948.716	4421.8
949.022	4375.48
949.327	4368.47
949.633	4339.77
949.938	4336.16
950.244	4314.24
950.549	4312.88
950.854	4243.5
951.16	4313.33
951.465	4269.72
951.77	4210.74
952.075	4221.58
952.38	4217.97
952.685	4205.31
952.99	4154.47
953.294	4148.37
953.599	4100.23
953.904	4101.59
954.209	4081.93
954.513	4069.95
954.818	4018.65
955.122	4026.11
955.426	3975.04
955.731	3995.38
956.035	3974.58
956.339	3989.05
956.643	3926
956.948	3915.6
957.252	3898.2
957.556	3900.24
957.86	3848.71
958.163	3876.06
958.467	3855.27
958.771	3795.83
959.075	3840.35
959.378	3795.83
959.682	3825.44
959.985	3769.62
960.289	3736.4
960.592	3763.74
960.896	3691.88
961.199	3756.06
961.502	3737.3
961.805	3716.96
962.108	3632.67
962.411	3604.88
962.714	3598.32
963.017	3592
963.32	3604.43
963.623	3561.04
963.926	3584.31
964.228	3537.76
964.531	3542.28
964.833	3525.56
965.136	3481.94
965.438	3439.23
965.741	3438.78
966.043	3442.62
966.345	3451.66
966.648	3410.53
966.95	3405.56
967.252	3379.35
967.554	3424.32
967.856	3398.33
968.158	3368.05
968.46	3351.32
968.761	3330.31
969.063	3291.89
969.365	3306.13
969.666	3240.82
969.968	3248.95
970.269	3243.3
970.571	3246.24
970.872	3213.47
971.174	3171.89
971.475	3173.02
971.776	3189.52
972.077	3146.81
972.378	3123.76
972.679	3144.1
972.98	3102.29
973.281	3072.91
973.582	3094.83
973.883	3108.39
974.183	3071.11
974.484	3085.34
974.785	3025.23
975.085	3034.95
975.386	3025.46
975.686	3002.41
975.986	3022.07
976.287	2975.06
976.587	2988.17
976.887	2960.6
977.187	2938.45
977.487	2938.68
977.787	2888.29
978.087	2885.12
978.387	2873.37
978.687	2884.44
978.987	2871.11
979.286	2805.8
979.586	2834.28
979.885	2827.5
980.185	2820.94
980.484	2779.59
980.784	2775.75
981.083	2786.59
981.382	2716.09
981.682	2739.14
981.981	2703.21
982.28	2720.38
982.579	2688.29
982.878	2692.81
983.177	2688.74
983.475	2674.51
983.774	2654.62
984.073	2639.48
984.372	2604
984.67	2613.94
984.969	2606.03
985.267	2588.86
985.566	2614.85
985.864	2602.87
986.162	2602.19
986.461	2539.59
986.759	2549.99
987.057	2525.36
987.355	2551.8
987.653	2519.48
987.951	2496.21
988.249	2458.92
988.547	2448.75
988.844	2444.23
989.142	2466.38
989.44	2446.72
989.737	2431.8
990.035	2395.87
990.332	2404
990.63	2384.8
990.927	2385.25
991.224	2355.87
991.521	2368.07
991.819	2353.84
992.116	2336.89
992.413	2361.29
992.71	2336.66
993.006	2313.16
993.303	2298.92
993.6	2278.58
993.897	2291.24
994.193	2280.17
994.49	2223.67
994.787	2226.83
995.083	2211.02
995.379	2210.34
995.676	2225.93
995.972	2180.73
996.268	2180.73
996.565	2164.69
996.861	2178.02
997.157	2173.28
997.453	2112.94
997.749	2112.49
998.044	2104.13
998.34	2113.84
998.636	2081.98
998.932	2110.9
999.227	2064.8
999.523	2049.66
999.818	2046.27
1000.114	2040.17
1000.409	2052.83
1000.704	2023
1001	2000.4
1001.295	2005.82
1001.59	1984.81
1001.885	1975.09
1002.18	1968.08
1002.475	1959.5
1002.77	1941.19
1003.065	1942.1
1003.359	1957.69
1003.654	1936.67
1003.949	1900.97
1004.243	1898.03
1004.538	1879.05
1004.832	1865.49
1005.127	1845.83
1005.421	1856
1005.715	1829.1
1006.009	1846.73
1006.304	1841.08
1006.598	1809.22
1006.892	1789.56
1007.186	1790.69
1007.48	1762.89
1007.773	1810.35
1008.067	1768.09
1008.361	1762.89
1008.655	1729.22
1008.948	1734.87
1009.242	1714.08
1009.535	1710.69
1009.829	1709.11
1010.122	1728.54
1010.415	1684.7
1010.708	1672.5
1011.001	1656.45
1011.295	1659.17
1011.588	1655.1
1011.881	1651.26
1012.173	1632.95
1012.466	1636.79
1012.759	1620.52
1013.052	1599.28
1013.344	1572.39
1013.637	1594.08
1013.93	1574.65
1014.222	1573.07
1014.514	1553.18
1014.807	1544.59
1015.099	1538.94
1015.391	1512.28
1015.683	1529.23
1015.976	1525.16
1016.268	1511.15
1016.56	1471.83
1016.851	1478.38
1017.143	1456.46
1017.435	1443.58
1017.727	1451.26
1018.018	1428.21
1018.31	1445.39
1018.602	1422.11
1018.893	1427.31
1019.185	1390.47
1019.476	1403.35
1019.767	1407.87
1020.058	1411.49
1020.35	1394.31
1020.641	1369
1020.932	1373.98
1021.223	1333.3
1021.514	1338.27
1021.804	1311.15
1022.095	1319.51
1022.386	1301.21
1022.677	1292.62
1022.967	1290.14
1023.258	1302.11
1023.548	1291.04
1023.839	1237.93
1024.129	1281.55
1024.419	1249.23
1024.709	1252.62
1025	1238.84
1025.29	1226.86
1025.58	1222.11
1025.87	1202.68
1026.16	1211.95
1026.449	1215.34
1026.739	1187.54
1027.029	1189.8
1027.319	1163.13
1027.608	1186.18
1027.898	1167.65
1028.187	1159.52
1028.477	1147.99
1028.766	1141.89
1029.055	1153.64
1029.344	1117.48
1029.634	1132.4
1029.923	1123.59
1030.212	1106.41
1030.501	1094.21
1030.79	1083.81
1031.078	1094.66
1031.367	1093.3
1031.656	1078.84
1031.945	1084.72
1032.233	1064.15
1032.522	1025.74
1032.81	1047.43
1033.099	1017.83
1033.387	1053.76
1033.675	1030.03
1033.963	1008.56
1034.251	1028
1034.54	988.22
1034.828	974.89
1035.116	992.74
1035.403	996.81
1035.691	988.9
1035.979	976.02
1036.267	974.89
1036.554	972.18
1036.842	963.14
1037.129	965.62
1037.417	927.66
1037.704	929.02
1037.992	937.6
1038.279	917.26
1038.566	912.52
1038.853	912.52
1039.14	912.52
