Data from hue_50_FLMS001491_99.txt Node
Date: Mon Feb 06 15:11:22 GMT 2017
User: dcchb
Spectrometer: FLMS00149
Trigger mode: 0
Integration Time (sec): 2.000000E-2
Scans to average: 10
Electric dark correction enabled: true
Nonlinearity correction enabled: false
Boxcar width: 0
XAxis mode: Wavelengths
Number of Pixels in Spectrum: 2048
>>>>>Begin Spectral Data<<<<<
341.393	-14.67
341.776	-14.67
342.16	-14.67
342.543	-63.04
342.927	-93.99
343.31	-56.03
343.693	-56.26
344.077	-75.92
344.46	-61.45
344.843	-62.58
345.226	-23.26
345.61	-38.4
345.993	-32.3
346.376	-27.56
346.759	18.09
347.142	27.13
347.525	32.78
347.908	59.9
348.291	76.4
348.674	106
349.057	113.46
349.44	104.42
349.823	149.39
350.206	154.13
350.588	188.94
350.971	205.88
351.354	228.26
351.737	235.94
352.119	250.63
352.502	266.9
352.884	280.01
353.267	285.43
353.65	310.97
354.032	309.84
354.414	299.89
354.797	334.02
355.179	332.89
355.562	328.14
355.944	337.18
356.326	320.91
356.709	346.9
357.091	343.28
357.473	342.15
357.855	336.5
358.238	325.66
358.62	347.35
359.002	337.41
359.384	331.08
359.766	357.74
360.148	355.94
360.53	322.94
360.912	345.77
361.294	317.75
361.676	326.11
362.057	338.08
362.439	334.69
362.821	325.66
363.203	324.3
363.584	320.23
363.966	310.97
364.348	312.55
364.729	315.49
365.111	331.76
365.493	331.76
365.874	332.43
366.256	305.32
366.637	319.33
367.019	305.99
367.4	311.64
367.781	327.92
368.163	312.55
368.544	317.07
368.925	309.38
369.306	306.45
369.688	325.88
370.069	320.23
370.45	320.23
370.831	313.68
371.212	313.45
371.593	317.75
371.974	313.45
372.355	333.56
372.736	318.88
373.117	320.01
373.498	301.7
373.879	291.08
374.26	318.2
374.641	313.23
375.021	333.56
375.402	281.59
375.783	315.71
376.163	336.05
376.544	338.08
376.925	332.89
377.305	335.15
377.686	333.56
378.066	320.01
378.447	329.27
378.827	332.66
379.208	330.63
379.588	332.43
379.968	343.96
380.349	349.84
380.729	337.18
381.109	332.66
381.489	327.69
381.87	343.51
382.25	357.52
382.63	334.69
383.01	353.45
383.39	335.6
383.77	334.69
384.15	342.6
384.53	333.11
384.91	341.02
385.29	349.61
385.67	340.57
386.049	360.46
386.429	371.08
386.809	383.96
387.189	339.21
387.568	337.18
387.948	367.24
388.328	358.2
388.707	371.53
389.087	379.21
389.466	359.1
389.846	376.73
390.225	365.88
390.605	380.8
390.984	367.91
391.363	382.15
391.743	393.22
392.122	364.52
392.501	404.3
392.881	389.61
393.26	379.44
393.639	384.64
394.018	372.89
394.397	395.26
394.776	396.39
395.155	382.6
395.534	390.74
395.913	373.11
396.292	393.45
396.671	392.55
397.05	396.61
397.429	390.51
397.808	402.04
398.186	415.37
398.565	389.16
398.944	402.94
399.323	403.17
399.701	418.31
400.08	383.73
400.458	409.49
400.837	422.38
401.215	394.81
401.594	413.34
401.972	418.53
402.351	411.08
402.729	411.08
403.107	438.19
403.486	431.19
403.864	418.31
404.242	425.31
404.62	442.26
404.999	444.97
405.377	427.8
405.755	432.55
406.133	448.14
406.511	451.08
406.889	442.71
407.267	452.66
407.645	458.08
408.023	476.39
408.401	456.95
408.779	464.41
409.156	463.05
409.534	451.08
409.912	472.32
410.29	453.79
410.667	487.91
411.045	484.75
411.422	484.52
411.8	474.13
412.178	496.95
412.555	495.37
412.933	496.27
413.31	495.14
413.687	505.31
414.065	521.58
414.442	511.41
414.819	526.55
415.197	500.34
415.574	503.73
415.951	530.62
416.328	518.42
416.705	518.42
417.082	501.92
417.46	546.89
417.837	543.5
418.214	541.92
418.591	543.28
418.967	554.58
419.344	572.2
419.721	576.95
420.098	562.71
420.475	548.47
420.852	570.62
421.228	561.58
421.605	567
421.982	551.64
422.358	571.07
422.735	576.04
423.111	604.97
423.488	603.61
423.864	580.56
424.241	577.85
424.617	593.67
424.994	607.46
425.37	602.03
425.746	587.8
426.123	625.08
426.499	611.07
426.875	631.18
427.251	613.78
427.627	607.68
428.003	638.19
428.379	642.03
428.756	655.36
429.132	654.69
429.507	658.08
429.883	680.45
430.259	667.34
430.635	684.97
431.011	676.38
431.387	686.32
431.763	702.14
432.138	683.61
432.514	721.13
432.89	694.91
433.265	725.87
433.641	736.72
434.016	738.3
434.392	746.44
434.767	727
435.143	756.83
435.518	749.15
435.894	776.04
436.269	773.78
436.644	776.94
437.02	783.27
437.395	793.67
437.77	790.5
438.145	779.65
438.52	795.25
438.895	823.04
439.271	792.54
439.646	818.3
440.021	858.52
440.395	826.43
440.77	844.51
441.145	825.08
441.52	867.34
441.895	840.67
442.27	870.27
442.645	842.93
443.019	863.72
443.394	864.4
443.769	890.61
444.143	883.61
444.518	891.29
444.892	911.18
445.267	879.31
445.641	891.97
446.016	887.9
446.39	910.5
446.764	922.93
447.139	915.92
447.513	919.76
447.887	927.22
448.262	922.48
448.636	953.89
449.01	969.25
449.384	956.15
449.758	965.86
450.132	996.6
450.506	963.38
450.88	994.11
451.254	993.21
451.628	1004.96
452.002	1010.16
452.376	1019.87
452.75	1019.65
453.123	1041.34
453.497	1030.95
453.871	1067.1
454.244	1070.72
454.618	1075.47
454.992	1081.12
455.365	1077.73
455.739	1142.13
456.112	1115.92
456.486	1134.9
456.859	1148.46
457.232	1139.19
457.606	1153.88
457.979	1164.73
458.352	1188.68
458.725	1217.38
459.099	1223.03
459.472	1227.55
459.845	1229.13
460.218	1236.59
460.591	1265.74
460.964	1292.18
461.337	1300.54
461.71	1310.26
462.083	1348
462.456	1334.44
462.829	1339.19
463.201	1358.85
463.574	1373.54
463.947	1392.97
464.32	1414.89
464.692	1442.69
465.065	1463.7
465.438	1471.16
465.81	1490.37
466.183	1504.38
466.555	1555.23
466.928	1583.7
467.3	1555.91
467.672	1572.63
468.045	1632.29
468.417	1645.39
468.789	1632.06
469.161	1662.34
469.534	1680.87
469.906	1759.52
470.278	1741.89
470.65	1804.94
471.022	1802.68
471.394	1890.81
471.766	1883.81
472.138	1902.56
472.51	1972.17
472.882	1985.27
473.253	2011.26
473.625	2046.97
473.997	2166.28
474.369	2151.6
474.74	2194.08
475.112	2238.15
475.484	2261.42
475.855	2355.21
476.227	2392.27
476.598	2456.22
476.97	2465.03
477.341	2533.73
477.713	2631.36
478.084	2639.27
478.455	2746.83
478.827	2807.17
479.198	2900.73
479.569	2912.48
479.94	2990.22
480.311	3050.1
480.682	3183.89
481.053	3280.38
481.424	3360.83
481.795	3417.78
482.166	3478.79
482.537	3588.62
482.908	3677.66
483.279	3776.86
483.65	3847.82
484.021	3993.13
484.391	4082.39
484.762	4158.77
485.133	4242.39
485.503	4391.54
485.874	4492.1
486.244	4614.13
486.615	4732.55
486.985	4813.67
487.356	4971.63
487.726	5024.97
488.097	5229.93
488.467	5288.01
488.837	5485.07
489.207	5596.03
489.578	5726.87
489.948	5845.74
490.318	5930.03
490.688	6077.37
491.058	6247.31
491.428	6385.83
491.798	6470.35
492.168	6660.86
492.538	6743.11
492.908	6899.49
493.278	7081.86
493.648	7148.98
494.017	7345.36
494.387	7543.32
494.757	7619.25
495.126	7755.29
495.496	7849.98
495.866	7985.11
496.235	8136.07
496.605	8280.7
496.974	8427.59
497.344	8620.58
497.713	8686.57
498.082	8850.63
498.452	8926.11
498.821	9051.08
499.19	9181.69
499.559	9365.64
499.928	9506.66
500.298	9626.65
500.667	9738.97
501.036	9824.39
501.405	9975.8
501.774	10056.47
502.143	10204.04
502.512	10283.36
502.88	10508.21
503.249	10545.95
503.618	10724.7
503.987	10724.25
504.356	10875.66
504.724	10946.84
505.093	11019.16
505.462	11213.05
505.83	11345.93
506.199	11528.07
506.567	11671.8
506.936	11746.6
507.304	11850.55
507.672	11933.26
508.041	12074.95
508.409	12199.92
508.777	12336.19
509.145	12589.29
509.514	12556.97
509.882	12737.31
510.25	12804.88
510.618	12798.32
510.986	12995.83
511.354	13098.88
511.722	13263.39
512.09	13327.35
512.458	13425.2
512.826	13573.44
513.193	13645.31
513.561	13728.01
513.929	13905.86
514.297	14102.02
514.664	14212.75
515.032	14308.79
515.4	14349.02
515.767	14416.81
516.135	14541.1
516.502	14436.92
516.869	14792.39
517.237	14914.2
517.604	14895.67
517.972	15133.18
518.339	15205.72
518.706	15165.94
519.073	15313.74
519.44	15445.94
519.808	15667.17
520.175	15632.6
520.542	15861.52
520.909	15964.57
521.276	15973.83
521.643	16158.46
522.009	16244.11
522.376	16468.73
522.743	16548.73
523.11	16658.56
523.477	16817.65
523.843	16918.89
524.21	17108.49
524.577	17286.34
524.943	17359.78
525.31	17496.5
525.676	17618.31
526.043	17770.17
526.409	17844.29
526.776	18003.83
527.142	18044.29
527.508	18220.1
527.874	18326.99
528.241	18445.63
528.607	18503.93
528.973	18691.27
529.339	18745.51
529.705	18853.98
530.071	18987.54
530.437	19047.42
530.803	19279.96
531.169	19370.13
531.535	19340.3
531.901	19443.8
532.267	19532.16
532.632	19612.38
532.998	19752.72
533.364	19848.98
533.73	19938.92
534.095	20062.54
534.461	20037.91
534.826	20221.18
535.192	20340.27
535.557	20520.15
535.923	20459.82
536.288	20604.9
536.653	20632.01
537.019	20628.4
537.384	20824.78
537.749	20940.48
538.114	21005.56
538.479	21019.8
538.845	21184.09
539.21	21220.25
539.575	21289.17
539.94	21439.45
540.305	21517.64
540.67	21479.9
541.034	21574.14
541.399	21681.03
541.764	21660.91
542.129	21865.65
542.494	21918.31
542.858	21895.48
543.223	21954.24
543.587	22074.24
543.952	22151.97
544.316	22220.45
544.681	22395.36
545.045	22436.26
545.41	22519.2
545.774	22476.26
546.138	22504.28
546.503	22611.85
546.867	22650.49
547.231	22821.33
547.595	22949.69
547.959	22992.18
548.324	23104.72
548.688	23152.63
549.052	23207.77
549.416	23286.18
549.779	23273.07
550.143	23410.7
550.507	23498.38
550.871	23602.78
551.235	23677.36
551.599	23783.12
551.962	23977.24
552.326	23868.54
552.689	24107.85
553.053	23992.83
553.417	24051.59
553.78	24449.77
554.143	24245.25
554.507	24410.9
554.87	24478.47
555.234	24782.64
555.597	24600.95
555.96	24726.82
556.323	24911.68
556.686	24842.07
557.05	25158
557.413	25051.56
557.776	25220.59
558.139	25412
558.502	25381.04
558.865	25507.59
559.228	25684.08
559.59	25766.34
559.953	25723.18
560.316	25992.33
560.679	26006.56
561.041	26209.04
561.404	26300.57
561.767	26348.25
562.129	26351.41
562.492	26635.92
562.854	26599.09
563.217	26683.83
563.579	26775.81
563.941	27006.76
564.304	27072.75
564.666	27253.99
565.028	27335.57
565.39	27353.42
565.753	27493.53
566.115	27674.99
566.477	27683.13
566.839	27825.95
567.201	27985.94
567.563	27946.4
567.925	28154.08
568.287	28204.24
568.648	28174.64
569.01	28385.48
569.372	28609.21
569.734	28467.29
570.095	28724
570.457	28915.64
570.819	28957.22
571.18	29078.12
571.542	29146.82
571.903	29239.25
572.265	29338.45
572.626	29452.57
572.987	29553.59
573.349	29648.73
573.71	29724.2
574.071	29800.13
574.432	29959.45
574.794	30189.05
575.155	30133.69
575.516	30164.64
575.877	30321.25
576.238	30500.68
576.599	30495.26
576.96	30554.46
577.32	30615.93
577.681	30908.58
578.042	30998.75
578.403	30973.89
578.763	31024.51
579.124	31179.31
579.485	31445.51
579.845	31513.99
580.206	31596.7
580.566	31702.68
580.927	31634.89
581.287	31911.49
581.648	31890.93
582.008	32194.42
582.368	32027.19
582.728	32243.69
583.089	32235.78
583.449	32520.97
583.809	32581.3
584.169	32578.37
584.529	32584.02
584.889	32925.48
585.249	32889.32
585.609	32833.95
585.969	33224.68
586.329	33165.47
586.688	33246.6
587.048	33288.63
587.408	33406.14
587.768	33522.07
588.127	33640.71
588.487	33752.57
588.846	33955.73
589.206	33805.23
589.565	33972.45
589.925	34243.41
590.284	34212.22
590.643	34453.8
591.003	34535.15
591.362	34705.54
591.721	34625.77
592.08	34769.5
592.44	35030.51
592.799	35058.53
593.158	35032.09
593.517	35157.73
593.876	35314.11
594.235	35337.62
594.593	35446.54
594.952	35639.75
595.311	35571.06
595.67	35732.41
596.029	35927.43
596.387	36057.82
596.746	36175.79
597.104	36138.5
597.463	36182.11
597.822	36240.42
598.18	36314.09
598.538	36317.03
598.897	36685.6
599.255	36424.82
599.613	36949.1
599.972	36788.65
600.33	37005.37
600.688	36852.38
601.046	36979.15
601.404	37409.2
601.762	37247.4
602.12	37407.62
602.478	37516.09
602.836	37516.77
603.194	37448.52
603.552	37559.7
603.91	37462.98
604.268	37649.42
604.625	37672.92
604.983	37892.13
605.341	37754.73
605.698	38065.68
606.056	38180.71
606.413	38050.54
606.771	38196.75
607.128	38518.55
607.485	38351.1
607.843	38408.72
608.2	38639.45
608.557	38803.29
608.914	38627.7
609.272	38909.27
609.629	38911.76
609.986	39309.49
610.343	39062.49
610.7	39418.41
611.057	39289.38
611.414	39295.25
611.771	39442.82
612.127	39523.04
612.484	39674.45
612.841	39716.94
613.198	39679.65
613.554	39698.63
613.911	39995.35
614.267	39957.83
614.624	39891.17
614.98	40046.87
615.337	40253.19
615.693	40267.2
616.05	40206.41
616.406	40411.61
616.762	40233.53
617.118	40297.94
617.475	40421.78
617.831	40618.61
618.187	40555.56
618.543	40722.33
618.899	41052.49
619.255	41067.63
619.611	40899.96
619.967	41053.17
620.323	41130.91
620.678	40941.31
621.034	40935.89
621.39	41034.87
621.746	40912.61
622.101	41462.43
622.457	41164.81
622.812	41362.32
623.168	41395.08
623.523	41470.34
623.879	41557.11
624.234	41253.17
624.589	41528.87
624.945	41433.05
625.3	41639.15
625.655	41526.83
626.01	41562.09
626.365	41560.28
626.72	41553.5
627.075	41626.72
627.43	41595.08
627.785	41568.19
628.14	41593.72
628.495	41608.41
628.85	41565.47
629.205	41497.68
629.559	41756.66
629.914	41703.55
630.269	41594.85
630.623	41528.19
630.978	41533.61
631.332	41664.68
631.687	41865.81
632.041	41483.44
632.396	41688.41
632.75	41429.43
633.104	41585.59
633.459	41410.45
633.813	41460.62
634.167	41494.06
634.521	41384.46
634.875	41582.88
635.229	41466.72
635.583	41308.31
635.937	41423.33
636.291	41323.67
636.645	41329.32
636.999	41317.8
637.352	41445.93
637.706	41108.99
638.06	41403.45
638.413	41303.33
638.767	41172.49
639.121	41149.67
639.474	41089.33
639.828	41021.53
640.181	41102.66
640.534	41170.46
640.888	40921.65
641.241	40870.13
641.594	40932.5
641.947	41016.34
642.301	40840.97
642.654	40956.68
643.007	40881.65
643.36	40669.23
643.713	40729.11
644.066	40887.07
644.419	40717.14
644.771	40496.58
645.124	40101.11
645.477	40054.1
645.83	39836.71
646.182	39714.68
646.535	39465.19
646.888	39493.66
647.24	39303.84
647.593	39671.06
647.945	39476.72
648.298	39360.34
648.65	39219.1
649.002	39288.92
649.355	39353.56
649.707	39377.06
650.059	39491.41
650.411	39909.93
650.763	39987.89
651.115	40335.9
651.467	40286.41
651.819	40187.21
652.171	40080.99
652.523	40111.95
652.875	39970.26
653.227	39912.41
653.578	40194.89
653.93	40085.51
654.282	39840.1
654.633	39825.18
654.985	39979.3
655.337	39899.53
655.688	39829.93
656.039	40004.16
656.391	39704.96
656.742	39732.75
657.094	39716.26
657.445	39876.03
657.796	39816.14
658.147	39651.17
658.498	39698.86
658.849	39771.17
659.2	39677.39
659.551	39726.2
659.902	39782.7
660.253	39697.73
660.604	39728.46
660.955	39544.51
661.306	39576.83
661.656	39566.66
662.007	39522.82
662.358	39551.29
662.708	39620.89
663.059	39454.8
663.409	39229.27
663.76	39739.76
664.11	39584.51
664.461	39614.57
664.811	39516.49
665.161	39426.77
665.511	39417.28
665.862	39479.88
666.212	39548.58
666.562	39498.64
666.912	39513.33
667.262	39499.09
667.612	39531.63
667.962	39551.29
668.312	39475.36
668.662	39676.94
669.011	39441.69
669.361	39381.35
669.711	39366.44
670.06	39415.47
670.41	39393.55
670.76	39206.67
671.109	39318.75
671.459	39361.01
671.808	39222.26
672.157	39400.56
672.507	39104.3
672.856	39123.73
673.205	39081.92
673.554	39202.37
673.904	39026.78
674.253	39288.7
674.602	39071.76
674.951	38592.45
675.3	38312
675.649	39033.34
675.998	38972.1
676.346	39054.35
676.695	39141.58
677.044	38805.55
677.393	38863.4
677.741	39003.96
678.09	38881.48
678.438	38713.12
678.787	38935.71
679.135	38744.08
679.484	38614.14
679.832	38718.32
680.181	38489.17
680.529	38792.89
680.877	38512.22
681.225	38480.58
681.573	38782.27
681.922	38361.94
682.27	38398.33
682.618	38370.76
682.966	38227.03
683.314	38279.01
683.661	38154.72
684.009	38051.89
684.357	37947.49
684.705	37956.98
685.053	38018
685.4	37837.66
685.748	37826.14
686.095	37797.44
686.443	37573.04
686.79	37657.1
687.138	37551.34
687.485	37680.15
687.832	37406.26
688.18	37484.23
688.527	37290.11
688.874	37327.62
689.221	37275.42
689.568	37073.84
689.915	36917.69
690.262	36922.43
690.609	36837.46
690.956	36682.67
691.303	36699.39
691.65	36615.55
691.997	36665.72
692.344	36319.96
692.69	36369
693.037	36344.14
693.383	36106.64
693.73	36254.65
694.077	36088.1
694.423	35954.55
694.769	35886.98
695.116	35716.36
695.462	35697.38
695.808	35563.82
696.155	35684.73
696.501	35445.64
696.847	35374.68
697.193	35277.73
697.539	35196.15
697.885	35037.06
698.231	35027.12
698.577	34960.22
698.923	34931.98
699.269	34745.54
699.614	34634.58
699.96	34532.44
700.306	34574.92
700.651	34408.15
700.997	34276.4
701.342	34336.06
701.688	34315.5
702.033	34151.43
702.379	34122.51
702.724	34028.5
703.069	33941.49
703.415	33618.34
703.76	33619.7
704.105	33582.18
704.45	33529.53
704.795	33390.32
705.14	33238.24
705.485	33185.81
705.83	33050.9
706.175	33125.24
706.52	33007.96
706.865	32957.57
707.209	32797.8
707.554	32708.98
707.899	32792.37
708.243	32665.14
708.588	32699.72
708.932	32558.25
709.277	32501.53
709.621	32531.14
709.966	32156.91
710.31	32341.54
710.654	32004.6
710.998	32098.15
711.342	32228.32
711.687	32051.37
712.031	31779.52
712.375	31948.1
712.719	31899.97
713.063	31814.77
713.407	31763.92
713.75	31665.4
714.094	31562.57
714.438	31464.5
714.782	31444.16
715.125	31441.9
715.469	31415.69
715.812	31214.56
716.156	31086.65
716.499	31176.82
716.843	31234.67
717.186	30951.29
717.53	30920.56
717.873	31041.68
718.216	30915.59
718.559	30806.66
718.902	30645.54
719.246	30711.07
719.589	30507.46
719.932	30370.52
720.275	30467.24
720.617	30347.92
720.96	30296.62
721.303	30306.34
721.646	30310.4
721.989	30039
722.331	30216.62
722.674	30073.57
723.016	30189.28
723.359	30101.6
723.701	30054.59
724.044	29848.72
724.386	29755.16
724.729	29803.98
725.071	29758.55
725.413	29779.34
725.755	29790.19
726.097	29524.89
726.439	29512.01
726.782	29508.39
727.124	29578.67
727.465	29413.93
727.807	29470.88
728.149	29345.91
728.491	29302.75
728.833	29271.79
729.175	29214.39
729.516	29220.71
729.858	29118.8
730.199	29187.72
730.541	29082.64
730.882	29152.24
731.224	29101.4
731.565	28885.58
731.906	28857.11
732.248	28930.33
732.589	28723.78
732.93	28663.67
733.271	28745.92
733.612	28603.33
733.953	28686.72
734.294	28518.59
734.635	28376.9
734.976	28558.59
735.317	28368.76
735.658	28445.59
735.999	28333.05
736.339	28289.89
736.68	28350.68
737.021	28326.05
737.361	28128.09
737.702	28388.65
738.042	28262.32
738.383	28065.94
738.723	28201.53
739.063	27982.78
739.404	28101.2
739.744	27851.94
740.084	27857.13
740.424	27970.13
740.764	27783.92
741.104	27865.95
741.444	27682.22
741.784	27597.25
742.124	27573.3
742.464	27736.69
742.804	27540.08
743.143	27538.5
743.483	27668.67
743.823	27447.88
744.162	27444.04
744.502	27489.01
744.841	27373.08
745.181	27474.77
745.52	27289.01
745.86	27272.97
746.199	27202.24
746.538	27176.25
746.877	27253.76
747.216	27202.01
747.556	27109.58
747.895	27022.35
748.234	26982.36
748.573	26948.91
748.911	26934.22
749.25	26985.75
749.589	26741.01
749.928	26755.02
750.267	26799.31
750.605	26627.34
750.944	26649.71
751.283	26449.71
751.621	26593.44
751.96	26407.91
752.298	26387.12
752.636	26409.94
752.975	26214.01
753.313	26123.62
753.651	26342.15
753.989	26210.85
754.327	26154.81
754.666	25964.53
755.004	25910.75
755.342	26034.36
755.679	25970.18
756.017	25706.46
756.355	25785.32
756.693	25694.25
757.031	25824.19
757.368	25715.95
757.706	25573.13
758.044	25521.15
758.381	25555.27
758.719	25331.33
759.056	25344.66
759.394	25331.1
759.731	25234.15
760.068	25197.77
760.405	25122.74
760.743	24978.11
761.08	24994.39
761.417	24818.12
761.754	24863.77
762.091	24839.59
762.428	24688.4
762.765	24586.94
763.102	24544.45
763.438	24414.97
763.775	24276.21
764.112	24391.24
764.449	24339.71
764.785	24282.77
765.122	24222.43
765.458	23974.07
765.795	23906.73
766.131	24031.7
766.467	23747.19
766.804	23761.88
767.14	23633.07
767.476	23599.62
767.812	23402.11
768.148	23567.76
768.485	23332.06
768.821	23258.84
769.157	23154.43
769.492	23099.52
769.828	23106.07
770.164	22860.43
770.5	22928.9
770.836	22904.95
771.171	22659.31
771.507	22691.62
771.842	22441.91
772.178	22603.26
772.513	22410.72
772.849	22283.04
773.184	22249.6
773.519	22265.87
773.855	22162.37
774.19	22033.79
774.525	21875.82
774.86	21902.72
775.195	21866.78
775.53	21838.08
775.865	21709.5
776.2	21490.3
776.535	21463.4
776.87	21390.64
777.205	21391.32
777.539	21212.11
777.874	21204.43
778.209	21054.6
778.543	21029.29
778.878	20943.87
779.212	20977.99
779.547	20797.43
779.881	20830.2
780.215	20676.98
780.55	20705.91
780.884	20518.8
781.218	20457.1
781.552	20453.71
781.886	20287.16
782.22	20211.46
782.554	20190.67
782.888	20024.8
783.222	19882.43
783.556	19900.28
783.889	19906.16
784.223	19684.47
784.557	19660.74
784.89	19744.35
785.224	19637.69
785.557	19564.92
785.891	19519.05
786.224	19401.54
786.558	19364.48
786.891	19139.62
787.224	19149.34
787.557	19086.74
787.891	18994.77
788.224	19034.32
788.557	18967.65
788.89	18894.66
789.223	18880.87
789.556	18751.16
789.888	18639.75
790.221	18582.12
790.554	18465.74
790.887	18479.98
791.219	18355.69
791.552	18384.39
791.884	18182.36
792.217	18100.56
792.549	18092.65
792.882	18091.97
793.214	17902.37
793.546	17929.49
793.879	17828.7
794.211	17773.56
794.543	17776.95
794.875	17680.45
795.207	17718.42
795.539	17618.99
795.871	17671.87
796.203	17401.59
796.535	17352.33
796.867	17385.09
797.198	17251.31
797.53	17230.52
797.862	17184.65
798.193	17085.67
798.525	17073.24
798.856	17029.85
799.188	16975.84
799.519	16920.7
799.85	16772
800.182	16821.04
800.513	16759.8
800.844	16587.83
801.175	16574.49
801.506	16617.2
801.837	16530.65
802.168	16602.74
802.499	16434.61
802.83	16306.48
803.161	16329.75
803.491	16192.36
803.822	16198.68
804.153	16177.67
804.483	16098.57
804.814	16003.66
805.145	15957.56
805.475	16041.17
805.805	15968.18
806.136	16043.89
806.466	15867.85
806.796	15812.48
807.126	15654.74
807.457	15695.42
807.787	15662.65
808.117	15587.85
808.447	15582.88
808.777	15713.95
809.107	15513.28
809.436	15411.13
809.766	15430.79
810.096	15491.81
810.426	15312.38
810.755	15362.55
811.085	15311.25
811.414	15191.48
811.744	15156.68
812.073	15116.45
812.403	15053.4
812.732	14986.51
813.061	14996.68
813.39	14951.26
813.719	14909
814.049	14962.78
814.378	14892.96
814.707	14844.82
815.036	14740.87
815.365	14659.74
815.693	14661.1
816.022	14584.49
816.351	14578.39
816.68	14551.27
817.008	14477.37
817.337	14444.83
817.665	14278.06
817.994	14409.8
818.322	14435.34
818.651	14269.02
818.979	14234.67
819.307	14367.32
819.636	14281.22
819.964	14262.69
820.292	14201
820.62	14189.7
820.948	14216.14
821.276	14169.81
821.604	14186.08
821.932	14158.06
822.259	14252.07
822.587	14129.59
822.915	14103.15
823.243	14133.65
823.57	14075.8
823.898	14116.93
824.225	14100.66
824.553	14038.52
824.88	14038.06
825.207	14109.02
825.535	14018.85
825.862	14055.46
826.189	13998.29
826.516	14118.06
826.843	14111.51
827.17	14172.07
827.497	14093.43
827.824	14113.54
828.151	14139.98
828.478	14060.89
828.805	14085.75
829.131	14074.67
829.458	13971.4
829.785	13986.31
830.111	13980.66
830.438	14059.98
830.764	13960.1
831.09	14066.54
831.417	13893.21
831.743	14028.12
832.069	14007.33
832.395	13910.16
832.722	13921
833.048	13909.7
833.374	13935.69
833.7	13855.02
834.026	13923.04
834.351	13916.03
834.677	13885.75
835.003	13816.15
835.329	13818.18
835.654	13843.04
835.98	13775.47
836.306	13838.29
836.631	13714.68
836.956	13749.03
837.282	13740.44
837.607	13662.71
837.932	13650.95
838.258	13602.14
838.583	13729.14
838.908	13543.16
839.233	13594.46
839.558	13570.73
839.883	13539.32
840.208	13542.03
840.533	13489.83
840.858	13459.32
841.182	13378.19
841.507	13483.05
841.832	13364.41
842.156	13331.19
842.481	13294.58
842.805	13358.76
843.13	13343.17
843.454	13250.74
843.778	13183.17
844.103	13231.76
844.427	13136.39
844.751	13122.61
845.075	13089.16
845.399	13067.92
845.723	13001.93
846.047	13042.38
846.371	12860.47
846.695	12851.65
847.019	12782.5
847.343	12756.51
847.666	12673.81
847.99	12618.67
848.313	12641.49
848.637	12479.01
848.96	12448.73
849.284	12520.59
849.607	12333.93
849.931	12277.21
850.254	12266.36
850.577	12253.93
850.9	12082.86
851.223	12129.41
851.546	12063.2
851.869	12019.81
852.192	12036.76
852.515	11943.65
852.838	11832.7
853.161	11906.14
853.483	11755.41
853.806	11813.49
854.129	11684.9
854.451	11641.97
854.774	11539.15
855.096	11504.34
855.419	11579.82
855.741	11553.83
856.063	11475.19
856.385	11415.31
856.708	11425.48
857.03	11285.14
857.352	11400.84
857.674	11303.45
857.996	11263.67
858.318	11222.09
858.64	11229.78
858.961	11217.8
859.283	11146.61
859.605	11027.97
859.926	11078.37
860.248	11097.35
860.57	10991.36
860.891	11054.64
861.212	10886.96
861.534	10907.52
861.855	10958.6
862.176	10869.33
862.498	10912.27
862.819	10944.81
863.14	10829.11
863.461	10784.59
863.782	10792.72
864.103	10807.87
864.424	10742.1
864.745	10748.88
865.065	10755.89
865.386	10657.81
865.707	10687.87
866.027	10739.62
866.348	10585.27
866.668	10710.69
866.989	10573.3
867.309	10552.28
867.63	10589.34
867.95	10481.09
868.27	10520.42
868.59	10534.43
868.91	10512.73
869.23	10536.46
869.55	10412.85
869.87	10456.69
870.19	10457.82
870.51	10457.59
870.83	10397.93
871.15	10309.12
871.469	10338.05
871.789	10345.73
872.109	10286.52
872.428	10272.29
872.748	10400.42
873.067	10229.12
873.386	10273.19
873.706	10292.17
874.025	10199.75
874.344	10189.35
874.663	10152.97
874.982	10188.45
875.301	10143.93
875.62	10053.54
875.939	10155.91
876.258	10129.47
876.577	10096.7
876.896	10022.12
877.214	9982.35
877.533	10039.75
877.852	10020.77
878.17	10053.76
878.489	9984.38
878.807	10008.34
879.125	9965.63
879.444	9932.86
879.762	9890.6
880.08	9906.87
880.398	9931.28
880.716	9836.14
881.034	9855.35
881.352	9762.92
881.67	9772.64
881.988	9835.01
882.306	9759.76
882.624	9747.33
882.941	9757.27
883.259	9699.42
883.577	9698.29
883.894	9628.46
884.212	9544.17
884.529	9606.32
884.846	9563.83
885.164	9604.51
885.481	9512.98
885.798	9530.61
886.115	9468.47
886.432	9497.39
886.75	9449.71
887.067	9439.09
887.383	9347.11
887.7	9366.55
888.017	9353.21
888.334	9374.23
888.651	9316.38
888.967	9304.4
889.284	9224.4
889.6	9234.35
889.917	9128.59
890.233	9185.31
890.55	9192.09
890.866	9177.4
891.182	9114.35
891.498	9098.98
891.815	9058.98
892.131	9008.14
892.447	9023.96
892.763	8934.47
893.079	9003.39
893.395	8961.13
893.71	8867.8
894.026	8937.86
894.342	8891.98
894.657	8794.13
894.973	8849.72
895.289	8800.91
895.604	8700.12
895.92	8630.52
896.235	8641.14
896.55	8643.85
896.865	8590.3
897.181	8533.58
897.496	8604.53
897.811	8562.73
898.126	8468.72
898.441	8505.78
898.756	8471.43
899.071	8409.96
899.386	8432.11
899.7	8346.46
900.015	8322.51
900.33	8339
900.644	8242.06
900.959	8295.62
901.273	8229.63
901.588	8155.51
901.902	8146.01
902.216	8123.19
902.531	8136.98
902.845	8065.56
903.159	8013.81
903.473	7959.58
903.787	7947.6
904.101	7930.88
904.415	7915.06
904.729	7909.64
905.042	7812.69
905.356	7820.83
905.67	7829.64
905.984	7765.01
906.297	7737.89
906.611	7652.69
906.924	7707.83
907.237	7611.34
907.551	7631.68
907.864	7571.34
908.177	7553.94
908.491	7520.72
908.804	7507.84
909.117	7419.03
909.43	7468.52
909.743	7410.21
910.056	7402.53
910.368	7329.99
910.681	7306.26
910.994	7293.83
911.307	7254.06
911.619	7174.74
911.932	7203.44
912.244	7173.61
912.557	7130
912.869	7081.86
913.181	7078.7
913.494	7093.61
913.806	7019.94
914.118	7034.18
914.43	6927.74
914.742	7002.54
915.054	6875.54
915.366	6871.7
915.678	6874.86
915.99	6868.99
916.302	6804.81
916.613	6786.05
916.925	6774.07
917.236	6738.37
917.548	6666.73
917.859	6692.27
918.171	6654.08
918.482	6597.13
918.794	6558.71
919.105	6560.52
919.416	6476
919.727	6476.91
920.038	6479.17
920.349	6434.65
920.66	6445.27
920.971	6394.87
921.282	6342.22
921.593	6359.17
921.903	6300.64
922.214	6272.62
922.525	6225.84
922.835	6193.75
923.146	6131.15
923.456	6183.35
923.767	6135.22
924.077	6074.2
924.387	6094.09
924.697	6095.45
925.008	6057.26
925.318	5984.26
925.628	6033.75
925.938	5955.79
926.248	5949.91
926.558	5939.97
926.867	5899.29
927.177	5858.39
927.487	5852.29
927.796	5801.9
928.106	5799.18
928.416	5796.92
928.725	5785.17
929.034	5689.58
929.344	5715.34
929.653	5679.41
929.962	5646.65
930.271	5613.2
930.581	5575.01
930.89	5544.95
931.199	5561.45
931.508	5529.59
931.817	5548.79
932.125	5461.34
932.434	5502.69
932.743	5446.65
933.051	5409.36
933.36	5330.04
933.669	5354.68
933.977	5318.74
934.286	5312.19
934.594	5296.6
934.902	5282.81
935.21	5229.26
935.519	5237.16
935.827	5228.35
936.135	5196.26
936.443	5170.73
936.751	5093.44
937.059	5092.54
937.367	5081.24
937.674	5115.59
937.982	5049.37
938.29	4995.59
938.597	5076.04
938.905	4945.87
939.213	4960.34
939.52	4958.75
939.827	4986.32
940.135	4883.73
940.442	4874.01
940.749	4915.14
941.056	4906.55
941.363	4800.34
941.67	4827.01
941.977	4792.2
942.284	4737.52
942.591	4744.3
942.898	4715.14
943.205	4730.51
943.511	4659.33
943.818	4702.72
944.125	4653.68
944.431	4634.24
944.738	4600.57
945.044	4596.5
945.35	4570.74
945.657	4545.21
945.963	4521.7
946.269	4522.83
946.575	4536.84
946.881	4504.75
947.187	4468.15
947.493	4411.2
947.799	4413.46
948.105	4391.09
948.41	4379.79
948.716	4356.74
949.022	4313.35
949.327	4328.26
949.633	4297.3
949.938	4298.66
950.244	4257.3
950.549	4219.11
950.854	4217.98
951.16	4233.58
951.465	4139.79
951.77	4158.55
952.075	4163.07
952.38	4166.68
952.685	4153.13
952.99	4116.74
953.294	4061.38
953.599	4071.32
953.904	4046.69
954.209	4037.65
954.513	4024.54
954.818	4000.81
955.122	3977.31
955.426	3972.79
955.731	3925.11
956.035	3907.03
956.339	3872.45
956.643	3893.25
956.948	3856.41
957.252	3865.45
957.556	3857.99
957.86	3839.01
958.163	3801.95
958.467	3762.18
958.771	3799.91
959.075	3779.35
959.378	3742.97
959.682	3743.64
959.985	3726.7
960.289	3700.93
960.592	3683.31
960.896	3696.19
961.199	3664.55
961.502	3631.56
961.805	3625.68
962.108	3589.07
962.411	3579.58
962.714	3539.36
963.017	3536.42
963.32	3540.71
963.623	3544.55
963.926	3508.62
964.228	3475.85
964.531	3478.79
964.833	3454.84
965.136	3436.53
965.438	3417.33
965.741	3426.59
966.043	3373.03
966.345	3361.28
966.648	3409.19
966.95	3325.8
967.252	3356.76
967.554	3318.34
967.856	3335.97
968.158	3282.19
968.46	3295.97
968.761	3292.81
969.063	3272.92
969.365	3246.71
969.666	3215.3
969.968	3162.19
970.269	3208.07
970.571	3199.93
970.872	3179.14
971.174	3159.25
971.475	3126.03
971.776	3166.71
972.077	3140.95
972.378	3086.49
972.679	3114.51
972.98	3088.52
973.281	3055.3
973.582	3015.08
973.883	3049.2
974.183	3047.84
974.484	3015.08
974.785	3009.43
975.085	3003.32
975.386	2986.15
975.686	2953.61
975.986	2962.87
976.287	2948.64
976.587	2880.16
976.887	2912.48
977.187	2927.62
977.487	2894.4
977.787	2858.47
978.087	2885.36
978.387	2864.12
978.687	2844.69
978.987	2818.92
979.286	2794.52
979.586	2798.36
979.885	2782.99
980.185	2764.46
980.484	2782.99
980.784	2754.29
981.083	2705.71
981.382	2737.34
981.682	2717.23
981.981	2702.99
982.28	2705.93
982.579	2703.67
982.878	2661.87
983.177	2646.72
983.475	2622.32
983.774	2671.58
984.073	2586.16
984.372	2595.65
984.67	2566.73
984.969	2585.03
985.267	2609.21
985.566	2569.66
985.864	2543.45
986.162	2531.92
986.461	2547.29
986.759	2523.79
987.057	2498.71
987.355	2496.67
987.653	2496.45
987.951	2482.89
988.249	2458.93
988.547	2436.79
988.844	2472.72
989.142	2441.76
989.44	2382.55
989.737	2365.83
990.035	2389.78
990.332	2390.46
990.63	2371.7
990.927	2391.14
991.224	2347.3
991.521	2336.22
991.819	2363.57
992.116	2326.28
992.413	2315.66
992.71	2299.39
993.006	2270.69
993.303	2253.06
993.6	2271.59
993.897	2227.53
994.193	2202.89
994.49	2239.28
994.787	2203.35
995.083	2227.07
995.379	2204.7
995.676	2194.98
995.972	2190.92
996.268	2171.26
996.565	2174.65
996.861	2110.69
997.157	2151.6
997.453	2126.29
997.749	2166.74
998.044	2118.38
998.34	2086.51
998.636	2090.35
998.932	2068.21
999.227	2067.08
999.523	2046.29
999.818	2027.08
1000.114	2041.99
1000.409	2018.94
1000.704	2021.43
1001	1998.15
1001.295	1982.33
1001.59	1979.62
1001.885	1980.98
1002.18	1947.99
1002.475	1944.6
1002.77	1916.12
1003.065	1901.21
1003.359	1940.3
1003.654	1922.22
1003.949	1905.73
1004.243	1877.25
1004.538	1853.07
1004.832	1869.57
1005.127	1843.36
1005.421	1838.38
1005.715	1817.59
1006.009	1825.05
1006.304	1799.51
1006.598	1779.85
1006.892	1772.17
1007.186	1763.58
1007.48	1789.57
1007.773	1787.76
1008.067	1759.06
1008.361	1734.88
1008.655	1757.03
1008.948	1732.4
1009.242	1722.45
1009.535	1726.97
1009.829	1691.27
1010.122	1665.96
1010.415	1700.99
1010.708	1666.86
1011.001	1634.1
1011.295	1663.93
1011.588	1655.79
1011.881	1641.1
1012.173	1606.53
1012.466	1627.54
1012.759	1599.29
1013.052	1590.03
1013.344	1576.7
1013.637	1564.72
1013.93	1547.09
1014.222	1562.46
1014.514	1556.36
1014.807	1536.47
1015.099	1544.61
1015.391	1514.32
1015.683	1496.47
1015.976	1491.5
1016.268	1493.53
1016.56	1488.11
1016.851	1501.44
1017.143	1475.91
1017.435	1484.27
1017.727	1438.85
1018.018	1447.66
1018.31	1439.52
1018.602	1443.37
1018.893	1458.96
1019.185	1412.86
1019.476	1408.79
1019.767	1406.53
1020.058	1380.77
1020.35	1393.2
1020.641	1371.28
1020.932	1366.31
1021.223	1369.47
1021.514	1373.99
1021.804	1348.91
1022.095	1345.06
1022.386	1282.69
1022.677	1316.82
1022.967	1292.64
1023.258	1271.62
1023.548	1290.15
1023.839	1265.07
1024.129	1262.35
1024.419	1265.97
1024.709	1254.9
1025	1247.66
1025.29	1233.65
1025.58	1259.42
1025.87	1209.93
1026.16	1220.1
1026.449	1198.4
1026.739	1213.99
1027.029	1202.02
1027.319	1146.88
1027.608	1164.28
1027.898	1156.37
1028.187	1163.37
1028.477	1156.82
1028.766	1115.69
1029.055	1151.4
1029.344	1142.81
1029.634	1103.26
1029.923	1135.13
1030.212	1122.47
1030.501	1103.26
1030.79	1086.99
1031.078	1073.43
1031.367	1069.82
1031.656	1091.96
1031.945	1078.63
1032.233	1071.62
1032.522	1047.44
1032.81	1051.51
1033.099	1021.68
1033.387	1033.43
1033.675	1031.17
1033.963	1006.77
1034.251	1041.57
1034.54	1006.54
1034.828	1004.73
1035.116	1009.03
1035.403	984.85
1035.691	987.33
1035.979	966.77
1036.267	970.61
1036.554	971.06
1036.842	948.46
1037.129	946.88
1037.417	949.59
1037.704	947.56
1037.992	932.19
1038.279	922.02
1038.566	923.15
1038.853	923.15
1039.14	923.15
