Data from hue_340_FLMS001491_100.txt Node
Date: Mon Feb 06 15:43:54 GMT 2017
User: dcchb
Spectrometer: FLMS00149
Trigger mode: 0
Integration Time (sec): 2.000000E-2
Scans to average: 10
Electric dark correction enabled: true
Nonlinearity correction enabled: false
Boxcar width: 0
XAxis mode: Wavelengths
Number of Pixels in Spectrum: 2048
>>>>>Begin Spectral Data<<<<<
341.393	6.68
341.776	6.68
342.16	6.68
342.543	-59.08
342.927	-71.96
343.31	-71.51
343.693	-83.03
344.077	-70.61
344.46	-48.69
344.843	-52.3
345.226	-37.61
345.61	-29.25
345.993	-20.44
346.376	-0.55
346.759	-6.88
347.142	26.34
347.525	40.58
347.908	64.98
348.291	76.06
348.674	102.05
349.057	110.86
349.44	116.06
349.823	140.01
350.206	155.15
350.588	204.19
350.971	212.78
351.354	230.4
351.737	231.76
352.119	232.44
352.502	263.17
352.884	273.34
353.267	272.66
353.65	299.78
354.032	281.7
354.414	296.39
354.797	338.65
355.179	323.06
355.562	304.07
355.944	326.9
356.326	322.83
356.709	325.54
357.091	343.17
357.473	329.84
357.855	318.08
358.238	330.51
358.62	338.2
359.002	333.68
359.384	344.98
359.766	335.71
360.148	322.83
360.53	339.33
360.912	336.16
361.294	321.47
361.676	314.24
362.057	333.23
362.439	304.98
362.821	354.69
363.203	321.93
363.584	316.28
363.966	307.01
364.348	309.72
364.729	325.32
365.111	306.33
365.493	299.78
365.874	300.91
366.256	290.51
366.637	318.31
367.019	292.32
367.4	323.96
367.781	309.27
368.163	308.14
368.544	308.37
368.925	303.17
369.306	332.32
369.688	299.33
370.069	311.76
370.45	301.36
370.831	297.29
371.212	309.95
371.593	304.3
371.974	311.98
372.355	304.07
372.736	296.62
373.117	318.76
373.498	308.59
373.879	319.21
374.26	309.27
374.641	319.67
375.021	312.89
375.402	308.82
375.783	308.37
376.163	300.68
376.544	325.99
376.925	344.75
377.305	312.21
377.686	328.48
378.066	321.93
378.447	328.71
378.827	317.63
379.208	316.73
379.588	344.98
379.968	309.05
380.349	306.33
380.729	321.02
381.109	308.82
381.489	314.7
381.87	319.67
382.25	334.13
382.63	322.38
383.01	327.58
383.39	321.93
383.77	334.58
384.15	321.93
384.53	322.38
384.91	333.23
385.29	338.88
385.67	318.99
386.049	353.79
386.429	329.84
386.809	348.82
387.189	332.32
387.568	321.7
387.948	325.09
388.328	355.82
388.707	352.66
389.087	325.99
389.466	340.68
389.846	349.72
390.225	341.36
390.605	360.8
390.984	350.85
391.363	349.27
391.743	369.38
392.122	362.15
392.501	344.3
392.881	361.7
393.26	375.26
393.639	352.43
394.018	360.57
394.397	350.17
394.776	362.6
395.155	340.46
395.534	356.95
395.913	376.61
396.292	376.84
396.671	359.89
397.05	353.79
397.429	363.96
397.808	364.19
398.186	371.42
398.565	363.96
398.944	364.64
399.323	369.61
399.701	363.28
400.08	369.38
400.458	383.85
400.837	363.06
401.215	381.59
401.594	381.13
401.972	407.8
402.351	394.02
402.729	389.5
403.107	394.92
403.486	380.91
403.864	410.51
404.242	386.11
404.62	394.92
404.999	397.63
405.377	393.56
405.755	400.79
406.133	420.68
406.511	394.69
406.889	420
407.267	438.53
407.645	408.25
408.023	398.99
408.401	422.49
408.779	424.3
409.156	417.52
409.534	412.32
409.912	442.6
410.29	412.32
410.667	455.48
411.045	427.46
411.422	457.74
411.8	432.66
412.178	432.88
412.555	472.66
412.933	452.09
413.31	457.74
413.687	464.97
414.065	459.32
414.442	495.03
414.819	463.62
415.197	493
415.574	494.8
415.951	484.18
416.328	477.18
416.705	490.28
417.082	488.48
417.46	503.16
417.837	499.32
418.214	500.23
418.591	496.16
418.967	510.17
419.344	510.62
419.721	515.59
420.098	516.5
420.475	522.15
420.852	527.12
421.228	514.92
421.605	520.79
421.982	524.41
422.358	549.27
422.735	543.16
423.111	554.69
423.488	557.17
423.864	569.38
424.241	558.08
424.617	569.15
424.994	580
425.37	579.77
425.746	599.66
426.123	578.64
426.499	581.35
426.875	614.12
427.251	614.8
427.627	609.38
428.003	609.83
428.379	621.13
428.756	621.81
429.132	630.39
429.507	619.55
429.883	627.46
430.259	644.18
430.635	639.66
431.011	652.09
431.387	664.97
431.763	698.19
432.138	697.06
432.514	681.47
432.89	700.45
433.265	698.19
433.641	676.72
434.016	683.72
434.392	701.58
434.767	701.8
435.143	688.02
435.518	711.97
435.894	728.7
436.269	737.96
436.644	731.41
437.02	759.66
437.395	742.03
437.77	741.12
438.145	751.52
438.52	763.72
438.895	772.76
439.271	766.89
439.646	775.7
440.021	794.91
440.395	785.42
440.77	782.71
441.145	797.39
441.52	818.41
441.895	806.66
442.27	802.82
442.645	808.47
443.019	824.29
443.394	815.25
443.769	825.42
444.143	836.04
444.518	843.72
444.892	825.87
445.267	810.73
445.641	841.69
446.016	851.86
446.39	838.07
446.764	836.26
447.139	854.34
447.513	871.06
447.887	861.8
448.262	864.74
448.636	851.18
449.01	876.71
449.384	875.36
449.758	882.82
450.132	883.72
450.506	879.2
450.88	911.29
451.254	909.03
451.628	912.87
452.002	906.09
452.376	892.31
452.75	909.03
453.123	907.22
453.497	906.32
453.871	942.7
454.244	944.96
454.618	962.59
454.992	955.13
455.365	969.82
455.739	948.35
456.112	949.03
456.486	984.96
456.859	985.86
457.232	1025.18
457.606	987.45
457.979	1006.2
458.352	1005.52
458.725	1004.17
459.099	1003.49
459.472	1007.11
459.845	1054.34
460.218	1065.64
460.591	1078.06
460.964	1072.42
461.337	1066.99
461.71	1120.55
462.083	1111.28
462.456	1122.13
462.829	1092.75
463.201	1119.42
463.574	1125.97
463.947	1120.78
464.32	1125.3
464.692	1137.5
465.065	1169.81
465.438	1165.07
465.81	1204.39
466.183	1195.12
466.555	1204.84
466.928	1242.58
467.3	1219.98
467.672	1262.24
468.045	1254.33
468.417	1249.13
468.789	1250.26
469.161	1282.35
469.534	1323.93
469.906	1325.29
470.278	1335.23
470.65	1334.78
471.022	1359.87
471.394	1384.5
471.766	1389.7
472.138	1398.06
472.51	1436.02
472.882	1451.61
473.253	1471.5
473.625	1455.91
473.997	1494.78
474.369	1520.99
474.74	1543.59
475.112	1560.09
475.484	1540.43
475.855	1564.83
476.227	1604.15
476.598	1644.6
476.97	1635.56
477.341	1673.76
477.713	1697.03
478.084	1695
478.455	1707.65
478.827	1760.53
479.198	1793.75
479.569	1799.85
479.94	1845.73
480.311	1846.63
480.682	1910.13
481.053	1922.79
481.424	1942.9
481.795	1953.07
482.166	1999.4
482.537	2017.48
482.908	2054.76
483.279	2077.59
483.65	2077.36
484.021	2124.37
484.391	2146.74
484.762	2164.36
485.133	2194.19
485.503	2182.67
485.874	2263.57
486.244	2281.88
486.615	2313.29
486.985	2343.34
487.356	2365.04
487.726	2395.09
488.097	2439.16
488.467	2420.4
488.837	2455.2
489.207	2540.85
489.578	2544.24
489.948	2578.59
490.318	2592.83
490.688	2595.31
491.058	2605.26
491.428	2666.72
491.798	2685.48
492.168	2748.53
492.538	2765.25
492.908	2744.69
493.278	2817.91
493.648	2810.22
494.017	2870.79
494.387	2866.49
494.757	2903.1
495.126	2921.86
495.496	2922.08
495.866	2930.67
496.235	2989.43
496.605	3002.76
496.974	3035.53
497.344	3049.99
497.713	3097.45
498.082	3063.55
498.452	3086.6
498.821	3130.89
499.19	3153.94
499.559	3188.52
499.928	3144.23
500.298	3174.73
500.667	3189.65
501.036	3187.39
501.405	3194.39
501.774	3220.16
502.143	3262.41
502.512	3274.39
502.88	3288.85
503.249	3305.8
503.618	3326.59
503.987	3363.2
504.356	3345.8
504.724	3353.03
505.093	3379.47
505.462	3390.32
505.83	3395.97
506.199	3426.93
506.567	3431.45
506.936	3444.56
507.304	3511
507.672	3505.35
508.041	3498.11
508.409	3539.92
508.777	3559.58
509.145	3549.64
509.514	3574.5
509.882	3560.03
510.25	3573.82
510.618	3590.54
510.986	3599.58
511.354	3634.83
511.722	3650.88
512.09	3712.35
512.458	3661.73
512.826	3695.17
513.193	3682.29
513.561	3701.05
513.929	3705.34
514.297	3741.05
514.664	3742.85
515.032	3799.58
515.4	3793.93
515.767	3784.21
516.135	3819.46
516.502	3776.75
516.869	3808.39
517.237	3822.85
517.604	3808.16
517.972	3847.26
518.339	3837.54
518.706	3847.03
519.073	3880.48
519.44	3857.65
519.808	3927.93
520.175	3914.83
520.542	3956.41
520.909	3898.78
521.276	3943.3
521.643	3996.41
522.009	4006.12
522.376	3990.08
522.743	3987.14
523.11	4064.88
523.477	4051.55
523.843	4069.85
524.21	4093.58
524.577	4126.12
524.943	4093.8
525.31	4130.87
525.676	4158.89
526.043	4160.02
526.409	4197.3
526.776	4237.3
527.142	4208.15
527.508	4227.59
527.874	4284.76
528.241	4294.7
528.607	4305.32
528.973	4306.23
529.339	4332.67
529.705	4403.85
530.071	4389.39
530.437	4436.85
530.803	4501.03
531.169	4435.72
531.535	4472.78
531.901	4495.38
532.267	4516.84
532.632	4515.71
532.998	4524.3
533.364	4526.79
533.73	4573.79
534.095	4632.55
534.461	4600.68
534.826	4649.27
535.192	4643.39
535.557	4715.94
535.923	4663.06
536.288	4719.78
536.653	4719.55
537.019	4721.58
537.384	4761.13
537.749	4790.51
538.114	4803.16
538.479	4803.39
538.845	4826.21
539.21	4813.79
539.575	4865.76
539.94	4872.54
540.305	4923.61
540.67	4909.38
541.034	4955.48
541.399	4961.8
541.764	4971.97
542.129	5003.16
542.494	5060.56
542.858	5063.04
543.223	5032.31
543.587	5093.33
543.952	5088.58
544.316	5145.75
544.681	5115.47
545.045	5135.13
545.41	5155.02
545.774	5171.52
546.138	5186.66
546.503	5218.75
546.867	5210.84
547.231	5277.05
547.595	5270.05
547.959	5290.16
548.324	5286.77
548.688	5348.91
549.052	5347.56
549.416	5404.5
549.779	5405.86
550.143	5431.62
550.507	5401.79
550.871	5461
551.235	5436.59
551.599	5482.69
551.962	5476.37
552.326	5584.16
552.689	5519.98
553.053	5522.69
553.417	5536.93
553.78	5617.15
554.143	5635.23
554.507	5614.89
554.87	5602.24
555.234	5661
555.597	5694.21
555.96	5651.73
556.323	5719.52
556.686	5678.85
557.05	5729.24
557.413	5792.74
557.776	5780.77
558.139	5843.59
558.502	5797.49
558.865	5832.74
559.228	5810.6
559.59	5870.71
559.953	5905.51
560.316	5916.13
560.679	5948.67
561.041	5919.75
561.404	5988.44
561.767	6029.35
562.129	5971.04
562.492	6020.53
562.854	6009.01
563.217	6112.06
563.579	6066.63
563.941	6062.57
564.304	6125.84
564.666	6147.76
565.028	6118.16
565.39	6210.13
565.753	6256.91
566.115	6218.72
566.477	6245.16
566.839	6277.93
567.201	6285.61
567.563	6245.84
567.925	6321.77
568.287	6333.75
568.648	6350.92
569.01	6341.88
569.372	6445.16
569.734	6426.4
570.095	6490.13
570.457	6515.66
570.819	6487.19
571.18	6536.45
571.542	6555.89
571.903	6604.47
572.265	6708.43
572.626	6690.35
572.987	6699.16
573.349	6736.45
573.71	6841.76
574.071	6848.08
574.432	6886.5
574.794	6990.45
575.155	7043.56
575.516	6994.97
575.877	7039.49
576.238	7121.52
576.599	7183.44
576.96	7224.57
577.32	7319.48
577.681	7353.15
578.042	7437.67
578.403	7528.06
578.763	7544.11
579.124	7656.2
579.485	7780.71
579.845	7869.52
580.206	7935.51
580.566	8051.21
580.927	8070.65
581.287	8201.49
581.648	8290.08
582.008	8414.6
582.368	8614.59
582.728	8734.81
583.089	8793.79
583.449	8956.73
583.809	9089.83
584.169	9178.42
584.529	9425.42
584.889	9596.94
585.249	9692.53
585.609	9857.72
585.969	10061.56
586.329	10213.42
586.688	10402.34
587.048	10593.97
587.408	10813.85
587.768	11064.24
588.127	11191.7
588.487	11426.04
588.846	11654.06
589.206	11761.85
589.565	12054.27
589.925	12348.73
590.284	12505.11
590.643	12774.03
591.003	13083.17
591.362	13368.36
591.721	13558.87
592.08	13823.49
592.44	14105.07
592.799	14333.31
593.158	14598.39
593.517	14824.37
593.876	15205.15
594.235	15326.96
594.593	15649.89
594.952	15980.72
595.311	16079.03
595.67	16465
596.029	16828.84
596.387	17084.65
596.746	17328.49
597.104	17608.93
597.463	17832.43
597.822	18111.29
598.18	18328.91
598.538	18702.23
598.897	19020.64
599.255	19155.78
599.613	19750.34
599.972	19850.45
600.33	20210.22
600.688	20336.09
601.046	20722.07
601.404	21007.26
601.762	21187.37
602.12	21587.36
602.478	21699.22
602.836	22157.74
603.194	22219.2
603.552	22371.74
603.91	22617.16
604.268	23018.28
604.625	23187.99
604.983	23506.85
605.341	23568.55
605.698	23969.21
606.056	24337.11
606.413	24337.34
606.771	24660.72
607.128	24897.33
607.485	25017.32
607.843	25274.04
608.2	25618.89
608.557	25895.49
608.914	25875.83
609.272	26233.79
609.629	26422.26
609.986	26729.14
610.343	26867.67
610.7	27168.23
611.057	27316.02
611.414	27520.31
611.771	27725.73
612.127	27871.03
612.484	28063.57
612.841	28343.56
613.198	28507.63
613.554	28607.96
613.911	28888.41
614.267	29140.6
614.624	29114.84
614.98	29262.86
615.337	29622.63
615.693	29693.81
616.05	29736.97
616.406	30063.07
616.762	29990.98
617.118	30162.72
617.475	30391.42
617.831	30595.48
618.187	30807.68
618.543	30786.89
618.899	31075.24
619.255	31098.07
619.611	31237.5
619.967	31372.86
620.323	31574.44
620.678	31559.98
621.034	31623.93
621.39	31785.73
621.746	31737.37
622.101	32278.37
622.457	32119.73
622.812	32266.17
623.168	32458.26
623.523	32473.4
623.879	32711.58
624.234	32434.75
624.589	32710.45
624.945	32709.32
625.3	32974.4
625.655	32957.68
626.01	32993.16
626.365	33218.24
626.72	33147.05
627.075	33179.59
627.43	33254.85
627.785	33269.53
628.14	33367.84
628.495	33472.47
628.85	33542.07
629.205	33372.58
629.559	33718.79
629.914	33495.29
630.269	33608.73
630.623	33682.86
630.978	33603.76
631.332	33811.89
631.687	33833.59
632.041	33728.96
632.396	33814.61
632.75	33779.58
633.104	33782.29
633.459	33815.74
633.813	33827.94
634.167	33820.93
634.521	33772.35
634.875	33964.21
635.229	33839.69
635.583	33728.96
635.937	33897.77
636.291	33888.28
636.645	33888.5
636.999	33880.59
637.352	34056.63
637.706	33786.58
638.06	33964.66
638.413	33834.04
638.767	33848.73
639.121	33969.63
639.474	33730.09
639.828	33803.08
640.181	33875.39
640.534	33969.63
640.888	33755.62
641.241	33735.06
641.594	33898.9
641.947	33946.58
642.301	33867.71
642.654	33943.87
643.007	33972.34
643.36	33837.88
643.713	33846.02
644.066	34067.25
644.419	33697.77
644.771	33508.4
645.124	33152.93
645.477	33262.76
645.83	32961.52
646.182	32928.3
646.535	32818.93
646.888	32898.25
647.24	32741.41
647.593	32875.65
647.945	32817.12
648.298	32777.12
648.65	32680.85
649.002	32602.43
649.355	32826.16
649.707	32710.91
650.059	32875.42
650.411	33274.51
650.763	33264.34
651.115	33564.44
651.467	33459.36
651.819	33542.3
652.171	33413.49
652.523	33357.44
652.875	33428.4
653.227	33188.63
653.578	33481.73
653.93	33398.57
654.282	33359.25
654.633	33124.68
654.985	33327.39
655.337	33393.37
655.688	33291.23
656.039	33441.96
656.391	33230.44
656.742	33225.47
657.094	33199.48
657.445	33397.89
657.796	33304.11
658.147	33162.64
658.498	33202.19
658.849	33292.13
659.2	33173.49
659.551	33287.39
659.902	33248.52
660.253	33225.69
660.604	33204.68
660.955	33104.57
661.306	33166.26
661.656	33132.82
662.007	33142.08
662.358	33123.78
662.708	33169.2
663.059	33079.71
663.409	32918.36
663.76	33189.54
664.11	33227.95
664.461	33163.32
664.811	33181.4
665.161	33194.51
665.511	33084.91
665.862	33152.02
666.212	33223.21
666.562	33192.25
666.912	33069.99
667.262	33131.69
667.612	33123.55
667.962	33230.21
668.312	33102.99
668.662	33167.39
669.011	33081.07
669.361	33065.02
669.711	33012.59
670.06	32997.68
670.41	32992.03
670.76	32902.31
671.109	33100.5
671.459	33018.02
671.808	33047.39
672.157	33049.2
672.507	32820.06
672.856	32803.78
673.205	32752.94
673.554	32948.41
673.904	32780.96
674.253	33087.39
674.602	32965.81
674.951	32408.09
675.3	32283.57
675.649	32794.97
675.998	32715.88
676.346	32728.76
676.695	32873.84
677.044	32483.79
677.393	32830.68
677.741	32736.67
678.09	32657.12
678.438	32571.93
678.787	32629.55
679.135	32714.07
679.484	32428.65
679.832	32493.96
680.181	32427.3
680.529	32534.41
680.877	32413.06
681.225	32483.34
681.573	32488.99
681.922	32324.25
682.27	32280.18
682.618	32239.28
682.966	32315.44
683.314	32187.3
683.661	32040.87
684.009	32058.04
684.357	31839.97
684.705	31900.98
685.053	32029.34
685.4	31914.09
685.748	31710.71
686.095	31640.65
686.443	31763.36
686.79	31644.04
687.138	31709.58
687.485	31588
687.832	31623.48
688.18	31497.15
688.527	31431.62
688.874	31460.99
689.221	31312.98
689.568	31234.33
689.915	31236.14
690.262	31252.41
690.609	31157.5
690.956	30941.91
691.303	30924.96
691.65	30821.69
691.997	30776.49
692.344	30696.04
692.69	30700.11
693.037	30565.2
693.383	30272.78
693.73	30370.4
694.077	30261.25
694.423	30299.22
694.769	30159.56
695.116	30134.02
695.462	29995.95
695.808	29923.41
696.155	29955.5
696.501	29911.43
696.847	29785.78
697.193	29628.95
697.539	29765.9
697.885	29531.1
698.231	29543.31
698.577	29448.84
698.923	29449.97
699.269	29335.4
699.614	29170.43
699.96	29142.64
700.306	29061.06
700.651	28923.43
700.997	28946.48
701.342	28974.05
701.688	28835.3
702.033	28683.44
702.379	28691.12
702.724	28598.02
703.069	28718.47
703.415	28405.48
703.76	28385.82
704.105	28427.4
704.45	28287.07
704.795	28083.68
705.14	28017.92
705.485	28148.31
705.83	27912.84
706.175	28038.94
706.52	27897.92
706.865	27815.89
707.209	27670.36
707.554	27753.52
707.899	27780.19
708.243	27457.26
708.588	27463.36
708.932	27397.15
709.277	27287.09
709.621	27264.49
709.966	27171.39
710.31	27217.49
710.654	26955.58
710.998	26945.41
711.342	26957.38
711.687	26949.02
712.031	26913.77
712.375	26678.52
712.719	26772.3
713.063	26745.64
713.407	26716.71
713.75	26643.72
714.094	26506.55
714.438	26364.86
714.782	26601.24
715.125	26384.29
715.469	26380
715.812	26281.24
716.156	26051.87
716.499	26150.17
716.843	26136.16
717.186	25936.62
717.53	26134.81
717.873	26004.42
718.216	26052.1
718.559	25924.87
718.902	25747.47
719.246	25865.44
719.589	25683.52
719.932	25537.08
720.275	25665.89
720.617	25661.37
720.96	25534.14
721.303	25584.77
721.646	25480.59
721.989	25479.91
722.331	25393.36
722.674	25270.2
723.016	25487.14
723.359	25343.19
723.701	25381.83
724.044	25200.14
724.386	24991.11
724.729	25116.75
725.071	25072.46
725.413	25210.99
725.755	25048.28
726.097	24937.55
726.439	24898.23
726.782	24900.72
727.124	25023.2
727.465	24820.49
727.807	24801.06
728.149	24776.88
728.491	24666.37
728.833	24855.74
729.175	24641.29
729.516	24573.04
729.858	24526.26
730.199	24632.02
730.541	24508.41
730.882	24472.25
731.224	24582.98
731.565	24377.34
731.906	24442.42
732.248	24492.36
732.589	24218.93
732.93	24220.73
733.271	24292.6
733.612	24235.2
733.953	24205.59
734.294	24122.2
734.635	24047.18
734.976	24121.53
735.317	23989.78
735.658	23959.27
735.999	23960.18
736.339	23803.8
736.68	23902.78
737.021	23766.06
737.361	23758.15
737.702	23897.13
738.042	23863.91
738.383	23685.15
738.723	23775.55
739.063	23653.29
739.404	23687.19
739.744	23556.8
740.084	23553.18
740.424	23512.5
740.764	23638.83
741.104	23578.26
741.444	23385.5
741.784	23398.83
742.124	23345.05
742.464	23389.79
742.804	23380.76
743.143	23316.8
743.483	23233.87
743.823	23173.53
744.162	23196.81
744.502	23155.9
744.841	23159.74
745.181	23121.55
745.52	23042.01
745.86	23120.2
746.199	22968.11
746.538	22958.62
746.877	23083.59
747.216	23034.55
747.556	22882.46
747.895	22967.88
748.234	22765.4
748.573	22760.88
748.911	22711.39
749.25	22770.15
749.589	22663.94
749.928	22756.82
750.267	22674.33
750.605	22601.79
750.944	22508.46
751.283	22497.84
751.621	22494.22
751.96	22465.75
752.298	22381.23
752.636	22474.79
752.975	22218.75
753.313	22138.53
753.651	22258.3
753.989	22180.56
754.327	22133.33
754.666	22074.12
755.004	22156.61
755.342	22060.11
755.679	22032.77
756.017	21840.46
756.355	21960
756.693	21776.05
757.031	21829.84
757.368	21678.88
757.706	21762.27
758.044	21626.45
758.381	21670.74
758.719	21500.35
759.056	21575.61
759.394	21439.79
759.731	21308.49
760.068	21356.85
760.405	21226.01
760.743	21002.51
761.08	21236.63
761.417	21091.32
761.754	21018.56
762.091	21009.07
762.428	20970.88
762.765	20844.32
763.102	20783.99
763.438	20663.76
763.775	20676.87
764.112	20670.32
764.449	20673.26
764.785	20445.69
765.122	20498.8
765.458	20343.55
765.795	20394.62
766.131	20292.25
766.467	20241.18
766.804	20193.49
767.14	20075.31
767.476	20132.03
767.812	19929.55
768.148	19982.88
768.485	19819.27
768.821	19734.3
769.157	19725.48
769.492	19672.15
769.828	19628.31
770.164	19439.39
770.5	19408.43
770.836	19378.37
771.171	19283.46
771.507	19173.18
771.842	19092.51
772.178	19155.56
772.513	19061.55
772.849	18920.53
773.184	18932.96
773.519	18921.66
773.855	18831.5
774.19	18796.47
774.525	18606.64
774.86	18794.44
775.195	18612.52
775.53	18486.65
775.865	18434.44
776.2	18292.98
776.535	18234
776.87	18278.29
777.205	18166.66
777.539	18054.34
777.874	18069.93
778.209	17899.77
778.543	18054.34
778.878	17769.38
779.212	17792.43
779.547	17727.57
779.881	17713.11
780.215	17583.17
780.55	17594.01
780.884	17502.72
781.218	17496.16
781.552	17426.56
781.886	17289.62
782.22	17241.26
782.554	17142.73
782.888	17009.62
783.222	16981.15
783.556	16946.57
783.889	16891.89
784.223	16762.4
784.557	16766.01
784.89	16823.41
785.224	16653.25
785.557	16598.33
785.891	16538
786.224	16448.51
786.558	16506.59
786.891	16272.24
787.224	16269.3
787.557	16215.75
787.891	16272.92
788.224	16152.24
788.557	16126.93
788.89	15958.35
789.223	15996.77
789.556	15911.12
789.888	15880.84
790.221	15839.48
790.554	15727.85
790.887	15711.35
791.219	15637.91
791.552	15664.35
791.884	15522.2
792.217	15517.69
792.549	15387.52
792.882	15412.15
793.214	15251.03
793.546	15354.75
793.879	15151.82
794.211	15171.25
794.543	15124.02
794.875	15068.43
795.207	15100.97
795.539	15018.04
795.871	15024.14
796.203	14939.4
796.535	14781.66
796.867	14801.77
797.198	14743.92
797.53	14664.15
797.862	14586.64
798.193	14540.76
798.525	14534.89
798.856	14597.03
799.188	14346.64
799.519	14369.01
799.85	14329.02
800.182	14331.28
800.513	14266.42
800.844	14121.56
801.175	14261.9
801.506	14198.85
801.837	14023.94
802.168	14008.57
802.499	14014.9
802.83	13854.45
803.161	13943.26
803.491	13900.55
803.822	13925.64
804.153	13750.27
804.483	13703.04
804.814	13682.03
805.145	13571.3
805.475	13666.43
805.805	13629.6
806.136	13547.79
806.466	13444.07
806.796	13545.53
807.126	13378.76
807.457	13428.02
807.787	13396.39
808.117	13362.04
808.447	13303.96
808.777	13251.08
809.107	13291.53
809.436	13234.36
809.766	13223.28
810.096	13089.95
810.426	13059.44
810.755	13093.12
811.085	12985.77
811.414	13033.91
811.744	12870.75
812.073	12835.95
812.403	12829.62
812.732	12811.09
813.061	12793.01
813.39	12764.54
813.719	12664.2
814.049	12821.94
814.378	12692.22
814.707	12659.91
815.036	12665.56
815.365	12562.96
815.693	12426.24
816.022	12470.99
816.351	12403.42
816.68	12409.29
817.008	12337.2
817.337	12309.86
817.665	12239.35
817.994	12241.16
818.322	12324.55
818.651	12235.06
818.979	12172.01
819.307	12111.22
819.636	12127.72
819.964	12080.71
820.292	12119.58
820.62	12107.83
820.948	12083.43
821.276	12043.2
821.604	12046.36
821.932	12035.74
822.259	11996.65
822.587	12046.36
822.915	11953.26
823.243	12125.23
823.57	11994.39
823.898	11993.71
824.225	11915.29
824.553	11935.18
824.88	11990.32
825.207	11956.65
825.535	11968.4
825.862	12016.31
826.189	11971.79
826.516	11975.86
826.843	12039.36
827.17	12029.64
827.497	12018.12
827.824	12077.1
828.151	12053.6
828.478	12014.73
828.805	11984.44
829.131	12013.14
829.458	11920.72
829.785	11966.82
830.111	11903.32
830.438	12013.6
830.764	11917.55
831.09	11947.61
831.417	11874.84
831.743	11949.19
832.069	11941.73
832.395	11841.4
832.722	11901.51
833.048	11836.43
833.374	11896.09
833.7	11822.42
834.026	11800.95
834.351	11848.4
834.677	11865.35
835.003	11865.8
835.329	11841.17
835.654	11817.44
835.98	11717.79
836.306	11705.81
836.631	11703.77
836.956	11785.58
837.282	11785.13
837.607	11697.67
837.932	11658.58
838.258	11617.9
838.583	11644.57
838.908	11603.89
839.233	11607.96
839.558	11579.94
839.883	11578.81
840.208	11528.86
840.533	11490.9
840.858	11505.81
841.182	11494.29
841.507	11437.79
841.832	11389.66
842.156	11414.74
842.481	11376.1
842.805	11315.08
843.13	11271.47
843.454	11289.55
843.778	11219.49
844.103	11214.75
844.427	11219.04
844.751	11200.96
845.075	11101.76
845.399	11099.95
845.723	11057.69
846.047	11061.08
846.371	10951.7
846.695	10982.44
847.019	10918.94
847.343	10846.85
847.666	10827.41
847.99	10724.59
848.313	10799.17
848.637	10741.31
848.96	10633.52
849.284	10634.42
849.607	10528.89
849.931	10549.45
850.254	10382.23
850.577	10366.63
850.9	10432.62
851.223	10354.88
851.546	10243.47
851.869	10130.48
852.192	10250.25
852.515	10173.19
852.838	10180.2
853.161	10226.3
853.483	10089.35
853.806	9968.45
854.129	9992.41
854.451	9958.74
854.774	9968.23
855.096	9910.83
855.419	9879.42
855.741	9823.37
856.063	9747.89
856.385	9772.75
856.708	9759.42
857.03	9725.97
857.352	9758.97
857.674	9694.34
857.996	9596.03
858.318	9601
858.64	9675.58
858.961	9575.24
859.283	9554.9
859.605	9488.01
859.926	9606.65
860.248	9476.04
860.57	9406.66
860.891	9476.71
861.212	9408.47
861.534	9309.71
861.855	9378.19
862.176	9335.7
862.498	9297.74
862.819	9359.2
863.14	9257.51
863.461	9290.28
863.782	9243.95
864.103	9274.69
864.424	9160.34
864.745	9203.5
865.065	9176.61
865.386	9158.98
865.707	9152.2
866.027	9129.83
866.348	9125.76
866.668	9099.55
866.989	9038.31
867.309	8976.84
867.63	9006.9
867.95	8993.56
868.27	9021.58
868.59	9009.83
868.91	8972.09
869.23	8960.34
869.55	8900.91
869.87	8958.54
870.19	8932.32
870.51	8879.22
870.83	8942.72
871.15	8883.06
871.469	8868.37
871.789	8877.86
872.109	8806.68
872.428	8787.24
872.748	8769.39
873.067	8792.89
873.386	8754.47
873.706	8705.66
874.025	8720.12
874.344	8727.81
874.663	8728.94
874.982	8728.49
875.301	8702.27
875.62	8688.03
875.939	8622.5
876.258	8657.3
876.577	8581.6
876.896	8527.81
877.214	8564.42
877.533	8559
877.852	8601.03
878.17	8518.32
878.489	8494.37
878.807	8560.58
879.125	8514.25
879.444	8462.5
879.762	8507.93
880.08	8442.17
880.398	8413.69
880.716	8413.01
881.034	8467.25
881.352	8427.02
881.67	8369.4
881.988	8410.53
882.306	8346.8
882.624	8266.8
882.941	8302.06
883.259	8255.05
883.577	8252.79
883.894	8197.65
884.212	8282.17
884.529	8233.13
884.846	8219.12
885.164	8166.24
885.481	8131.89
885.798	8189.97
886.115	8096.19
886.432	8159.69
886.75	8056.19
887.067	8073.81
887.383	8036.53
887.7	8047.37
888.017	8015.06
888.334	7997.88
888.651	7958.11
888.967	7934.61
889.284	7916.08
889.6	7915.85
889.917	7846.7
890.233	7870.65
890.55	7801.05
890.866	7869.75
891.182	7804.22
891.498	7799.02
891.815	7712.24
892.131	7746.59
892.447	7673.15
892.763	7664.78
893.079	7657.33
893.395	7596.54
893.71	7594.5
894.026	7596.99
894.342	7602.87
894.657	7508.86
894.973	7482.42
895.289	7490.78
895.604	7521.51
895.92	7369.88
896.235	7412.36
896.55	7397.22
896.865	7329.88
897.181	7381.85
897.496	7330.56
897.811	7260.95
898.126	7252.82
898.441	7240.39
898.756	7224.12
899.071	7185.7
899.386	7173.05
899.7	7107.74
900.015	7090.79
900.33	7058.25
900.644	7053.27
900.959	7066.83
901.273	6984.8
901.588	6975.08
901.902	6921.3
902.216	6909.32
902.531	6945.03
902.845	6910.68
903.159	6801.98
903.473	6852.83
903.787	6830
904.101	6730.12
904.415	6722.44
904.729	6700.74
905.042	6700.29
905.356	6698.48
905.67	6648.77
905.984	6700.29
906.297	6659.84
906.611	6617.58
906.924	6554.53
907.237	6518.83
907.551	6519.96
907.864	6510.69
908.177	6504.59
908.491	6420.75
908.804	6451.48
909.117	6440.18
909.43	6413.74
909.743	6332.39
910.056	6329.23
910.368	6342.11
910.681	6237.03
910.994	6248.55
911.307	6245.61
911.619	6175.33
911.932	6209.68
912.244	6134.2
912.557	6105.73
912.869	6089.91
913.181	6064.83
913.494	6096.24
913.806	6038.16
914.118	6026.64
914.43	5971.95
914.742	5990.48
915.054	5898.05
915.366	5914.32
915.678	5877.03
915.99	5878.62
916.302	5812.63
916.613	5784.61
916.925	5816.7
917.236	5743.48
917.548	5710.26
917.859	5743.48
918.171	5687.89
918.482	5667.55
918.794	5644.72
919.105	5612.41
919.416	5556.59
919.727	5564.27
920.038	5550.94
920.349	5497.84
920.66	5480.89
920.971	5476.82
921.282	5453.54
921.593	5404.96
921.903	5399.08
922.214	5376.03
922.525	5385.75
922.835	5350.95
923.146	5330.16
923.456	5273.43
923.767	5228.92
924.077	5289.93
924.387	5243.15
924.697	5202.7
925.008	5207.22
925.318	5202.48
925.628	5170.39
925.938	5161.12
926.248	5067.34
926.558	5069.37
926.867	5093.33
927.177	5058.53
927.487	5022.14
927.796	4992.09
928.106	4946.89
928.416	4952.77
928.725	4982.14
929.034	4934.91
929.344	4929.04
929.653	4897.4
929.962	4871.64
930.271	4839.1
930.581	4752.09
930.89	4753
931.199	4808.14
931.508	4765.65
931.817	4808.14
932.125	4709.61
932.434	4710.74
932.743	4681.59
933.051	4630.97
933.36	4647.91
933.669	4591.19
933.977	4564.3
934.286	4558.43
934.594	4571.76
934.902	4535.15
935.21	4497.86
935.519	4505.77
935.827	4518.65
936.135	4485.66
936.443	4445.43
936.751	4389.16
937.059	4430.75
937.367	4338.32
937.674	4380.35
937.982	4394.36
938.29	4327.7
938.597	4334.48
938.905	4284.31
939.213	4248.83
939.52	4277.53
939.827	4202.5
940.135	4262.16
940.442	4204.76
940.749	4214.93
941.056	4214.71
941.363	4156.4
941.67	4139.45
941.977	4118.89
942.284	4089.51
942.591	4074.82
942.898	4075.95
943.205	4141.71
943.511	4048.16
943.818	4010.19
944.125	3991.43
944.431	3970.42
944.738	3988.95
945.044	3959.12
945.35	3946.92
945.657	3926.13
945.963	3939.23
946.269	3895.62
946.575	3915.05
946.881	3872.34
947.187	3836.41
947.493	3813.59
947.799	3790.31
948.105	3813.36
948.41	3741.95
948.716	3741.05
949.022	3726.58
949.327	3735.17
949.633	3644.78
949.938	3684.32
950.244	3709.86
950.549	3637.77
950.854	3645.91
951.16	3649.75
951.465	3590.09
951.77	3572.69
952.075	3579.24
952.38	3559.81
952.685	3576.53
952.99	3546.93
953.294	3523.88
953.599	3490.2
953.904	3504.22
954.209	3485.01
954.513	3486.36
954.818	3454.05
955.122	3418.12
955.426	3434.61
955.731	3384.9
956.035	3398.91
956.339	3403.43
956.643	3366.14
956.948	3362.3
957.252	3358.46
957.556	3341.06
957.86	3292.7
958.163	3290.21
958.467	3296.31
958.771	3271
959.075	3260.15
959.378	3228.74
959.682	3233.71
959.985	3196.2
960.289	3199.14
960.592	3166.82
960.896	3180.61
961.199	3166.82
961.502	3117.79
961.805	3147.61
962.108	3134.73
962.411	3059.48
962.714	3050.67
963.017	3078.92
963.32	3071.46
963.623	3033.27
963.926	3061.52
964.228	3066.49
964.531	2989.88
964.833	2995.3
965.136	2946.94
965.438	2946.04
965.741	2969.77
966.043	2912.82
966.345	2973.38
966.648	2924.12
966.95	2866.72
967.252	2893.16
967.554	2887.51
967.856	2861.29
968.158	2845.93
968.46	2819.49
968.761	2814.52
969.063	2830.79
969.365	2822.43
969.666	2819.26
969.968	2785.36
970.269	2781.3
970.571	2761.41
970.872	2752.6
971.174	2777
971.475	2732.48
971.776	2712.6
972.077	2725.03
972.378	2685.48
972.679	2687.29
972.98	2665.59
973.281	2624.24
973.582	2650.45
973.883	2634.86
974.183	2612.49
974.484	2604.35
974.785	2611.81
975.085	2616.78
975.386	2605.93
975.686	2530.46
975.986	2556.22
976.287	2562.09
976.587	2525.03
976.887	2531.13
977.187	2514.86
977.487	2487.97
977.787	2480.74
978.087	2462.89
978.387	2502.89
978.687	2490.46
978.987	2452.04
979.286	2434.41
979.586	2416.56
979.885	2416.11
980.185	2396.67
980.484	2419.05
980.784	2413.17
981.083	2353.06
981.382	2382.89
981.682	2375.88
981.981	2335.21
982.28	2347.18
982.579	2331.82
982.878	2323.68
983.177	2322.33
983.475	2313.06
983.774	2300.86
984.073	2246.4
984.372	2248.88
984.67	2230.58
984.969	2287.52
985.267	2245.27
985.566	2233.29
985.864	2219.05
986.162	2212.27
986.461	2194.65
986.759	2178.83
987.057	2157.13
987.355	2147.64
987.653	2144.03
987.951	2172.73
988.249	2182.89
988.547	2159.39
988.844	2112.61
989.142	2112.39
989.44	2074.42
989.737	2102.67
990.035	2035.1
990.332	2076.68
990.63	2094.99
990.927	2026.29
991.224	2014.76
991.521	2069.23
991.819	2005.95
992.116	2006.85
992.413	2019.28
992.71	1994.65
993.006	2000.75
993.303	1977.48
993.6	1994.2
993.897	1956.23
994.193	1919.17
994.49	1932.51
994.787	1916.01
995.083	1930.47
995.379	1906.07
995.676	1887.99
995.972	1916.01
996.268	1899.29
996.565	1881.21
996.861	1876.24
997.157	1902
997.453	1881.43
997.749	1872.17
998.044	1853.64
998.34	1864.03
998.636	1810.93
998.932	1820.42
999.227	1822
999.523	1838.04
999.818	1813.19
1000.114	1761.44
1000.409	1777.03
1000.704	1748.33
1001	1781.55
1001.295	1737.03
1001.59	1718.5
1001.885	1715.11
1002.18	1718.5
1002.475	1722.12
1002.77	1695
1003.065	1684.15
1003.359	1675.56
1003.654	1658.84
1003.949	1664.04
1004.243	1690.48
1004.538	1643.47
1004.832	1630.14
1005.127	1634.21
1005.421	1634.66
1005.715	1644.83
1006.009	1616.81
1006.304	1644.38
1006.598	1568.45
1006.892	1562.57
1007.186	1598.05
1007.48	1560.54
1007.773	1551.05
1008.067	1560.31
1008.361	1551.72
1008.655	1537.26
1008.948	1540.88
1009.242	1534.32
1009.535	1507.43
1009.829	1523.25
1010.122	1483.93
1010.415	1479.18
1010.708	1478.05
1011.001	1480.31
1011.295	1453.65
1011.588	1419.07
1011.881	1446.64
1012.173	1442.12
1012.466	1442.12
1012.759	1416.81
1013.052	1425.63
1013.344	1414.33
1013.637	1402.35
1013.93	1399.64
1014.222	1398.73
1014.514	1388.79
1014.807	1372.97
1015.099	1324.61
1015.391	1347.44
1015.683	1357.15
1015.976	1321.22
1016.268	1335.23
1016.56	1325.06
1016.851	1300.21
1017.143	1285.07
1017.435	1288.68
1017.727	1296.59
1018.018	1297.49
1018.31	1255.91
1018.602	1243.26
1018.893	1257.04
1019.185	1244.84
1019.476	1257.27
1019.767	1214.33
1020.058	1235.35
1020.35	1243.71
1020.641	1187.67
1020.932	1216.37
1021.223	1173.88
1021.514	1212.3
1021.804	1198.97
1022.095	1184.73
1022.386	1161
1022.677	1164.39
1022.967	1152.19
1023.258	1118.06
1023.548	1130.04
1023.839	1134.33
1024.129	1125.07
1024.419	1118.06
1024.709	1099.08
1025	1114.22
1025.29	1098.18
1025.58	1103.6
1025.87	1089.36
1026.16	1083.26
1026.449	1076.71
1026.739	1066.31
1027.029	1074.9
1027.319	1049.14
1027.608	1046.65
1027.898	1033.09
1028.187	1036.71
1028.477	1039.2
1028.766	1033.55
1029.055	985.19
1029.344	1025.64
1029.634	1018.41
1029.923	1004.39
1030.212	991.06
1030.501	998.74
1030.79	986.99
1031.078	960.1
1031.367	960.55
1031.656	952.87
1031.945	963.72
1032.233	954.23
1032.522	945.19
1032.81	949.93
1033.099	918.97
1033.387	918.3
1033.675	917.62
1033.963	905.19
1034.251	924.62
1034.54	905.64
1034.828	897.5
1035.116	878.3
1035.403	887.34
1035.691	896.83
1035.979	874
1036.267	877.17
1036.554	878.52
1036.842	868.58
1037.129	862.7
1037.417	844.62
1037.704	842.82
1037.992	861.8
1038.279	839.43
1038.566	825.42
1038.853	825.42
1039.14	825.42
