Data from hue_210_FLMS001491_00009.txt Node
Date: Tue Feb 07 16:40:41 GMT 2017
User: dcchb
Spectrometer: FLMS00149
Trigger mode: 0
Integration Time (sec): 2.000000E-2
Scans to average: 10
Electric dark correction enabled: true
Nonlinearity correction enabled: false
Boxcar width: 0
XAxis mode: Wavelengths
Number of Pixels in Spectrum: 2048
>>>>>Begin Spectral Data<<<<<
341.393	-10.82
341.776	-10.82
342.16	-10.82
342.543	-54.89
342.927	-76.13
343.31	-84.26
343.693	-72.29
344.077	-63.7
344.46	-58.95
344.843	-63.47
345.226	-47.43
345.61	-27.32
345.993	-3.81
346.376	-20.31
346.759	0.25
347.142	26.47
347.525	48.61
347.908	63.3
348.291	91.33
348.674	84.55
349.057	127.03
349.44	133.13
349.823	157.31
350.206	159.12
350.588	169.29
350.971	200.93
351.354	208.61
351.737	228.5
352.119	230.3
352.502	257.87
352.884	277.99
353.267	265.56
353.65	292.9
354.032	288.38
354.414	309.17
354.797	324.54
355.179	332.67
355.562	332.22
355.944	316.63
356.326	331.09
356.709	337.87
357.091	319.79
357.473	329.96
357.855	327.48
358.238	334.48
358.62	327.25
359.002	326.8
359.384	339.68
359.766	324.31
360.148	335.84
360.53	348.49
360.912	339
361.294	340.13
361.676	331.77
362.057	316.18
362.439	318.21
362.821	333.8
363.203	348.95
363.584	318.66
363.966	303.3
364.348	320.7
364.729	325.22
365.111	343.75
365.493	319.57
365.874	315.73
366.256	313.24
366.637	294.03
367.019	292.9
367.4	306.23
367.781	304.88
368.163	319.34
368.544	295.61
368.925	309.85
369.306	292.68
369.688	323.86
370.069	296.07
370.45	289.51
370.831	281.38
371.212	314.37
371.593	330.64
371.974	314.14
372.355	308.49
372.736	314.37
373.117	309.4
373.498	321.15
373.879	335.16
374.26	315.05
374.641	331.09
375.021	317.53
375.402	322.05
375.783	332
376.163	332.22
376.544	327.48
376.925	323.86
377.305	327.7
377.686	335.39
378.066	322.05
378.447	336.97
378.827	331.32
379.208	325.44
379.588	344.65
379.968	323.64
380.349	337.87
380.729	328.16
381.109	329.51
381.489	332
381.87	318.66
382.25	340.81
382.63	343.3
383.01	355.27
383.39	359.34
383.77	335.16
384.15	332.67
384.53	327.48
384.91	337.19
385.29	324.54
385.67	355.73
386.049	339.68
386.429	347.59
386.809	359.11
387.189	347.14
387.568	346.46
387.948	353.47
388.328	341.26
388.707	369.51
389.087	355.05
389.466	355.27
389.846	363.41
390.225	372.45
390.605	366.57
390.984	362.5
391.363	362.96
391.743	385.1
392.122	384.2
392.501	390.98
392.881	356.86
393.26	371.32
393.639	381.49
394.018	380.81
394.397	386.68
394.776	393.24
395.155	395.27
395.534	400.7
395.913	389.4
396.292	377.65
396.671	400.47
397.05	394.59
397.429	382.17
397.808	400.92
398.186	397.98
398.565	402.5
398.944	386.46
399.323	418.1
399.701	411.77
400.08	404.54
400.458	414.03
400.837	423.97
401.215	425.55
401.594	430.98
401.972	431.66
402.351	422.62
402.729	420.81
403.107	437.08
403.486	430.3
403.864	428.94
404.242	445.44
404.62	419.45
404.999	444.99
405.377	434.14
405.755	442.5
406.133	478.66
406.511	450.41
406.889	449.73
407.267	487.7
407.645	492.9
408.023	497.87
408.401	500.81
408.779	489.96
409.156	488.6
409.534	513.69
409.912	518.66
410.29	541.48
410.667	523.63
411.045	546.68
411.422	549.17
411.8	575.83
412.178	555.49
412.555	585.55
412.933	583.06
413.31	592.78
413.687	597.98
414.065	597.98
414.442	618.54
414.819	626
415.197	660.8
415.574	630.97
415.951	658.09
416.328	670.52
416.705	691.99
417.082	675.04
417.46	681.37
417.837	678.2
418.214	717.98
418.591	700.57
418.967	720.01
419.344	727.69
419.721	742.16
420.098	758.65
420.475	749.16
420.852	782.15
421.228	786
421.605	797.97
421.982	806.56
422.358	815.37
422.735	827.13
423.111	855.15
423.488	868.25
423.864	912.77
424.241	894.92
424.617	915.48
424.994	927.91
425.37	952.55
425.746	951.87
426.123	930.4
426.499	987.57
426.875	992.77
427.251	990.06
427.627	1012.21
428.003	1047.23
428.379	1061.02
428.756	1070.51
429.132	1070.06
429.507	1085.42
429.883	1125.87
430.259	1103.73
430.635	1133.11
431.011	1131.52
431.387	1179.88
431.763	1191.41
432.138	1207
432.514	1200.9
432.89	1206.55
433.265	1262.59
433.641	1277.51
434.016	1284.29
434.392	1312.31
434.767	1351.63
435.143	1360.22
435.518	1413.32
435.894	1398.18
436.269	1428.92
436.644	1460.78
437.02	1473.89
437.395	1531.06
437.77	1520.89
438.145	1542.36
438.52	1596.14
438.895	1611.51
439.271	1649.02
439.646	1652.19
440.021	1707.1
440.395	1699.87
440.77	1687.89
441.145	1715.92
441.52	1785.74
441.895	1754.33
442.27	1795.69
442.645	1828.68
443.019	1839.08
443.394	1891.96
443.769	1861.45
444.143	1877.04
444.518	1886.53
444.892	1904.61
445.267	1913.88
445.641	1971.5
446.016	1963.37
446.39	1995.23
446.764	2012.18
447.139	1999.3
447.513	2065.96
447.887	2045.62
448.262	2059.86
448.636	2063.02
449.01	2091.27
449.384	2122.68
449.758	2122.01
450.132	2164.94
450.506	2157.49
450.88	2161.33
451.254	2150.25
451.628	2266.64
452.002	2251.95
452.376	2260.31
452.75	2312.28
453.123	2300.31
453.497	2352.73
453.871	2354.77
454.244	2399.06
454.618	2413.52
454.992	2469.12
455.365	2434.99
455.739	2526.29
456.112	2498.95
456.486	2577.14
456.859	2549.79
457.232	2597.93
457.606	2595.21
457.979	2619.85
458.352	2675.66
458.725	2713.63
459.099	2740.3
459.472	2759.5
459.845	2800.63
460.218	2810.12
460.591	2865.26
460.964	2876.79
461.337	2929.67
461.71	2961.53
462.083	3009.67
462.456	3042.89
462.829	3038.82
463.201	3093.73
463.574	3093.05
463.947	3131.92
464.32	3190
464.692	3274.29
465.065	3271.81
465.438	3287.17
465.81	3350
466.183	3377.57
466.555	3429.09
466.928	3430.9
467.3	3478.13
467.672	3527.39
468.045	3605.13
468.417	3579.37
468.789	3602.65
469.161	3661.63
469.534	3682.42
469.906	3805.13
470.278	3832.7
470.65	3861.4
471.022	3937.1
471.394	4009.87
471.766	3997.21
472.138	4036.53
472.51	4139.58
472.882	4147.72
473.253	4215.74
473.625	4275.17
473.997	4389.74
474.369	4358.33
474.74	4411.66
475.112	4504.77
475.484	4571.89
475.855	4635.61
476.227	4661.83
476.598	4794.93
476.97	4802.39
477.341	4925.1
477.713	4983.4
478.084	4964.87
478.455	5129.16
478.827	5107.69
479.198	5269.04
479.569	5263.17
479.94	5370.51
480.311	5403.73
480.682	5558.75
481.053	5655.92
481.424	5720.78
481.795	5729.6
482.166	5874
482.537	5954
482.908	6013.43
483.279	6030.83
483.65	6129.36
484.021	6297.94
484.391	6342.69
484.762	6320.09
485.133	6409.35
485.503	6481.89
485.874	6615.9
486.244	6631.94
486.615	6796.01
486.985	6825.61
487.356	6939.96
487.726	6986.74
488.097	7056.79
488.467	7099.05
488.837	7220.18
489.207	7351.02
489.578	7336.56
489.948	7463.33
490.318	7590.11
490.688	7568.19
491.058	7655.87
491.428	7739.49
491.798	7847.05
492.168	7997.78
492.538	7994.39
492.908	8036.88
493.278	8128.85
493.648	8199.59
494.017	8239.13
494.387	8227.83
494.757	8374.05
495.126	8379.92
495.496	8405
495.866	8418.79
496.235	8475.06
496.605	8623.08
496.974	8652.23
497.344	8665.11
497.713	8774.26
498.082	8793.92
498.452	8839.57
498.821	8847.48
499.19	8845.9
499.559	8925.22
499.928	8954.82
500.298	8941.04
500.667	9067.36
501.036	9039.79
501.405	9096.74
501.774	9059.23
502.143	9146.68
502.512	9171.76
502.88	9167.7
503.249	9250.18
503.618	9240.46
503.987	9260.8
504.356	9323.85
504.724	9320.69
505.093	9390.74
505.462	9342.83
505.83	9510.06
506.199	9403.85
506.567	9602.49
506.936	9558.65
507.304	9613.33
507.672	9628.48
508.041	9658.76
508.409	9697.17
508.777	9760.45
509.145	9752.09
509.514	9687.23
509.882	9718.64
510.25	9751.86
510.618	9795.93
510.986	9803.16
511.354	9853.78
511.722	9899.43
512.09	9900.78
512.458	9898.98
512.826	9927.68
513.193	9900.56
513.561	9952.76
513.929	9984.4
514.297	10085.19
514.664	10087.22
515.032	10111.63
515.4	10044.28
515.767	10166.31
516.135	10098.52
516.502	10026.66
516.869	10185.98
517.237	10210.16
517.604	10116.82
517.972	10123.38
518.339	10181.68
518.706	10192.98
519.073	10148.91
519.44	10156.82
519.808	10175.58
520.175	10239.31
520.542	10280.89
520.909	10247.67
521.276	10241.34
521.643	10270.49
522.009	10294.22
522.376	10395.91
522.743	10315.46
523.11	10408.57
523.477	10319.98
523.843	10457.61
524.21	10453.99
524.577	10434.1
524.943	10517.49
525.31	10437.27
525.676	10456.93
526.043	10606.53
526.409	10548
526.776	10548.68
527.142	10559.07
527.508	10503.25
527.874	10544.61
528.241	10528.11
528.607	10569.47
528.973	10552.29
529.339	10472.3
529.705	10553.42
530.071	10543.48
530.437	10563.37
530.803	10567.21
531.169	10559.75
531.535	10506.42
531.901	10497.61
532.267	10477.27
532.632	10534.67
532.998	10475.91
533.364	10518.17
533.73	10471.39
534.095	10515.01
534.461	10410.15
534.826	10420.09
535.192	10413.77
535.557	10501
535.923	10388.46
536.288	10413.99
536.653	10291.96
537.019	10312.53
537.384	10284.28
537.749	10221
538.114	10239.08
538.479	10189.82
538.845	10242.7
539.21	10130.38
539.575	10155.24
539.94	10124.51
540.305	10158.63
540.67	10060.55
541.034	10096.94
541.399	10075.92
541.764	9972.2
542.129	9982.36
542.494	9952.31
542.858	9931.74
543.223	9905.76
543.587	9964.51
543.952	9877.73
544.316	9830.96
544.681	9781.69
545.045	9813.1
545.41	9757.06
545.774	9802.71
546.138	9747.34
546.503	9699.21
546.867	9684.75
547.231	9687.68
547.595	9652.43
547.959	9580.12
548.324	9572.43
548.688	9515.03
549.052	9512.09
549.416	9518.42
549.779	9409.27
550.143	9440.46
550.507	9473.45
550.871	9404.3
551.235	9338.31
551.599	9375.15
551.962	9306.22
552.326	9310.74
552.689	9222.61
553.053	9274.36
553.417	9184.19
553.78	9258.77
554.143	9145.78
554.507	9200.24
554.87	9207.02
555.234	9214.7
555.597	9189.62
555.96	9062.16
556.323	9136.51
556.686	9057.87
557.05	9084.31
557.413	9103.29
557.776	9064.65
558.139	9146.68
558.502	9032.33
558.865	8978.78
559.228	9104.42
559.59	9045.89
559.953	8993.69
560.316	9102.61
560.679	9067.13
561.041	9073.01
561.404	9040.24
561.767	9086.79
562.129	9005.22
562.492	9050.86
562.854	9065.78
563.217	9021.03
563.579	8989.4
563.941	8950.08
564.304	9086.34
564.666	9019.68
565.028	8967.93
565.39	9088.38
565.753	9151.88
566.115	9110.3
566.477	9122.5
566.839	9119.34
567.201	9155.72
567.563	9130.64
567.925	9136.06
568.287	9195.27
568.648	9136.96
569.01	9132.22
569.372	9214.25
569.734	9161.6
570.095	9205.66
570.457	9232.55
570.819	9170.18
571.18	9176.74
571.542	9258.99
571.903	9252.67
572.265	9236.62
572.626	9362.04
572.987	9226.68
573.349	9270.97
573.71	9322.95
574.071	9229.16
574.432	9333.34
574.794	9374.25
575.155	9321.59
575.516	9269.84
575.877	9281.59
576.238	9379.44
576.599	9428.48
576.96	9385.32
577.32	9415.37
577.681	9410.63
578.042	9416.96
578.403	9411.08
578.763	9475.94
579.124	9432.1
579.485	9504.64
579.845	9541.25
580.206	9477.97
580.566	9515.26
580.927	9502.83
581.287	9538.31
581.648	9513.68
582.008	9593.67
582.368	9541.02
582.728	9537.63
583.089	9624.86
583.449	9558.42
583.809	9577.18
584.169	9653.56
584.529	9656.27
584.889	9607.23
585.249	9531.3
585.609	9489.72
585.969	9568.59
586.329	9654.24
586.688	9569.72
587.048	9608.59
587.408	9598.42
587.768	9635.71
588.127	9638.42
588.487	9604.07
588.846	9702.37
589.206	9600.91
589.565	9635.26
589.925	9642.71
590.284	9702.37
590.643	9671.19
591.003	9672.99
591.362	9727.91
591.721	9722.48
592.08	9705.76
592.44	9751.41
592.799	9737.85
593.158	9721.13
593.517	9762.26
593.876	9712.54
594.235	9668.93
594.593	9741.24
594.952	9724.29
595.311	9700.79
595.67	9718.64
596.029	9819.43
596.387	9802.93
596.746	9792.54
597.104	9686.55
597.463	9734.01
597.822	9746.21
598.18	9759.55
598.538	9737.85
598.897	9805.42
599.255	9655.14
599.613	9877.51
599.972	9765.42
600.33	9821.69
600.688	9761.13
601.046	9775.59
601.404	9877.28
601.762	9781.92
602.12	9828.7
602.478	9882.03
602.836	9894.91
603.194	9765.42
603.552	9800.9
603.91	9746.44
604.268	9865.08
604.625	9802.48
604.983	9822.59
605.341	9819.21
605.698	9838.19
606.056	9921.8
606.413	9786.21
606.771	9854.23
607.128	9903.04
607.485	9884.06
607.843	9854.01
608.2	9935.36
608.557	9897.4
608.914	9955.25
609.272	9943.27
609.629	9928.81
609.986	9959.77
610.343	9936.72
610.7	9967.68
611.057	9923.84
611.414	9934
611.771	9954.79
612.127	10037.5
612.484	9990.05
612.841	10028.47
613.198	9907.34
613.554	9985.3
613.911	10025.3
614.267	10021.46
614.624	10041.57
614.98	10046.09
615.337	10063.72
615.693	10075.47
616.05	9984.17
616.406	10091.29
616.762	9972.65
617.118	10062.81
617.475	10021.23
617.831	10092.87
618.187	10079.99
618.543	10090.16
618.899	10121.57
619.255	10110.04
619.611	10140.55
619.967	10223.71
620.323	10143.49
620.678	10086.09
621.034	10049.03
621.39	10140.1
621.746	10167.9
622.101	10155.02
622.457	10148.24
622.812	10147.11
623.168	10192.98
623.523	10165.18
623.879	10169.25
624.234	10143.49
624.589	10142.36
624.945	10156.15
625.3	10146.2
625.655	10104.62
626.01	10129.93
626.365	10149.59
626.72	10051.97
627.075	10117.05
627.43	10057.84
627.785	10109.59
628.14	10113.66
628.495	10129.25
628.85	10124.73
629.205	10150.04
629.559	10128.12
629.914	10041.57
630.269	10088.8
630.623	10064.4
630.978	10016.49
631.332	10098.07
631.687	10101.46
632.041	10043.38
632.396	10016.26
632.75	9973.55
633.104	9908.02
633.459	10019.43
633.813	9921.58
634.167	9969.71
634.521	9952.08
634.875	9984.62
635.229	9924.29
635.583	9824.63
635.937	9873.89
636.291	9899.88
636.645	9879.32
636.999	9798.41
637.352	9854.01
637.706	9829.83
638.06	9860.79
638.413	9683.39
638.767	9770.84
639.121	9745.99
639.474	9771.52
639.828	9688.14
640.181	9726.33
640.534	9703.28
640.888	9733.78
641.241	9649.04
641.594	9752.54
641.947	9758.19
642.301	9652.66
642.654	9676.38
643.007	9668.25
643.36	9682.03
643.713	9659.44
644.066	9675.25
644.419	9668.93
644.771	9561.36
645.124	9459.89
645.477	9452.66
645.83	9393.23
646.182	9411.08
646.535	9347.35
646.888	9383.28
647.24	9315.94
647.593	9326.34
647.945	9291.31
648.298	9310.97
648.65	9273.91
649.002	9257.19
649.355	9291.99
649.707	9288.37
650.059	9437.52
650.411	9504.64
650.763	9521.59
651.115	9514.81
651.467	9487.91
651.819	9576.05
652.171	9560.91
652.523	9525.65
652.875	9547.57
653.227	9536.27
653.578	9521.13
653.93	9469.16
654.282	9475.94
654.633	9439.33
654.985	9482.04
655.337	9528.14
655.688	9494.69
656.039	9548.7
656.391	9507.12
656.742	9501.02
657.094	9487.24
657.445	9578.53
657.796	9508.48
658.147	9524.52
658.498	9454.69
658.849	9530.63
659.2	9544.18
659.551	9553.9
659.902	9584.41
660.253	9472.55
660.604	9554.13
660.955	9472.1
661.306	9561.81
661.656	9514.58
662.007	9595.93
662.358	9559.1
662.708	9567.91
663.059	9542.6
663.409	9502.83
663.76	9584.18
664.11	9608.14
664.461	9580.79
664.811	9549.16
665.161	9578.53
665.511	9523.17
665.862	9559.32
666.212	9600.23
666.562	9470.97
666.912	9592.32
667.262	9647.01
667.612	9567.69
667.962	9618.98
668.312	9587.35
668.662	9559.32
669.011	9573.79
669.361	9551.64
669.711	9489.5
670.06	9508.93
670.41	9497.63
670.76	9502.15
671.109	9555.71
671.459	9502.6
671.808	9507.12
672.157	9542.6
672.507	9418.76
672.856	9415.6
673.205	9482.04
673.554	9536.27
673.904	9433.9
674.253	9545.77
674.602	9460.12
674.951	9350.97
675.3	9277.98
675.649	9484.98
675.998	9436.62
676.346	9424.19
676.695	9473.68
677.044	9437.52
677.393	9338.77
677.741	9419.67
678.09	9323.85
678.438	9307.81
678.787	9272.78
679.135	9413.57
679.484	9329.95
679.832	9320.46
680.181	9284.08
680.529	9279.11
680.877	9214.7
681.225	9206.57
681.573	9374.92
681.922	9235.49
682.27	9114.59
682.618	9176.06
682.966	9167.92
683.314	9222.84
683.661	9152.1
684.009	9080.24
684.357	9075.04
684.705	9069.17
685.053	9109.85
685.4	9042.73
685.748	9011.09
686.095	8941.04
686.443	8902.39
686.79	8929.74
687.138	8910.98
687.485	8974.03
687.832	8889.06
688.18	8914.37
688.527	8791.21
688.874	8837.54
689.221	8802.96
689.568	8769.06
689.915	8715.51
690.262	8757.31
690.609	8732.23
690.956	8651.78
691.303	8702.62
691.65	8603.19
691.997	8608.16
692.344	8623.3
692.69	8526.58
693.037	8529.75
693.383	8466.47
693.73	8478.22
694.077	8487.26
694.423	8378.57
694.769	8393.71
695.116	8324.1
695.462	8313.48
695.808	8288.4
696.155	8301.96
696.501	8266.48
696.847	8203.43
697.193	8134.5
697.539	8193.71
697.885	8118.23
698.231	8094.5
698.577	8054.05
698.923	8134.5
699.269	8055.64
699.614	8052.47
699.96	7956.66
700.306	7908.75
700.651	7906.94
700.997	7866.94
701.342	7829.43
701.688	7824.46
702.033	7768.19
702.379	7798.69
702.724	7764.8
703.069	7732.25
703.415	7668.08
703.76	7655.42
704.105	7659.94
704.45	7626.95
704.795	7648.41
705.14	7584.46
705.485	7531.36
705.83	7539.04
706.175	7531.58
706.52	7518.93
706.865	7452.94
707.209	7433.28
707.554	7379.5
707.899	7393.28
708.243	7338.14
708.588	7315.77
708.932	7349.21
709.277	7327.52
709.621	7304.02
709.966	7230.57
710.31	7265.37
710.654	7176.56
710.998	7205.71
711.342	7240.97
711.687	7129.33
712.031	7086.4
712.375	7113.74
712.719	7130.69
713.063	7128.2
713.407	7109.45
713.75	7137.02
714.094	7056.34
714.438	7026.06
714.782	7063.12
715.125	7040.07
715.469	7002.78
715.812	6991.26
716.156	6949
716.499	6976.34
716.843	6909.9
717.186	6887.98
717.53	7009.34
717.873	6963.69
718.216	6944.48
718.559	6964.36
718.902	6890.69
719.246	6817.25
719.589	6793.97
719.932	6846.63
720.275	6831.04
720.617	6813.63
720.96	6839.85
721.303	6850.92
721.646	6848.66
721.989	6761.66
722.331	6785.61
722.674	6718.95
723.016	6777.93
723.359	6719.4
723.701	6766.18
724.044	6703.81
724.386	6685.5
724.729	6767.76
725.071	6738.83
725.413	6762.34
725.755	6732.51
726.097	6659.06
726.439	6678.04
726.782	6718.27
727.124	6663.36
727.465	6648.67
727.807	6655.45
728.149	6628.78
728.491	6621.78
728.833	6627.65
729.175	6600.31
729.516	6616.8
729.858	6592.62
730.199	6639.85
730.541	6646.63
730.882	6669.46
731.224	6690.25
731.565	6638.5
731.906	6646.18
732.248	6578.16
732.589	6597.14
732.93	6577.48
733.271	6633.53
733.612	6570.48
733.953	6656.35
734.294	6598.95
734.635	6637.82
734.976	6604.6
735.317	6605.96
735.658	6629.23
735.999	6607.99
736.339	6648.67
736.68	6657.93
737.021	6632.17
737.361	6636.46
737.702	6683.92
738.042	6632.62
738.383	6629.91
738.723	6697.48
739.063	6709.46
739.404	6696.58
739.744	6741.55
740.084	6663.58
740.424	6768.66
740.764	6718.27
741.104	6716.69
741.444	6696.58
741.784	6752.62
742.124	6779.51
742.464	6769.79
742.804	6800.98
743.143	6801.66
743.483	6800.53
743.823	6823.58
744.162	6918.04
744.502	6865.16
744.841	6928.66
745.181	7017.47
745.52	6949
745.86	7000.75
746.199	7064.25
746.538	7033.52
746.877	7065.83
747.216	7132.27
747.556	7200.97
747.895	7234.41
748.234	7256.56
748.573	7277.8
748.911	7397.12
749.25	7378.37
749.589	7459.72
749.928	7560.51
750.267	7593.5
750.605	7638.7
750.944	7651.8
751.283	7798.69
751.621	7873.95
751.96	7869.2
752.298	7988.29
752.636	8112.36
752.975	8244.11
753.313	8256.31
753.651	8430.77
753.989	8490.2
754.327	8623.98
754.666	8668.05
755.004	8830.76
755.342	8983.75
755.679	9087.7
756.017	9225.1
756.355	9383.28
756.693	9489.27
757.031	9638.42
757.368	9776.72
757.706	9944.63
758.044	10083.83
758.381	10242.47
758.719	10292.64
759.056	10522.01
759.394	10692.18
759.731	10843.81
760.068	10965.39
760.405	11132.16
760.743	11290.58
761.08	11534.87
761.417	11613.96
761.754	11830
762.091	11991.58
762.428	12250.33
762.765	12369.87
763.102	12572.58
763.438	12647.15
763.775	12842.18
764.112	13114.94
764.449	13216.63
764.785	13359.9
765.122	13514.02
765.458	13707.92
765.795	13867.01
766.131	14080.56
766.467	14158.98
766.804	14345.41
767.14	14494.34
767.476	14664.05
767.812	14769.13
768.148	14934.55
768.485	15064.94
768.821	15194.66
769.157	15442.11
769.492	15337.25
769.828	15556.68
770.164	15676.68
770.5	15812.27
770.836	15972.94
771.171	16043.9
771.507	16141.52
771.842	16241.41
772.178	16435.53
772.513	16419.94
772.849	16614.73
773.184	16677.56
773.519	16828.74
773.855	16871.45
774.19	16885.23
774.525	17013.14
774.86	17130.2
775.195	17079.58
775.53	17246.13
775.865	17315.73
776.2	17306.92
776.535	17322.06
776.87	17423.98
777.205	17494.26
777.539	17456.74
777.874	17704.42
778.209	17602.28
778.543	17643.63
778.878	17640.02
779.212	17809.73
779.547	17790.52
779.881	17885.66
780.215	17869.84
780.55	18034.58
780.884	17944.64
781.218	18018.99
781.552	17967.69
781.886	17953
782.22	17899.44
782.554	17949.84
782.888	17953.68
783.222	17817.19
783.556	17840.92
783.889	17920.01
784.223	17828.49
784.557	17902.61
784.89	17926.79
785.224	17908.48
785.557	17874.36
785.891	17833.91
786.224	17885.43
786.558	17921.82
786.891	17867.58
787.224	17830.29
787.557	17830.97
787.891	17769.5
788.224	17887.69
788.557	17844.08
788.89	17818.77
789.223	17779.22
789.556	17748.49
789.888	17750.3
790.221	17707.81
790.554	17619.9
790.887	17656.06
791.219	17540.13
791.552	17661.03
791.884	17557.76
792.217	17558.44
792.549	17486.12
792.882	17412.23
793.214	17364.32
793.546	17402.06
793.879	17318.44
794.211	17234.15
794.543	17380.81
794.875	17232.57
795.207	17374.03
795.539	17269.18
795.871	17237.99
796.203	17117.32
796.535	17115.51
796.867	17169.97
797.198	17036.19
797.53	17061.27
797.862	16960.71
798.193	17019.02
798.525	16895.4
798.856	16889.08
799.188	16812.92
799.519	16691.79
799.85	16602.53
800.182	16683.88
800.513	16698.57
800.844	16519.37
801.175	16673.71
801.506	16587.16
801.837	16499.03
802.168	16469.65
802.499	16499.71
802.83	16363.89
803.161	16385.13
803.491	16324.57
803.822	16340.84
804.153	16341.97
804.483	16200.51
804.814	16213.39
805.145	16111.7
805.475	16160.51
805.805	16187.63
806.136	16046.39
806.466	16141.98
806.796	16062.66
807.126	15944.02
807.457	15972.26
807.787	15861.76
808.117	15919.16
808.447	15803.68
808.777	15880.06
809.107	15826.05
809.436	15665.38
809.766	15724.13
810.096	15639.39
810.426	15581.99
810.755	15634.65
811.085	15652.95
811.414	15603.91
811.744	15517.13
812.073	15431.03
812.403	15356.69
812.732	15361.21
813.061	15419.74
813.39	15344.48
813.719	15313.52
814.049	15424.03
814.378	15209.8
814.707	15245.05
815.036	15197.14
815.365	15211.83
815.693	15109.24
816.022	15193.53
816.351	15047.77
816.68	15033.31
817.008	15037.82
817.337	14927.09
817.665	14874.44
817.994	15000.31
818.322	14875.12
818.651	14921.44
818.979	14761.22
819.307	14952.86
819.636	14814.55
819.964	14705.63
820.292	14824.5
820.62	14836.7
820.948	14729.81
821.276	14812.07
821.604	14742.69
821.932	14782.24
822.259	14805.97
822.587	14770.49
822.915	14674.22
823.243	14780.2
823.57	14738.62
823.898	14703.37
824.225	14726.19
824.553	14749.47
824.88	14765.52
825.207	14733.65
825.535	14792.86
825.862	14693.88
826.189	14714.67
826.516	14855.68
826.843	14829.24
827.17	14807.77
827.497	14749.92
827.824	14802.35
828.151	14806.64
828.478	14786.31
828.805	14914.44
829.131	14737.72
829.458	14834.67
829.785	14673.31
830.111	14734.1
830.438	14829.47
830.764	14828.79
831.09	14784.05
831.417	14771.39
831.743	14791.05
832.069	14769.13
832.395	14755.12
832.722	14707.89
833.048	14691.85
833.374	14699.3
833.7	14698.85
834.026	14696.82
834.351	14658.63
834.677	14666.31
835.003	14715.8
835.329	14655.69
835.654	14638.97
835.98	14511.29
836.306	14656.14
836.631	14513.54
836.956	14597.84
837.282	14530.27
837.607	14544.5
837.932	14420.89
838.258	14474.9
838.583	14506.99
838.908	14356.03
839.233	14474.22
839.558	14348.58
839.883	14303.83
840.208	14259.09
840.533	14296.83
840.858	14184.51
841.182	14302.48
841.507	14206.66
841.832	14299.31
842.156	14212.54
842.481	14143.61
842.805	14188.36
843.13	14120.56
843.454	14140.22
843.778	14029.26
844.103	13952.43
844.427	13991.75
844.751	13990.39
845.075	13961.92
845.399	13839.44
845.723	13803.51
846.047	13825.43
846.371	13737.29
846.695	13730.06
847.019	13584.98
847.343	13507.02
847.666	13594.02
847.99	13370.98
848.313	13414.36
848.637	13326.01
848.96	13355.16
849.284	13296.4
849.607	13173.69
849.931	13207.59
850.254	13143.86
850.577	12968.05
850.9	12980.48
851.223	12979.57
851.546	12869.97
851.869	12754.95
852.192	12816.87
852.515	12679.02
852.838	12620.94
853.161	12672.24
853.483	12602.63
853.806	12489.42
854.129	12508.63
854.451	12426.14
854.774	12413.71
855.096	12360.16
855.419	12316.09
855.741	12275.41
856.063	12229.76
856.385	12255.98
856.708	12232.02
857.03	12154.96
857.352	12163.55
857.674	12154.28
857.996	11997.23
858.318	11976.89
858.64	11903.9
858.961	11905.7
859.283	11871.81
859.605	11844.46
859.926	11840.85
860.248	11882.65
860.57	11792.71
860.891	11769.66
861.212	11745.26
861.534	11655.54
861.855	11655.54
862.176	11717.91
862.498	11568.31
862.819	11602.44
863.14	11588.65
863.461	11538.71
863.782	11544.13
864.103	11485.6
864.424	11476.56
864.745	11528.76
865.065	11402.67
865.386	11424.36
865.707	11313.18
866.027	11367.19
866.348	11347.3
866.668	11359.5
866.989	11336
867.309	11269.79
867.63	11268.66
867.95	11377.58
868.27	11155.44
868.59	11269.56
868.91	11195.89
869.23	11244.25
869.55	11108.44
869.87	11204.48
870.19	11180.3
870.51	11161.54
870.83	11105.27
871.15	11052.84
871.469	11044.03
871.789	11125.16
872.109	11011.94
872.428	10994.32
872.748	11059.17
873.067	10960.42
873.386	10966.75
873.706	10950.93
874.025	10890.14
874.344	10910.25
874.663	10939.4
874.982	10840.42
875.301	10865.73
875.62	10730.59
875.939	10832.29
876.258	10822.57
876.577	10782.8
876.896	10751.84
877.214	10811.27
877.533	10715.45
877.852	10723.59
878.17	10710.26
878.489	10750.03
878.807	10688.11
879.125	10705.06
879.444	10669.13
879.762	10666.87
880.08	10565.63
880.398	10566.53
880.716	10515.23
881.034	10488.11
881.352	10511.84
881.67	10473.65
881.988	10414.67
882.306	10437.49
882.624	10400.66
882.941	10446.76
883.259	10421.68
883.577	10268.46
883.894	10318.85
884.212	10300.32
884.529	10317.5
884.846	10303.71
885.164	10220.1
885.481	10155.47
885.798	10172.64
886.115	10058.75
886.432	10134.45
886.75	10051.74
887.067	10082.25
887.383	10030.05
887.7	10046.54
888.017	9929.03
888.334	10029.14
888.651	10027.34
888.967	9985.98
889.284	9890.62
889.6	9896.04
889.917	9805.42
890.233	9775.14
890.55	9770.39
890.866	9807.23
891.182	9702.15
891.498	9684.07
891.815	9666.89
892.131	9642.94
892.447	9616.27
892.763	9607.46
893.079	9612.88
893.395	9577.86
893.71	9461.25
894.026	9458.76
894.342	9429.38
894.657	9419.22
894.973	9461.02
895.289	9386.9
895.604	9357.75
895.92	9211.54
896.235	9234.81
896.55	9192.33
896.865	9126.79
897.181	9159.79
897.496	9186.23
897.811	9148.26
898.126	9050.86
898.441	9062.84
898.756	8997.08
899.071	8955.27
899.386	8938.1
899.7	8885.9
900.015	8884.54
900.33	8836.41
900.644	8783.75
900.959	8752.34
901.273	8764.77
901.588	8700.36
901.902	8666.02
902.216	8647.94
902.531	8653.81
902.845	8556.19
903.159	8537.88
903.473	8533.59
903.787	8448.39
904.101	8402.97
904.415	8438.45
904.729	8457.43
905.042	8357.77
905.356	8267.83
905.67	8297.44
905.984	8335.85
906.297	8233.03
906.611	8152.58
906.924	8122.07
907.237	8119.14
907.551	8115.07
907.864	8077.78
908.177	8025.81
908.491	8049.31
908.804	7950.1
909.117	7958.46
909.43	7884.57
909.743	7820.39
910.056	7798.92
910.368	7740.39
910.681	7726.6
910.994	7717.11
911.307	7658.81
911.619	7662.2
911.932	7678.47
912.244	7610.45
912.557	7568.64
912.869	7525.03
913.181	7516.67
913.494	7444.13
913.806	7477.35
914.118	7413.62
914.43	7352.6
914.742	7376.56
915.054	7333.39
915.366	7261.98
915.678	7251.59
915.99	7290.23
916.302	7166.17
916.613	7170.01
916.925	7136.56
917.236	7106.73
917.548	7092.95
917.859	7090.46
918.171	7039.17
918.482	6994.87
918.794	7003.46
919.105	6993.29
919.416	6862.67
919.727	6862.45
920.038	6889.56
920.349	6835.33
920.66	6807.31
920.971	6821.09
921.282	6816.8
921.593	6732.51
921.903	6716.46
922.214	6664.03
922.525	6680.3
922.835	6610.7
923.146	6585.17
923.456	6570.48
923.767	6555.79
924.077	6516.24
924.387	6474.21
924.697	6457.71
925.008	6394.21
925.318	6422.46
925.628	6390.59
925.938	6344.95
926.248	6349.92
926.558	6292.74
926.867	6269.02
927.177	6238.28
927.487	6186.98
927.796	6173.65
928.106	6215.46
928.416	6170.94
928.725	6142.01
929.034	6055.46
929.344	6045.74
929.653	6048.68
929.962	6028.12
930.271	5964.62
930.581	5990.61
930.89	5934.11
931.199	5910.83
931.508	5897.73
931.817	5860.21
932.125	5872.19
932.434	5822.47
932.743	5805.07
933.051	5767.79
933.36	5749.71
933.669	5687.11
933.977	5727.34
934.286	5681.69
934.594	5702.48
934.902	5618.19
935.21	5560.33
935.519	5614.8
935.827	5585.42
936.135	5548.36
936.443	5549.94
936.751	5488.92
937.059	5490.73
937.367	5416.16
937.674	5443.5
937.982	5416.38
938.29	5329.83
938.597	5403.5
938.905	5281.02
939.213	5310.85
939.52	5250.51
939.827	5261.81
940.135	5273.56
940.442	5231.53
940.749	5183.85
941.056	5264.75
941.363	5123.51
941.67	5151.31
941.977	5056.84
942.284	5060.69
942.591	5073.12
942.898	5051.42
943.205	5050.52
943.511	4964.64
943.818	4983.17
944.125	4986.11
944.431	4941.14
944.738	4918.09
945.044	4944.53
945.35	4893.68
945.657	4836.29
945.963	4828.38
946.269	4835.38
946.575	4802.84
946.881	4770.3
947.187	4787.25
947.493	4740.47
947.799	4756.74
948.105	4728.94
948.41	4670.19
948.716	4665.22
949.022	4641.71
949.327	4658.44
949.633	4600.59
949.938	4600.81
950.244	4578.89
950.549	4521.94
950.854	4502.28
951.16	4545.45
951.465	4460.93
951.77	4462.74
952.075	4455.5
952.38	4453.7
952.685	4472.23
952.99	4361.5
953.294	4428.84
953.599	4358.11
953.904	4314.72
954.209	4265.68
954.513	4311.78
954.818	4275.17
955.122	4246.02
955.426	4205.79
955.731	4249.41
956.035	4181.61
956.339	4190.65
956.643	4146.13
956.948	4132.35
957.252	4122.41
957.556	4101.62
957.86	4097.55
958.163	4053.71
958.467	4057.55
958.771	4074.5
959.075	4063.2
959.378	3990.88
959.682	4012.58
959.985	3994.5
960.289	3917.44
960.592	3964.44
960.896	3938
961.199	3921.96
961.502	3869.08
961.805	3881.28
962.108	3863.66
962.411	3821.4
962.714	3810.32
963.017	3808.97
963.32	3808.06
963.623	3792.02
963.926	3782.98
964.228	3740.27
964.531	3695.3
964.833	3721.96
965.136	3725.81
965.438	3707.05
965.741	3657.33
966.043	3620.05
966.345	3650.55
966.648	3603.55
966.95	3567.62
967.252	3593.38
967.554	3547.96
967.856	3547.51
968.158	3535.75
968.46	3493.95
968.761	3495.08
969.063	3488.07
969.365	3463.44
969.666	3472.03
969.968	3454.17
970.269	3464.12
970.571	3439.26
970.872	3388.87
971.174	3367.17
971.475	3338.7
971.776	3365.82
972.077	3365.82
972.378	3295.31
972.679	3284.91
972.98	3285.82
973.281	3294.86
973.582	3288.53
973.883	3263.45
974.183	3266.84
974.484	3210.57
974.785	3193.84
975.085	3224.58
975.386	3187.74
975.686	3181.64
975.986	3128.76
976.287	3147.06
976.587	3073.85
976.887	3130.57
977.187	3090.79
977.487	3098.48
977.787	3068.2
978.087	3063.22
978.387	3094.18
978.687	3018.25
978.987	3001.08
979.286	3053.51
979.586	2998.82
979.885	2969.89
980.185	2974.41
980.484	2943.91
980.784	2971.7
981.083	2947.52
981.382	2916.11
981.682	2884.7
981.981	2871.14
982.28	2881.31
982.579	2863.68
982.878	2858.26
983.177	2871.14
983.475	2812.61
983.774	2811.03
984.073	2825.94
984.372	2770.58
984.67	2795.89
984.969	2765.83
985.267	2797.47
985.566	2733.29
985.864	2725.38
986.162	2725.38
986.461	2711.37
986.759	2701.43
987.057	2698.94
987.355	2668.88
987.653	2661.88
987.951	2651.03
988.249	2574.2
988.547	2604.71
988.844	2579.85
989.142	2608.1
989.44	2590.02
989.737	2561.09
990.035	2544.59
990.332	2543.92
990.63	2516.57
990.927	2539.62
991.224	2484.71
991.521	2516.57
991.819	2495.1
992.116	2496.46
992.413	2452.17
992.71	2470.25
993.006	2431.83
993.303	2427.08
993.6	2407.42
993.897	2390.93
994.193	2387.08
994.49	2372.85
994.787	2379.4
995.083	2388.44
995.379	2370.81
995.676	2331.72
995.972	2366.29
996.268	2318.84
996.565	2316.13
996.861	2309.12
997.157	2265.51
997.453	2267.09
997.749	2260.76
998.044	2258.95
998.34	2238.84
998.636	2221.44
998.932	2196.35
999.227	2197.03
999.523	2197.94
999.818	2175.56
1000.114	2139.63
1000.409	2152.06
1000.704	2170.14
1001	2135.34
1001.295	2092.85
1001.59	2110.71
1001.885	2093.31
1002.18	2081.56
1002.475	2076.36
1002.77	2083.14
1003.065	2049.01
1003.359	2039.97
1003.654	2046.53
1003.949	2003.37
1004.243	2013.99
1004.538	2016.02
1004.832	1975.34
1005.127	1968.79
1005.421	1943.71
1005.715	1931.95
1006.009	1938.06
1006.304	1911.84
1006.598	1910.94
1006.892	1895.35
1007.186	1859.87
1007.48	1903.93
1007.773	1857.61
1008.067	1889.02
1008.361	1855.8
1008.655	1838.62
1008.948	1812.41
1009.242	1827.1
1009.535	1812.41
1009.829	1810.83
1010.122	1790.72
1010.415	1794.78
1010.708	1774.22
1011.001	1754.33
1011.295	1747.33
1011.588	1745.07
1011.881	1722.47
1012.173	1712.98
1012.466	1717.95
1012.759	1683.83
1013.052	1713.2
1013.344	1653.09
1013.637	1663.26
1013.93	1666.65
1014.222	1667.56
1014.514	1673.88
1014.807	1668.01
1015.099	1586.88
1015.391	1628.69
1015.683	1608.8
1015.976	1568.35
1016.268	1604.73
1016.56	1558.18
1016.851	1558.86
1017.143	1545.75
1017.435	1562.25
1017.727	1546.2
1018.018	1535.58
1018.31	1508.92
1018.602	1494.23
1018.893	1501.91
1019.185	1487.22
1019.476	1470.05
1019.767	1466.43
1020.058	1459.65
1020.35	1447.22
1020.641	1437.28
1020.932	1448.8
1021.223	1411.97
1021.514	1395.92
1021.804	1397.51
1022.095	1383.49
1022.386	1378.07
1022.677	1365.42
1022.967	1387.11
1023.258	1379.88
1023.548	1361.12
1023.839	1340.56
1024.129	1336.49
1024.419	1305.98
1024.709	1289.49
1025	1291.75
1025.29	1321.8
1025.58	1292.65
1025.87	1283.84
1026.16	1265.76
1026.449	1286.77
1026.739	1277.51
1027.029	1273.44
1027.319	1256.04
1027.608	1226.66
1027.898	1211.52
1028.187	1184.86
1028.477	1231.63
1028.766	1206.55
1029.055	1233.89
1029.344	1190.51
1029.634	1190.96
1029.923	1165.87
1030.212	1166.55
1030.501	1134.01
1030.79	1134.01
1031.078	1173.78
1031.367	1147.57
1031.656	1121.81
1031.945	1091.52
1032.233	1098.98
1032.522	1081.58
1032.81	1089.27
1033.099	1080.68
1033.387	1101.02
1033.675	1072.99
1033.963	1076.84
1034.251	1065.31
1034.54	1067.8
1034.828	1058.08
1035.116	1036.39
1035.403	1043.84
1035.691	1044.52
1035.979	1028.93
1036.267	1035.26
1036.554	1007.46
1036.842	987.57
1037.129	988.7
1037.417	1005.2
1037.704	984.86
1037.992	978.08
1038.279	957.74
1038.566	980.12
1038.853	980.12
1039.14	980.12
