Data from hue_80_FLMS001491_89.txt Node
Date: Mon Feb 06 15:23:54 GMT 2017
User: dcchb
Spectrometer: FLMS00149
Trigger mode: 0
Integration Time (sec): 2.000000E-2
Scans to average: 10
Electric dark correction enabled: true
Nonlinearity correction enabled: false
Boxcar width: 0
XAxis mode: Wavelengths
Number of Pixels in Spectrum: 2048
>>>>>Begin Spectral Data<<<<<
341.393	-3.77
341.776	-3.77
342.16	-3.77
342.543	-43.32
342.927	-49.42
343.31	-87.84
343.693	-63.2
344.077	-67.5
344.46	-78.57
344.843	-52.58
345.226	-45.58
345.61	-40.38
345.993	-23.43
346.376	-10.1
346.759	10.69
347.142	36.23
347.525	43.01
347.908	54.53
348.291	84.36
348.674	99.05
349.057	141.31
349.44	124.81
349.823	131.82
350.206	166.17
350.588	182.44
350.971	198.26
351.354	207.75
351.737	220.63
352.119	242.78
352.502	253.62
352.884	267.86
353.267	277.8
353.65	296.79
354.032	293.62
354.414	301.76
354.797	322.55
355.179	302.89
355.562	326.39
355.944	310.34
356.326	309.22
356.709	327.97
357.091	332.72
357.473	325.94
357.855	346.05
358.238	321.64
358.62	342.66
359.002	315.77
359.384	331.36
359.766	340.4
360.148	327.07
360.53	321.64
360.912	327.07
361.294	339.27
361.676	321.64
362.057	344.24
362.439	351.25
362.821	306.96
363.203	315.09
363.584	331.14
363.966	318.93
364.348	310.12
364.729	332.27
365.111	312.6
365.493	300.85
365.874	322.32
366.256	321.87
366.637	324.81
367.019	320.06
367.4	302.89
367.781	310.34
368.163	317.8
368.544	311.47
368.925	304.47
369.306	308.09
369.688	316.9
370.069	335.43
370.45	301.53
370.831	297.69
371.212	307.18
371.593	313.51
371.974	293.17
372.355	324.36
372.736	320.97
373.117	291.81
373.498	320.06
373.879	322.55
374.26	311.47
374.641	313.96
375.021	311.47
375.402	306.96
375.783	340.85
376.163	297.01
376.544	317.8
376.925	311.02
377.305	317.8
377.686	322.1
378.066	320.51
378.447	318.03
378.827	326.16
379.208	328.42
379.588	331.14
379.968	326.62
380.349	315.54
380.729	336.78
381.109	321.19
381.489	332.72
381.87	341.98
382.25	328.42
382.63	332.94
383.01	349.21
383.39	316.22
383.77	332.72
384.15	339.72
384.53	363
384.91	344.02
385.29	317.8
385.67	319.16
386.049	346.5
386.429	338.59
386.809	342.89
387.189	334.07
387.568	341.98
387.948	348.08
388.328	339.5
388.707	352.83
389.087	360.51
389.466	354.41
389.846	366.16
390.225	382.21
390.605	360.29
390.984	352.38
391.363	348.99
391.743	371.59
392.122	346.95
392.501	353.06
392.881	356.9
393.26	363.45
393.639	366.39
394.018	367.97
394.397	369.55
394.776	375.65
395.155	356.45
395.534	359.61
395.913	360.97
396.292	381.3
396.671	396.44
397.05	371.59
397.429	351.02
397.808	361.19
398.186	371.36
398.565	374.75
398.944	372.49
399.323	367.29
399.701	398.93
400.08	387.86
400.458	386.95
400.837	383.34
401.215	374.07
401.594	393.05
401.972	384.47
402.351	391.7
402.729	393.96
403.107	384.92
403.486	384.47
403.864	389.21
404.242	400.74
404.62	401.42
404.999	391.7
405.377	405.71
405.755	401.42
406.133	400.06
406.511	402.09
406.889	410.23
407.267	414.52
407.645	431.7
408.023	430.57
408.401	419.95
408.779	424.69
409.156	437.35
409.534	433.28
409.912	419.72
410.29	423.79
410.667	416.33
411.045	431.25
411.422	445.71
411.8	449.32
412.178	427.4
412.555	447.06
412.933	438.25
413.31	454.07
413.687	429.44
414.065	450.68
414.442	438.7
414.819	455.2
415.197	456.33
415.574	449.78
415.951	475.31
416.328	468.31
416.705	475.09
417.082	482.09
417.46	504.92
417.837	470.34
418.214	486.39
418.591	494.52
418.967	472.15
419.344	501.98
419.721	485.26
420.098	484.58
420.475	481.64
420.852	482.77
421.228	506.95
421.605	479.61
421.982	501.3
422.358	505.59
422.735	525.71
423.111	533.84
423.488	537.23
423.864	546.27
424.241	539.94
424.617	509.21
424.994	523.9
425.37	528.87
425.746	532.03
426.123	524.58
426.499	556.67
426.875	539.27
427.251	555.54
427.627	555.76
428.003	561.19
428.379	562.99
428.756	555.54
429.132	567.97
429.507	577
429.883	590.56
430.259	555.08
430.635	591.24
431.011	614.29
431.387	616.1
431.763	586.72
432.138	618.59
432.514	610.45
432.89	615.2
433.265	621.75
433.641	641.18
434.016	637.57
434.392	646.16
434.767	638.47
435.143	649.55
435.518	641.64
435.894	674.86
436.269	660.17
436.644	664.23
437.02	666.04
437.395	687.96
437.77	684.8
438.145	688.64
438.52	724.35
438.895	703.55
439.271	694.52
439.646	707.85
440.021	706.49
440.395	706.72
440.77	697.68
441.145	731.35
441.52	729.54
441.895	724.12
442.27	713.95
442.645	721.86
443.019	743.55
443.394	743.33
443.769	753.05
444.143	761.86
444.518	776.32
444.892	759.82
445.267	752.37
445.641	762.76
446.016	780.84
446.39	777.45
446.764	786.26
447.139	765.02
447.513	770.22
447.887	784.91
448.262	800.73
448.636	777.9
449.01	818.81
449.384	810.44
449.758	797.11
450.132	811.57
450.506	822.42
450.88	836.66
451.254	848.86
451.628	842.53
452.002	844.34
452.376	867.62
452.75	870.56
453.123	866.49
453.497	885.92
453.871	871.91
454.244	899.71
454.618	888.41
454.992	898.58
455.365	922.53
455.739	927.96
456.112	917.11
456.486	918.01
456.859	972.25
457.232	979.93
457.606	931.35
457.979	990.55
458.352	1003.89
458.725	1005.02
459.099	977.45
459.472	1039.37
459.845	1052.47
460.218	1045.92
460.591	1040.27
460.964	1073.04
461.337	1082.53
461.71	1096.76
462.083	1122.3
462.456	1113.49
462.829	1124.79
463.201	1120.04
463.574	1162.75
463.947	1172.24
464.32	1181.51
464.692	1209.98
465.065	1213.15
465.438	1220.38
465.81	1265.8
466.183	1285.23
466.555	1289.53
466.928	1329.3
467.3	1311.22
467.672	1341.28
468.045	1337.89
468.417	1373.37
468.789	1395.29
469.161	1425.8
469.534	1441.84
469.906	1426.93
470.278	1517.77
470.65	1518.45
471.022	1547.15
471.394	1547.6
471.766	1561.16
472.138	1624.43
472.51	1680.93
472.882	1703.3
473.253	1724.55
473.625	1765
473.997	1790.53
474.369	1845.67
474.74	1878.44
475.112	1922.51
475.484	1997.98
475.855	1980.36
476.227	2057.87
476.598	2132.22
476.97	2147.13
477.341	2220.8
477.713	2280.91
478.084	2323.63
478.455	2399.33
478.827	2417.41
479.198	2527.46
479.569	2583.05
479.94	2649.27
480.311	2728.13
480.682	2802.71
481.053	2882.93
481.424	2949.82
481.795	3044.96
482.166	3114.11
482.537	3238.4
482.908	3308.46
483.279	3401.11
483.65	3475.69
484.021	3578.51
484.391	3683.36
484.762	3746.41
485.133	3833.19
485.503	3935.56
485.874	4079.96
486.244	4161.54
486.615	4301.88
486.985	4404.02
487.356	4533.28
487.726	4610.8
488.097	4749.32
488.467	4888.98
488.837	5025.02
489.207	5189.54
489.578	5314.96
489.948	5341.85
490.318	5562.18
490.688	5677.89
491.058	5764.89
491.428	5886.92
491.798	5991.33
492.168	6227.93
492.538	6312
492.908	6416.63
493.278	6613.91
493.648	6716.28
494.017	6877.18
494.387	6959.21
494.757	7083.5
495.126	7242.37
495.496	7305.87
495.866	7474
496.235	7636.93
496.605	7753.99
496.974	7881.22
497.344	8033.31
497.713	8128.44
498.082	8247.09
498.452	8396.01
498.821	8493.86
499.19	8618.15
499.559	8751.7
499.928	8879.16
500.298	8995.31
500.667	9070.34
501.036	9127.97
501.405	9308.3
501.774	9306.72
502.143	9506.26
502.512	9651.79
502.88	9798.91
503.249	9778.34
503.618	9944.67
503.987	10032.8
504.356	10145.79
504.724	10268.5
505.093	10294.04
505.462	10403.41
505.83	10494.94
506.199	10574.93
506.567	10762.5
506.936	10758.43
507.304	10990.97
507.672	11023.51
508.041	11106.45
508.409	11213.56
508.777	11336.72
509.145	11416.49
509.514	11397.51
509.882	11522.93
510.25	11539.65
510.618	11806.77
510.986	11778.74
511.354	12042.24
511.722	12049.92
512.09	12191.16
512.458	12130.37
512.826	12256.7
513.193	12357.71
513.561	12344.6
513.929	12435.45
514.297	12513.41
514.664	12694.2
515.032	12644.71
515.4	12824.37
515.767	12829.79
516.135	12901.43
516.502	12908.43
516.869	13097.58
517.237	13136.9
517.604	13092.61
517.972	13228.2
518.339	13341.41
518.706	13380.74
519.073	13391.81
519.44	13496.21
519.808	13631.35
520.175	13636.1
520.542	13711.8
520.909	13776.66
521.276	13795.19
521.643	13917.9
522.009	14020.27
522.376	13981.4
522.743	14138.23
523.11	14115.41
523.477	14337.32
523.843	14374.83
524.21	14456.19
524.577	14542.97
524.943	14561.27
525.31	14621.16
525.676	14606.01
526.043	14770.76
526.409	14750.19
526.776	14830.19
527.142	14924.42
527.508	14986.57
527.874	15009.17
528.241	15173.68
528.607	15093.46
528.973	15170.07
529.339	15160.35
529.705	15276.51
530.071	15273.79
530.437	15351.53
530.803	15479.66
531.169	15471.98
531.535	15434.92
531.901	15521.7
532.267	15481.25
532.632	15531.41
532.998	15584.97
533.364	15604.18
533.73	15621.13
534.095	15757.17
534.461	15630.62
534.826	15741.13
535.192	15730.73
535.557	15826.55
535.923	15734.8
536.288	15781.58
536.653	15851.63
537.019	15725.76
537.384	15694.35
537.749	15835.59
538.114	15746.32
538.479	15791.29
538.845	15834
539.21	15704.74
539.575	15799.66
539.94	15832.87
540.305	15779.77
540.67	15822.25
541.034	15846.89
541.399	15777.28
541.764	15857.05
542.129	15891.63
542.494	15828.13
542.858	15776.15
543.223	15767.11
543.587	15819.09
543.952	15727.57
544.316	15766.21
544.681	15764.4
545.045	15850.95
545.41	15814.34
545.774	15800.11
546.138	15777.96
546.503	15827.68
546.867	15756.72
547.231	15851.86
547.595	15811.86
547.959	15736.83
548.324	15752.42
548.688	15800.79
549.052	15783.61
549.416	15712.88
549.779	15662.48
550.143	15673.78
550.507	15719.21
550.871	15748.81
551.235	15710.62
551.599	15701.35
551.962	15749.04
552.326	15730.73
552.689	15818.86
553.053	15748.36
553.417	15798.75
553.78	15810.28
554.143	15759.43
554.507	15810.5
554.87	15855.47
555.234	15878.75
555.597	15806.66
555.96	15878.52
556.323	15819.77
556.686	15767.11
557.05	15875.59
557.413	15883.72
557.776	15858.64
558.139	15927.79
558.502	15887.11
558.865	15944.06
559.228	16009.37
559.59	15919.43
559.953	16040.55
560.316	16068.57
560.679	15943.61
561.041	16074.9
561.404	16111.51
561.767	16185.86
562.129	16181.11
562.492	16268.57
562.854	16177.27
563.217	16184.96
563.579	16249.81
563.941	16369.81
564.304	16364.61
564.666	16417.94
565.028	16382.24
565.39	16411.62
565.753	16412.97
566.115	16514.21
566.477	16563.02
566.839	16507.21
567.201	16616.81
567.563	16533.65
567.925	16693.64
568.287	16720.99
568.648	16673.76
569.01	16801.89
569.372	16758.05
569.734	16725.51
570.095	16742.23
570.457	16881.66
570.819	16960.53
571.18	16818.84
571.542	16864.49
571.903	16923.47
572.265	17047.53
572.626	17042.79
572.987	16967.99
573.349	17103.35
573.71	17054.09
574.071	17065.84
574.432	17129.11
574.794	17293.85
575.155	17204.59
575.516	17065.38
575.877	17257.7
576.238	17201.65
576.599	17235.78
576.96	17274.42
577.32	17241.65
577.681	17371.14
578.042	17384.92
578.403	17349.9
578.763	17360.07
579.124	17325.49
579.485	17406.62
579.845	17360.52
580.206	17299.5
580.566	17356.68
580.927	17371.14
581.287	17473.28
581.648	17279.16
582.008	17439.84
582.368	17417.47
582.728	17371.14
583.089	17327.52
583.449	17462.21
583.809	17432.38
584.169	17474.64
584.529	17418.82
584.889	17507.86
585.249	17381.99
585.609	17379.73
585.969	17436.67
586.329	17359.84
586.688	17451.14
587.048	17317.81
587.408	17245.04
587.768	17324.81
588.127	17226.51
588.487	17320.52
588.846	17391.03
589.206	17198.04
589.565	17347.19
589.925	17328.43
590.284	17358.48
590.643	17331.82
591.003	17348.54
591.362	17377.69
591.721	17342.21
592.08	17422.21
592.44	17372.72
592.799	17402.55
593.158	17313.51
593.517	17287.98
593.876	17303.34
594.235	17350.12
594.593	17204.59
594.952	17326.17
595.311	17310.35
595.67	17335.89
596.029	17375.88
596.387	17363.68
596.746	17354.42
597.104	17199.62
597.463	17241.65
597.822	17267.19
598.18	17239.84
598.538	17295.44
598.897	17321.88
599.255	17165.49
599.613	17458.59
599.972	17274.19
600.33	17374.98
600.688	17311.48
601.046	17414.53
601.404	17334.53
601.762	17292.95
602.12	17413.85
602.478	17362.55
602.836	17457.01
603.194	17287.3
603.552	17324.59
603.91	17304.93
604.268	17401.65
604.625	17293.18
604.983	17379.05
605.341	17273.74
605.698	17427.86
606.056	17391.25
606.413	17408.43
606.771	17521.42
607.128	17508.08
607.485	17367.75
607.843	17375.21
608.2	17483.68
608.557	17518.03
608.914	17472.38
609.272	17501.76
609.629	17554.41
609.986	17603.45
610.343	17518.25
610.7	17701.75
611.057	17637.57
611.414	17558.93
611.771	17616.56
612.127	17667.85
612.484	17644.13
612.841	17646.16
613.198	17687.29
613.554	17736.1
613.911	17752.82
614.267	17792.6
614.624	17810.68
614.98	17793.28
615.337	17854.06
615.693	17781.07
616.05	17819.26
616.406	17955.53
616.762	17824.23
617.118	17854.52
617.475	17946.94
617.831	17954.85
618.187	17974.97
618.543	17912.82
618.899	18061.29
619.255	18021.29
619.611	17974.51
619.967	18152.36
620.323	18068.07
620.678	18074.85
621.034	17984.68
621.39	18009.77
621.746	17972.48
622.101	18080.95
622.457	18015.87
622.812	18088.86
623.168	18104.91
623.523	18106.94
623.879	18165.24
624.234	18043.21
624.589	18132.25
624.945	18026.72
625.3	18047.05
625.655	18114.85
626.01	18083.89
626.365	18152.14
626.72	18095.64
627.075	18152.14
627.43	18114.62
627.785	18136.32
628.14	18087.96
628.495	18101.74
628.85	18104.91
629.205	18021.29
629.559	18141.74
629.914	18022.65
630.269	18167.5
630.623	17993.5
630.978	17987.85
631.332	18068.97
631.687	18177.67
632.041	18020.61
632.396	18063.32
632.75	17938.36
633.104	17925.25
633.459	17853.39
633.813	17927.06
634.167	17895.87
634.521	17827.17
634.875	17817.91
635.229	17791.24
635.583	17748.76
635.937	17784.91
636.291	17683.9
636.645	17774.29
636.999	17699.27
637.352	17708.76
637.706	17602.32
638.06	17719.15
638.413	17687.74
638.767	17615.88
639.121	17580.63
639.474	17613.39
639.828	17609.33
640.181	17528.42
640.534	17607.52
640.888	17499.72
641.241	17465.6
641.594	17561.64
641.947	17481.19
642.301	17436.9
642.654	17430.35
643.007	17438.48
643.36	17456.11
643.713	17457.24
644.066	17471.48
644.419	17457.46
644.771	17250.46
645.124	17088.89
645.477	17111.71
645.83	16987.19
646.182	16935.44
646.535	16879.63
646.888	16919.17
647.24	16875.79
647.593	16937.25
647.945	16825.16
648.298	16856.12
648.65	16782.68
649.002	16769.35
649.355	16855.9
649.707	16808.67
650.059	16837.82
650.411	17068.32
650.763	17116.68
651.115	17363.91
651.467	17173.18
651.819	17208.21
652.171	17186.06
652.523	17160.52
652.875	17157.36
653.227	17077.14
653.578	17274.42
653.93	17220.18
654.282	17031.26
654.633	17082.79
654.985	17118.26
655.337	17169.11
655.688	17122.33
656.039	17221.99
656.391	17068.1
656.742	17081.43
657.094	17094.99
657.445	17167.75
657.796	17078.27
658.147	17074.42
658.498	17081.43
658.849	17139.05
659.2	17176.57
659.551	17100.41
659.902	17179.51
660.253	17210.92
660.604	17156
660.955	17154.42
661.306	17162.56
661.656	17125.5
662.007	17162.33
662.358	17112.39
662.708	17171.82
663.059	17207.75
663.409	17095.89
663.76	17176.79
664.11	17278.03
664.461	17276.68
664.811	17210.01
665.161	17199.84
665.511	17191.93
665.862	17243.69
666.212	17248.43
666.562	17291.59
666.912	17229
667.262	17299.05
667.612	17178.6
667.962	17258.37
668.312	17147.64
668.662	17390.57
669.011	17212.27
669.361	17144.7
669.711	17227.87
670.06	17217.7
670.41	17151.03
670.76	17177.7
671.109	17208.88
671.459	17055.89
671.808	17115.33
672.157	17180.64
672.507	16979.74
672.856	17018.83
673.205	17053.41
673.554	17116.23
673.904	17108.1
674.253	17020.87
674.602	17078.27
674.951	16731.83
675.3	16669.46
675.649	16959.62
675.998	16980.87
676.346	16942.45
676.695	16999.4
677.044	16893.41
677.393	16968.66
677.741	16854.77
678.09	16947.42
678.438	16790.14
678.787	16859.06
679.135	16783.13
679.484	16703.36
679.832	16758.27
680.181	16701.33
680.529	16760.99
680.877	16692.74
681.225	16748.56
681.573	16729.8
681.922	16608.9
682.27	16568.22
682.618	16573.87
682.966	16540.43
683.314	16527.77
683.661	16480.99
684.009	16391.5
684.357	16434.89
684.705	16345.18
685.053	16258.63
685.4	16315.57
685.748	16168.01
686.095	16091.4
686.443	16158.97
686.79	16130.04
687.138	16196.25
687.485	16167.33
687.832	16075.13
688.18	16161.23
688.527	15897.51
688.874	15936.15
689.221	15931.4
689.568	15863.38
689.915	15791.29
690.262	15917.39
690.609	15700.22
690.956	15758.07
691.303	15674.91
691.65	15557.4
691.997	15654.12
692.344	15446.67
692.69	15450.06
693.037	15480.79
693.383	15337.07
693.73	15363.28
694.077	15333.23
694.423	15291.87
694.769	15226.79
695.116	15164.64
695.462	15124.87
695.808	15037.19
696.155	15065.44
696.501	14897.53
696.847	14998.77
697.193	14783.64
697.539	14826.12
697.885	14760.36
698.231	14760.36
698.577	14686.46
698.923	14621.38
699.269	14606.24
699.614	14467.03
699.96	14431.33
700.306	14488.05
700.651	14350.65
700.997	14232.69
701.342	14350.43
701.688	14213.71
702.033	14203.54
702.379	14150.66
702.724	14069.76
703.069	14168.06
703.415	13932.59
703.76	14058.68
704.105	13902.98
704.45	13909.76
704.795	13737.34
705.14	13775.53
705.485	13777.11
705.83	13739.6
706.175	13709.54
706.52	13669.54
706.865	13624.12
707.209	13620.73
707.554	13518.13
707.899	13564.69
708.243	13561.97
708.588	13503.67
708.932	13374.41
709.277	13391.36
709.621	13277.24
709.966	13268.42
710.31	13325.14
710.654	13148.88
710.998	13179.61
711.342	13221.19
711.687	13151.14
712.031	13068.88
712.375	12973.74
712.719	13037.02
713.063	13017.81
713.407	13059.61
713.75	12920.41
714.094	12926.28
714.438	12875.89
714.782	12926.06
715.125	12779.4
715.469	12859.62
715.812	12781.66
716.156	12687.65
716.499	12702.11
716.843	12711.37
717.186	12639.74
717.53	12731.26
717.873	12723.58
718.216	12578.72
718.559	12622.79
718.902	12584.15
719.246	12543.47
719.589	12514.54
719.932	12464.15
720.275	12481.32
720.617	12449.01
720.96	12350.48
721.303	12439.97
721.646	12443.36
721.989	12340.76
722.331	12439.74
722.674	12394.32
723.016	12378.5
723.359	12295.11
723.701	12371.27
724.044	12248.11
724.386	12336.7
724.729	12267.77
725.071	12278.84
725.413	12199.07
725.755	12253.76
726.097	12217.15
726.439	12155.91
726.782	12082.01
727.124	12176.7
727.465	12124.27
727.807	12156.81
728.149	12073.88
728.491	12141.45
728.833	12074.1
729.175	12073.2
729.516	12086.76
729.858	12041.11
730.199	12081.33
730.541	12045.63
730.882	12071.17
731.224	12124.95
731.565	12073.2
731.906	11991.62
732.248	12038.62
732.589	11930.6
732.93	11948.91
733.271	11934.67
733.612	12028.91
733.953	12028.91
734.294	12041.79
734.635	11949.81
734.976	12001.56
735.317	11895.13
735.658	11886.09
735.999	11917.5
736.339	11952.75
736.68	11976.03
737.021	12004.73
737.361	11954.11
737.702	12022.81
738.042	12095.12
738.383	11973.77
738.723	11961.11
739.063	11942.81
739.404	11991.17
739.744	11954.56
740.084	12029.81
740.424	12026.65
740.764	11992.98
741.104	11984.16
741.444	12009.25
741.784	11990.72
742.124	12079.3
742.464	12054.67
742.804	12085.4
743.143	12082.01
743.483	12136.25
743.823	12092.63
744.162	12118.62
744.502	12095.12
744.841	12168.34
745.181	12216.02
745.52	12214.44
745.86	12305.51
746.199	12324.04
746.538	12346.41
746.877	12415.79
747.216	12408.56
747.556	12415.34
747.895	12465.51
748.234	12568.78
748.573	12549.35
748.911	12532.85
749.25	12642.9
749.589	12710.02
749.928	12841.54
750.267	12855.1
750.605	12885.61
750.944	12961.76
751.283	13028.88
751.621	13161.31
751.96	13119.27
752.298	13247.86
752.636	13354.52
752.975	13366.5
753.313	13392.03
753.651	13597
753.989	13600.62
754.327	13656.21
754.666	13783.66
755.004	13928.97
755.342	13987.95
755.679	14079.93
756.017	14080.83
756.355	14262.29
756.693	14341.39
757.031	14462.29
757.368	14511.78
757.706	14622.74
758.044	14679.23
758.381	14840.81
758.719	14951.77
759.056	15001.26
759.394	15150.18
759.731	15222.95
760.068	15344.53
760.405	15446.44
760.743	15498.42
761.08	15689.83
761.417	15662.94
761.754	15787.9
762.091	15952.65
762.428	16056.37
762.765	15981.57
763.102	16249.81
763.438	16263.15
763.775	16390.15
764.112	16502.46
764.449	16531.61
764.785	16643.7
765.122	16667.88
765.458	16735
765.795	16828.55
766.131	16854.77
766.467	16962.56
766.804	17026.29
767.14	17111.49
767.476	17197.13
767.812	17226.06
768.148	17306.96
768.485	17191.48
768.821	17324.81
769.157	17392.38
769.492	17416.79
769.828	17497.69
770.164	17463.34
770.5	17509.89
770.836	17582.66
771.171	17524.58
771.507	17617.23
771.842	17569.33
772.178	17659.72
772.513	17577.91
772.849	17713.96
773.184	17574.75
773.519	17697.46
773.855	17629.21
774.19	17677.57
774.525	17674.63
774.86	17647.06
775.195	17744.69
775.53	17744.91
775.865	17635.99
776.2	17682.54
776.535	17600.06
776.87	17650.45
777.205	17612.49
777.539	17567.07
777.874	17629.44
778.209	17504.7
778.543	17559.16
778.878	17409.56
779.212	17493.17
779.547	17451.36
779.881	17584.69
780.215	17402.1
780.55	17506.5
780.884	17358.48
781.218	17356.22
781.552	17454.3
781.886	17349.44
782.22	17248.66
782.554	17196.68
782.888	17107.19
783.222	17038.94
783.556	17004.14
783.889	17076.46
784.223	16853.41
784.557	16960.08
784.89	16972.73
785.224	16861.32
785.557	16857.25
785.891	16803.47
786.224	16719.41
786.558	16745.62
786.891	16582.46
787.224	16610.93
787.557	16580.65
787.891	16556.92
788.224	16483.48
788.557	16478.96
788.89	16546.75
789.223	16528.9
789.556	16406.42
789.888	16298.85
790.221	16292.98
790.554	16207.1
790.887	16175.46
791.219	16139.76
791.552	16139.99
791.884	16048.24
792.217	16017.05
792.549	15979.09
792.882	15835.36
793.214	15857.96
793.546	15867.68
793.879	15666.1
794.211	15669.26
794.543	15721.69
794.875	15616.38
795.207	15731.86
795.539	15563.05
795.871	15618.19
796.203	15560.57
796.535	15325.54
796.867	15377.07
797.198	15373
797.53	15335.26
797.862	15215.94
798.193	15323.06
798.525	15149.95
798.856	15164.64
799.188	15146.57
799.519	14985.67
799.85	15010.75
800.182	15035.16
800.513	14955.16
800.844	14861.83
801.175	14921.03
801.506	14908.83
801.837	14753.58
802.168	14765.33
802.499	14694.6
802.83	14622.96
803.161	14566.92
803.491	14589.07
803.822	14592
804.153	14517.88
804.483	14424.55
804.814	14360.15
805.145	14356.98
805.475	14290.99
805.805	14282.63
806.136	14300.03
806.466	14321.73
806.796	14211.45
807.126	14208.28
807.457	14080.83
807.787	14098.91
808.117	14111.11
808.447	14051.9
808.777	14004.45
809.107	13933.04
809.436	13946.6
809.766	14013.26
810.096	13866.37
810.426	13797.67
810.755	13879.25
811.085	13828.18
811.414	13763.55
811.744	13671.58
812.073	13686.04
812.403	13718.58
812.732	13575.98
813.061	13530.34
813.39	13524.69
813.719	13422.09
814.049	13515.87
814.378	13493.95
814.707	13364.24
815.036	13325.82
815.365	13336.22
815.693	13138.71
816.022	13333.05
816.351	13208.76
816.68	13106.17
817.008	13168.31
817.337	13030.01
817.665	13131.7
817.994	13051.7
818.322	13074.3
818.651	12987.07
818.979	12928.77
819.307	13032.27
819.636	12997.02
819.964	12860.07
820.292	12896.23
820.62	12847.19
820.948	12831.6
821.276	12915.44
821.604	12834.99
821.932	12900.97
822.259	12867.3
822.587	12898.71
822.915	12873.4
823.243	12825.95
823.57	12806.51
823.898	12839.51
824.225	12805.38
824.553	12740.75
824.88	12747.08
825.207	12844.48
825.535	12753.18
825.862	12820.98
826.189	12797.47
826.516	12855.33
826.843	12894.65
827.17	12822.33
827.497	12869.79
827.824	12884.03
828.151	12796.57
828.478	12836.57
828.805	12957.02
829.131	12815.78
829.458	12780.98
829.785	12754.99
830.111	12761.77
830.438	12820.3
830.764	12796.12
831.09	12769.9
831.417	12689.68
831.743	12783.24
832.069	12741.2
832.395	12749.34
832.722	12733.52
833.048	12659.4
833.374	12696.69
833.7	12580.08
834.026	12725.61
834.351	12664.14
834.677	12669.12
835.003	12650.36
835.329	12712.96
835.654	12638.16
835.98	12564.03
836.306	12643.58
836.631	12509.57
836.956	12621.21
837.282	12585.28
837.607	12428.22
837.932	12449.01
838.258	12470.7
838.583	12458.5
838.908	12362.91
839.233	12406.3
839.558	12416.47
839.883	12396.13
840.208	12300.76
840.533	12331.72
840.858	12289.69
841.182	12328.56
841.507	12281.33
841.832	12225.29
842.156	12211.05
842.481	12208.11
842.805	12175.34
843.13	12114.1
843.454	12066.42
843.778	12117.04
844.103	12073.2
844.427	12044.95
844.751	12025.97
845.075	11996.59
845.399	11956.59
845.723	11854.67
846.047	11912.75
846.371	11824.62
846.695	11748.46
847.019	11733.32
847.343	11633.44
847.666	11581.01
847.99	11541.69
848.313	11512.76
848.637	11494.68
848.96	11464.85
849.284	11366.1
849.607	11306.44
849.931	11313.45
850.254	11279.55
850.577	11207.23
850.9	11120.68
851.223	11111.87
851.546	11133.56
851.869	10956.39
852.192	11031.42
852.515	10855.6
852.838	10917.75
853.161	10881.37
853.483	10831.88
853.806	10713.46
854.129	10753.23
854.451	10755.04
854.774	10625.55
855.096	10661.94
855.419	10626.68
855.741	10556.63
856.063	10524.54
856.385	10516.63
856.708	10474.6
857.03	10396.63
857.352	10419.01
857.674	10295.62
857.996	10390.98
858.318	10303.08
858.64	10308.95
858.961	10268.95
859.283	10200.03
859.605	10143.08
859.926	10174.04
860.248	10153.48
860.57	10155.96
860.891	10069.86
861.212	10106.7
861.534	10044.55
861.855	10016.3
862.176	10091.1
862.498	10061.73
862.819	9984.67
863.14	9980.37
863.461	9915.52
863.782	9904.22
864.103	9936.53
864.424	9907.61
864.745	9888.62
865.065	9847.27
865.386	9793.49
865.707	9779.47
866.027	9746.26
866.348	9809.98
866.668	9808.63
866.989	9723.66
867.309	9653.15
867.63	9704.9
867.95	9632.59
868.27	9615.86
868.59	9601.85
868.91	9624.9
869.23	9655.18
869.55	9564.11
869.87	9591.68
870.19	9567.28
870.51	9517.33
870.83	9476.43
871.15	9507.17
871.469	9537.67
871.789	9529.99
872.109	9477.11
872.428	9450.44
872.748	9486.15
873.067	9477.11
873.386	9460.84
873.706	9468.07
874.025	9407.28
874.344	9356.66
874.663	9370.9
874.982	9361.86
875.301	9314.4
875.62	9320.96
875.939	9266.72
876.258	9273.05
876.577	9171.13
876.896	9222.65
877.214	9195.99
877.533	9272.37
877.852	9197.57
878.17	9132.49
878.489	9227.85
878.807	9198.25
879.125	9212.26
879.444	9200.73
879.762	9092.71
880.08	9143.78
880.398	9054.75
880.716	9089.1
881.034	9049.55
881.352	9044.13
881.67	9056.56
881.988	9027.86
882.306	8989.44
882.624	8979.04
882.941	8954.19
883.259	8904.47
883.577	8843.91
883.894	8884.58
884.212	8824.92
884.529	8811.59
884.846	8838.03
885.164	8843
885.481	8748.09
885.798	8802.33
886.115	8752.61
886.432	8713.06
886.75	8675.32
887.067	8693.85
887.383	8573.4
887.7	8643.46
888.017	8607.53
888.334	8584.48
888.651	8614.08
888.967	8588.32
889.284	8478.49
889.6	8515.78
889.917	8427.87
890.233	8431.94
890.55	8339.74
890.866	8395.78
891.182	8323.47
891.498	8341.32
891.815	8276.46
892.131	8227.65
892.447	8278.05
892.763	8176.58
893.079	8181.55
893.395	8213.87
893.71	8152.62
894.026	8166.64
894.342	8175.22
894.657	8028.11
894.973	8085.28
895.289	8070.14
895.604	8033.31
895.92	7934.55
896.235	7924.16
896.55	7932.29
896.865	7933.42
897.181	7912.63
897.496	7891.61
897.811	7892.29
898.126	7808.23
898.441	7769.58
898.756	7767.55
899.071	7731.39
899.386	7735.46
899.7	7630.15
900.015	7613.88
900.33	7616.14
900.644	7547.44
900.959	7555.13
901.273	7516.03
901.588	7493.88
901.902	7453.43
902.216	7412.53
902.531	7453.66
902.845	7389.93
903.159	7328.24
903.473	7350.61
903.787	7265.64
904.101	7229.94
904.415	7195.81
904.729	7188.13
905.042	7181.35
905.356	7114.46
905.67	7149.26
905.984	7169.6
906.297	7078.98
906.611	7071.98
906.924	7034.46
907.237	7034.01
907.551	6958.53
907.864	6930.96
908.177	6951.07
908.491	6937.52
908.804	6896.61
909.117	6794.02
909.43	6867.69
909.743	6769.38
910.056	6756.28
910.368	6714.47
910.681	6713.11
910.994	6655.94
911.307	6622.95
911.619	6618.43
911.932	6609.39
912.244	6580.69
912.557	6574.36
912.869	6503.4
913.181	6490.07
913.494	6442.39
913.806	6413.91
914.118	6456.62
914.43	6346.12
914.742	6375.95
915.054	6316.51
915.366	6311.54
915.678	6305.89
915.99	6241.94
916.302	6210.75
916.613	6186.8
916.925	6214.82
917.236	6154.49
917.548	6143.41
917.859	6149.06
918.171	6153.36
918.482	6058.89
918.794	6063.19
919.105	6086.92
919.416	5971.21
919.727	5963.08
920.038	5958.56
920.349	5890.99
920.66	5870.2
920.971	5887.83
921.282	5900.48
921.593	5799.69
921.903	5780.71
922.214	5779.13
922.525	5803.76
922.835	5761.73
923.146	5660.49
923.456	5661.16
923.767	5635.18
924.077	5644.44
924.387	5580.04
924.697	5575.29
925.008	5582.97
925.318	5572.35
925.628	5490.55
925.938	5534.84
926.248	5396.54
926.558	5468.63
926.867	5415.07
927.177	5381.4
927.487	5329.42
927.796	5344.34
928.106	5316.09
928.416	5312.93
928.725	5255.53
929.034	5245.81
929.344	5259.59
929.653	5280.38
929.962	5211.01
930.271	5214.17
930.581	5193.61
930.89	5116.55
931.199	5118.81
931.508	5065.93
931.817	5118.13
932.125	5068.41
932.434	5030.67
932.743	5001.75
933.051	4989.32
933.36	5000.84
933.669	4957.23
933.977	4917.68
934.286	4924.69
934.594	4851.69
934.902	4886.95
935.21	4843.56
935.519	4849.43
935.827	4825.03
936.135	4769.21
936.443	4769.66
936.751	4759.72
937.059	4713.39
937.367	4732.15
937.674	4722.66
937.982	4710.46
938.29	4643.79
938.597	4655.09
938.905	4591.36
939.213	4638.14
939.52	4544.81
939.827	4597.01
940.135	4527.41
940.442	4484.25
940.749	4483.34
941.056	4500.97
941.363	4447.19
941.67	4407.19
941.977	4379.39
942.284	4365.15
942.591	4391.37
942.898	4355.44
943.205	4323.8
943.511	4297.13
943.818	4292.16
944.125	4295.1
944.431	4230.02
944.738	4256.91
945.044	4224.37
945.35	4211.71
945.657	4171.49
945.963	4202.22
946.269	4207.42
946.575	4145.72
946.881	4112.96
947.187	4139.17
947.493	4039.96
947.799	4091.04
948.105	4008.1
948.41	4060.3
948.716	4010.81
949.022	4029.12
949.327	4031.15
949.633	3961.55
949.938	3951.38
950.244	3965.39
950.549	3875.22
950.854	3912.96
951.16	3894.88
951.465	3855.34
951.77	3875.9
952.075	3822.57
952.38	3835.45
952.685	3830.93
952.99	3807.65
953.294	3761.33
953.599	3753.42
953.904	3749.58
954.209	3725.17
954.513	3741.22
954.818	3640.65
955.122	3651.05
955.426	3673.87
955.731	3659.41
956.035	3633.2
956.339	3575.57
956.643	3630.26
956.948	3571.73
957.252	3570.15
957.556	3540.77
957.86	3525.85
958.163	3530.37
958.467	3507.77
958.771	3506.42
959.075	3453.09
959.378	3436.14
959.682	3454.9
959.985	3446.76
960.289	3431.17
960.592	3396.82
960.896	3430.94
961.199	3377.16
961.502	3399.76
961.805	3365.86
962.108	3353.2
962.411	3329.02
962.714	3265.75
963.017	3284.28
963.32	3282.47
963.623	3275.92
963.926	3289.93
964.228	3203.15
964.531	3206.54
964.833	3271.4
965.136	3176.48
965.438	3179.65
965.741	3167.9
966.043	3177.61
966.345	3142.13
966.648	3130.84
966.95	3124.51
967.252	3084.96
967.554	3061.69
967.856	3080.44
968.158	3019.43
968.46	3061.69
968.761	3026.88
969.063	3028.01
969.365	3018.97
969.666	2987.79
969.968	2968.13
970.269	2981.46
970.571	2954.34
970.872	2931.29
971.174	2927.68
971.475	2936.04
971.776	2909.82
972.077	2904.63
972.378	2868.7
972.679	2878.41
972.98	2865.53
973.281	2817.62
973.582	2846.32
973.883	2851.3
974.183	2833.44
974.484	2839.54
974.785	2798.19
975.085	2783.27
975.386	2778.53
975.686	2740.34
975.986	2721.13
976.287	2722.94
976.587	2673.22
976.887	2709.6
977.187	2672.09
977.487	2703.95
977.787	2665.76
978.087	2623.5
978.387	2641.13
978.687	2644.97
978.987	2627.8
979.286	2582.38
979.586	2622.15
979.885	2568.14
980.185	2591.64
980.484	2550.74
980.784	2564.52
981.083	2535.15
981.382	2515.94
981.682	2519.33
981.981	2544.64
982.28	2498.99
982.579	2506.45
982.878	2479.55
983.177	2472.55
983.475	2449.5
983.774	2441.36
984.073	2425.32
984.372	2424.41
984.67	2402.04
984.969	2400.91
985.267	2388.71
985.566	2365.43
985.864	2361.14
986.162	2347.81
986.461	2360.69
986.759	2370.86
987.057	2320.46
987.355	2323.63
987.653	2296.96
987.951	2305.09
988.249	2287.02
988.547	2268.49
988.844	2242.05
989.142	2287.24
989.44	2242.27
989.737	2245.66
990.035	2249.95
990.332	2199.11
990.63	2220.8
990.927	2192.33
991.224	2168.15
991.521	2170.41
991.819	2183.06
992.116	2147.81
992.413	2155.04
992.71	2140.81
993.006	2152.56
993.303	2107.36
993.6	2119.11
993.897	2087.25
994.193	2089.73
994.49	2068.72
994.787	2065.1
995.083	2071.43
995.379	2063.97
995.676	2035.5
995.972	2028.49
996.268	2022.62
996.565	2002.5
996.861	2033.24
997.157	2019
997.453	1965.44
997.749	1996.18
998.044	1973.58
998.34	1968.61
998.636	1950.75
998.932	1909.17
999.227	1894.03
999.523	1920.7
999.818	1917.99
1000.114	1896.07
1000.409	1890.87
1000.704	1867.14
1001	1875.05
1001.295	1844.09
1001.59	1825.79
1001.885	1848.84
1002.18	1817.2
1002.475	1829.63
1002.77	1792.79
1003.065	1788.95
1003.359	1803.64
1003.654	1752.79
1003.949	1742.4
1004.243	1822.4
1004.538	1754.37
1004.832	1755.5
1005.127	1733.13
1005.421	1715.51
1005.715	1744.66
1006.009	1736.75
1006.304	1695.62
1006.598	1686.13
1006.892	1670.08
1007.186	1660.82
1007.48	1661.72
1007.773	1643.64
1008.067	1649.52
1008.361	1631.67
1008.655	1622.4
1008.948	1624.21
1009.242	1589.63
1009.535	1585.79
1009.829	1554.61
1010.122	1611.1
1010.415	1562.97
1010.708	1524.78
1011.001	1534.27
1011.295	1549.41
1011.588	1577.2
1011.881	1510.54
1012.173	1506.92
1012.466	1515.51
1012.759	1501.05
1013.052	1497.21
1013.344	1517.54
1013.637	1472.57
1013.93	1446.36
1014.222	1445.23
1014.514	1481.61
1014.807	1459.69
1015.099	1410.65
1015.391	1417.89
1015.683	1424.21
1015.976	1416.08
1016.268	1381.73
1016.56	1388.28
1016.851	1380.15
1017.143	1385.34
1017.435	1394.84
1017.727	1358.68
1018.018	1352.35
1018.31	1356.65
1018.602	1332.01
1018.893	1329.08
1019.185	1329.3
1019.476	1320.94
1019.767	1315.97
1020.058	1256.99
1020.35	1283.43
1020.641	1311.22
1020.932	1309.87
1021.223	1272.58
1021.514	1248.63
1021.804	1254.27
1022.095	1240.04
1022.386	1229.42
1022.677	1233.03
1022.967	1207.5
1023.258	1183.54
1023.548	1203.65
1023.839	1202.07
1024.129	1164.11
1024.419	1174.28
1024.709	1178.57
1025	1169.31
1025.29	1172.7
1025.58	1181.73
1025.87	1138.35
1026.16	1156.2
1026.449	1139.02
1026.739	1114.17
1027.029	1132.47
1027.319	1111.45
1027.608	1101.96
1027.898	1108.06
1028.187	1071.23
1028.477	1054.05
1028.766	1078.69
1029.055	1079.36
1029.344	1076.2
1029.634	1063.77
1029.923	1062.64
1030.212	1040.5
1030.501	1029.65
1030.79	1017.9
1031.078	1036.43
1031.367	1021.74
1031.656	996.43
1031.945	984.45
1032.233	996.43
1032.522	992.36
1032.81	967.05
1033.099	966.6
1033.387	983.32
1033.675	956.43
1033.963	965.47
1034.251	959.14
1034.54	937.9
1034.828	967.28
1035.116	940.16
1035.403	920.72
1035.691	907.62
1035.979	914.4
1036.267	912.14
1036.554	894.06
1036.842	876.66
1037.129	891.35
1037.417	891.8
1037.704	891.57
1037.992	884.34
1038.279	858.81
1038.566	849.77
1038.853	849.77
1039.14	849.77
