Data from hue_40_FLMS001491_6.txt Node
Date: Mon Feb 06 15:07:21 GMT 2017
User: dcchb
Spectrometer: FLMS00149
Trigger mode: 0
Integration Time (sec): 2.000000E-2
Scans to average: 10
Electric dark correction enabled: true
Nonlinearity correction enabled: false
Boxcar width: 0
XAxis mode: Wavelengths
Number of Pixels in Spectrum: 2048
>>>>>Begin Spectral Data<<<<<
341.393	-12.56
341.776	-12.56
342.16	-12.56
342.543	-42.84
342.927	-56.4
343.31	-63.85
343.693	-64.53
344.077	-63.4
344.46	-65.44
344.843	-57.3
345.226	-61.82
345.61	-17.75
345.993	-16.85
346.376	6.88
346.759	-9.39
347.142	29.25
347.525	46.2
347.908	71.51
348.291	65.18
348.674	83.49
349.057	117.84
349.44	130.26
349.823	142.24
350.206	170.26
350.588	196.48
350.971	212.97
351.354	224.05
351.737	248.23
352.119	253.2
352.502	274.67
352.884	272.86
353.267	287.1
353.65	297.27
354.032	288.68
354.414	304.5
354.797	318.28
355.179	295.91
355.562	322.8
355.944	338.62
356.326	332.29
356.709	330.26
357.091	342.01
357.473	357.38
357.855	351.28
358.238	343.59
358.62	348.11
359.002	343.37
359.384	352.41
359.766	335.46
360.148	344.27
360.53	321.45
360.912	348.11
361.294	330.71
361.676	316.02
362.057	313.31
362.439	332.29
362.821	332.07
363.203	322.12
363.584	344.95
363.966	324.84
364.348	330.03
364.729	295.46
365.111	295.91
365.493	321.22
365.874	323.03
366.256	332.52
366.637	350.6
367.019	304.95
367.4	316.7
367.781	326.64
368.163	313.76
368.544	308.79
368.925	322.58
369.306	341.78
369.688	324.61
370.069	304.72
370.45	319.64
370.831	321.67
371.212	318.51
371.593	317.15
371.974	313.31
372.355	307.44
372.736	293.65
373.117	316.7
373.498	319.64
373.879	314.89
374.26	324.61
374.641	331.84
375.021	317.83
375.402	329.58
375.783	310.15
376.163	318.73
376.544	334.33
376.925	313.99
377.305	324.61
377.686	318.73
378.066	356.7
378.447	328
378.827	340.88
379.208	362.8
379.588	329.36
379.968	329.81
380.349	346.08
380.729	323.48
381.109	345.85
381.489	335.68
381.87	341.33
382.25	325.51
382.63	339.75
383.01	326.42
383.39	334.78
383.77	342.24
384.15	349.47
384.53	340.88
384.91	339.75
385.29	344.27
385.67	354.44
386.049	349.69
386.429	368.68
386.809	347.43
387.189	374.33
387.568	363.71
387.948	368.9
388.328	356.93
388.707	365.74
389.087	368.45
389.466	352.41
389.846	349.02
390.225	367.77
390.605	366.19
390.984	373.42
391.363	372.52
391.743	374.55
392.122	376.81
392.501	372.07
392.881	362.8
393.26	377.26
393.639	370.94
394.018	374.33
394.397	391.05
394.776	389.69
395.155	386.3
395.534	387.66
395.913	405.06
396.292	388.56
396.671	365.51
397.05	395.79
397.429	374.33
397.808	383.82
398.186	400.99
398.565	393.99
398.944	400.77
399.323	398.73
399.701	382.69
400.08	394.89
400.458	397.15
400.837	406.87
401.215	390.15
401.594	394.21
401.972	422.46
402.351	412.97
402.729	393.53
403.107	412.52
403.486	414.78
403.864	424.72
404.242	424.49
404.62	417.26
404.999	409.13
405.377	406.19
405.755	423.82
406.133	437.83
406.511	430.14
406.889	419.3
407.267	432.86
407.645	440.77
408.023	438.05
408.401	445.28
408.779	434.21
409.156	453.65
409.534	442.8
409.912	445.06
410.29	467.66
410.667	456.81
411.045	458.62
411.422	475.57
411.8	460.2
412.178	460.65
412.555	457.71
412.933	474.89
413.31	465.85
413.687	454.1
414.065	510.59
414.442	481.22
414.819	490.93
415.197	491.39
415.574	491.84
415.951	502.46
416.328	499.75
416.705	508.79
417.082	510.14
417.46	499.29
417.837	501.1
418.214	506.75
418.591	491.39
418.967	536.58
419.344	501.33
419.721	500.65
420.098	526.86
420.475	555.79
420.852	530.93
421.228	544.49
421.605	534.1
421.982	536.13
422.358	542.91
422.735	539.29
423.111	539.07
423.488	558.05
423.864	561.67
424.241	557.6
424.617	566.64
424.994	563.47
425.37	557.37
425.746	577.26
426.123	586.3
426.499	601.44
426.875	586.52
427.251	578.39
427.627	560.54
428.003	569.8
428.379	619.52
428.756	629.91
429.132	597.6
429.507	626.52
429.883	625.17
430.259	625.39
430.635	622.68
431.011	632.17
431.387	653.42
431.763	639.86
432.138	657.48
432.514	659.52
432.89	677.14
433.265	666.75
433.641	650.25
434.016	693.19
434.392	670.59
434.767	695
435.143	699.06
435.518	685.05
435.894	713.53
436.269	696.58
436.644	688.89
437.02	722.57
437.395	710.81
437.77	727.09
438.145	733.86
438.52	717.14
438.895	744.71
439.271	738.84
439.646	755.33
440.021	753.53
440.395	774.32
440.77	755.11
441.145	789.46
441.52	790.36
441.895	799.85
442.27	776.8
442.645	791.26
443.019	792.39
443.394	805.05
443.769	776.58
444.143	789.68
444.518	803.47
444.892	808.89
445.267	832.62
445.641	845.95
446.016	826.07
446.39	866.06
446.764	836.24
447.139	838.49
447.513	847.99
447.887	817.93
448.262	842.34
448.636	871.71
449.01	873.07
449.384	874.43
449.758	865.39
450.132	889.12
450.506	876.01
450.88	894.09
451.254	897.02
451.628	922.79
452.002	941.77
452.376	918.49
452.75	918.72
453.123	937.7
453.497	930.7
453.871	943.8
454.244	971.37
454.618	954.2
454.992	982.9
455.365	983.35
455.739	1003.46
456.112	1019.51
456.486	1007.3
456.859	1035.78
457.232	1038.72
457.606	1036.46
457.979	1077.58
458.352	1035.33
458.725	1056.57
459.099	1082.78
459.472	1109.45
459.845	1117.13
460.218	1131.14
460.591	1114.87
460.964	1125.94
461.337	1166.62
461.71	1171.14
462.083	1205.72
462.456	1201.65
462.829	1211.82
463.201	1215.21
463.574	1240.97
463.947	1232.16
464.32	1277.81
464.692	1262.44
465.065	1309.22
465.438	1292.49
465.81	1333.62
466.183	1356.67
466.555	1390.57
466.928	1414.52
467.3	1405.94
467.672	1429.21
468.045	1449.1
468.417	1454.07
468.789	1458.14
469.161	1484.58
469.534	1504.47
469.906	1566.39
470.278	1555.09
470.65	1587.18
471.022	1629.43
471.394	1669.21
471.766	1686.38
472.138	1660.62
472.51	1697
472.882	1783.78
473.253	1748.08
473.625	1829.43
473.997	1866.49
474.369	1892.48
474.74	1922.76
475.112	1979.71
475.484	2028.07
475.855	2032.81
476.227	2099.7
476.598	2137.22
476.97	2175.41
477.341	2226.26
477.713	2290.89
478.084	2311.22
478.455	2376.99
478.827	2414.5
479.198	2489.3
479.569	2511.45
479.94	2647.03
480.311	2649.52
480.682	2710.76
481.053	2794.83
481.424	2901.49
481.795	2905.79
482.166	3015.61
482.537	3056.97
482.908	3185.33
483.279	3221.48
483.65	3317.98
484.021	3424.42
484.391	3485.43
484.762	3559.55
485.133	3578.54
485.503	3692.21
485.874	3841.81
486.244	3844.74
486.615	3937.85
486.985	4083.38
487.356	4161.35
487.726	4277.73
488.097	4337.39
488.467	4439.98
488.837	4544.16
489.207	4697.38
489.578	4755.91
489.948	4905.51
490.318	4967.43
490.688	5033.19
491.058	5113.86
491.428	5235.44
491.798	5347.08
492.168	5482.44
492.538	5548.88
492.908	5695.54
493.278	5776.67
493.648	5842.43
494.017	5929.66
494.387	6063.67
494.757	6186.83
495.126	6282.65
495.496	6279.48
495.866	6465.47
496.235	6512.47
496.605	6651
496.974	6720.6
497.344	6830.43
497.713	6855.06
498.082	7038.78
498.452	7116.97
498.821	7207.82
499.19	7249.63
499.559	7344.99
499.928	7498.43
500.298	7589.28
500.667	7676.51
501.036	7671.76
501.405	7837.18
501.774	7916.5
502.143	7932.09
502.512	8067.23
502.88	8118.3
503.249	8217.28
503.618	8327.34
503.987	8398.75
504.356	8401.01
504.724	8509.25
505.093	8602.58
505.462	8743.6
505.83	8761.68
506.199	8869.47
506.567	9004.61
506.936	9010.71
507.304	9164.38
507.672	9220.87
508.041	9259.52
508.409	9333.41
508.777	9416.57
509.145	9487.08
509.514	9584.71
509.882	9695.21
510.25	9744.48
510.618	9808.2
510.986	9797.58
511.354	9938.37
511.722	10003.23
512.09	10147.85
512.458	10118.93
512.826	10293.84
513.193	10291.81
513.561	10379.04
513.929	10492.25
514.297	10545.58
514.664	10626.94
515.032	10610.44
515.4	10773.37
515.767	10883.65
516.135	10871.45
516.502	10856.76
516.869	11089.98
517.237	11098.34
517.604	11065.12
517.972	11188.73
518.339	11310.76
518.706	11296.75
519.073	11325.22
519.44	11476.41
519.808	11611.32
520.175	11649.51
520.542	11747.81
520.909	11883.63
521.276	11910.97
521.643	11932.67
522.009	11976.28
522.376	12131.53
522.743	12162.26
523.11	12270.74
523.477	12345.99
523.843	12391.19
524.21	12580.79
524.577	12653.55
524.943	12696.49
525.31	12784.85
525.676	12856.26
526.043	13032.75
526.409	13016.25
526.776	13134.44
527.142	13280.2
527.508	13240.65
527.874	13340.77
528.241	13505.96
528.607	13467.09
528.973	13623.47
529.339	13681.32
529.705	13794.54
530.071	13808.55
530.437	13920.64
530.803	13970.8
531.169	14122.89
531.535	14031.14
531.901	14107.07
532.267	14174.19
532.632	14306.84
532.998	14409.89
533.364	14488.08
533.73	14488.53
534.095	14561.52
534.461	14682.65
534.826	14789.54
535.192	14818.92
535.557	14845.58
535.923	14905.24
536.288	14948.18
536.653	15113.83
537.019	15001.96
537.384	15117.44
537.749	15185.01
538.114	15272.69
538.479	15274.05
538.845	15324.89
539.21	15396.53
539.575	15466.13
539.94	15538.9
540.305	15651.44
540.67	15625
541.034	15689.18
541.399	15830.87
541.764	15810.3
542.129	15933.01
542.494	15966.91
542.858	15980.24
543.223	16017.53
543.587	16216.4
543.952	16168.71
544.316	16189.5
544.681	16153.12
545.045	16356.28
545.41	16431.98
545.774	16463.62
546.138	16519.44
546.503	16591.53
546.867	16605.09
547.231	16723.73
547.595	16812.76
547.959	16839.2
548.324	16839.43
548.688	16852.31
549.052	17058.41
549.416	17012.98
549.779	17041.01
550.143	17141.57
550.507	17195.13
550.871	17304.95
551.235	17294.56
551.599	17498.85
551.962	17469.02
552.326	17457.04
552.689	17639.41
553.053	17540.43
553.417	17605.29
553.78	17848.22
554.143	17779.07
554.507	17845.96
554.87	17959.85
555.234	18061.54
555.597	17989
555.96	18116.23
556.323	18186.29
556.686	18148.1
557.05	18289.34
557.413	18348.54
557.776	18360.07
558.139	18506.73
558.502	18444.36
558.865	18592.6
559.228	18719.83
559.59	18801.86
559.953	18784.24
560.316	19035.3
560.679	18929.32
561.041	19091.12
561.404	19174.74
561.767	19244.79
562.129	19218.58
562.492	19403.66
562.854	19471.23
563.217	19412.02
563.579	19648.62
563.941	19754.16
564.304	19684.1
564.666	19874.83
565.028	19860.82
565.39	19933.59
565.753	20115.73
566.115	20004.09
566.477	20021.27
566.839	20153.92
567.201	20323.86
567.563	20311.43
567.925	20470.52
568.287	20480.92
568.648	20591.2
569.01	20652.66
569.372	20779.89
569.734	20777.86
570.095	20875.93
570.457	20967.46
570.819	21041.35
571.18	21114.12
571.542	21299.43
571.903	21285.41
572.265	21380.78
572.626	21429.37
572.987	21517.73
573.349	21709.81
573.71	21658.74
574.071	21832.75
574.432	21837.26
574.794	22085.62
575.155	22137.6
575.516	22107.54
575.877	22276.35
576.238	22364.03
576.599	22540.07
576.96	22552.27
577.32	22709.33
577.681	22817.13
578.042	22874.53
578.403	23099.6
578.763	23181.86
579.124	23158.81
579.485	23430.67
579.845	23612.13
580.206	23617.11
580.566	23749.3
580.927	23932.12
581.287	24247.6
581.648	24139.8
582.008	24447.82
582.368	24458.66
582.728	24611.2
583.089	24783.4
583.449	24917.86
583.809	25035.82
584.169	25301.58
584.529	25380.67
584.889	25670.61
585.249	25842.13
585.609	25879.19
585.969	26141.33
586.329	26229.69
586.688	26486.63
587.048	26678.27
587.408	26773.86
587.768	26996.45
588.127	27207.97
588.487	27290.23
588.846	27595.31
589.206	27659.94
589.565	27859.71
589.925	28126.82
590.284	28242.52
590.643	28394.38
591.003	28687.48
591.362	28920.92
591.721	29073.46
592.08	29207.69
592.44	29590.28
592.799	29758.19
593.158	29785.98
593.517	29962.25
593.876	30144.17
594.235	30325.4
594.593	30439.98
594.952	30730.14
595.311	30811.49
595.67	31021.66
596.029	31245.83
596.387	31650.11
596.746	31731.24
597.104	31636.78
597.463	31918.36
597.822	32220.72
598.18	32233.83
598.538	32414.16
598.897	32654.38
599.255	32549.75
599.613	33240.13
599.972	33104.31
600.33	33303.18
600.688	33394.93
601.046	33711.98
601.404	33925.08
601.762	33903.84
602.12	34278.29
602.478	34347.22
602.836	34438.74
603.194	34419.31
603.552	34673.99
603.91	34631.5
604.268	35002.34
604.625	35119.18
604.983	35298.61
605.341	35216.12
605.698	35470.35
606.056	35664.25
606.413	35589.22
606.771	35911.25
607.128	36025.37
607.485	35936.1
607.843	36100.62
608.2	36372.93
608.557	36583.77
608.914	36655.18
609.272	36999.8
609.629	36993.02
609.986	37148.5
610.343	37110.08
610.7	37364.77
611.057	37520.92
611.414	37458.55
611.771	37728.15
612.127	37887.92
612.484	37799.78
612.841	38141.92
613.198	38069.61
613.554	38119.77
613.911	38409.94
614.267	38493.78
614.624	38461.23
614.98	38461.46
615.337	38776.71
615.693	38738.06
616.05	38846.54
616.406	39125.85
616.762	38830.72
617.118	39084.72
617.475	39042.01
617.831	39328.1
618.187	39319.29
618.543	39534.2
618.899	39711.15
619.255	39738.26
619.611	39730.13
619.967	39861.2
620.323	39993.17
620.678	39886.28
621.034	39915.89
621.39	40012.15
621.746	39911.82
622.101	40495.98
622.457	40216.67
622.812	40245.82
623.168	40375.08
623.523	40453.5
623.879	40691.01
624.234	40246.95
624.589	40519.26
624.945	40639.48
625.3	40678.58
625.655	40756.77
626.01	40795.86
626.365	40658.01
626.72	40741.4
627.075	40759.25
627.43	40763.09
627.785	40832.92
628.14	40945.46
628.495	40852.13
628.85	40843.77
629.205	40820.72
629.559	41077.66
629.914	40885.13
630.269	40822.3
630.623	40862.3
630.978	40720.16
631.332	40884.45
631.687	40956.31
632.041	40903.66
632.396	41104.33
632.75	40870.89
633.104	40872.24
633.459	40846.26
633.813	40814.39
634.167	40772.13
634.521	40893.03
634.875	40855.07
635.229	40911.34
635.583	40743.21
635.937	40791.79
636.291	40573.5
636.645	40757.9
636.999	40630.89
637.352	40934.62
637.706	40630.22
638.06	40681.29
638.413	40654.62
638.767	40503.44
639.121	40610.78
639.474	40354.74
639.828	40358.36
640.181	40540.28
640.534	40336.21
640.888	40400.17
641.241	40390.9
641.594	40336.67
641.947	40464.8
642.301	40284.01
642.654	40355.2
643.007	40370.56
643.36	40315.2
643.713	40221.41
644.066	40405.59
644.419	40154.75
644.771	40026.17
645.124	39694.42
645.477	39437.93
645.83	39272.51
646.182	39263.02
646.535	39193.42
646.888	39179.63
647.24	38878.85
647.593	39199.07
647.945	39159.75
648.298	38861.45
648.65	38734.22
649.002	38822.35
649.355	39006.53
649.707	38843.37
650.059	39017.6
650.411	39400.19
650.763	39456.01
651.115	39921.76
651.467	39685.38
651.819	39785.49
652.171	39693.07
652.523	39600.41
652.875	39580.75
653.227	39455.33
653.578	39724.93
653.93	39526.97
654.282	39566.52
654.633	39277.03
654.985	39450.36
655.337	39446.52
655.688	39332.85
656.039	39671.6
656.391	39122.01
656.742	39292.4
657.094	39277.26
657.445	39457.37
657.796	39307.09
658.147	39195.9
658.498	39254.89
658.849	39311.83
659.2	39275
659.551	39273.19
659.902	39379.85
660.253	39273.64
660.604	39297.14
660.955	39028.23
661.306	39278.39
661.656	39119.07
662.007	39129.92
662.358	39058.51
662.708	39209.24
663.059	39256.24
663.409	39003.14
663.76	39169.46
664.11	39151.16
664.461	39263.93
664.811	39206.53
665.161	39254.21
665.511	39027.1
665.862	39347.76
666.212	39245.17
666.562	39175.79
666.912	39117.26
667.262	39023.93
667.612	38995.91
667.962	39176.02
668.312	38974.89
668.662	39201.33
669.011	39025.29
669.361	38916.59
669.711	38865.52
670.06	38859.42
670.41	38905.97
670.76	38955.23
671.109	38986.87
671.459	38905.74
671.808	38857.16
672.157	38873.65
672.507	38781.9
672.856	38733.54
673.205	38803.6
673.554	38817.38
673.904	38660.78
674.253	38913.88
674.602	38738.06
674.951	38380.33
675.3	37915.49
675.649	38578.07
675.998	38644.73
676.346	38691.28
676.695	38850.38
677.044	38484.96
677.393	38643.6
677.741	38611.96
678.09	38466.66
678.438	38298.53
678.787	38371.52
679.135	38336.49
679.484	38204.29
679.832	38309.83
680.181	38149.6
680.529	38244.74
680.877	38187.12
681.225	37952.77
681.573	38214.69
681.922	38057.86
682.27	37916.62
682.618	37910.74
682.966	37880.68
683.314	37961.59
683.661	37930.85
684.009	37685.66
684.357	37548.72
684.705	37587.59
685.053	37785.55
685.4	37536.51
685.748	37445.67
686.095	37380.58
686.443	37228.95
686.79	37231.21
687.138	37366.57
687.485	37179.46
687.832	37056.98
688.18	37152.34
688.527	36793.03
688.874	36894.27
689.221	36807.94
689.568	36852.01
689.915	36642.75
690.262	36717.55
690.609	36574.05
690.956	36521.4
691.303	36454.96
691.65	36167.06
691.997	36247.06
692.344	36027.85
692.69	36049.77
693.037	36019.94
693.383	35683.23
693.73	35743.79
694.077	35612.04
694.423	35690.69
694.769	35499.73
695.116	35500.86
695.462	35291.15
695.808	35230.81
696.155	35439.62
696.501	35044.6
696.847	35121.89
697.193	34853.19
697.539	35009.57
697.885	34730.94
698.231	34512.64
698.577	34700.43
698.923	34550.6
699.269	34496.59
699.614	34207.11
699.96	34211.63
700.306	34258.41
700.651	34074.91
700.997	33986.32
701.342	33826.55
701.688	33928.47
702.033	33839.44
702.379	33835.59
702.724	33629.05
703.069	33535.49
703.415	33356.06
703.76	33486
704.105	33288.49
704.45	33313.57
704.795	33039.91
705.14	32996.97
705.485	32903.64
705.83	32841.04
706.175	32804.21
706.52	32765.79
706.865	32703.65
707.209	32577.55
707.554	32481.05
707.899	32511.33
708.243	32437.44
708.588	32316.76
708.932	32137.33
709.277	32162.87
709.621	32177.78
709.966	31884.46
710.31	32033.38
710.654	31786.16
710.998	31785.93
711.342	31790.68
711.687	31645.59
712.031	31639.49
712.375	31534.64
712.719	31591.13
713.063	31535.54
713.407	31479.5
713.75	31373.51
714.094	31400.4
714.438	31262.55
714.782	31288.54
715.125	31176.23
715.469	31113.18
715.812	30995.89
716.156	30811.27
716.499	30866.41
716.843	30924.26
717.186	30681.1
717.53	30710.93
717.873	30795
718.216	30676.58
718.559	30559.75
718.902	30320.66
719.246	30438.17
719.589	30313.88
719.932	30201.11
720.275	30159.08
720.617	30154.33
720.96	30108.69
721.303	30063.72
721.646	30101
721.989	29943.27
722.331	29996.6
722.674	29906.21
723.016	29856.71
723.359	29808.81
723.701	29745.08
724.044	29635.48
724.386	29439.55
724.729	29641.81
725.071	29512.09
725.413	29554.12
725.755	29497.18
726.097	29276.39
726.439	29317.52
726.782	29267.8
727.124	29387.35
727.465	29148.03
727.807	29120.92
728.149	29092.22
728.491	29003.4
728.833	29125.21
729.175	28970.64
729.516	28902.39
729.858	28892.22
730.199	28817.42
730.541	28779.68
730.882	28871.43
731.224	28809.51
731.565	28631.89
731.906	28744.2
732.248	28596.18
732.589	28532.68
732.93	28455.62
733.271	28487.03
733.612	28413.14
733.953	28419.01
734.294	28301.95
734.635	28281.62
734.976	28370.43
735.317	28176.53
735.658	28125.01
735.999	28188.74
736.339	28032.13
736.68	28106.93
737.021	27922.75
737.361	27974.73
737.702	28087.04
738.042	27989.19
738.383	27767.5
738.723	27827.39
739.063	27737.67
739.404	27894.73
739.744	27669.43
740.084	27605.47
740.424	27708.52
740.764	27577
741.104	27711.23
741.444	27465.59
741.784	27414.29
742.124	27437.12
742.464	27344.69
742.804	27378.14
743.143	27289.1
743.483	27266.73
743.823	27218.14
744.162	27108.09
744.502	27235.31
744.841	27077.35
745.181	27246.39
745.52	27029.44
745.86	27112.83
746.199	27127.75
746.538	26896.34
746.877	26966.4
747.216	26954.19
747.556	26914.87
747.895	26916.91
748.234	26760.3
748.573	26770.47
748.911	26697.02
749.25	26700.41
749.589	26473.3
749.928	26485.05
750.267	26476.69
750.605	26331.84
750.944	26496.8
751.283	26298.62
751.621	26373.42
751.96	26086.87
752.298	26184.95
752.636	26056.36
752.975	26061.11
753.313	25950.38
753.651	25916.48
753.989	25994.67
754.327	25844.39
754.666	25730.04
755.004	25771.17
755.342	25761.46
755.679	25698.86
756.017	25531.86
756.355	25503.38
756.693	25392.65
757.031	25497.96
757.368	25407.34
757.706	25326.89
758.044	25306.55
758.381	25298.42
758.719	25233.79
759.056	25169.61
759.394	24983.85
759.731	24855.72
760.068	24840.8
760.405	24742.05
760.743	24679.68
761.08	24726.91
761.417	24632.22
761.754	24610.3
762.091	24500.92
762.428	24373.92
762.765	24235.62
763.102	24264.32
763.438	24271.78
763.775	24159.46
764.112	24061.61
764.449	24199.24
764.785	24042.18
765.122	23851.9
765.458	23714.5
765.795	23621.62
766.131	23695.3
766.467	23612.59
766.804	23492.36
767.14	23346.15
767.476	23358.35
767.812	23271.35
768.148	23357.9
768.485	23052.15
768.821	22930.57
769.157	23005.82
769.492	22938.25
769.828	22886.05
770.164	22620.52
770.5	22585.49
770.836	22644.93
771.171	22435.89
771.507	22460.75
771.842	22248.33
772.178	22303.47
772.513	22172.62
772.849	22143.02
773.184	21998.39
773.519	22006.98
773.855	21914.78
774.19	21827.77
774.525	21747.1
774.86	21748.45
775.195	21684.05
775.53	21491.06
775.865	21434.79
776.2	21388.92
776.535	21150.28
776.87	21207.22
777.205	21089.04
777.539	20969.72
777.874	21077.74
778.209	20821.47
778.543	20792.55
778.878	20685.2
779.212	20680.91
779.547	20506.23
779.881	20649.27
780.215	20481.82
780.55	20456.06
780.884	20350.52
781.218	20322.28
781.552	20235.27
781.886	20126.12
782.22	20158.21
782.554	19951.21
782.888	19820.82
783.222	19738.34
783.556	19663.31
783.889	19631.22
784.223	19424.9
784.557	19464.67
784.89	19561.84
785.224	19362.53
785.557	19171.57
785.891	19217.67
786.224	19157.79
786.558	19162.98
786.891	18939.49
787.224	18922.31
787.557	18877.57
787.891	18797.8
788.224	18775.65
788.557	18739.95
788.89	18669.66
789.223	18600.06
789.556	18533.85
789.888	18487.52
790.221	18400.29
790.554	18249.56
790.887	18266.29
791.219	18210.92
791.552	18080.75
791.884	18109.68
792.217	17951.49
792.549	17939.06
792.882	17838.5
793.214	17765.73
793.546	17747.43
793.879	17659.3
794.211	17586.76
794.543	17647.54
794.875	17573.2
795.207	17632.86
795.539	17436.25
795.871	17421.79
796.203	17310.15
796.535	17284.39
796.867	17196.93
797.198	17137.73
797.53	17103.83
797.862	17049.59
798.193	17005.08
798.525	16921.24
798.856	16939.99
799.188	16784.97
799.519	16716.5
799.85	16593.79
800.182	16634.24
800.513	16623.39
800.844	16410.97
801.175	16563.96
801.506	16494.13
801.837	16395.6
802.168	16366.9
802.499	16192.67
802.83	16186.11
803.161	16154.25
803.491	16153.35
803.822	16096.4
804.153	16027.93
804.483	15911.32
804.814	15888.27
805.145	15916.06
805.475	15847.59
805.805	15749.29
806.136	15811.43
806.466	15773.24
806.796	15715.39
807.126	15556.3
807.457	15486.47
807.787	15569.41
808.117	15462.52
808.447	15355.85
808.777	15366.93
809.107	15420.26
809.436	15224.56
809.766	15267.95
810.096	15247.83
810.426	15140.72
810.755	15242.64
811.085	15130.32
811.414	15082.41
811.744	14996.54
812.073	14978.91
812.403	15010.1
812.732	14872.02
813.061	14879.48
813.39	14797.68
813.719	14786.83
814.049	14844
814.378	14769.2
814.707	14669.77
815.036	14576.89
815.365	14571.24
815.693	14441.3
816.022	14505.93
816.351	14341.19
816.68	14318.14
817.008	14393.84
817.337	14217.8
817.665	14223.68
817.994	14311.14
818.322	14223.45
818.651	14185.04
818.979	14097.58
819.307	14118.15
819.636	14159.73
819.964	14054.64
820.292	14102.33
820.62	14144.36
820.948	14011.26
821.276	14049.22
821.604	13949.11
821.932	13996.57
822.259	14048.09
822.587	13972.61
822.915	13957.92
823.243	13945.49
823.57	13886.29
823.898	14025.72
824.225	13926.96
824.553	13885.84
824.88	13928.77
825.207	13963.12
825.535	13945.72
825.862	14000.86
826.189	13922.22
826.516	14007.41
826.843	13981.2
827.17	13927.87
827.497	13983.46
827.824	13958.6
828.151	13937.81
828.478	13848.55
828.805	13943.69
829.131	13940.3
829.458	13887.42
829.785	13838.83
830.111	13844.48
830.438	13893.52
830.764	13875.44
831.09	13904.37
831.417	13794.09
831.743	13820.75
832.069	13851.26
832.395	13870.92
832.722	13756.35
833.048	13734.2
833.374	13781.21
833.7	13780.75
834.026	13768.55
834.351	13849
834.677	13823.01
835.003	13769.23
835.329	13717.25
835.654	13756.8
835.98	13599.29
836.306	13638.38
836.631	13582.57
836.956	13573.98
837.282	13592.51
837.607	13613.53
837.932	13536.92
838.258	13607.2
838.583	13474.55
838.908	13460.54
839.233	13453.53
839.558	13417.15
839.883	13379.41
840.208	13413.08
840.533	13365.4
840.858	13315.91
841.182	13380.09
841.507	13318.62
841.832	13193.65
842.156	13207.66
842.481	13250.15
842.805	13172.86
843.13	13123.82
843.454	13047.67
843.778	13040.89
844.103	12916.37
844.427	12954.56
844.751	12937.84
845.075	12908.69
845.399	12868.24
845.723	12815.36
846.047	12929.93
846.371	12731.52
846.695	12695.36
847.019	12647.22
847.343	12515.25
847.666	12514.8
847.99	12511.18
848.313	12514.12
848.637	12447
848.96	12398.64
849.284	12316.39
849.607	12248.59
849.931	12204.98
850.254	12089.5
850.577	12085.66
850.9	12008.37
851.223	12001.59
851.546	11887.24
851.869	11805.44
852.192	11923.4
852.515	11837.98
852.838	11724.08
853.161	11743.97
853.483	11703.52
853.806	11662.84
854.129	11637.53
854.451	11566.12
854.774	11517.76
855.096	11444.77
855.419	11462.62
855.741	11424.43
856.063	11433.47
856.385	11336.07
856.708	11389.18
857.03	11255.17
857.352	11284.32
857.674	11283.19
857.996	11242.29
858.318	11160.71
858.64	11074.61
858.961	11066.02
859.283	11077.77
859.605	11003.2
859.926	11047.94
860.248	10969.75
860.57	10970.43
860.891	10982.63
861.212	10892.69
861.534	10835.97
861.855	10775.86
862.176	10885.46
862.498	10803.43
862.819	10851.56
863.14	10757.33
863.461	10706.26
863.782	10698.12
864.103	10709.2
864.424	10693.38
864.745	10594.4
865.065	10592.14
865.386	10583.1
865.707	10598.01
866.027	10571.12
866.348	10540.61
866.668	10545.36
866.989	10487.05
867.309	10356.44
867.63	10492.25
867.95	10427.62
868.27	10390.56
868.59	10386.94
868.91	10357.57
869.23	10370.9
869.55	10364.57
869.87	10373.84
870.19	10229.21
870.51	10273.28
870.83	10313.73
871.15	10202.54
871.469	10174.97
871.789	10264.01
872.109	10183.79
872.428	10188.31
872.748	10214.52
873.067	10166.39
873.386	10203.67
873.706	10147.85
874.025	10142.21
874.344	10118.93
874.663	10115.77
874.982	10080.06
875.301	10079.16
875.62	10029.67
875.939	10024.24
876.258	9985.6
876.577	9919.61
876.896	9952.38
877.214	9928.2
877.533	9937.01
877.852	9895.43
878.17	9894.53
878.489	9956.22
878.807	9885.04
879.125	9843.23
879.444	9785.83
879.762	9802.1
880.08	9784.93
880.398	9721.88
880.716	9738.37
881.034	9777.24
881.352	9783.12
881.67	9683.91
881.988	9708.09
882.306	9693.86
882.624	9661.09
882.941	9578.38
883.259	9585.84
883.577	9528.21
883.894	9596.23
884.212	9496.35
884.529	9512.39
884.846	9378.38
885.164	9432.39
885.481	9442.34
885.798	9434.88
886.115	9401.21
886.432	9354.43
886.75	9325.73
887.067	9306.97
887.383	9289.12
887.7	9313.3
888.017	9243.7
888.334	9263.36
888.651	9261.1
888.967	9186.3
889.284	9130.48
889.6	9121.44
889.917	9054.78
890.233	9056.58
890.55	8998.73
890.866	9064.04
891.182	8988.34
891.498	9009.58
891.815	8999.64
892.131	9008.45
892.447	8899.3
892.763	8876.25
893.079	8841
893.395	8840.32
893.71	8842.13
894.026	8808.23
894.342	8772.52
894.657	8706.54
894.973	8728.91
895.289	8638.97
895.604	8661.79
895.92	8613.21
896.235	8591.06
896.55	8572.08
896.865	8629.48
897.181	8433.1
897.496	8497.28
897.811	8448.01
898.126	8459.99
898.441	8434.68
898.756	8366.66
899.071	8348.58
899.386	8331.18
899.7	8284.17
900.015	8194.91
900.33	8157.85
900.644	8236.49
900.959	8173.67
901.273	8080.34
901.588	8107.46
901.902	8049.83
902.216	8071.07
902.531	8041.92
902.845	8005.31
903.159	7995.82
903.473	7896.61
903.787	7887.8
904.101	7859.1
904.415	7796.28
904.729	7835.15
905.042	7681.03
905.356	7757.41
905.67	7750.86
905.984	7762.38
906.297	7614.36
906.611	7617.3
906.924	7602.61
907.237	7602.84
907.551	7526.91
907.864	7533.01
908.177	7460.92
908.491	7494.37
908.804	7461.6
909.117	7431.54
909.43	7410.98
909.743	7333.01
910.056	7304.99
910.368	7302.73
910.681	7264.99
910.994	7234.03
911.307	7191.32
911.619	7160.36
911.932	7176.86
912.244	7050.31
912.557	7093.02
912.869	7017.77
913.181	6991.78
913.494	7018.9
913.806	7003.53
914.118	6908.17
914.43	6902.52
914.742	6931.89
915.054	6843.31
915.366	6818
915.678	6798.11
915.99	6757.89
916.302	6710.66
916.613	6670.88
916.925	6631.34
917.236	6681.73
917.548	6613.48
917.859	6597.89
918.171	6604.44
918.482	6552.92
918.794	6486.48
919.105	6493.04
919.416	6448.74
919.727	6487.61
920.038	6374.85
920.349	6370.55
920.66	6302.98
920.971	6335.75
921.282	6270.89
921.593	6275.41
921.903	6247.39
922.214	6206.04
922.525	6190.67
922.835	6188.86
923.146	6100.05
923.456	6141.63
923.767	6037.91
924.077	6055.08
924.387	5962.88
924.697	6006.27
925.008	5958.81
925.318	6013.5
925.628	5954.07
925.938	5896.22
926.248	5848.76
926.558	5807.63
926.867	5831.13
927.177	5808.76
927.487	5760.17
927.796	5752.04
928.106	5777.8
928.416	5703
928.725	5736.67
929.034	5648.09
929.344	5663.45
929.653	5664.81
929.962	5632.27
930.271	5587.07
930.581	5533.51
930.89	5516.11
931.199	5479.5
931.508	5493.74
931.817	5506.39
932.125	5469.33
932.434	5444.7
932.743	5398.15
933.051	5310.02
933.36	5309.79
933.669	5344.59
933.977	5318.15
934.286	5264.59
934.594	5286.29
934.902	5258.94
935.21	5190.24
935.519	5193.18
935.827	5161.55
936.135	5124.71
936.443	5134.88
936.751	5124.03
937.059	5053.98
937.367	5075.45
937.674	4999.74
937.982	5017.37
938.29	4978.95
938.597	4980.08
938.905	4928.56
939.213	4976.47
939.52	4914.09
939.827	4882
940.135	4801.55
940.442	4843.14
940.749	4813.53
941.056	4843.36
941.363	4733.99
941.67	4772.4
941.977	4737.83
942.284	4715
942.591	4708.9
942.898	4699.18
943.205	4676.13
943.511	4613.31
943.818	4610.83
944.125	4580.54
944.431	4606.08
944.738	4595.68
945.044	4556.59
945.35	4517.72
945.657	4522.24
945.963	4468.46
946.269	4451.06
946.575	4451.96
946.881	4410.38
947.187	4362.92
947.493	4376.25
947.799	4390.27
948.105	4344.62
948.41	4334
948.716	4352.75
949.022	4281.12
949.327	4256.03
949.633	4223.04
949.938	4289.25
950.244	4193.21
950.549	4197.28
950.854	4194.11
951.16	4167.67
951.465	4144.4
951.77	4146.88
952.075	4134
952.38	4098.75
952.685	4101.69
952.99	4040.44
953.294	4007.45
953.599	4025.53
953.904	3987.34
954.209	3977.17
954.513	3948.7
954.818	3950.5
955.122	3962.25
955.426	3931.75
955.731	3880.9
956.035	3850.62
956.339	3878.41
956.643	3864.86
956.948	3826.89
957.252	3814.69
957.556	3844.29
957.86	3784.63
958.163	3771.3
958.467	3777.4
958.771	3753.9
959.075	3744.18
959.378	3702.6
959.682	3659.21
959.985	3677.74
960.289	3682.94
960.592	3637.74
960.896	3599.55
961.199	3628.48
961.502	3616.05
961.805	3540.34
962.108	3577.18
962.411	3540.8
962.714	3477.07
963.017	3479.78
963.32	3546.9
963.623	3460.12
963.926	3480.69
964.228	3443.85
964.531	3453.34
964.833	3454.02
965.136	3431.42
965.438	3380.35
965.741	3357.75
966.043	3366.56
966.345	3345.32
966.648	3346
966.95	3343.51
967.252	3301.93
967.554	3288.6
967.856	3301.93
968.158	3237.53
968.46	3252.89
968.761	3243.18
969.063	3251.31
969.365	3219.45
969.666	3193.01
969.968	3176.74
970.269	3162.28
970.571	3153.01
970.872	3150.3
971.174	3128.15
971.475	3134.03
971.776	3101.71
972.077	3098.1
972.378	3063.07
972.679	3093.12
972.98	3095.38
973.281	3039.12
973.582	3021.49
973.883	3004.31
974.183	3018.32
974.484	2990.75
974.785	2972
975.085	2978.1
975.386	2943.3
975.686	2918.21
975.986	2936.52
976.287	2863.75
976.587	2900.81
976.887	2879.35
977.187	2884.32
977.487	2875.28
977.787	2825.11
978.087	2814.94
978.387	2811.1
978.687	2800.7
978.987	2802.29
979.286	2758.9
979.586	2767.03
979.885	2769.29
980.185	2719.35
980.484	2747.82
980.784	2731.78
981.083	2686.13
981.382	2716.19
981.682	2678.9
981.981	2661.72
982.28	2657.2
982.579	2627.37
982.878	2608.84
983.177	2615.4
983.475	2632.57
983.774	2587.38
984.073	2579.24
984.372	2575.85
984.67	2542.18
984.969	2571.78
985.267	2536.98
985.566	2556.87
985.864	2551.22
986.162	2521.84
986.461	2489.98
986.759	2492.01
987.057	2468.06
987.355	2469.19
987.653	2457.66
987.951	2446.59
988.249	2422.63
988.547	2445.23
988.844	2395.74
989.142	2391.45
989.44	2394.61
989.737	2383.09
990.035	2346.03
990.332	2375.86
990.63	2362.52
990.927	2346.03
991.224	2336.76
991.521	2289.53
991.819	2315.52
992.116	2318
992.413	2280.04
992.71	2295.41
993.006	2255.41
993.303	2247.27
993.6	2265.35
993.897	2212.02
994.193	2233.71
994.49	2205.46
994.787	2193.04
995.083	2175.18
995.379	2172.47
995.676	2178.57
995.972	2175.86
996.268	2161.4
996.565	2113.72
996.861	2125.47
997.157	2115.98
997.453	2113.49
997.749	2112.81
998.044	2100.16
998.34	2068.97
998.636	2076.2
998.932	2050.67
999.227	2053.6
999.523	2035.53
999.818	2041.85
1000.114	2011.12
1000.409	2004.11
1000.704	1999.59
1001	1969.99
1001.295	1968.41
1001.59	1952.82
1001.885	1953.04
1002.18	1954.85
1002.475	1940.16
1002.77	1916.21
1003.065	1923.89
1003.359	1929.31
1003.654	1902.65
1003.949	1895.42
1004.243	1888.86
1004.538	1865.36
1004.832	1880.05
1005.127	1845.47
1005.421	1848.86
1005.715	1828.3
1006.009	1833.27
1006.304	1786.49
1006.598	1782.2
1006.892	1777.91
1007.186	1753.5
1007.48	1765.48
1007.773	1764.12
1008.067	1744.46
1008.361	1726.83
1008.655	1714.4
1008.948	1712.6
1009.242	1731.35
1009.535	1721.41
1009.829	1705.36
1010.122	1715.31
1010.415	1675.99
1010.708	1656.78
1011.001	1616.55
1011.295	1642.99
1011.588	1614.52
1011.881	1626.04
1012.173	1593.05
1012.466	1616.78
1012.759	1592.83
1013.052	1585.59
1013.344	1565.48
1013.637	1608.64
1013.93	1550.34
1014.222	1574.52
1014.514	1529.55
1014.807	1521.64
1015.099	1543.56
1015.391	1494.97
1015.683	1537.69
1015.976	1479.16
1016.268	1501.53
1016.56	1468.76
1016.851	1475.09
1017.143	1438.48
1017.435	1474.18
1017.727	1449.1
1018.018	1425.37
1018.31	1442.77
1018.602	1410.91
1018.893	1421.53
1019.185	1425.82
1019.476	1386.96
1019.767	1366.62
1020.058	1394.86
1020.35	1351.48
1020.641	1341.98
1020.932	1351.48
1021.223	1359.84
1021.514	1325.04
1021.804	1293.4
1022.095	1327.3
1022.386	1326.84
1022.677	1300.63
1022.967	1292.95
1023.258	1281.87
1023.548	1258.14
1023.839	1274.64
1024.129	1263.57
1024.419	1233.51
1024.709	1248.65
1025	1254.98
1025.29	1235.55
1025.58	1213.85
1025.87	1205.49
1026.16	1205.26
1026.449	1197.13
1026.739	1176.79
1027.029	1153.29
1027.319	1160.29
1027.608	1154.64
1027.898	1161.88
1028.187	1172.72
1028.477	1161.65
1028.766	1172.95
1029.055	1113.74
1029.344	1120.97
1029.634	1100.86
1029.923	1085.27
1030.212	1104.02
1030.501	1098.6
1030.79	1085.95
1031.078	1075.55
1031.367	1079.84
1031.656	1060.18
1031.945	1064.48
1032.233	1053.4
1032.522	1064.03
1032.81	1052.73
1033.099	1051.6
1033.387	1036
1033.675	1003.69
1033.963	1005.72
1034.251	1015.67
1034.54	1006.85
1034.828	1009.11
1035.116	991.94
1035.403	987.87
1035.691	989
1035.979	963.01
1036.267	940.64
1036.554	939.51
1036.842	923.92
1037.129	933.18
1037.417	925.27
1037.704	932.73
1037.992	943.8
1038.279	936.35
1038.566	910.58
1038.853	910.58
1039.14	910.58
