Data from hue_300_FLMS001491_00067.txt Node
Date: Tue Feb 07 15:51:03 GMT 2017
User: dcchb
Spectrometer: FLMS00149
Trigger mode: 0
Integration Time (sec): 2.000000E-2
Scans to average: 10
Electric dark correction enabled: true
Nonlinearity correction enabled: false
Boxcar width: 0
XAxis mode: Wavelengths
Number of Pixels in Spectrum: 2048
>>>>>Begin Spectral Data<<<<<
341.393	-10.4
341.776	-10.4
342.16	-10.4
342.543	-68.02
342.927	-64.63
343.31	-54.69
343.693	-89.72
344.077	-78.64
344.46	-42.94
344.843	-37.06
345.226	-48.81
345.61	-29.6
345.993	-7.91
346.376	4.07
346.759	-1.36
347.142	25.08
347.525	51.52
347.908	53.33
348.291	75.93
348.674	76.16
349.057	104.63
349.44	104.18
349.823	151.63
350.206	148.24
350.588	180.33
350.971	196.83
351.354	222.14
351.737	244.97
352.119	240.9
352.502	257.62
352.884	282.93
353.267	277.28
353.65	291.07
354.032	308.47
354.414	322.48
354.797	308.69
355.179	311.18
355.562	299.65
355.944	325.87
356.326	326.32
356.709	347.79
357.091	315.7
357.473	324.74
357.855	334.68
358.238	333.1
358.62	345.08
359.002	334.23
359.384	339.88
359.766	347.34
360.148	338.97
360.53	351.86
360.912	346.43
361.294	313.66
361.676	334.23
362.057	325.42
362.439	336.94
362.821	324.96
363.203	323.16
363.584	313.66
363.966	327.45
364.348	308.69
364.729	327.45
365.111	310.73
365.493	327.9
365.874	323.83
366.256	324.06
366.637	333.32
367.019	305.98
367.4	317.28
367.781	297.39
368.163	300.56
368.544	312.08
368.925	299.88
369.306	319.54
369.688	317.73
370.069	302.82
370.45	297.62
370.831	297.17
371.212	308.92
371.593	295.59
371.974	341.91
372.355	292.2
372.736	321.35
373.117	307.56
373.498	328.58
373.879	313.89
374.26	310.95
374.641	313.44
375.021	313.66
375.402	322.93
375.783	312.31
376.163	305.3
376.544	304.17
376.925	346.88
377.305	325.64
377.686	320.44
378.066	308.01
378.447	328.8
378.827	338.3
379.208	331.97
379.588	355.92
379.968	334.23
380.349	332.65
380.729	343.95
381.109	331.74
381.489	321.8
381.87	345.98
382.25	341.91
382.63	350.95
383.01	334.68
383.39	343.72
383.77	341.91
384.15	342.82
384.53	365.41
384.91	351.86
385.29	350.95
385.67	364.74
386.049	340.33
386.429	375.13
386.809	346.66
387.189	359.54
387.568	371.52
387.948	361.57
388.328	359.76
388.707	365.87
389.087	367.67
389.466	387.56
389.846	364.74
390.225	368.58
390.605	367.67
390.984	388.46
391.363	387.79
391.743	377.84
392.122	383.72
392.501	381.46
392.881	384.17
393.26	366.09
393.639	381.91
394.018	396.15
394.397	402.48
394.776	383.49
395.155	387.33
395.534	389.82
395.913	372.42
396.292	405.87
396.671	400.22
397.05	376.26
397.429	391.63
397.808	363.15
398.186	402.48
398.565	418.52
398.944	403.15
399.323	426.43
399.701	419.2
400.08	419.2
400.458	399.31
400.837	409.03
401.215	403.15
401.594	448.8
401.972	437.5
402.351	431.85
402.729	437.28
403.107	447.22
403.486	456.26
403.864	433.89
404.242	450.38
404.62	459.2
404.999	436.15
405.377	449.03
405.755	449.48
406.133	458.29
406.511	471.85
406.889	482.02
407.267	486.99
407.645	472.3
408.023	480.21
408.401	514.11
408.779	509.37
409.156	511.4
409.534	538.52
409.912	519.53
410.29	522.02
410.667	519.53
411.045	529.03
411.422	538.52
411.8	560.44
412.178	557.95
412.555	564.96
412.933	569.25
413.31	574.45
413.687	589.36
414.065	618.51
414.442	606.09
414.819	593.66
415.197	608.8
415.574	622.13
415.951	649.47
416.328	654.45
416.705	655.35
417.082	635.01
417.46	656.71
417.837	680.21
418.214	693.09
418.591	704.39
418.967	734.44
419.344	712.75
419.721	727.44
420.098	715.69
420.475	765.63
420.852	758.17
421.228	752.3
421.605	767.21
421.982	776.48
422.358	777.83
422.735	789.58
423.111	793.43
423.488	791.62
423.864	834.1
424.241	849.47
424.617	829.36
424.994	819.19
425.37	842.01
425.746	840.2
426.123	895.8
426.499	860.77
426.875	882.46
427.251	914.33
427.627	917.26
428.003	930.15
428.379	934.44
428.756	943.25
429.132	941.9
429.507	947.77
429.883	955.68
430.259	970.14
430.635	991.84
431.011	987.77
431.387	1026.64
431.763	1045.17
432.138	1053.76
432.514	1061.22
432.89	1056.02
433.265	1112.74
433.641	1113.42
434.016	1118.61
434.392	1131.04
434.767	1134.66
435.143	1136.02
435.518	1157.94
435.894	1143.02
436.269	1179.86
436.644	1165.39
437.02	1197.48
437.395	1219.4
437.77	1230.93
438.145	1241.78
438.52	1258.5
438.895	1237.26
439.271	1274.54
439.646	1279.97
440.021	1295.79
440.395	1281.77
440.77	1305.95
441.145	1285.84
441.52	1331.26
441.895	1323.58
442.27	1349.8
442.645	1365.16
443.019	1335.11
443.394	1345.73
443.769	1352.96
444.143	1363.81
444.518	1372.17
444.892	1381.88
445.267	1366.97
445.641	1409.91
446.016	1415.56
446.39	1400.19
446.764	1422.56
447.139	1420.08
447.513	1422.56
447.887	1394.09
448.262	1423.92
448.636	1446.29
449.01	1441.54
449.384	1437.25
449.758	1436.12
450.132	1490.58
450.506	1474.54
450.88	1486.51
451.254	1471.83
451.628	1506.85
452.002	1514.99
452.376	1522.45
452.75	1532.39
453.123	1521.32
453.497	1519.96
453.871	1572.61
454.244	1566.74
454.618	1552.73
454.992	1615.78
455.365	1602.67
455.739	1620.07
456.112	1630.69
456.486	1605.61
456.859	1636.34
457.232	1646.06
457.606	1634.99
457.979	1663.01
458.352	1740.75
458.725	1723.57
459.099	1723.57
459.472	1776.9
459.845	1759.73
460.218	1750.91
460.591	1787.07
460.964	1799.5
461.337	1820.97
461.71	1846.96
462.083	1842.21
462.456	1845.6
462.829	1865.04
463.201	1891.25
463.574	1857.8
463.947	1896
464.32	1977.35
464.692	1929.67
465.065	1975.54
465.438	1987.29
465.81	1995.43
466.183	2005.37
466.555	2050.79
466.928	2030.23
467.3	2079.04
467.672	2086.72
468.045	2090.34
468.417	2072.04
468.789	2096.89
469.161	2134.18
469.534	2154.52
469.906	2208.98
470.278	2190
470.65	2198.59
471.022	2255.76
471.394	2246.04
471.766	2240.39
472.138	2278.13
472.51	2330.11
472.882	2363.78
473.253	2394.06
473.625	2358.81
473.997	2410.11
474.369	2448.75
474.74	2434.06
475.112	2467.73
475.484	2504.34
475.855	2512.7
476.227	2571.23
476.598	2589.54
476.97	2615.3
477.341	2664.34
477.713	2683.09
478.084	2687.84
478.455	2772.13
478.827	2801.51
479.198	2869.3
479.569	2831.56
479.94	2857.55
480.311	2903.65
480.682	2926.02
481.053	2978.9
481.424	3027.04
481.795	3028.85
482.166	3065
482.537	3121.73
482.908	3199.24
483.279	3176.19
483.65	3205.34
484.021	3248.28
484.391	3254.15
484.762	3284.66
485.133	3302.51
485.503	3311.55
485.874	3386.13
486.244	3404.88
486.615	3489.4
486.985	3492.79
487.356	3557.65
487.726	3551.32
488.097	3592.22
488.467	3629.74
488.837	3649.17
489.207	3698.66
489.578	3672.67
489.948	3740.69
490.318	3789.05
490.688	3822.5
491.058	3820.92
491.428	3851.2
491.798	3884.64
492.168	3934.13
492.538	3984.3
492.908	3996.96
493.278	4051.42
493.648	4072.66
494.017	4091.87
494.387	4146.56
494.757	4165.09
495.126	4142.72
495.496	4168.93
495.866	4217.74
496.235	4199.66
496.605	4267.23
496.974	4235.59
497.344	4268.59
497.713	4305.42
498.082	4369.38
498.452	4346.1
498.821	4418.19
499.19	4354.01
499.559	4429.94
499.928	4436.72
500.298	4442.6
500.667	4483.72
501.036	4467.91
501.405	4490.05
501.774	4533.89
502.143	4566.66
502.512	4602.14
502.88	4631.52
503.249	4621.12
503.618	4620.22
503.987	4639.2
504.356	4668.8
504.724	4674.45
505.093	4701.57
505.462	4656.83
505.83	4732.76
506.199	4779.54
506.567	4744.51
506.936	4798.74
507.304	4821.12
507.672	4798.29
508.041	4858.18
508.409	4873.09
508.777	4911.96
509.145	4877.16
509.514	4907.44
509.882	4921
510.25	4965.07
510.618	5005.07
510.986	5025.4
511.354	5016.14
511.722	5036.7
512.09	5121.22
512.458	5057.27
512.826	5113.54
513.193	5117.15
513.561	5091.62
513.929	5198.06
514.297	5168.45
514.664	5163.71
515.032	5165.97
515.4	5252.29
515.767	5184.95
516.135	5228.56
516.502	5240.09
516.869	5314.44
517.237	5254.55
517.604	5252.29
517.972	5319.63
518.339	5419.29
518.706	5367.99
519.073	5387.43
519.44	5389.24
519.808	5406.41
520.175	5449.8
520.542	5476.47
520.909	5452.06
521.276	5472.85
521.643	5523.02
522.009	5563.7
522.376	5590.14
522.743	5581.1
523.11	5609.34
523.477	5676.46
523.843	5649.57
524.21	5712.62
524.577	5695.67
524.943	5763.69
525.31	5784.48
525.676	5814.54
526.043	5872.61
526.409	5908.77
526.776	5909.9
527.142	5949.22
527.508	5969.79
527.874	6036
528.241	6049.56
528.607	6026.51
528.973	6078.03
529.339	6032.84
529.705	6135.88
530.071	6178.37
530.437	6188.99
530.803	6215.66
531.169	6257.91
531.535	6247.07
531.901	6243.23
532.267	6287.52
532.632	6345.82
532.998	6334.07
533.364	6386.72
533.73	6356.44
534.095	6421.53
534.461	6463.56
534.826	6560.73
535.192	6508.98
535.557	6567.06
535.923	6559.38
536.288	6586.49
536.653	6627.4
537.019	6637.57
537.384	6652.48
537.749	6730.67
538.114	6688.19
538.479	6706.04
538.845	6715.08
539.21	6711.69
539.575	6803.21
539.94	6843.66
540.305	6883.21
540.67	6824.91
541.034	6875.75
541.399	6931.57
541.764	6963.66
542.129	7008.86
542.494	7038.46
542.858	7004.11
543.223	6996.2
543.587	7082.75
543.952	7138.34
544.316	7151.68
544.681	7084.79
545.045	7239.58
545.41	7275.74
545.774	7302.18
546.138	7246.82
546.503	7306.25
546.867	7264.22
547.231	7313.25
547.595	7362.52
547.959	7429.18
548.324	7462.63
548.688	7460.59
549.052	7474.15
549.416	7519.8
549.779	7528.39
550.143	7516.86
550.507	7558.9
550.871	7642.96
551.235	7579.91
551.599	7635.96
551.962	7707.37
552.326	7671.21
552.689	7692.23
553.053	7646.35
553.417	7754.15
553.78	7824.88
554.143	7814.94
554.507	7810.64
554.87	7856.52
555.234	7905.78
555.597	7856.74
555.96	7958.21
556.323	7922.28
556.686	8014.25
557.05	7990.52
557.413	8051.09
557.776	7997.08
558.139	8088.6
558.502	8108.04
558.865	8091.31
559.228	8099.9
559.59	8197.07
559.953	8156.85
560.316	8303.51
560.679	8234.59
561.041	8307.13
561.404	8275.26
561.767	8343.06
562.129	8378.99
562.492	8388.93
562.854	8352.32
563.217	8426.9
563.579	8515.48
563.941	8492.88
564.304	8524.3
564.666	8532.43
565.028	8587.57
565.39	8582.83
565.753	8653.78
566.115	8672.31
566.477	8651.98
566.839	8758.87
567.201	8764.06
567.563	8751.41
567.925	8896.04
568.287	8841.58
568.648	8871.63
569.01	8910.73
569.372	9035.02
569.734	8916.38
570.095	9059.2
570.457	9118.63
570.819	9119.53
571.18	9111.17
571.542	9118.86
571.903	9216.93
572.265	9265.97
572.626	9306.65
572.987	9352.3
573.349	9395.23
573.71	9465.29
574.071	9472.07
574.432	9540.99
574.794	9634.77
575.155	9653.08
575.516	9679.29
575.877	9757.26
576.238	9855.79
576.599	9940.98
576.96	9933.07
577.32	10042.22
577.681	10184.59
578.042	10244.02
578.403	10299.39
578.763	10456.9
579.124	10500.06
579.485	10573.51
579.845	10729.89
580.206	10873.61
580.566	10918.81
580.927	11029.54
581.287	11244.9
581.648	11333.04
582.008	11563.99
582.368	11605.8
582.728	11881.72
583.089	11961.95
583.449	12090.53
583.809	12262.28
584.169	12472.21
584.529	12570.06
584.889	12941.58
585.249	13034.91
585.609	13150.84
585.969	13471.28
586.329	13651.17
586.688	13929.35
587.048	14138.61
587.408	14271.49
587.768	14501.31
588.127	14684.13
588.487	15124.12
588.846	15348.3
589.206	15466.03
589.565	15808.17
589.925	16096.98
590.284	16280.02
590.643	16569.51
591.003	16916.84
591.362	17096.27
591.721	17477.96
592.08	17706.65
592.44	18039.75
592.799	18280.2
593.158	18568.1
593.517	18771.03
593.876	19222.09
594.235	19387.29
594.593	19765.58
594.952	19990.21
595.311	20336.41
595.67	20606.69
596.029	21020.92
596.387	21287.8
596.746	21666.32
597.104	21927.11
597.463	22278.96
597.822	22589.91
598.18	22728.44
598.538	23017.93
598.897	23469.21
599.255	23487.74
599.613	24149.42
599.972	24130.21
600.33	24522.97
600.688	24804.77
601.046	25096.74
601.404	25485.88
601.762	25699.21
602.12	25996.38
602.478	26324.51
602.836	26451.06
603.194	26755.91
603.552	26918.16
603.91	27172.84
604.268	27372.84
604.625	27723.34
604.983	28137.11
605.341	28165.14
605.698	28418.01
606.056	28793.37
606.413	28962.4
606.771	29245.11
607.128	29502.95
607.485	29551.99
607.843	29869.27
608.2	30204.63
608.557	30469.71
608.914	30551.29
609.272	30896.59
609.629	31165.73
609.986	31489.57
610.343	31339.06
610.7	31869.67
611.057	31958.26
611.414	32102.43
611.771	32419.49
612.127	32633.72
612.484	32739.7
612.841	32997.78
613.198	33085.23
613.554	33255.17
613.911	33551.21
614.267	33712.56
614.624	33920.92
614.98	34066.45
615.337	34418.3
615.693	34333.56
616.05	34470.28
616.406	34762.25
616.762	34792.31
617.118	34973.54
617.475	34982.13
617.831	35277.26
618.187	35362.23
618.543	35472.74
618.899	35675.9
619.255	35815.1
619.611	35867.76
619.967	36133.97
620.323	36302.32
620.678	36258.71
621.034	36392.26
621.39	36522.2
621.746	36502.32
622.101	36953.6
622.457	36757.45
622.812	37000.61
623.168	37090.32
623.523	37168.29
623.879	37351.56
624.234	37253.26
624.589	37401.05
624.945	37583.42
625.3	37699.12
625.655	37656.86
626.01	37641.5
626.365	37897.99
626.72	37913.13
627.075	37819.12
627.43	37926.69
627.785	37808.05
628.14	37983.18
628.495	38149.51
628.85	38173.23
629.205	38094.59
629.559	38325.32
629.914	38239.45
630.269	38311.99
630.623	38346.34
630.978	38257.3
631.332	38493.45
631.687	38630.17
632.041	38337.75
632.396	38373.23
632.75	38375.04
633.104	38492.32
633.459	38469.04
633.813	38328.26
634.167	38425.2
634.521	38506.11
634.875	38513.79
635.229	38461.14
635.583	38388.37
635.937	38410.29
636.291	38482.15
636.645	38527.35
636.999	38419.55
637.352	38615.93
637.706	38352.21
638.06	38499.78
638.413	38504.98
638.767	38353.57
639.121	38503.62
639.474	38209.16
639.828	38354.25
640.181	38384.08
640.534	38466.11
640.888	38357.41
641.241	38229.05
641.594	38209.84
641.947	38413.23
642.301	38302.72
642.654	38343.62
643.007	38424.98
643.36	38321.48
643.713	38191.54
644.066	38435.37
644.419	38204.42
644.771	38101.37
645.124	37736.41
645.477	37609.18
645.83	37314.5
646.182	37324.44
646.535	37231.56
646.888	37252.13
647.24	36998.12
647.593	37356.08
647.945	37360.15
648.298	37121.06
648.65	37069.31
649.002	36987.95
649.355	37229.3
649.707	37163.09
650.059	37304.78
650.411	37648.28
650.763	37801.04
651.115	38035.38
651.467	37976.63
651.819	37873.81
652.171	37928.49
652.523	37953.58
652.875	37825.22
653.227	37803.3
653.578	38006.68
653.93	37919.68
654.282	37784.54
654.633	37648.28
654.985	37872
655.337	37786.8
655.688	37837.65
656.039	37900.92
656.391	37757.43
656.742	37633.13
657.094	37725.79
657.445	37856.86
657.796	37875.61
658.147	37746.35
658.498	37775.05
658.849	37826.58
659.2	37722.17
659.551	37754.04
659.902	37817.08
660.253	37617.09
660.604	37690.08
660.955	37579.58
661.306	37794.03
661.656	37682.17
662.007	37662.51
662.358	37670.87
662.708	37770.08
663.059	37628.84
663.409	37372.58
663.76	37670.42
664.11	37754.49
664.461	37597.43
664.811	37692.34
665.161	37593.14
665.511	37529.63
665.862	37577.99
666.212	37615.73
666.562	37701.83
666.912	37649.41
667.262	37533.25
667.612	37698.44
667.962	37581.61
668.312	37491.22
668.662	37600.14
669.011	37640.37
669.361	37723.98
669.711	37626.36
670.06	37502.52
670.41	37468.17
670.76	37333.48
671.109	37546.13
671.459	37396.76
671.808	37463.42
672.157	37376.42
672.507	37169.87
672.856	37337.32
673.205	37465.23
673.554	37508.62
673.904	37322.41
674.253	37469.75
674.602	37341.39
674.951	36828.64
675.3	36627.51
675.649	37376.64
675.998	37131.23
676.346	37141.4
676.695	37329.64
677.044	37044
677.393	37129.87
677.741	37152.02
678.09	37179.14
678.438	37053.94
678.787	37093.04
679.135	37112.24
679.484	36805.13
679.832	37069.53
680.181	36742.99
680.529	36968.07
680.877	36814.63
681.225	36782.08
681.573	36934.62
681.922	36676.1
682.27	36449.66
682.618	36635.19
682.966	36496.89
683.314	36635.42
683.661	36494.18
684.009	36317.24
684.357	36197.47
684.705	36324.02
685.053	36282.66
685.4	36167.18
685.748	36000.41
686.095	36053.29
686.443	35847.87
686.79	35889.68
687.138	35881.77
687.485	35717.48
687.832	35752.28
688.18	35552.74
688.527	35544.38
688.874	35548.22
689.221	35614.88
689.568	35299.64
689.915	35256.25
690.262	35310.48
690.609	35148.68
690.956	35142.13
691.303	35045.86
691.65	34830.5
691.997	34768.35
692.344	34665.98
692.69	34640.22
693.037	34747.11
693.383	34414.46
693.73	34488.36
694.077	34439.09
694.423	34426.21
694.769	34196.84
695.116	34157.07
695.462	34096.73
695.808	34027.13
696.155	33996.39
696.501	33754.82
696.847	33793.24
697.193	33554.15
697.539	33679.57
697.885	33383.3
698.231	33393.02
698.577	33428.5
698.923	33337.2
699.269	33068.96
699.614	33010.66
699.96	33015.86
700.306	32841.62
700.651	32847.05
700.997	32799.82
701.342	32605.24
701.688	32652.47
702.033	32556.43
702.379	32537.45
702.724	32368.41
703.069	32412.71
703.415	32086.61
703.76	32112.38
704.105	32027.41
704.45	31954.19
704.795	31772.95
705.14	31673.97
705.485	31694.99
705.83	31630.13
706.175	31660.86
706.52	31606.85
706.865	31467.65
707.209	31427.65
707.554	31306.75
707.899	31331.61
708.243	31202.8
708.588	31238.05
708.932	30885.06
709.277	30979.75
709.621	30932.75
709.966	30744.5
710.31	30818.85
710.654	30472.87
710.998	30492.98
711.342	30604.62
711.687	30602.81
712.031	30310.62
712.375	30372.08
712.719	30288.02
713.063	30130.96
713.407	30251.86
713.75	30123.05
714.094	30155.14
714.438	29972.77
714.782	30021.36
715.125	29899.33
715.469	29903.85
715.812	29803.74
716.156	29553.12
716.499	29691.42
716.843	29754.92
717.186	29531.2
717.53	29625.44
717.873	29604.19
718.216	29562.39
718.559	29466.57
718.902	29215.95
719.246	29265.45
719.589	29124.88
719.932	29083.76
720.275	29179.57
720.617	29148.84
720.96	29026.58
721.303	29030.2
721.646	29035.85
721.989	28790.88
722.331	28888.28
722.674	28737.78
723.016	28812.12
723.359	28783.65
723.701	28694.84
724.044	28473.38
724.386	28399.25
724.729	28530.1
725.071	28484.22
725.413	28342.08
725.755	28364
726.097	28398.58
726.439	28177.34
726.782	28206.26
727.124	28154.74
727.465	28133.72
727.807	28155.64
728.149	28028.19
728.491	27914.07
728.833	27990.9
729.175	27992.94
729.516	27849.89
729.858	27750.68
730.199	27887.4
730.541	27865.03
730.882	27823.68
731.224	27910.23
731.565	27610.8
731.906	27716.11
732.248	27729.67
732.589	27451.93
732.93	27405.16
733.271	27490.12
733.612	27561.54
733.953	27488.77
734.294	27344.37
734.635	27418.71
734.976	27393.4
735.317	27238.61
735.658	27244.03
735.999	27281.09
736.339	27122.22
736.68	27280.64
737.021	27123.35
737.361	27123.58
737.702	27173.75
738.042	27165.16
738.383	27002.91
738.723	27137.14
739.063	26939.18
739.404	26976.01
739.744	26912.51
740.084	26903.47
740.424	26874.77
740.764	26828.67
741.104	26771.95
741.444	26738.73
741.784	26642.24
742.124	26561.56
742.464	26639.3
742.804	26533.99
743.143	26591.17
743.483	26534.67
743.823	26369.7
744.162	26273.21
744.502	26507.78
744.841	26395.69
745.181	26511.62
745.52	26279.31
745.86	26434.56
746.199	26345.97
746.538	26338.29
746.877	26292.87
747.216	26269.14
747.556	26234.34
747.895	26206.77
748.234	26168.58
748.573	26187.33
748.911	26023.27
749.25	26110.27
749.589	25975.59
749.928	25983.95
750.267	26149.14
750.605	26012.2
750.944	25890.17
751.283	25865.76
751.621	25891.52
751.96	25707.57
752.298	25763.16
752.636	25816.95
752.975	25655.14
753.313	25482.27
753.651	25634.81
753.989	25418.77
754.327	25554.36
754.666	25358.43
755.004	25495.37
755.342	25563.85
755.679	25410.63
756.017	25386.9
756.355	25496.73
756.693	25340.35
757.031	25290.86
757.368	25120.7
757.706	25246.34
758.044	25075.05
758.381	25100.13
758.719	24964.77
759.056	25023.07
759.394	24858.56
759.731	24779.01
760.068	24863.98
760.405	24720.71
760.743	24640.93
761.08	24789.4
761.417	24645.23
761.754	24585.34
762.091	24536.08
762.428	24488.62
762.765	24473.03
763.102	24398.68
763.438	24382.18
763.775	24240.94
764.112	24297.44
764.449	24214.28
764.785	24105.58
765.122	24034.17
765.458	23910.56
765.795	23894.74
766.131	23913.04
766.467	23806.38
766.804	23666.04
767.14	23567.74
767.476	23657.23
767.812	23395.09
768.148	23473.06
768.485	23154.19
768.821	23200.29
769.157	23135.21
769.492	23122.78
769.828	23082.1
770.164	22909.91
770.5	22840.98
770.836	22867.42
771.171	22755.33
771.507	22828.33
771.842	22504.04
772.178	22497.71
772.513	22479.18
772.849	22403.93
773.184	22301.11
773.519	22304.05
773.855	22162.81
774.19	22142.24
774.525	22089.81
774.86	22009.36
775.195	21890.27
775.53	21815.7
775.865	21786.55
776.2	21643.72
776.535	21493.45
776.87	21476.72
777.205	21513.33
777.539	21282.38
777.874	21337.52
778.209	21070.63
778.543	20989.73
778.878	21137.98
779.212	21001.48
779.547	20930.98
779.881	21000.35
780.215	20848.04
780.55	20807.14
780.884	20622.96
781.218	20675.39
781.552	20503.64
781.886	20380.48
782.22	20342.74
782.554	20150.66
782.888	20116.31
783.222	20071.34
783.556	20006.93
783.889	19869.31
784.223	19715.41
784.557	19813.94
784.89	19826.37
785.224	19599.94
785.557	19534.63
785.891	19505.7
786.224	19450.11
786.558	19534.85
786.891	19247.4
787.224	19165.37
787.557	19137.35
787.891	19132.6
788.224	19123.56
788.557	19109.55
788.89	19004.02
789.223	18991.82
789.556	18732.16
789.888	18790.01
790.221	18732.39
790.554	18490.14
790.887	18679.73
791.219	18470.7
791.552	18482
791.884	18304.15
792.217	18305.51
792.549	18215.79
792.882	18163.14
793.214	18080.2
793.546	18089.24
793.879	17907.55
794.211	17917.04
794.543	17905.97
794.875	17759.76
795.207	17830.04
795.539	17717.27
795.871	17679.31
796.203	17527.9
796.535	17545.53
796.867	17356.38
797.198	17410.84
797.53	17309.83
797.862	17280.22
798.193	17277.74
798.525	17112.77
798.856	17180.57
799.188	16975.82
799.519	16888.82
799.85	16864.64
800.182	16816.73
800.513	16861.25
800.844	16734.93
801.175	16757.75
801.506	16635.49
801.837	16563.41
802.168	16567.7
802.499	16477.53
802.83	16425.56
803.161	16412.68
803.491	16415.61
803.822	16394.15
804.153	16307.14
804.483	16105.79
804.814	16176.98
805.145	16097.88
805.475	16061.72
805.805	16003.2
806.136	16139.01
806.466	15973.82
806.796	15969.52
807.126	15787.16
807.457	15847.27
807.787	15755.07
808.117	15789.42
808.447	15685.24
808.777	15757.55
809.107	15624.67
809.436	15635.07
809.766	15536.54
810.096	15503.77
810.426	15478.46
810.755	15458.12
811.085	15379.71
811.414	15371.12
811.744	15262.65
812.073	15254.51
812.403	15290.9
812.732	15073.28
813.061	15164.12
813.39	15030.11
813.719	15085.93
814.049	15117.57
814.378	14989.21
814.707	14849.78
815.036	14930.45
815.365	14829.89
815.693	14789.89
816.022	14736.56
816.351	14680.52
816.68	14610.69
817.008	14726.84
817.337	14569.33
817.665	14483.01
817.994	14568.43
818.322	14504.25
818.651	14445.04
818.979	14330.7
819.307	14486.85
819.636	14373.18
819.964	14337.25
820.292	14325.5
820.62	14244.6
820.948	14341.77
821.276	14198.04
821.604	14237.59
821.932	14285.95
822.259	14232.85
822.587	14216.8
822.915	14182.45
823.243	14236.91
823.57	14142.23
823.898	14240.3
824.225	14129.57
824.553	14161.44
824.88	14209.12
825.207	14217.25
825.535	14216.58
825.862	14157.82
826.189	14112.17
826.516	14184.71
826.843	14264.03
827.17	14230.81
827.497	14278.04
827.824	14186.97
828.151	14251.38
828.478	14043.02
828.805	14209.12
829.131	14207.31
829.458	14105.84
829.785	14085.51
830.111	14138.39
830.438	14148.33
830.764	14110.36
831.09	14191.72
831.417	14035.56
831.743	14129.12
832.069	14130.7
832.395	14054.32
832.722	14118.05
833.048	14023.81
833.374	14064.49
833.7	14006.64
834.026	14011.38
834.351	13985.39
834.677	14000.76
835.003	13961.44
835.329	14012.96
835.654	13900.2
835.98	13842.35
836.306	13926.64
836.631	13897.04
836.956	13991.27
837.282	13908.11
837.607	13768.68
837.932	13765.97
838.258	13765.97
838.583	13757.15
838.908	13659.98
839.233	13705.85
839.558	13677.15
839.883	13651.84
840.208	13476.93
840.533	13622.47
840.858	13569.59
841.182	13551.51
841.507	13572.52
841.832	13476.26
842.156	13458.86
842.481	13371.85
842.805	13328.69
843.13	13438.06
843.454	13388.57
843.778	13291.85
844.103	13251.85
844.427	13224.96
844.751	13303.15
845.075	13267.22
845.399	13142.93
845.723	12983.39
846.047	13042.14
846.371	12983.16
846.695	12934.35
847.019	12846.67
847.343	12862.71
847.666	12709.27
847.99	12728.7
848.313	12734.13
848.637	12619.1
848.96	12638.09
849.284	12577.3
849.607	12476.51
849.931	12460.92
850.254	12316.51
850.577	12354.93
850.9	12221.83
851.223	12198.55
851.546	12181.83
851.869	12090.53
852.192	12191.77
852.515	12002.17
852.838	11971.44
853.161	11998.33
853.483	11914.04
853.806	11798.33
854.129	11838.56
854.451	11796.98
854.774	11702.29
855.096	11734.83
855.419	11660.48
855.741	11617.1
856.063	11609.86
856.385	11578
856.708	11558.34
857.03	11548.62
857.352	11483.09
857.674	11510.21
857.996	11389.53
858.318	11350.21
858.64	11327.16
858.961	11285.35
859.283	11284.68
859.605	11228.41
859.926	11233.38
860.248	11194.73
860.57	11162.64
860.891	11183.89
861.212	11064.79
861.534	11046.49
861.855	10987.06
862.176	11043.55
862.498	11064.12
862.819	10998.81
863.14	10976.21
863.461	10983.89
863.782	10903.67
864.103	10863.67
864.424	10880.62
864.745	10900.73
865.065	10766.72
865.386	10754.07
865.707	10796.55
866.027	10719.04
866.348	10724.24
866.668	10759.27
866.989	10718.36
867.309	10665.03
867.63	10634.07
867.95	10648.99
868.27	10521.08
868.59	10629.78
868.91	10588.87
869.23	10524.92
869.55	10474.75
869.87	10521.76
870.19	10488.76
870.51	10531.93
870.83	10535.09
871.15	10443.57
871.469	10439.73
871.789	10488.54
872.109	10408.09
872.428	10326.96
872.748	10394.08
873.067	10420.29
873.386	10392.5
873.706	10373.29
874.025	10266.17
874.344	10288.54
874.663	10267.3
874.982	10214.65
875.301	10245.83
875.62	10298.26
875.939	10228.88
876.258	10224.14
876.577	10171.48
876.896	10124.71
877.214	10105.95
877.533	10088.55
877.852	10095.33
878.17	10020.98
878.489	10094.65
878.807	10132.16
879.125	10049.68
879.444	10047.42
879.762	9984.82
880.08	9983.01
880.398	9945.95
880.716	9934.2
881.034	9942.79
881.352	10011.49
881.67	9872.51
881.988	9897.59
882.306	9834.54
882.624	9844.94
882.941	9801.55
883.259	9758.39
883.577	9716.13
883.894	9789.35
884.212	9736.02
884.529	9721.55
884.846	9649.46
885.164	9653.53
885.481	9609.46
885.798	9615.79
886.115	9496.47
886.432	9597.71
886.75	9486.76
887.067	9462.12
887.383	9462.12
887.7	9415.35
888.017	9441.56
888.334	9400.88
888.651	9394.33
888.967	9361.11
889.284	9366.31
889.6	9348.91
889.917	9253.77
890.233	9230.72
890.55	9212.41
890.866	9251.73
891.182	9181
891.498	9164.96
891.815	9127.67
892.131	9110.49
892.447	9097.16
892.763	9096.48
893.079	8986.2
893.395	8987.33
893.71	8986.66
894.026	8953.44
894.342	8896.49
894.657	8840.9
894.973	8768.81
895.289	8832.08
895.604	8837.51
895.92	8735.14
896.235	8752.99
896.55	8712.77
896.865	8702.37
897.181	8633.45
897.496	8647
897.811	8624.18
898.126	8524.52
898.441	8570.62
898.756	8505.31
899.071	8485.65
899.386	8475.26
899.7	8363.17
900.015	8402.49
900.33	8361.81
900.644	8245.21
900.959	8353.9
901.273	8283.62
901.588	8242.27
901.902	8208.37
902.216	8164.98
902.531	8201.59
902.845	8184.87
903.159	8129.5
903.473	8072.56
903.787	8037.98
904.101	7988.26
904.415	7943.07
904.729	7897.19
905.042	7886.8
905.356	7894.03
905.67	7891.77
905.984	7867.82
906.297	7820.36
906.611	7778.1
906.924	7750.76
907.237	7710.98
907.551	7750.3
907.864	7682.28
908.177	7635.51
908.491	7587.82
908.804	7567.71
909.117	7519.12
909.43	7535.62
909.743	7483.65
910.056	7486.13
910.368	7410.2
910.681	7377.43
910.994	7344.67
911.307	7285.91
911.619	7214.95
911.932	7230.77
912.244	7223.09
912.557	7200.26
912.869	7158.23
913.181	7176.76
913.494	7095.18
913.806	7076.42
914.118	7015.86
914.43	7015.63
914.742	7030.1
915.054	7001.85
915.366	6960.95
915.678	6891.34
915.99	6905.36
916.302	6844.34
916.613	6850.44
916.925	6800.73
917.236	6772.93
917.548	6732.93
917.859	6718.02
918.171	6706.26
918.482	6668.07
918.794	6635.76
919.105	6622.2
919.416	6534.29
919.727	6496.78
920.038	6533.39
920.349	6484.58
920.66	6496.55
920.971	6452.26
921.282	6422.88
921.593	6385.14
921.903	6354.18
922.214	6297.69
922.525	6287.74
922.835	6244.58
923.146	6243.9
923.456	6188.54
923.767	6223.79
924.077	6134.08
924.387	6124.58
924.697	6077.13
925.008	6085.94
925.318	6074.64
925.628	6014.76
925.938	5998.94
926.248	5923.01
926.558	5937.25
926.867	5947.19
927.177	5871.03
927.487	5892.05
927.796	5835.55
928.106	5806.18
928.416	5809.34
928.725	5790.13
929.034	5715.1
929.344	5756.01
929.653	5676.01
929.962	5639.17
930.271	5614.54
930.581	5589.91
930.89	5585.39
931.199	5560.76
931.508	5530.93
931.817	5550.36
932.125	5528.67
932.434	5489.57
932.743	5413.87
933.051	5409.35
933.36	5435.56
933.669	5407.99
933.977	5356.7
934.286	5372.51
934.594	5367.99
934.902	5298.62
935.21	5272.18
935.519	5281.44
935.827	5251.61
936.135	5201.67
936.443	5168.9
936.751	5184.04
937.059	5189.02
937.367	5128.68
937.674	5092.3
937.982	5099.98
938.29	5093.88
938.597	5024.27
938.905	5022.24
939.213	4999.42
939.52	4948.12
939.827	5012.3
940.135	4947.89
940.442	4917.84
940.749	4944.28
941.056	4922.13
941.363	4861.12
941.67	4839.42
941.977	4828.8
942.284	4788.8
942.591	4748.8
942.898	4661.57
943.205	4767.33
943.511	4708.35
943.818	4681.01
944.125	4664.28
944.431	4621.8
944.738	4644.4
945.044	4596.94
945.35	4565.08
945.657	4583.83
945.963	4535.02
946.269	4503.16
946.575	4507.9
946.881	4483.5
947.187	4470.84
947.493	4454.8
947.799	4453.22
948.105	4404.18
948.41	4350.62
948.716	4356.72
949.022	4394.46
949.327	4356.27
949.633	4304.97
949.938	4297.51
950.244	4269.94
950.549	4271.53
950.854	4257.52
951.16	4214.35
951.465	4211.41
951.77	4162.6
952.075	4194.01
952.38	4190.17
952.685	4145.88
952.99	4136.84
953.294	4072.21
953.599	4069.95
953.904	4019.1
954.209	4080.12
954.513	3977.3
954.818	3985.66
955.122	3982.04
955.426	3984.3
955.731	3972.55
956.035	3941.37
956.339	3895.26
956.643	3922.38
956.948	3868.82
957.252	3844.87
957.556	3822.5
957.86	3804.65
958.163	3848.03
958.467	3795.61
958.771	3817.75
959.075	3761.26
959.378	3761.26
959.682	3759.22
959.985	3721.94
960.289	3729.17
960.592	3665.21
960.896	3681.03
961.199	3636.97
961.502	3638.77
961.805	3637.87
962.108	3597.87
962.411	3601.26
962.714	3561.94
963.017	3591.32
963.32	3528.95
963.623	3508.83
963.926	3552.67
964.228	3512.22
964.531	3479.68
964.833	3486.01
965.136	3427.93
965.438	3413.7
965.741	3415.96
966.043	3391.55
966.345	3342.06
966.648	3363.98
966.95	3355.39
967.252	3362.62
967.554	3343.87
967.856	3327.82
968.158	3295.96
968.46	3298.67
968.761	3299.57
969.063	3231.1
969.365	3236.98
969.666	3181.16
969.968	3206.24
970.269	3183.42
970.571	3168.05
970.872	3211.67
971.174	3152.69
971.475	3166.24
971.776	3124.66
972.077	3106.81
972.378	3145.23
972.679	3056.87
972.98	3139.58
973.281	3089.64
973.582	3057.09
973.883	3050.99
974.183	3031.11
974.484	3027.27
974.785	2988.62
975.085	2986.59
975.386	2991.79
975.686	2943.88
975.986	2922.64
976.287	2957.21
976.587	2914.73
976.887	2914.5
977.187	2896.2
977.487	2879.02
977.787	2869.53
978.087	2847.38
978.387	2869.76
978.687	2836.76
978.987	2812.36
979.286	2784.56
979.586	2826.37
979.885	2754.28
980.185	2745.92
980.484	2763.77
980.784	2742.3
981.083	2719.48
981.382	2727.16
981.682	2716.54
981.981	2699.36
982.28	2678.35
982.579	2667.73
982.878	2673.6
983.177	2652.36
983.475	2644
983.774	2611.46
984.073	2573.49
984.372	2594.96
984.67	2576.2
984.969	2587.73
985.267	2579.14
985.566	2586.82
985.864	2547.05
986.162	2515.19
986.461	2528.97
986.759	2526.26
987.057	2500.05
987.355	2471.57
987.653	2484.23
987.951	2477.22
988.249	2467.28
988.547	2418.69
988.844	2432.48
989.142	2422.08
989.44	2413.5
989.737	2384.8
990.035	2415.08
990.332	2379.82
990.63	2348.19
990.927	2328.3
991.224	2346.6
991.521	2339.6
991.819	2301.41
992.116	2274.97
992.413	2316.78
992.71	2262.77
993.006	2264.35
993.303	2271.13
993.6	2249.21
993.897	2244.46
994.193	2246.72
994.49	2210.79
994.787	2236.1
995.083	2182.99
995.379	2192.48
995.676	2141.41
995.972	2162.43
996.268	2174.63
996.565	2124.92
996.861	2124.01
997.157	2113.84
997.453	2121.53
997.749	2076.56
998.044	2102.09
998.34	2105.48
998.636	2090.11
998.932	2054.86
999.227	2066.61
999.523	2044.01
999.818	2029.33
1000.114	2037.46
1000.409	2004.02
1000.704	1998.14
1001	1996.33
1001.295	1962.21
1001.59	1981.87
1001.885	1943.68
1002.18	1950.01
1002.475	1953.17
1002.77	1931.02
1003.065	1932.83
1003.359	1918.59
1003.654	1907.07
1003.949	1905.71
1004.243	1893.74
1004.538	1864.36
1004.832	1848.76
1005.127	1851.7
1005.421	1842.89
1005.715	1810.12
1006.009	1832.27
1006.304	1810.8
1006.598	1785.94
1006.892	1803.12
1007.186	1775.77
1007.48	1770.35
1007.773	1742.1
1008.067	1753.17
1008.361	1723.57
1008.655	1722.89
1008.948	1726.28
1009.242	1723.8
1009.535	1712.05
1009.829	1677.92
1010.122	1684.02
1010.415	1676.79
1010.708	1685.83
1011.001	1655.78
1011.295	1651.48
1011.588	1655.55
1011.881	1649
1012.173	1597.92
1012.466	1613.52
1012.759	1590.92
1013.052	1597.47
1013.344	1582.11
1013.637	1583.46
1013.93	1570.81
1014.222	1549.34
1014.514	1557.47
1014.807	1541.43
1015.099	1525.16
1015.391	1493.97
1015.683	1518.38
1015.976	1498.27
1016.268	1498.27
1016.56	1505.5
1016.851	1437.25
1017.143	1480.41
1017.435	1439.74
1017.727	1464.37
1018.018	1474.31
1018.31	1410.58
1018.602	1419.85
1018.893	1414.65
1019.185	1379.62
1019.476	1371.72
1019.767	1360.19
1020.058	1375.11
1020.35	1372.62
1020.641	1357.48
1020.932	1357.48
1021.223	1331.04
1021.514	1324.48
1021.804	1310.02
1022.095	1314.77
1022.386	1305.95
1022.677	1302.34
1022.967	1296.01
1023.258	1274.54
1023.548	1258.95
1023.839	1266.18
1024.129	1247.88
1024.419	1242.23
1024.709	1234.54
1025	1230.02
1025.29	1206.3
1025.58	1235.9
1025.87	1196.13
1026.16	1210.14
1026.449	1184.6
1026.739	1172.4
1027.029	1178.73
1027.319	1160.2
1027.608	1146.64
1027.898	1136.69
1028.187	1162.46
1028.477	1134.89
1028.766	1132.17
1029.055	1095.56
1029.344	1100.31
1029.634	1116.13
1029.923	1118.16
1030.212	1082.01
1030.501	1103.25
1030.79	1094.66
1031.078	1065.28
1031.367	1070.48
1031.656	1056.47
1031.945	1034.55
1032.233	1041.78
1032.522	1046.98
1032.81	1025.74
1033.099	1005.4
1033.387	1034.32
1033.675	1008.34
1033.963	1028.22
1034.251	1002.91
1034.54	998.39
1034.828	989.8
1035.116	986.19
1035.403	963.14
1035.691	966.98
1035.979	976.02
1036.267	957.71
1036.554	953.42
1036.842	951.16
1037.129	953.2
1037.417	951.84
1037.704	940.31
1037.992	947.55
1038.279	941.44
1038.566	914.1
1038.853	914.1
1039.14	914.1
