Data from hue_110_FLMS001491_00097.txt Node
Date: Tue Feb 07 17:02:05 GMT 2017
User: dcchb
Spectrometer: FLMS00149
Trigger mode: 0
Integration Time (sec): 2.000000E-2
Scans to average: 10
Electric dark correction enabled: true
Nonlinearity correction enabled: false
Boxcar width: 0
XAxis mode: Wavelengths
Number of Pixels in Spectrum: 2048
>>>>>Begin Spectral Data<<<<<
341.393	-7.56
341.776	-7.56
342.16	-7.56
342.543	-74.22
342.927	-88.01
343.31	-51.62
343.693	-83.03
344.077	-61.11
344.46	-52.3
344.843	-65.18
345.226	-51.62
345.61	-35.13
345.993	-37.39
346.376	-19.08
346.759	7.13
347.142	36.06
347.525	39.67
347.908	69.73
348.291	71.54
348.674	96.85
349.057	135.49
349.44	128.49
349.823	130.07
350.206	170.52
350.588	199.22
350.971	202.83
351.354	210.74
351.737	245.54
352.119	234.92
352.502	270.63
352.884	279.67
353.267	289.61
353.65	294.81
354.032	303.4
354.414	310.85
354.797	313.79
355.179	324.41
355.562	315.37
355.944	322.38
356.326	307.69
356.709	339.78
357.091	348.82
357.473	360.57
357.855	337.29
358.238	337.97
358.62	342.94
359.002	335.71
359.384	347.69
359.766	337.29
360.148	340.23
360.53	342.72
360.912	333
361.294	342.04
361.676	333.23
362.057	350.17
362.439	338.88
362.821	352.21
363.203	326.45
363.584	316.28
363.966	331.87
364.348	322.83
364.729	327.8
365.111	321.93
365.493	307.24
365.874	310.18
366.256	313.11
366.637	328.25
367.019	298.42
367.4	310.85
367.781	309.5
368.163	320.34
368.544	324.64
368.925	297.52
369.306	305.88
369.688	313.34
370.069	302.04
370.45	310.63
370.831	317.41
371.212	326.9
371.593	316.73
371.974	324.64
372.355	324.64
372.736	335.03
373.117	322.15
373.498	320.12
373.879	321.7
374.26	333.23
374.641	314.92
375.021	310.4
375.402	323.73
375.783	317.86
376.163	328.03
376.544	324.86
376.925	313.11
377.305	314.92
377.686	320.12
378.066	336.84
378.447	338.2
378.827	336.16
379.208	349.04
379.588	313.34
379.968	343.39
380.349	315.15
380.729	328.71
381.109	338.42
381.489	333.45
381.87	337.29
382.25	349.72
382.63	337.07
383.01	356.5
383.39	353.11
383.77	349.04
384.15	332.55
384.53	365.32
384.91	360.12
385.29	370.06
385.67	344.07
386.049	359.21
386.429	356.5
386.809	361.93
387.189	368.7
387.568	350.4
387.948	379.78
388.328	356.73
388.707	358.99
389.087	357.63
389.466	370.29
389.846	365.54
390.225	375.26
390.605	361.7
390.984	371.64
391.363	387.24
391.743	374.13
392.122	386.78
392.501	348.14
392.881	377.97
393.26	364.64
393.639	390.63
394.018	396.95
394.397	392.43
394.776	385.65
395.155	404.41
395.534	381.59
395.913	384.07
396.292	400.79
396.671	422.04
397.05	391.53
397.429	428.14
397.808	380.68
398.186	390.85
398.565	387.01
398.944	395.6
399.323	399.89
399.701	417.07
400.08	395.37
400.458	424.3
400.837	422.04
401.215	435.14
401.594	417.29
401.972	442.6
402.351	415.94
402.729	439.66
403.107	405.54
403.486	430.17
403.864	415.03
404.242	422.49
404.62	415.48
404.999	421.58
405.377	436.05
405.755	437.86
406.133	425.65
406.511	435.6
406.889	449.38
407.267	445.31
407.645	448.93
408.023	454.58
408.401	463.62
408.779	441.7
409.156	468.82
409.534	468.82
409.912	441.92
410.29	479.44
410.667	487.57
411.045	484.86
411.422	495.03
411.8	471.3
412.178	483.05
412.555	492.09
412.933	487.57
413.31	492.54
413.687	502.26
414.065	491.64
414.442	509.04
414.819	513.11
415.197	523.28
415.574	547.23
415.951	529.15
416.328	504.75
416.705	509.72
417.082	526.21
417.46	518.31
417.837	549.49
418.214	544.07
418.591	556.72
418.967	549.49
419.344	548.81
419.721	555.82
420.098	541.13
420.475	520.34
420.852	530.06
421.228	559.21
421.605	561.02
421.982	563.5
422.358	579.09
422.735	564.86
423.111	571.86
423.488	589.49
423.864	604.63
424.241	600.11
424.617	606.21
424.994	588.13
425.37	608.7
425.746	599.89
426.123	610.73
426.499	613.22
426.875	636.04
427.251	624.29
427.627	607.79
428.003	615.7
428.379	636.72
428.756	632.88
429.132	637.85
429.507	655.93
429.883	659.09
430.259	655.48
430.635	698.87
431.011	669.71
431.387	692.76
431.763	695.7
432.138	699.32
432.514	721.69
432.89	739.99
433.265	720.33
433.641	726.89
434.016	706.1
434.392	730.05
434.767	759.43
435.143	759.43
435.518	761.69
435.894	752.2
436.269	765.76
436.644	774.12
437.02	786.77
437.395	763.95
437.77	777.28
438.145	777.51
438.52	810.5
438.895	792.42
439.271	822.03
439.646	826.09
440.021	813.21
440.395	841.46
440.77	827.68
441.145	846.66
441.52	857.73
441.895	855.92
442.27	881.91
442.645	842.36
443.019	871.06
443.394	884.17
443.769	903.15
444.143	886.88
444.518	894.57
444.892	909.71
445.267	906.54
445.641	928.46
446.016	923.94
446.39	927.33
446.764	943.38
447.139	932.76
447.513	937.28
447.887	950.84
448.262	959.65
448.636	948.35
449.01	935.47
449.384	975.02
449.758	976.37
450.132	981.12
450.506	994.9
450.88	1025.64
451.254	1006.43
451.628	1036.48
452.002	1043.49
452.376	1037.39
452.75	1062.25
453.123	1030.38
453.497	1059.31
453.871	1072.19
454.244	1110.83
454.618	1106.99
454.992	1109.7
455.365	1094.56
455.739	1114.67
456.112	1126.65
456.486	1147.89
456.859	1146.09
457.232	1182.92
457.606	1159.42
457.979	1209.59
458.352	1222.24
458.725	1244.39
459.099	1242.13
459.472	1276.93
459.845	1282.81
460.218	1283.48
460.591	1289.36
460.964	1315.8
461.337	1337.04
461.71	1355.35
462.083	1386.76
462.456	1372.75
462.829	1390.15
463.201	1403.03
463.574	1447.77
463.947	1437.83
464.32	1467.89
464.692	1509.24
465.065	1523.93
465.438	1511.27
465.81	1574.55
466.183	1583.59
466.555	1613.64
466.928	1615.9
467.3	1652.06
467.672	1645.28
468.045	1687.31
468.417	1730.93
468.789	1748.1
469.161	1766.86
469.534	1767.09
469.906	1840.08
470.278	1877.14
470.65	1847.31
471.022	1928.66
471.394	1940.87
471.766	1978.38
472.138	2003.92
472.51	2038.27
472.882	2081.43
473.253	2133.18
473.625	2181.31
473.997	2223.12
474.369	2290.24
474.74	2354.19
475.112	2404.36
475.484	2436.45
475.855	2504.92
476.227	2533.39
476.598	2614.97
476.97	2676.89
477.341	2742.65
477.713	2780.17
478.084	2881.63
478.455	2965.92
478.827	3025.81
479.198	3093.38
479.569	3133.15
479.94	3270.55
480.311	3352.13
480.682	3401.85
481.053	3517.32
481.424	3620.82
481.795	3647.71
482.166	3782.4
482.537	3856.07
482.908	4014.71
483.279	4066.46
483.65	4170.64
484.021	4293.57
484.391	4406.56
484.762	4487.69
485.133	4617.63
485.503	4720.91
485.874	4856.27
486.244	4947.34
486.615	5112.31
486.985	5219.2
487.356	5341.23
487.726	5520.89
488.097	5607.89
488.467	5697.38
488.837	5856.47
489.207	5982.79
489.578	6170.59
489.948	6314.54
490.318	6435.44
490.688	6504.59
491.058	6751.14
491.428	6834.52
491.798	6999.27
492.168	7117.68
492.538	7255.76
492.908	7373.27
493.278	7603.54
493.648	7599.25
494.017	7762.41
494.387	7985.23
494.757	8056.41
495.126	8225
495.496	8296.63
495.866	8428.83
496.235	8498.89
496.605	8741.14
496.974	8893.23
497.344	8922.15
497.713	9076.5
498.082	9188.36
498.452	9354.23
498.821	9443.95
499.19	9485.08
499.559	9617.95
499.928	9775.46
500.298	9870.6
500.667	9954.67
501.036	10064.27
501.405	10151.72
501.774	10248.9
502.143	10319.4
502.512	10471.94
502.88	10609.79
503.249	10605.27
503.618	10695.44
503.987	10846.85
504.356	10963
504.724	10973.62
505.093	11093.85
505.462	11147.63
505.83	11260.85
506.199	11318.7
506.567	11414.52
506.936	11510.33
507.304	11614.96
507.672	11731.57
508.041	11795.75
508.409	11845.69
508.777	11947.38
509.145	12090.2
509.514	12057.66
509.882	12232.12
510.25	12206.59
510.618	12274.38
510.986	12329.52
511.354	12487.71
511.722	12574.94
512.09	12617.87
512.458	12604.32
512.826	12675.27
513.193	12781.94
513.561	12801.37
513.929	12933.8
514.297	13043.63
514.664	13074.36
515.032	13097.64
515.4	13118.2
515.767	13152.1
516.135	13220.34
516.502	13106.45
516.869	13350.96
517.237	13456.27
517.604	13352.09
517.972	13484.52
518.339	13501.47
518.706	13541.24
519.073	13608.58
519.44	13623.72
519.808	13728.58
520.175	13731.29
520.542	13916.6
520.909	13883.6
521.276	13869.14
521.643	13953.66
522.009	14024.62
522.376	13996.14
522.743	14053.09
523.11	14120.21
523.477	14207.21
523.843	14333.76
524.21	14376.02
524.577	14396.58
524.943	14506.86
525.31	14505.96
525.676	14522.46
526.043	14568.56
526.409	14675.9
526.776	14645.84
527.142	14676.58
527.508	14779.17
527.874	14733.53
528.241	14776.01
528.607	14787.53
528.973	14848.1
529.339	14793.41
529.705	14978.26
530.071	15000.41
530.437	14921.77
530.803	15056
531.169	15037.7
531.535	14986.4
531.901	14929.9
532.267	14975.1
532.632	15064.14
532.998	15030.24
533.364	15041.31
533.73	15137.58
534.095	15082.89
534.461	15079.96
534.826	15082.22
535.192	15045.61
535.557	15136.23
535.923	15060.07
536.288	15085.38
536.653	15013.29
537.019	15025.49
537.384	14938.27
537.749	14992.73
538.114	14994.08
538.479	15015.33
538.845	15001.31
539.21	14859.17
539.575	14961.54
539.94	14861.21
540.305	14981.65
540.67	14898.72
541.034	14884.71
541.399	14804.94
541.764	14884.48
542.129	14842.9
542.494	14762.45
542.858	14793.64
543.223	14764.26
543.587	14810.36
543.952	14724.26
544.316	14695.79
544.681	14590.93
545.045	14597.94
545.41	14671.15
545.774	14602
546.138	14596.58
546.503	14509.8
546.867	14492.85
547.231	14576.24
547.595	14525.39
547.959	14492.4
548.324	14457.6
548.688	14474.32
549.052	14425.06
549.416	14466.19
549.779	14395.91
550.143	14393.65
550.507	14403.36
550.871	14391.16
551.235	14336.02
551.599	14401.56
551.962	14238.17
552.326	14295.12
552.689	14330.37
553.053	14164.05
553.417	14151.39
553.78	14261.67
554.143	14195.01
554.507	14264.16
554.87	14222.35
555.234	14438.17
555.597	14147.33
555.96	14133.54
556.323	14185.29
556.686	14235.69
557.05	14177.83
557.413	14202.69
557.776	14216.93
558.139	14203.82
558.502	14111.85
558.865	14136.93
559.228	14131.51
559.59	14176.93
559.953	14179.42
560.316	14285.18
560.679	14230.04
561.041	14284.95
561.404	14297.15
561.767	14315.68
562.129	14202.47
562.492	14315.91
562.854	14316.13
563.217	14294.44
563.579	14212.41
563.941	14361.11
564.304	14387.32
564.666	14431.61
565.028	14421.89
565.39	14451.5
565.753	14459.63
566.115	14505.28
566.477	14472.97
566.839	14515.9
567.201	14578.27
567.563	14541.21
567.925	14567.88
568.287	14613.08
568.648	14663.02
569.01	14643.13
569.372	14707.76
569.734	14557.26
570.095	14708.21
570.457	14707.76
570.819	14767.2
571.18	14748.44
571.542	14761.77
571.903	14712.73
572.265	14765.61
572.626	14801.55
572.987	14793.18
573.349	14833.18
573.71	14872.05
574.071	14763.35
574.432	14891.71
574.794	14967.64
575.155	14890.81
575.516	14862.56
575.877	14957.47
576.238	14912.28
576.599	14918.38
576.96	14985.72
577.32	15003.8
577.681	15013.52
578.042	15016.23
578.403	15068.66
578.763	15025.49
579.124	14973.74
579.485	15089.67
579.845	15032.27
580.206	14961.99
580.566	15095.78
580.927	15079.96
581.287	15064.82
581.648	14957.93
582.008	15098.04
582.368	15102.78
582.728	15081.09
583.089	14999.51
583.449	14926.06
583.809	14947.76
584.169	14938.27
584.529	14849.68
584.889	15072.05
585.249	14979.85
585.609	14891.71
585.969	15040.86
586.329	14875.89
586.688	14990.24
587.048	14929
587.408	14966.74
587.768	14966.97
588.127	14879.28
588.487	14786.4
588.846	14988.89
589.206	14785.05
589.565	14826.4
589.925	14822.79
590.284	14866.63
590.643	14824.37
591.003	14851.71
591.362	14881.09
591.721	14826.4
592.08	14802.22
592.44	14896.46
592.799	14855.78
593.158	14817.82
593.517	14750.47
593.876	14733.3
594.235	14776.69
594.593	14816.01
594.952	14879.06
595.311	14735.11
595.67	14742.56
596.029	14797.03
596.387	14816.01
596.746	14832.96
597.104	14689.23
597.463	14679.29
597.822	14777.82
598.18	14711.83
598.538	14774.2
598.897	14843.13
599.255	14614.88
599.613	14844.26
599.972	14710.93
600.33	14783.02
600.688	14712.51
601.046	14705.96
601.404	14766.29
601.762	14759.97
602.12	14840.87
602.478	14783.92
602.836	14830.7
603.194	14706.18
603.552	14743.92
603.91	14699.63
604.268	14793.86
604.625	14744.15
604.983	14795.44
605.341	14719.06
605.698	14782.56
606.056	14844.93
606.413	14707.99
606.771	14853.3
607.128	14780.08
607.485	14788.89
607.843	14787.31
608.2	14934.88
608.557	14887.19
608.914	14837.25
609.272	14818.72
609.629	14882
609.986	14945.5
610.343	14791.6
610.7	14979.85
611.057	15024.36
611.414	14956.8
611.771	14984.59
612.127	14967.42
612.484	15006.51
612.841	14990.92
613.198	15046.74
613.554	15082.67
613.911	15069.34
614.267	15079.28
614.624	14985.72
614.98	15058.94
615.337	15080.86
615.693	15013.97
616.05	15100.07
616.406	15170.58
616.762	15107.75
617.118	15130.12
617.475	15171.48
617.831	15237.92
618.187	15188.43
618.543	15171.93
618.899	15269.1
619.255	15241.99
619.611	15261.87
619.967	15289.22
620.323	15352.94
620.678	15236.34
621.034	15218.94
621.39	15130.8
621.746	15262.32
622.101	15342.1
622.457	15292.61
622.812	15291.93
623.168	15312.49
623.523	15304.36
623.879	15476.78
624.234	15289.89
624.589	15398.82
624.945	15298.48
625.3	15310.46
625.655	15254.42
626.01	15381.42
626.365	15297.8
626.72	15380.51
627.075	15255.09
627.43	15268.43
627.785	15223
628.14	15257.35
628.495	15249.22
628.85	15204.93
629.205	15207.18
629.559	15228.88
629.914	15246.05
630.269	15201.08
630.623	15176.45
630.978	15121.31
631.332	15190.24
631.687	15159.5
632.041	15180.29
632.396	15097.13
632.75	15089.22
633.104	15143.46
633.459	14997.47
633.813	14957.7
634.167	15121.99
634.521	14991.82
634.875	15040.86
635.229	14986.4
635.583	14970.81
635.937	14933.52
636.291	14929.68
636.645	14914.09
636.999	14837.25
637.352	14959.28
637.706	14869.34
638.06	14848.32
638.413	14807.87
638.767	14810.59
639.121	14838.61
639.474	14774.65
639.828	14696.46
640.181	14733.75
640.534	14730.81
640.888	14698.72
641.241	14639.97
641.594	14665.96
641.947	14764.71
642.301	14621.44
642.654	14706.18
643.007	14670.02
643.36	14631.83
643.713	14643.58
644.066	14752.51
644.419	14582.12
644.771	14538.5
645.124	14398.17
645.477	14434.1
645.83	14279.75
646.182	14345.51
646.535	14237.04
646.888	14266.19
647.24	14149.13
647.593	14245.4
647.945	14143.48
648.298	14128.12
648.65	14086.54
649.002	14148.23
649.355	14178.06
649.707	14109.59
650.059	14145.74
650.411	14443.14
650.763	14364.27
651.115	14447.66
651.467	14494.89
651.819	14423.93
652.171	14504.6
652.523	14318.62
652.875	14430.93
653.227	14347.09
653.578	14457.83
653.93	14445.62
654.282	14352.74
654.633	14255.57
654.985	14387.32
655.337	14469.13
655.688	14415.34
656.039	14508.9
656.391	14277.04
656.742	14418.05
657.094	14417.15
657.445	14501.89
657.796	14497.6
658.147	14354.33
658.498	14448.79
658.849	14447.66
659.2	14407.21
659.551	14360.43
659.902	14432.74
660.253	14389.81
660.604	14517.49
660.955	14319.07
661.306	14397.04
661.656	14385.96
662.007	14434.78
662.358	14489.46
662.708	14356.81
663.059	14407.66
663.409	14395.45
663.76	14520.42
664.11	14391.61
664.461	14483.81
664.811	14504.15
665.161	14458.28
665.511	14448.11
665.862	14463.48
666.212	14480.88
666.562	14554.55
666.912	14565.17
667.262	14451.95
667.612	14480.2
667.962	14567.65
668.312	14466.87
668.662	14504.83
669.011	14602.23
669.361	14524.94
669.711	14443.59
670.06	14489.46
670.41	14494.44
670.76	14387.09
671.109	14528.56
671.459	14337.38
671.808	14392.74
672.157	14376.92
672.507	14361.33
672.856	14335.34
673.205	14311.16
673.554	14350.03
673.904	14307.55
674.253	14366.98
674.602	14354.55
674.951	14189.13
675.3	14093.54
675.649	14335.34
675.998	14235.23
676.346	14257.15
676.695	14362.46
677.044	14212.86
677.393	14280.66
677.741	14244.95
678.09	14216.93
678.438	14200.43
678.787	14182.13
679.135	14116.14
679.484	13993.21
679.832	14098.06
680.181	14031.85
680.529	14091.51
680.877	13973.77
681.225	14076.59
681.573	14117.5
681.922	13982.36
682.27	13938.29
682.618	14034.11
682.966	13923.83
683.314	14014.45
683.661	13805.87
684.009	13844.28
684.357	13758.86
684.705	13774
685.053	13717.28
685.4	13694.68
685.748	13647.23
686.095	13644.74
686.443	13624.63
686.79	13534.69
687.138	13542.14
687.485	13590.28
687.832	13529.04
688.18	13491.07
688.527	13373.33
688.874	13416.72
689.221	13377.63
689.568	13412.2
689.915	13379.21
690.262	13360.91
690.609	13176.05
690.956	13156.62
691.303	13209.27
691.65	13171.76
691.997	13077.52
692.344	13063.96
692.69	13015.83
693.037	12986
693.383	12849.28
693.73	12898.55
694.077	12825.1
694.423	12790.3
694.769	12711.66
695.116	12775.84
695.462	12738.55
695.808	12634.82
696.155	12666.46
696.501	12575.84
696.847	12515.96
697.193	12445.45
697.539	12442.74
697.885	12451.78
698.231	12377.43
698.577	12389.63
698.923	12360.71
699.269	12276.19
699.614	12238.9
699.96	12208.85
700.306	12135.4
700.651	12004.11
700.997	12048.62
701.342	11972.02
701.688	11941.06
702.033	11915.97
702.379	11814.28
702.724	11828.06
703.069	11874.84
703.415	11705.13
703.76	11678.01
704.105	11690.22
704.45	11677.56
704.795	11603.89
705.14	11558.02
705.485	11523.89
705.83	11425.14
706.175	11459.94
706.52	11486.15
706.865	11451.58
707.209	11387.62
707.554	11345.82
707.899	11355.53
708.243	11233.5
708.588	11231.24
708.932	11203.22
709.277	11107.41
709.621	11166.16
709.966	11094.98
710.31	11066.95
710.654	11002.32
710.998	11050.46
711.342	11061.98
711.687	11015.2
712.031	10902.89
712.375	10931.37
712.719	10941.53
713.063	10917.35
713.407	10876.45
713.75	10844.14
714.094	10823.57
714.438	10777.92
714.782	10776.34
715.125	10721.88
715.469	10720.52
715.812	10620.86
716.156	10650.02
716.499	10648.43
716.843	10680.98
717.186	10525.05
717.53	10643.69
717.873	10658.6
718.216	10526.63
718.559	10473.3
718.902	10539.96
719.246	10560.08
719.589	10481.43
719.932	10376.35
720.275	10433.3
720.617	10382.23
720.96	10411.38
721.303	10404.6
721.646	10452.06
721.989	10346.97
722.331	10382.68
722.674	10403.47
723.016	10376.35
723.359	10329.35
723.701	10339.29
724.044	10274.89
724.386	10289.12
724.729	10312.4
725.071	10332.74
725.413	10252.74
725.755	10227.43
726.097	10286.86
726.439	10206.64
726.782	10129.58
727.124	10254.32
727.465	10226.75
727.807	10177.26
728.149	10179.97
728.491	10149.24
728.833	10168.22
729.175	10191.72
729.516	10200.76
729.858	10232.4
730.199	10121.22
730.541	10128.22
730.882	10161.67
731.224	10190.59
731.565	10131.61
731.906	10087.55
732.248	10197.6
732.589	10099.3
732.93	10094.1
733.271	10088
733.612	10153.76
733.953	10178.39
734.294	10103.59
734.635	10085.74
734.976	10128
735.317	10052.07
735.658	10015.46
735.999	10091.84
736.339	10071.73
736.68	10114.21
737.021	10067.21
737.361	9978.62
737.702	10105.62
738.042	10096.81
738.383	10043.03
738.723	10096.36
739.063	10129.35
739.404	10114.21
739.744	10151.5
740.084	10090.94
740.424	10123.48
740.764	10097.26
741.104	10181.78
741.444	10152.4
741.784	10170.48
742.124	10195.79
742.464	10164.61
742.804	10156.24
743.143	10279.4
743.483	10246.19
743.823	10213.87
744.162	10265.39
744.502	10335.9
744.841	10386.75
745.181	10402.11
745.52	10454.77
745.86	10432.62
746.199	10453.86
746.538	10505.16
746.877	10576.8
747.216	10611.37
747.556	10669.23
747.895	10735.89
748.234	10709
748.573	10761.43
748.911	10850.92
749.25	10864.93
749.589	10912.38
749.928	10951.7
750.267	11141.3
750.605	11183.56
750.944	11261.07
751.283	11319.83
751.621	11380.17
751.96	11475.76
752.298	11546.26
752.636	11642.53
752.975	11730.89
753.313	11794.85
753.651	11932.24
753.989	11936.31
754.327	12081.17
754.666	12103.54
755.004	12283.19
755.342	12383.08
755.679	12516.86
756.017	12656.52
756.355	12730.87
756.693	12848.15
757.031	13114.81
757.368	13102.16
757.706	13223.51
758.044	13406.33
758.381	13548.92
758.719	13635.47
759.056	13766.09
759.394	14006.09
759.731	14137.16
760.068	14212.41
760.405	14357.04
760.743	14455.79
761.08	14674.54
761.417	14719.97
761.754	14967.19
762.091	15168.54
762.428	15214.42
762.765	15401.76
763.102	15530.79
763.438	15703.22
763.775	15770.33
764.112	15943.21
764.449	16171.91
764.785	16223.2
765.122	16374.61
765.458	16440.37
765.795	16667.49
766.131	16705.45
766.467	16827.71
766.804	16923.3
767.14	17056.4
767.476	17189.51
767.812	17303.85
768.148	17462.72
768.485	17549.27
768.821	17531.87
769.157	17711.98
769.492	17809.83
769.828	17948.58
770.164	17922.14
770.5	18034.23
770.836	18249.82
771.171	18186.09
771.507	18206.43
771.842	18243.72
772.178	18377.05
772.513	18507.89
772.849	18424.5
773.184	18568.68
773.519	18684.83
773.855	18667.66
774.19	18738.17
774.525	18784.49
774.86	18888.44
775.195	18852.51
775.53	18805.96
775.865	18918.5
776.2	18850.03
776.535	18864.04
776.87	18926.41
777.205	18983.13
777.539	18895.9
777.874	19085.95
778.209	18934.54
778.543	18997.59
778.878	18986.75
779.212	19045.28
779.547	19022.23
779.881	19197.81
780.215	18998.95
780.55	19068.1
780.884	19035.33
781.218	19059.51
781.552	19163.92
781.886	19097.7
782.22	19033.07
782.554	19079.4
782.888	18895.68
783.222	18898.84
783.556	18952.62
783.889	18888.9
784.223	18822.46
784.557	18698.17
784.89	18887.09
785.224	18739.97
785.557	18747.88
785.891	18749.46
786.224	18760.99
786.558	18737.26
786.891	18715.34
787.224	18624.72
787.557	18590.6
787.891	18476.7
788.224	18441.9
788.557	18559.19
788.89	18470.6
789.223	18536.14
789.556	18327.1
789.888	18294.34
790.221	18353.99
790.554	18217.5
790.887	18268.8
791.219	18176.82
791.552	18204.85
791.884	18060.22
792.217	18063.83
792.549	18043.72
792.882	17925.53
793.214	17881.92
793.546	17935.7
793.879	17815.03
794.211	17766.21
794.543	17871.97
794.875	17721.02
795.207	17860.45
795.539	17767.12
795.871	17617.07
796.203	17567.35
796.535	17547.01
796.867	17493.23
797.198	17473.11
797.53	17538.2
797.862	17344.08
798.193	17430.4
798.525	17197.87
798.856	17328.94
799.188	17147.02
799.519	17096.17
799.85	17086.46
800.182	17135.95
800.513	17188.6
800.844	17003.52
801.175	17028.15
801.506	17062.73
801.837	16878.33
802.168	16891.89
802.499	16821.61
802.83	16797.88
803.161	16743.19
803.491	16730.76
803.822	16738.22
804.153	16644.21
804.483	16426.59
804.814	16533.25
805.145	16483.76
805.475	16440.15
805.805	16406.02
806.136	16373.26
806.466	16340.94
806.796	16403.76
807.126	16229.98
807.457	16205.12
807.787	16234.5
808.117	16174.39
808.447	16152.24
808.777	16047.39
809.107	15952.7
809.436	15927.62
809.766	15970.1
810.096	15832.03
810.426	15791.35
810.755	15783.67
811.085	15889.43
811.414	15796.77
811.744	15705.93
812.073	15718.36
812.403	15659.83
812.732	15564.92
813.061	15661.86
813.39	15561.98
813.719	15468.42
814.049	15558.59
814.378	15435.65
814.707	15387.07
815.036	15453.51
815.365	15325.37
815.693	15334.41
816.022	15304.58
816.351	15274.53
816.68	15152.72
817.008	15199.28
817.337	15157.24
817.665	15051.71
817.994	15113.18
818.322	15080.41
818.651	15072.27
818.979	14926.29
819.307	15003.8
819.636	14971.03
819.964	14826.86
820.292	14893.29
820.62	14865.5
820.948	14849.68
821.276	14954.99
821.604	14835.22
821.932	14910.47
822.259	14894.88
822.587	14846.29
822.915	14883.13
823.243	14868.21
823.57	14807.2
823.898	14773.98
824.225	14815.56
824.553	14805.84
824.88	14858.72
825.207	14861.43
825.535	14774.43
825.862	14851.49
826.189	14824.37
826.516	14813.07
826.843	14902.33
827.17	14907.76
827.497	14912.05
827.824	14864.14
828.151	14919.73
828.478	14860.98
828.805	14880.19
829.131	14844.26
829.458	14917.25
829.785	14739.85
830.111	14845.61
830.438	14884.71
830.764	14905.27
831.09	14840.64
831.417	14799.51
831.743	14927.19
832.069	14851.94
832.395	14787.76
832.722	14766.97
833.048	14707.09
833.374	14740.53
833.7	14691.04
834.026	14818.95
834.351	14782.34
834.677	14746.86
835.003	14738.95
835.329	14703.24
835.654	14722
835.98	14660.76
836.306	14695.33
836.631	14643.58
836.956	14709.57
837.282	14646.97
837.607	14565.62
837.932	14564.72
838.258	14634.77
838.583	14518.84
838.908	14344.83
839.233	14467.54
839.558	14485.62
839.883	14332.18
840.208	14305.97
840.533	14230.94
840.858	14275.46
841.182	14350.71
841.507	14277.04
841.832	14133.31
842.156	14157.95
842.481	14184.16
842.805	14212.63
843.13	14101
843.454	14032.98
843.778	13940.33
844.103	13955.92
844.427	13906.2
844.751	13983.26
845.075	13919.08
845.399	13859.65
845.723	13840.44
846.047	13790.27
846.371	13697.85
846.695	13714.34
847.019	13633.67
847.343	13572.43
847.666	13488.36
847.99	13530.39
848.313	13464.18
848.637	13317.74
848.96	13325.65
849.284	13271.87
849.607	13231.19
849.931	13200.01
850.254	13113.45
850.577	13004.76
850.9	12993.46
851.223	12949.39
851.546	12895.38
851.869	12741.49
852.192	12833.91
852.515	12790.75
852.838	12695.39
853.161	12713.47
853.483	12600.02
853.806	12583.3
854.129	12573.58
854.451	12511.66
854.774	12440.48
855.096	12376.52
855.419	12354.83
855.741	12366.13
856.063	12339.24
856.385	12206.59
856.708	12171.78
857.03	12148.51
857.352	12090.43
857.674	11999.36
857.996	12007.5
858.318	11986.7
858.64	11952.81
858.961	11918.68
859.283	11848.63
859.605	11772.7
859.926	11879.14
860.248	11865.8
860.57	11779.25
860.891	11807.73
861.212	11697.67
861.534	11717.56
861.855	11704.68
862.176	11659.93
862.498	11592.14
862.819	11640.27
863.14	11625.81
863.461	11586.26
863.782	11520.73
864.103	11529.77
864.424	11504.01
864.745	11492.48
865.065	11458.81
865.386	11462.65
865.707	11369.77
866.027	11440.05
866.348	11365.03
866.668	11359.15
866.989	11408.41
867.309	11259.04
867.63	11270.57
867.95	11304.24
868.27	11277.57
868.59	11283.22
868.91	11180.4
869.23	11153.05
869.55	11125.03
869.87	11206.39
870.19	11166.61
870.51	11118.48
870.83	11171.58
871.15	11043.68
871.469	11086.39
871.789	11124.58
872.109	11097.69
872.428	11012.04
872.748	10995.32
873.067	10992.61
873.386	10904.25
873.706	11026.5
874.025	10930.46
874.344	10856.11
874.663	10882.1
874.982	10867.86
875.301	10871.71
875.62	10848.2
875.939	10829.67
876.258	10812.27
876.577	10817.92
876.896	10791.93
877.214	10707.19
877.533	10721.88
877.852	10690.92
878.17	10803.46
878.489	10663.35
878.807	10719.85
879.125	10716.46
879.444	10653.63
879.762	10676.46
880.08	10638.72
880.398	10558.72
880.716	10540.41
881.034	10552.39
881.352	10545.61
881.67	10526.63
881.988	10493.64
882.306	10462
882.624	10390.36
882.941	10332.28
883.259	10379.74
883.577	10355.56
883.894	10341.78
884.212	10281.21
884.529	10298.84
884.846	10271.72
885.164	10254.77
885.481	10167.32
885.798	10175.68
886.115	10159.63
886.432	10208.45
886.75	10120.54
887.067	10125.06
887.383	10128.22
887.7	10087.55
888.017	9992.18
888.334	10048.22
888.651	9971.16
888.967	9984.05
889.284	9935.69
889.6	9924.16
889.917	9835.8
890.233	9821.79
890.55	9814.11
890.866	9758.97
891.182	9777.05
891.498	9696.37
891.815	9739.98
892.131	9628.57
892.447	9629.7
892.763	9554.45
893.079	9559.88
893.395	9521.68
893.71	9514.91
894.026	9468.58
894.342	9536.37
894.657	9367.56
894.973	9414.12
895.289	9445.3
895.604	9337.06
895.92	9269.94
896.235	9217.06
896.55	9232.43
896.865	9237.4
897.181	9170.06
897.496	9122.83
897.811	9093.22
898.126	9086.89
898.441	9055.93
898.756	8991.08
899.071	8911.76
899.386	8983.17
899.7	8904.07
900.015	8872.21
900.33	8781.37
900.644	8772.1
900.959	8846
901.273	8737.75
901.588	8813.45
901.902	8722.84
902.216	8637.41
902.531	8706.56
902.845	8611.88
903.159	8591.99
903.473	8580.47
903.787	8512.9
904.101	8439.68
904.415	8448.94
904.729	8446.46
905.042	8338.44
905.356	8398.1
905.67	8379.57
905.984	8368.04
906.297	8289.63
906.611	8282.17
906.924	8225.22
907.237	8193.58
907.551	8166.69
907.864	8126.47
908.177	8114.94
908.491	8154.26
908.804	8007.83
909.117	7955.62
909.43	7926.47
909.743	7916.08
910.056	7909.3
910.368	7864.33
910.681	7819.58
910.994	7798.79
911.307	7759.02
911.619	7715.18
911.932	7729.64
912.244	7571.68
912.557	7624.33
912.869	7568.06
913.181	7522.64
913.494	7512.92
913.806	7443.55
914.118	7442.87
914.43	7418.92
914.742	7382.31
915.054	7334.62
915.366	7348.86
915.678	7272.93
915.99	7301.4
916.302	7231.58
916.613	7170.56
916.925	7198.36
917.236	7125.14
917.548	7086.72
917.859	7144.57
918.171	7077.91
918.482	7055.31
918.794	6940.06
919.105	7010.34
919.416	6930.57
919.727	6850.34
920.038	6888.31
920.349	6897.35
920.66	6778.48
920.971	6859.38
921.282	6812.6
921.593	6712.94
921.903	6694.87
922.214	6699.16
922.525	6678.82
922.835	6691.25
923.146	6594.98
923.456	6612.61
923.767	6556.79
924.077	6589.11
924.387	6561.54
924.697	6494.42
925.008	6416
925.318	6446.74
925.628	6391.6
925.938	6406.06
926.248	6321.77
926.558	6258.27
926.867	6308.66
927.177	6264.14
927.487	6250.81
927.796	6201.09
928.106	6210.81
928.416	6145.5
928.725	6153.64
929.034	6147.31
929.344	6138.5
929.653	6088.1
929.962	6045.84
930.271	6054.43
930.581	6007.43
930.89	5997.71
931.199	5950.71
931.508	5932.17
931.817	5893.31
932.125	5906.86
932.434	5870.48
932.743	5784.38
933.051	5770.14
933.36	5777.15
933.669	5717.72
933.977	5691.5
934.286	5702.35
934.594	5652.41
934.902	5645.63
935.21	5642.92
935.519	5637.94
935.827	5620.09
936.135	5561.79
936.443	5501.9
936.751	5490.83
937.059	5435.01
937.367	5473.66
937.674	5439.76
937.982	5415.35
938.29	5414.45
938.597	5427.78
938.905	5354.56
939.213	5355.69
939.52	5315.24
939.827	5354.79
940.135	5288.35
940.442	5241.35
940.749	5232.08
941.056	5227.33
941.363	5193.44
941.67	5155.47
941.977	5149.6
942.284	5107.79
942.591	5088.58
942.898	5033.44
943.205	5087.9
943.511	5043.16
943.818	4995.02
944.125	4987.34
944.431	4943.73
944.738	4946.21
945.044	4918.87
945.35	4909.6
945.657	4839.1
945.963	4830.73
946.269	4823.96
946.575	4801.58
946.881	4825.31
947.187	4760
947.493	4795.71
947.799	4760.23
948.105	4705.09
948.41	4686.78
948.716	4734.92
949.022	4669.16
949.327	4712.77
949.633	4600.68
949.938	4578.99
950.244	4574.7
950.549	4572.66
950.854	4555.26
951.16	4508.94
951.465	4535.6
951.77	4442.72
952.075	4460.8
952.38	4427.58
952.685	4402.72
952.99	4386.23
953.294	4371.99
953.599	4369.73
953.904	4349.17
954.209	4305.1
954.513	4258.09
954.818	4289.05
955.122	4277.08
955.426	4255.38
955.731	4201.82
956.035	4208.15
956.339	4193.01
956.643	4178.32
956.948	4120.47
957.252	4133.8
957.556	4110.08
957.86	4092
958.163	4089.06
958.467	4049.74
958.771	4098.32
959.075	4015.39
959.378	4013.81
959.682	4002.73
959.985	4008.16
960.289	3964.77
960.592	3918.22
960.896	3933.58
961.199	3920.02
961.502	3942.17
961.805	3885.22
962.108	3843.64
962.411	3863.08
962.714	3810.87
963.017	3798.9
963.32	3792.12
963.623	3771.33
963.926	3793.47
964.228	3771.33
964.531	3772.68
964.833	3712.12
965.136	3698.79
965.438	3671.89
965.741	3628.96
966.043	3639.58
966.345	3640.03
966.648	3596.87
966.95	3580.82
967.252	3566.59
967.554	3570.2
967.856	3551.67
968.158	3501.96
968.46	3520.49
968.761	3525.01
969.063	3501.05
969.365	3480.04
969.666	3483.88
969.968	3440.04
970.269	3433.94
970.571	3415.18
970.872	3397.55
971.174	3383.09
971.475	3366.37
971.776	3314.16
972.077	3344.22
972.378	3375.41
972.679	3318.46
972.98	3286.59
973.281	3262.87
973.582	3257.44
973.883	3258.57
974.183	3282.75
974.484	3220.16
974.785	3222.19
975.085	3216.77
975.386	3206.37
975.686	3145.81
975.986	3154.17
976.287	3166.6
976.587	3128.63
976.887	3118.24
977.187	3070.33
977.487	3054.51
977.787	3091.35
978.087	3042.76
978.387	3013.16
978.687	3054.96
978.987	3066.71
979.286	3034.4
979.586	3034.85
979.885	2982.2
980.185	2978.58
980.484	2972.25
980.784	2934.74
981.083	2935.42
981.382	2945.81
981.682	2899.03
981.981	2915.53
982.28	2879.6
982.579	2869.88
982.878	2843.44
983.177	2848.87
983.475	2885.25
983.774	2834.4
984.073	2781.97
984.372	2781.75
984.67	2805.03
984.969	2787.17
985.267	2759.15
985.566	2786.95
985.864	2737.68
986.162	2703.11
986.461	2734.97
986.759	2693.62
987.057	2647.97
987.355	2669.44
987.653	2659.72
987.951	2634.86
988.249	2607.06
988.547	2588.08
988.844	2608.65
989.142	2593.73
989.44	2592.83
989.737	2556.9
990.035	2548.76
990.332	2576.33
990.63	2529.33
990.927	2522.55
991.224	2519.83
991.521	2520.51
991.819	2507.18
992.116	2518.48
992.413	2478.93
992.71	2435.32
993.006	2428.99
993.303	2414.3
993.6	2415.88
993.897	2409.56
994.193	2419.05
994.49	2401.42
994.787	2356.22
995.083	2359.61
995.379	2331.37
995.676	2352.83
995.972	2351.48
996.268	2318.48
996.565	2319.39
996.861	2286.85
997.157	2272.61
997.453	2279.84
997.749	2236.45
998.044	2247.53
998.34	2248.66
998.636	2218.83
998.932	2239.62
999.227	2236.9
999.523	2198.04
999.818	2158.26
1000.114	2173.18
1000.409	2132.05
1000.704	2147.19
1001	2155.1
1001.295	2113.97
1001.59	2107.87
1001.885	2091.37
1002.18	2065.38
1002.475	2068.77
1002.77	2070.81
1003.065	2062.45
1003.359	2028.1
1003.654	2013.41
1003.949	2064.48
1004.243	2002.56
1004.538	2003.01
1004.832	2013.63
1005.127	1974.76
1005.421	1991.26
1005.715	1944.93
1006.009	1944.93
1006.304	1942.67
1006.598	1924.14
1006.892	1888.44
1007.186	1912.17
1007.48	1924.6
1007.773	1838.27
1008.067	1863.58
1008.361	1839.63
1008.655	1862
1008.948	1844.37
1009.242	1830.81
1009.535	1833.98
1009.829	1791.72
1010.122	1809.35
1010.415	1784.26
1010.708	1777.93
1011.001	1751.95
1011.295	1763.92
1011.588	1741.32
1011.881	1740.19
1012.173	1727.09
1012.466	1717.6
1012.759	1706.52
1013.052	1708.1
1013.344	1680.99
1013.637	1667.65
1013.93	1683.7
1014.222	1668.33
1014.514	1656.81
1014.807	1652.97
1015.099	1620.65
1015.391	1619.29
1015.683	1598.05
1015.976	1614.55
1016.268	1599.41
1016.56	1600.76
1016.851	1570.26
1017.143	1564.61
1017.435	1553.98
1017.727	1538.17
1018.018	1543.59
1018.31	1491.61
1018.602	1524.83
1018.893	1492.29
1019.185	1514.44
1019.476	1499.3
1019.767	1502.01
1020.058	1473.08
1020.35	1456.36
1020.641	1457.26
1020.932	1431.05
1021.223	1419.3
1021.514	1405.06
1021.804	1416.59
1022.095	1401.9
1022.386	1388.79
1022.677	1371.84
1022.967	1360.09
1023.258	1367.77
1023.548	1353.76
1023.839	1363.03
1024.129	1323.03
1024.419	1320.54
1024.709	1303.6
1025	1330.94
1025.29	1311.96
1025.58	1308.34
1025.87	1296.59
1026.16	1256.37
1026.449	1277.61
1026.739	1262.01
1027.029	1233.54
1027.319	1234.9
1027.608	1248
1027.898	1215.69
1028.187	1220.89
1028.477	1216.14
1028.766	1213.2
1029.055	1199.19
1029.344	1198.06
1029.634	1168.68
1029.923	1172.98
1030.212	1176.82
1030.501	1191.51
1030.79	1173.66
1031.078	1130.27
1031.367	1144.28
1031.656	1132.75
1031.945	1137.5
1032.233	1116.48
1032.522	1125.07
1032.81	1122.81
1033.099	1074.68
1033.387	1082.36
1033.675	1093.21
1033.963	1086.2
1034.251	1078.29
1034.54	1073.55
1034.828	1053.43
1035.116	1045.75
1035.403	1056.82
1035.691	1031.51
1035.979	1046.65
1036.267	1000.78
1036.554	1002.59
1036.842	1005.98
1037.129	1009.59
1037.417	998.97
1037.704	1001
1037.992	963.94
1038.279	980.89
1038.566	955.81
1038.853	955.81
1039.14	955.81
