Data from hue_30_FLMS001491_22.txt Node
Date: Mon Feb 06 15:04:56 GMT 2017
User: dcchb
Spectrometer: FLMS00149
Trigger mode: 0
Integration Time (sec): 2.000000E-2
Scans to average: 10
Electric dark correction enabled: true
Nonlinearity correction enabled: false
Boxcar width: 0
XAxis mode: Wavelengths
Number of Pixels in Spectrum: 2048
>>>>>Begin Spectral Data<<<<<
341.393	-5.55
341.776	-5.55
342.16	-5.55
342.543	-56.85
342.927	-58.88
343.31	-72.89
343.693	-82.38
344.077	-50.75
344.46	-67.24
344.843	-60.92
345.226	-54.36
345.61	-35.61
345.993	-24.31
346.376	11.62
346.759	20.44
347.142	17.05
347.525	50.94
347.908	63.6
348.291	82.58
348.674	101.79
349.057	100.44
349.44	135.69
349.823	133.2
350.206	156.25
350.588	198.06
350.971	229.7
351.354	237.38
351.737	237.15
352.119	245.97
352.502	247.55
352.884	270.37
353.267	289.81
353.65	304.95
354.032	315.8
354.414	310.83
354.797	304.95
355.179	295.01
355.562	330.03
355.944	317.6
356.326	319.64
356.709	312.63
357.091	341.78
357.473	345.85
357.855	328.68
358.238	363.48
358.62	339.52
359.002	356.47
359.384	360.77
359.766	342.69
360.148	331.84
360.53	353.76
360.912	329.58
361.294	320.99
361.676	344.27
362.057	331.16
362.439	328.23
362.821	331.84
363.203	320.32
363.584	329.81
363.966	325.51
364.348	340.2
364.729	327.32
365.111	336.36
365.493	326.42
365.874	324.84
366.256	333.65
366.637	313.08
367.019	306.31
367.4	330.03
367.781	308.57
368.163	323.93
368.544	315.57
368.925	334.55
369.306	338.85
369.688	319.86
370.069	341.11
370.45	310.15
370.831	323.93
371.212	326.87
371.593	323.03
371.974	328.68
372.355	318.96
372.736	322.12
373.117	313.31
373.498	315.34
373.879	310.15
374.26	310.6
374.641	312.18
375.021	292.07
375.402	322.12
375.783	300.43
376.163	319.86
376.544	328
376.925	321.67
377.305	315.57
377.686	346.98
378.066	336.36
378.447	311.5
378.827	321.9
379.208	334.33
379.588	335.46
379.968	354.89
380.349	335.01
380.729	346.3
381.109	325.74
381.489	335.68
381.87	343.37
382.25	363.48
382.63	353.76
383.01	337.94
383.39	334.33
383.77	340.88
384.15	362.35
384.53	339.07
384.91	332.52
385.29	363.71
385.67	362.58
386.049	355.12
386.429	366.19
386.809	348.34
387.189	362.12
387.568	340.88
387.948	350.6
388.328	357.83
388.707	350.82
389.087	366.42
389.466	362.12
389.846	365.74
390.225	374.33
390.605	386.08
390.984	370.48
391.363	353.76
391.743	373.42
392.122	351.73
392.501	391.28
392.881	377.49
393.26	376.59
393.639	374.1
394.018	344.72
394.397	382.24
394.776	374.78
395.155	386.53
395.534	405.96
395.913	386.3
396.292	381.78
396.671	384.27
397.05	407.55
397.429	388.11
397.808	377.04
398.186	373.65
398.565	404.61
398.944	386.3
399.323	404.16
399.701	400.99
400.08	417.49
400.458	395.12
400.837	412.52
401.215	434.66
401.594	408
401.972	416.13
402.351	411.39
402.729	410.03
403.107	420.43
403.486	410.94
403.864	405.51
404.242	413.65
404.62	430.37
404.999	420.65
405.377	407.09
405.755	429.24
406.133	417.49
406.511	435.12
406.889	435.79
407.267	446.64
407.645	445.74
408.023	426.98
408.401	442.8
408.779	437.83
409.156	434.44
409.534	437.38
409.912	458.84
410.29	444.15
410.667	476.47
411.045	453.42
411.422	466.98
411.8	465.4
412.178	459.52
412.555	480.31
412.933	488.45
413.31	488.67
413.687	479.63
414.065	493.19
414.442	482.57
414.819	494.78
415.197	495
415.574	501.78
415.951	487.32
416.328	516.24
416.705	500.42
417.082	501.33
417.46	504.94
417.837	513.31
418.214	502.23
418.591	516.7
418.967	518.96
419.344	530.03
419.721	527.99
420.098	524.83
420.475	527.54
420.852	539.29
421.228	535.45
421.605	532.51
421.982	544.27
422.358	533.42
422.735	546.07
423.111	549.69
423.488	539.52
423.864	551.5
424.241	556.47
424.617	551.27
424.994	548.11
425.37	581.1
425.746	560.76
426.123	571.38
426.499	575.22
426.875	579.29
427.251	571.38
427.627	591.72
428.003	609.57
428.379	596.92
428.756	588.56
429.132	596.02
429.507	601.21
429.883	626.3
430.259	620.42
430.635	619.74
431.011	626.75
431.387	641.21
431.763	655
432.138	659.29
432.514	651.16
432.89	646.64
433.265	670.36
433.641	672.62
434.016	670.14
434.392	695.67
434.767	680.98
435.143	691.83
435.518	691.38
435.894	692.51
436.269	699.06
436.644	708.78
437.02	704.94
437.395	720.31
437.77	723.24
438.145	723.24
438.52	737.48
438.895	762.79
439.271	744.71
439.646	746.97
440.021	760.08
440.395	760.53
440.77	754.66
441.145	769.34
441.52	765.28
441.895	784.26
442.27	775.9
442.645	777.25
443.019	775.22
443.394	814.31
443.769	781.1
444.143	769.8
444.518	799.85
444.892	816.8
445.267	802.34
445.641	814.77
446.016	831.04
446.39	818.61
446.764	829.23
447.139	817.7
447.513	865.61
447.887	833.3
448.262	827.87
448.636	844.14
449.01	853.64
449.384	881.88
449.758	875.1
450.132	882.79
450.506	875.56
450.88	894.99
451.254	869.45
451.628	891.6
452.002	906.29
452.376	922.33
452.75	944.03
453.123	894.31
453.497	961.66
453.871	934.99
454.244	965.5
454.618	943.12
454.992	961.2
455.365	960.98
455.739	986.51
456.112	986.97
456.486	989.9
456.859	991.71
457.232	1025.83
457.606	1015.67
457.979	1013.41
458.352	1064.48
458.725	1061.09
459.099	1069.22
459.472	1079.39
459.845	1084.36
460.218	1108.09
460.591	1116.68
460.964	1120.3
461.337	1152.16
461.71	1138.83
462.083	1173.18
462.456	1172.5
462.829	1161.88
463.201	1184.02
463.574	1201.2
463.947	1200.75
464.32	1236.45
464.692	1255.43
465.065	1258.37
465.438	1272.16
465.81	1299.27
466.183	1292.95
466.555	1314.41
466.928	1337.01
467.3	1349.67
467.672	1364.36
468.045	1404.36
468.417	1403.23
468.789	1403
469.161	1407.07
469.534	1435.54
469.906	1480.06
470.278	1499.49
470.65	1506.27
471.022	1527.06
471.394	1571.36
471.766	1573.84
472.138	1602.54
472.51	1622.88
472.882	1664.01
473.253	1663.78
473.625	1694.74
473.997	1769.32
474.369	1797.57
474.74	1784.46
475.112	1818.81
475.484	1863.55
475.855	1936.32
476.227	1950.1
476.598	1977.45
476.97	2006.37
477.341	2066.71
477.713	2073.72
478.084	2094.96
478.455	2164.11
478.827	2194.39
479.198	2236.65
479.569	2279.13
479.94	2374.27
480.311	2408.4
480.682	2434.61
481.053	2509.86
481.424	2579.47
481.795	2578.79
482.166	2613.59
482.537	2685.45
482.908	2754.83
483.279	2818.1
483.65	2876.63
484.021	2946.24
484.391	2967.25
484.762	3019
485.133	3047.93
485.503	3147.36
485.874	3221.48
486.244	3286.57
486.615	3316.17
486.985	3412.66
487.356	3458.09
487.726	3535.83
488.097	3601.59
488.467	3638.65
488.837	3698.76
489.207	3807.23
489.578	3850.85
489.948	3949.15
490.318	3989.6
490.688	4040.22
491.058	4072.76
491.428	4207.9
491.798	4260.55
492.168	4346.2
492.538	4336.03
492.908	4444.95
493.278	4496.93
493.648	4533.31
494.017	4642.01
494.387	4695.34
494.757	4772.4
495.126	4805.62
495.496	4826.64
495.866	4935.34
496.235	4963.36
496.605	5006.52
496.974	5095.11
497.344	5152.28
497.713	5151.6
498.082	5206.06
498.452	5296.68
498.821	5341.65
499.19	5354.08
499.559	5390.47
499.928	5459.84
500.298	5504.81
500.667	5609.44
501.036	5577.58
501.405	5604.92
501.774	5618.93
502.143	5703.68
502.512	5795.88
502.88	5796.33
503.249	5813.96
503.618	5885.14
503.987	5920.4
504.356	5959.04
504.724	6010.11
505.093	6016.66
505.462	6066.15
505.83	6129.88
506.199	6197.45
506.567	6309.54
506.936	6273.83
507.304	6278.8
507.672	6363.77
508.041	6434.73
508.409	6455.07
508.777	6489.87
509.145	6495.3
509.514	6540.04
509.882	6603.09
510.25	6550.66
510.618	6647.61
510.986	6612.35
511.354	6715.18
511.722	6769.64
512.09	6796.76
512.458	6800.6
512.826	6855.06
513.193	6893.25
513.561	6967.83
513.929	6973.7
514.297	7062.29
514.664	7081.04
515.032	7093.25
515.4	7155.39
515.767	7086.69
516.135	7217.76
516.502	7163.53
516.869	7297.31
517.237	7257.08
517.604	7220.02
517.972	7332.79
518.339	7361.26
518.706	7383.18
519.073	7418.66
519.44	7468.15
519.808	7548.6
520.175	7483.97
520.542	7618.66
520.909	7639.45
521.276	7634.25
521.643	7688.26
522.009	7752.21
522.376	7718.09
522.743	7813.68
523.11	7801.02
523.477	7968.93
523.843	7912.66
524.21	8031.98
524.577	8045.76
524.943	8069.27
525.31	8105.87
525.676	8208.47
526.043	8159.43
526.409	8224.06
526.776	8307
527.142	8331.86
527.508	8356.04
527.874	8456.6
528.241	8514.68
528.607	8573.21
528.973	8552.42
529.339	8619.08
529.705	8676.25
530.071	8713.54
530.437	8763.26
530.803	8813.88
531.169	8835.8
531.535	8838.06
531.901	8941.11
532.267	8993.53
532.632	9016.13
532.998	9026.3
533.364	9005.06
533.73	9035.57
534.095	9179.07
534.461	9123.47
534.826	9271.49
535.192	9243.25
535.557	9335.22
535.923	9342.9
536.288	9362.11
536.653	9400.08
537.019	9365.5
537.384	9486.63
537.749	9538.15
538.114	9515.33
538.479	9528.21
538.845	9671.71
539.21	9556.01
539.575	9677.13
539.94	9720.97
540.305	9767.3
540.67	9764.59
541.034	9814.98
541.399	9912.61
541.764	9929.1
542.129	9944.92
542.494	10038.48
542.858	10047.07
543.223	10089.55
543.587	10131.81
543.952	10152.83
544.316	10206.16
544.681	10199.6
545.045	10300.62
545.41	10349.66
545.774	10377.68
546.138	10387.17
546.503	10462.42
546.867	10437.34
547.231	10455.64
547.595	10602.76
547.959	10598.46
548.324	10599.59
548.688	10660.61
549.052	10675.75
549.416	10761.85
549.779	10768.4
550.143	10807.5
550.507	10877.55
550.871	10864.22
551.235	10860.15
551.599	10921.39
551.962	11018.79
552.326	11024.22
552.689	11087.94
553.053	11081.62
553.417	11055.18
553.78	11220.37
554.143	11136.53
554.507	11222.85
554.87	11323.42
555.234	11395.05
555.597	11259.46
555.96	11340.82
556.323	11443.87
556.686	11458.1
557.05	11516.41
557.413	11528.16
557.776	11535.61
558.139	11638.66
558.502	11662.84
558.865	11619
559.228	11778.77
559.59	11742.84
559.953	11706.68
560.316	11831.43
560.679	11866.45
561.041	11971.54
561.404	11990.29
561.767	12066.9
562.129	12008.37
562.492	12134.24
562.854	12224.18
563.217	12143.73
563.579	12201.13
563.941	12310.74
564.304	12230.06
564.666	12354.58
565.028	12341.92
565.39	12431.41
565.753	12505.08
566.115	12520.9
566.477	12556.83
566.839	12585.08
567.201	12712.76
567.563	12631.86
567.925	12767.9
568.287	12809.25
568.648	12798.41
569.01	12888.12
569.372	12955.69
569.734	12928.57
570.095	13068.68
570.457	13053.77
570.819	13099.64
571.18	13206.98
571.542	13279.52
571.903	13261.22
572.265	13360.43
572.626	13412.63
572.987	13392.06
573.349	13565.84
573.71	13646.52
574.071	13678.61
574.432	13777.82
574.794	13951.6
575.155	13939.17
575.516	13957.47
575.877	14140.74
576.238	14108.2
576.599	14354.07
576.96	14397.69
577.32	14319.04
577.681	14557.68
578.042	14671.35
578.403	14763.78
578.763	14933.04
579.124	15081.96
579.485	15131
579.845	15353.37
580.206	15389.07
580.566	15580.25
580.927	15716.3
581.287	15914.71
581.648	15996.06
582.008	16206.9
582.368	16385.88
582.728	16609.61
583.089	16790.62
583.449	16914.46
583.809	17201.91
584.169	17363.48
584.529	17553.99
584.889	17936.8
585.249	18035.33
585.609	18144.25
585.969	18419.95
586.329	18715.31
586.688	18963.67
587.048	19162.98
587.408	19449.08
587.768	19643.65
588.127	19934.94
588.487	20212.22
588.846	20550.74
589.206	20622.61
589.565	20927.68
589.925	21325.64
590.284	21591.4
590.643	21838.62
591.003	22111.61
591.362	22548.66
591.721	22712.72
592.08	23134.86
592.44	23428.86
592.799	23584.34
593.158	23770.77
593.517	24169.63
593.876	24401.49
594.235	24663.86
594.593	25011.19
594.952	25320.34
595.311	25497.28
595.67	25866.99
596.029	26335
596.387	26544.49
596.746	26976.34
597.104	27107.18
597.463	27343.79
597.822	27778.35
598.18	27957.78
598.538	28175.18
598.897	28709.63
599.255	28716.41
599.613	29348.25
599.972	29465.31
600.33	29862.36
600.688	29899.88
601.046	30324.95
601.404	30667.09
601.762	30702.79
602.12	31214.42
602.478	31351.36
602.836	31787.96
603.194	31722.43
603.552	32063.89
603.91	32175.3
604.268	32522.41
604.625	32619.35
604.983	33101.6
605.341	33209.17
605.698	33532.78
606.056	33818.19
606.413	33885.76
606.771	34232.42
607.128	34402.36
607.485	34487.33
607.843	34789.01
608.2	35257.02
608.557	35380.41
608.914	35551.48
609.272	35806.62
609.629	36131.58
609.986	36305.81
610.343	36299.48
610.7	36729.75
611.057	36744.67
611.414	36946.92
611.771	37030.76
612.127	37245.45
612.484	37432.11
612.841	37754.13
613.198	37614.48
613.554	37823.96
613.911	38272.54
614.267	38224.86
614.624	38300.79
614.98	38512.98
615.337	38917.72
615.693	39071.61
616.05	39032.07
616.406	39314.09
616.762	39267.09
617.118	39353.41
617.475	39560.87
617.831	39798.6
618.187	39835.89
618.543	40150
618.899	40392.48
619.255	40337.57
619.611	40541.63
619.967	40681.29
620.323	40785.92
620.678	40716.77
621.034	40782.3
621.39	40830.44
621.746	40806.48
622.101	41354.04
622.457	41045.12
622.812	41237.66
623.168	41396.75
623.523	41422.29
623.879	41652.79
624.234	41397.65
624.589	41577.76
624.945	41797.19
625.3	41796.74
625.655	41777.31
626.01	41927.13
626.365	41982.27
626.72	41957.64
627.075	42019.11
627.43	42190.63
627.785	42065.21
628.14	42158.76
628.495	42224.98
628.85	42269.27
629.205	42311.3
629.559	42379.55
629.914	42320.12
630.269	42417.29
630.623	42296.16
630.978	42149.95
631.332	42515.14
631.687	42533.67
632.041	42414.12
632.396	42547
632.75	42331.19
633.104	42542.03
633.459	42300.46
633.813	42388.59
634.167	42425.2
634.521	42510.39
634.875	42430.62
635.229	42434.46
635.583	42267.24
635.937	42277.18
636.291	42264.52
636.645	42474.91
636.999	42263.85
637.352	42377.52
637.706	42203.73
638.06	42246.67
638.413	42209.16
638.767	42217.29
639.121	42356.95
639.474	42088.03
639.828	42039.67
640.181	42196.05
640.534	42320.12
640.888	42196.28
641.241	41992.22
641.594	42166.9
641.947	42182.49
642.301	42124.19
642.654	42057.52
643.007	42078.09
643.36	42088.71
643.713	41914.48
644.066	42284.86
644.419	41887.36
644.771	41501.38
645.124	41331.67
645.477	41182.07
645.83	41022.52
646.182	40859.59
646.535	40778.46
646.888	40942.07
647.24	40626.6
647.593	40817.33
647.945	40963.32
648.298	40686.94
648.65	40540.05
649.002	40533.5
649.355	40719.25
649.707	40690.1
650.059	40778.91
650.411	41300.93
650.763	41222.74
651.115	41869.28
651.467	41523.07
651.819	41559.68
652.171	41491.89
652.523	41497.09
652.875	41402.63
653.227	41180.49
653.578	41599.91
653.93	41400.59
654.282	41295.96
654.633	41209.18
654.985	41242.86
655.337	41373.25
655.688	41296.41
656.039	41453.47
656.391	41147.49
656.742	41237.21
657.094	41076.98
657.445	41341.61
657.796	41131.9
658.147	41092.13
658.498	41097.32
658.849	41127.61
659.2	41081.96
659.551	41088.28
659.902	41159.02
660.253	40999.25
660.604	41037.21
660.955	41004.44
661.306	41255.96
661.656	40979.36
662.007	40956.76
662.358	40880.38
662.708	40907.27
663.059	40911.34
663.409	40729.2
663.76	40990.43
664.11	41003.31
664.461	41013.94
664.811	41003.54
665.161	41009.19
665.511	40902.3
665.862	40968.06
666.212	41019.13
666.562	41059.36
666.912	40962.19
667.262	40874.73
667.612	40929.19
667.962	40944.33
668.312	40790.21
668.662	41039.7
669.011	40973.71
669.361	40842.64
669.711	40726.26
670.06	40778.91
670.41	40736.2
670.76	40724
671.109	40850.1
671.459	40626.15
671.808	40710.44
672.157	40824.11
672.507	40414.18
672.856	40493.27
673.205	40576.89
673.554	40728.52
673.904	40550.22
674.253	40723.1
674.602	40605.81
674.951	40059.16
675.3	39719.05
675.649	40525.14
675.998	40478.36
676.346	40383.67
676.695	40580.5
677.044	40210.34
677.393	40377.79
677.741	40355.42
678.09	40349.77
678.438	40258.25
678.787	40134.64
679.135	40333.5
679.484	40045.83
679.832	40230
680.181	39818.03
680.529	40157.69
680.877	39976.67
681.225	39913.17
681.573	40164.24
681.922	39905.49
682.27	39716.12
682.618	39777.13
682.966	39661.88
683.314	39749.11
683.661	39526.29
684.009	39523.58
684.357	39307.54
684.705	39300.53
685.053	39473.64
685.4	39270.25
685.748	39153.42
686.095	39148.45
686.443	39001.11
686.79	38940.77
687.138	38871.62
687.485	38941.67
687.832	38781.45
688.18	38891.73
688.527	38611.96
688.874	38570.84
689.221	38419.88
689.568	38433.89
689.915	38316.15
690.262	38475.47
690.609	38276.83
690.956	38208.59
691.303	38029.16
691.65	37881.81
691.997	37871.87
692.344	37687.7
692.69	37734.25
693.037	37768.15
693.383	37307.59
693.73	37390.75
694.077	37227.59
694.423	37309.4
694.769	37130.87
695.116	37096.98
695.462	37141.72
695.808	36930.2
696.155	37055.4
696.501	36682.75
696.847	36650.21
697.193	36413.83
697.539	36585.8
697.885	36319.82
698.231	36111.24
698.577	36240.73
698.923	36131.13
699.269	35991.24
699.614	35809.55
699.96	35783.56
700.306	35727.97
700.651	35699.95
700.997	35523.46
701.342	35541.99
701.688	35396.46
702.033	35436.68
702.379	35292.05
702.724	35246.86
703.069	35254.99
703.415	34895.68
703.76	34917.37
704.105	34870.14
704.45	34774.78
704.795	34547.89
705.14	34387.9
705.485	34346.99
705.83	34222.02
706.175	34330.5
706.52	34217.05
706.865	34041.69
707.209	34078.52
707.554	34014.35
707.899	34043.05
708.243	33806.22
708.588	33847.8
708.932	33651.64
709.277	33605.54
709.621	33446.23
709.966	33420.92
710.31	33476.05
710.654	33170.98
710.998	33211.65
711.342	33157.87
711.687	33105.22
712.031	33015.73
712.375	32825.9
712.719	32919.23
713.063	32827.71
713.407	32815.73
713.75	32609.18
714.094	32655.06
714.438	32578.9
714.782	32624.78
715.125	32418.68
715.469	32364.67
715.812	32203.55
716.156	32141.63
716.499	32222.75
716.843	32267.95
717.186	32116.77
717.53	32074.28
717.873	32062.98
718.216	32088.52
718.559	31849.43
718.902	31670.45
719.246	31855.98
719.589	31551.36
719.932	31550.91
720.275	31481.31
720.617	31486.5
720.96	31551.36
721.303	31345.49
721.646	31458.93
721.989	31199.5
722.331	31258.03
722.674	31218.49
723.016	31276.34
723.359	31122.22
723.701	31051.71
724.044	30916.12
724.386	30881.09
724.729	30946.4
725.071	30845.39
725.413	30777.59
725.755	30802.45
726.097	30599.07
726.439	30457.6
726.782	30523.59
727.124	30607.2
727.465	30413.76
727.807	30422.12
728.149	30349.13
728.491	30391.84
728.833	30505.06
729.175	30135.58
729.516	30229.36
729.858	30199.53
730.199	30137.39
730.541	30079.08
730.882	30080.21
731.224	30096.26
731.565	29846.77
731.906	29895.81
732.248	29861.69
732.589	29804.51
732.93	29718.87
733.271	29668.02
733.612	29706.66
733.953	29595.03
734.294	29595.48
734.635	29575.59
734.976	29594.57
735.317	29388.25
735.658	29432.32
735.999	29552.77
736.339	29333.56
736.68	29501.7
737.021	29325.88
737.361	29182.83
737.702	29308.48
738.042	29197.98
738.383	29145.77
738.723	29174.7
739.063	29108.26
739.404	29084.76
739.744	28916.63
740.084	28892.9
740.424	28861.71
740.764	28848.15
741.104	28910.07
741.444	28745.33
741.784	28623.53
742.124	28781.04
742.464	28668.95
742.804	28683.19
743.143	28552.79
743.483	28750.08
743.823	28407.71
744.162	28371.78
744.502	28443.42
744.841	28381.27
745.181	28478.9
745.52	28308.73
745.86	28365.23
746.199	28390.09
746.538	28247.49
746.877	28414.04
747.216	28120.26
747.556	28226.7
747.895	28007.95
748.234	28005.24
748.573	28084.56
748.911	27948.29
749.25	27979.25
749.589	27789.2
749.928	27931.79
750.267	28022.19
750.605	27761.85
750.944	27661.74
751.283	27650.9
751.621	27716.88
751.96	27608.41
752.298	27480.96
752.636	27509.21
752.975	27402.99
753.313	27290.23
753.651	27411.36
753.989	27277.57
754.327	27181.53
754.666	27054.98
755.004	27328.42
755.342	27071.48
755.679	27124.36
756.017	26927.3
756.355	27049.56
756.693	26824.25
757.031	26889.79
757.368	26774.08
757.706	26796.91
758.044	26697.25
758.381	26773.63
758.719	26638.04
759.056	26704.93
759.394	26566.86
759.731	26279.41
760.068	26360.54
760.405	26198.73
760.743	26158.28
761.08	26126.87
761.417	26097.49
761.754	25961.45
762.091	26068.11
762.428	25696.6
762.765	25753.09
763.102	25789.25
763.438	25637.84
763.775	25511.29
764.112	25503.84
764.449	25530.05
764.785	25366.66
765.122	25189.95
765.458	25128.25
765.795	25065.88
766.131	25032.21
766.467	25066.78
766.804	24885.32
767.14	24775.94
767.476	24780.24
767.812	24606.46
768.148	24628.83
768.485	24384.77
768.821	24303.87
769.157	24337.99
769.492	24167.37
769.828	24236.52
770.164	24126.24
770.5	24002.86
770.836	23970.77
771.171	23852.81
771.507	23793.82
771.842	23686.26
772.178	23578.01
772.513	23565.13
772.849	23498.92
773.184	23481.52
773.519	23513.83
773.855	23265.7
774.19	23176.44
774.525	23180.73
774.86	23115.65
775.195	22952.94
775.53	22994.75
775.865	22707.52
776.2	22679.73
776.535	22597.02
776.87	22513.63
777.205	22435.44
777.539	22339.85
777.874	22425.5
778.209	22236.12
778.543	22090.59
778.878	21959.3
779.212	22060.99
779.547	21864.16
779.881	21941.89
780.215	21698.96
780.55	21722.01
780.884	21585.07
781.218	21571.28
781.552	21553.66
781.886	21367.45
782.22	21305.98
782.554	21265.08
782.888	20984.41
783.222	20944.86
783.556	20865.54
783.889	20784.41
784.223	20731.98
784.557	20667.13
784.89	20723.4
785.224	20590.97
785.557	20491.99
785.891	20486.34
786.224	20451.54
786.558	20380.58
786.891	20069.85
787.224	19992.79
787.557	20026.92
787.891	20122.96
788.224	19889.29
788.557	19882.51
788.89	19815.17
789.223	19782.18
789.556	19628.28
789.888	19548.51
790.221	19558.45
790.554	19347.16
790.887	19341.29
791.219	19379.93
791.552	19214.28
791.884	19196.66
792.217	19170.89
792.549	19063.78
792.882	18907.62
793.214	18894.97
793.546	18847.96
793.879	18791.92
794.211	18658.14
794.543	18754.18
794.875	18666.27
795.207	18613.39
795.539	18529.1
795.871	18441.65
796.203	18388.54
796.535	18286.4
796.867	18175.44
797.198	18159.85
797.53	18226.74
797.862	18078.95
798.193	18146.06
798.525	17949.68
798.856	18024.71
799.188	17723.25
799.519	17745.62
799.85	17730.48
800.182	17652.06
800.513	17692.74
800.844	17483.48
801.175	17528
801.506	17434.89
801.837	17352.41
802.168	17223.83
802.499	17324.16
802.83	17215.24
803.161	17182.25
803.491	17223.15
803.822	17071.97
804.153	17052.08
804.483	16919.65
804.814	16887.56
805.145	16907.68
805.475	16787.91
805.805	16855.47
806.136	16787.23
806.466	16737.29
806.796	16619.77
807.126	16572.54
807.457	16485.54
807.787	16552.21
808.117	16339.1
808.447	16308.37
808.777	16433.11
809.107	16369.16
809.436	16203.74
809.766	16263.4
810.096	16161.93
810.426	16051.43
810.755	16217.98
811.085	16023.41
811.414	16066.8
811.744	15935.95
812.073	15928.04
812.403	15907.48
812.732	15767.37
813.061	15857.54
813.39	15691.44
813.719	15666.35
814.049	15766.46
814.378	15666.81
814.707	15540.26
815.036	15580.71
815.365	15431.56
815.693	15298.45
816.022	15403.08
816.351	15326.7
816.68	15253.03
817.008	15283.76
817.337	15160.83
817.665	15010.1
817.994	15152.69
818.322	15121.51
818.651	15075.18
818.979	15007.39
819.307	14996.54
819.636	15034.28
819.964	14925.13
820.292	14974.85
820.62	14883.55
820.948	14877
821.276	14837.22
821.604	14890.55
821.932	14898.01
822.259	14906.6
822.587	14846.26
822.915	14795.42
823.243	14772.82
823.57	14761.97
823.898	14868.41
824.225	14705.47
824.553	14736.66
824.88	14771.24
825.207	14786.83
825.535	14755.19
825.862	14774.63
826.189	14716.55
826.516	14844
826.843	14820.5
827.17	14811.69
827.497	14783.21
827.824	14826.38
828.151	14846.26
828.478	14765.36
828.805	14838.13
829.131	14727.85
829.458	14779.82
829.785	14670.67
830.111	14650.79
830.438	14747.96
830.764	14786.6
831.09	14699.83
831.417	14699.15
831.743	14729.88
832.069	14652.59
832.395	14601.07
832.722	14639.49
833.048	14586.83
833.374	14698.02
833.7	14562.43
834.026	14543.45
834.351	14616.66
834.677	14583.22
835.003	14631.35
835.329	14525.37
835.654	14538.47
835.98	14485.37
836.306	14487.63
836.631	14452.83
836.956	14494.63
837.282	14495.99
837.607	14371.25
837.932	14400.17
838.258	14365.82
838.583	14332.6
838.908	14191.82
839.233	14251.02
839.558	14216
839.883	14211.02
840.208	14161.99
840.533	14185.49
840.858	14191.82
841.182	14225.04
841.507	14093.51
841.832	13986.85
842.156	14108.65
842.481	13968.77
842.805	14007.19
843.13	13954.76
843.454	13952.73
843.778	13845.16
844.103	13866.85
844.427	13834.76
844.751	13794.09
845.075	13774.88
845.399	13712.05
845.723	13682
846.047	13574.66
846.371	13564.26
846.695	13517.71
847.019	13381.44
847.343	13466.19
847.666	13310.94
847.99	13270.26
848.313	13204.72
848.637	13096.7
848.96	13143.71
849.284	13161.33
849.607	13066.2
849.931	12982.58
850.254	12884.73
850.577	12785.3
850.9	12790.72
851.223	12772.19
851.546	12673.89
851.869	12505.76
852.192	12684.96
852.515	12556.15
852.838	12515.25
853.161	12494.91
853.483	12389.6
853.806	12350.96
854.129	12382.15
854.451	12304.63
854.774	12227.57
855.096	12205.65
855.419	12195.94
855.741	12145.54
856.063	11979.67
856.385	12028.94
856.708	11947.81
857.03	11932.89
857.352	11979.67
857.674	11955.94
857.996	11855.15
858.318	11774.93
858.64	11808.6
858.961	11848.83
859.283	11714.37
859.605	11710.98
859.926	11639.34
860.248	11678.89
860.57	11605.22
860.891	11657.65
861.212	11598.89
861.534	11541.26
861.855	11477.99
862.176	11500.81
862.498	11444.32
862.819	11497.65
863.14	11379.91
863.461	11389.18
863.782	11338.11
864.103	11275.28
864.424	11275.51
864.745	11382.17
865.065	11240.71
865.386	11244.77
865.707	11193.7
866.027	11160.26
866.348	11199.58
866.668	11195.51
866.989	11101.73
867.309	11062.41
867.63	11091.56
867.95	11062.86
868.27	11070.77
868.59	11032.58
868.91	11006.36
869.23	10957.32
869.55	10928.17
869.87	10939.02
870.19	10918.23
870.51	10908.51
870.83	10944.67
871.15	10838.23
871.469	10849.98
871.789	10901.06
872.109	10859.47
872.428	10847.5
872.748	10845.69
873.067	10767.05
873.386	10791.45
873.706	10796.43
874.025	10739.25
874.344	10713.49
874.663	10701.06
874.982	10677.11
875.301	10687.73
875.62	10668.74
875.939	10591.23
876.258	10632.36
876.577	10583.1
876.896	10580.84
877.214	10503.33
877.533	10566.15
877.852	10549.43
878.17	10565.02
878.489	10523.66
878.807	10558.92
879.125	10506.72
879.444	10433.72
879.762	10395.31
880.08	10475.3
880.398	10310.56
880.716	10394.63
881.034	10302.2
881.352	10345.14
881.67	10280.28
881.988	10224.01
882.306	10310.56
882.624	10269.21
882.941	10202.09
883.259	10166.61
883.577	10079.83
883.894	10135.2
884.212	10078.48
884.529	10180.17
884.846	10052.26
885.164	9976.33
885.481	10016.33
885.798	10034.41
886.115	9901.53
886.432	9916
886.75	9935.43
887.067	9926.62
887.383	9835.77
887.7	9880.52
888.017	9821.54
888.334	9834.42
888.651	9730.24
888.967	9747.41
889.284	9739.05
889.6	9660.41
889.917	9659.96
890.233	9593.52
890.55	9640.3
890.866	9621.77
891.182	9500.64
891.498	9562.11
891.815	9523.92
892.131	9388.55
892.447	9446.63
892.763	9424.48
893.079	9384.26
893.395	9364.6
893.71	9325.28
894.026	9349.01
894.342	9258.16
894.657	9239.18
894.973	9199.86
895.289	9207.77
895.604	9144.72
895.92	9108.79
896.235	9035.57
896.55	9073.31
896.865	9091.39
897.181	9030.6
897.496	8996.92
897.811	8936.36
898.126	8996.02
898.441	8928.45
898.756	8830.6
899.071	8847.1
899.386	8784.5
899.7	8682.58
900.015	8748.8
900.33	8700.44
900.644	8690.49
900.959	8714.22
901.273	8712.19
901.588	8659.76
901.902	8566.88
902.216	8522.81
902.531	8458.41
902.845	8460.89
903.159	8423.15
903.473	8404.17
903.787	8394.91
904.101	8310.61
904.415	8352.2
904.729	8324.17
905.042	8224.97
905.356	8224.06
905.67	8199.88
905.984	8202.37
906.297	8125.08
906.611	8063.16
906.924	8075.82
907.237	8005.99
907.551	7978.19
907.864	7995.37
908.177	7944.52
908.491	7905.65
908.804	7860.01
909.117	7885.77
909.43	7824.98
909.743	7773.45
910.056	7737.3
910.368	7779.1
910.681	7683.29
910.994	7704.53
911.307	7627.69
911.619	7540.69
911.932	7566
912.244	7418.21
912.557	7514.25
912.869	7408.49
913.181	7436.97
913.494	7369.4
913.806	7333.92
914.118	7326.01
914.43	7333.01
914.742	7326.23
915.054	7298.21
915.366	7212.56
915.678	7116.75
915.99	7143.64
916.302	7090.99
916.613	7057.09
916.925	7109.52
917.236	7105.9
917.548	6964.44
917.859	6966.7
918.171	6956.98
918.482	6931.44
918.794	6898.45
919.105	6892.57
919.416	6850.54
919.727	6857.32
920.038	6803.54
920.349	6713.59
920.66	6729.64
920.971	6715.85
921.282	6722.63
921.593	6607.16
921.903	6592.02
922.214	6579.81
922.525	6565.35
922.835	6539.36
923.146	6469.31
923.456	6476.09
923.767	6436.99
924.077	6462.53
924.387	6400.16
924.697	6344.11
925.008	6334.4
925.318	6284.91
925.628	6335.07
925.938	6265.7
926.248	6213.04
926.558	6203.55
926.867	6209.88
927.177	6218.92
927.487	6086.72
927.796	6044.91
928.106	6048.53
928.416	6078.36
928.725	6061.18
929.034	5994.74
929.344	5987.74
929.653	5973.28
929.962	5937.12
930.271	5945.71
930.581	5884.69
930.89	5874.07
931.199	5840.62
931.508	5814.64
931.817	5802.88
932.125	5744.35
932.434	5747.97
932.743	5672.49
933.051	5665.26
933.36	5641.76
933.669	5593.62
933.977	5570.8
934.286	5599.5
934.594	5518.82
934.902	5512.95
935.21	5493.29
935.519	5527.41
935.827	5421.65
936.135	5440.86
936.443	5373.97
936.751	5369.45
937.059	5353.4
937.367	5313.18
937.674	5294.42
937.982	5318.38
938.29	5320.86
938.597	5263.69
938.905	5217.36
939.213	5190.47
939.52	5194.99
939.827	5180.75
940.135	5137.36
940.442	5100.08
940.749	5121.09
941.056	5080.19
941.363	5050.81
941.67	5043.81
941.977	4996.35
942.284	4976.01
942.591	4906.86
942.898	4913.64
943.205	4958.61
943.511	4860.54
943.818	4892.17
944.125	4815.79
944.431	4809.24
944.738	4808.56
945.044	4779.86
945.35	4794.78
945.657	4758.39
945.963	4755.23
946.269	4657.83
946.575	4695.79
946.881	4675.23
947.187	4651.95
947.493	4592.29
947.799	4618.73
948.105	4525.86
948.41	4571.96
948.716	4564.95
949.022	4494.44
949.327	4538.96
949.633	4502.81
949.938	4490.83
950.244	4459.19
950.549	4419.87
950.854	4441.79
951.16	4412.19
951.465	4373.09
951.77	4385.97
952.075	4341.91
952.38	4359.08
952.685	4321.79
952.99	4240.67
953.294	4267.56
953.599	4232.08
953.904	4228.01
954.209	4201.8
954.513	4196.82
954.818	4175.13
955.122	4131.74
955.426	4141.68
955.731	4146.43
956.035	4100.56
956.339	4022.59
956.643	4027.79
956.948	4036.6
957.252	4033.89
957.556	4043.83
957.86	3987.56
958.163	3990.95
958.467	3963.84
958.771	3972.42
959.075	3955.48
959.378	3897.17
959.682	3901.24
959.985	3876.16
960.289	3863.5
960.592	3829.38
960.896	3796.61
961.199	3778.76
961.502	3775.59
961.805	3776.95
962.108	3768.81
962.411	3757.29
962.714	3720
963.017	3694.47
963.32	3673.22
963.623	3658.76
963.926	3692.43
964.228	3651.08
964.531	3653.34
964.833	3629.16
965.136	3634.58
965.438	3559.33
965.741	3552.55
966.043	3531.31
966.345	3564.75
966.648	3546.22
966.95	3496.5
967.252	3497.63
967.554	3477.75
967.856	3465.32
968.158	3428.48
968.46	3430.52
968.761	3431.2
969.063	3424.64
969.365	3401.37
969.666	3354.59
969.968	3372.44
970.269	3319.33
970.571	3345.55
970.872	3304.19
971.174	3277.07
971.475	3290.63
971.776	3251.99
972.077	3256.28
972.378	3249.73
972.679	3223.06
972.98	3197.53
973.281	3171.77
973.582	3200.24
973.883	3181.48
974.183	3146.23
974.484	3138.32
974.785	3127.02
975.085	3111.88
975.386	3089.28
975.686	3085.67
975.986	3059.45
976.287	3051.32
976.587	3034.14
976.887	3050.41
977.187	3014.93
977.487	2986.46
977.787	2996.18
978.087	2986.69
978.387	2941.94
978.687	2968.83
978.987	2929.74
979.286	2905.11
979.586	2939.46
979.885	2876.41
980.185	2903.98
980.484	2919.8
980.784	2861.04
981.083	2875.28
981.382	2856.97
981.682	2828.27
981.981	2786.92
982.28	2783.3
982.579	2811.1
982.878	2772.23
983.177	2745.56
983.475	2746.92
983.774	2743.98
984.073	2734.49
984.372	2720.71
984.67	2713.7
984.969	2697.43
985.267	2700.59
985.566	2666.92
985.864	2647.26
986.162	2654.27
986.461	2625.79
986.759	2618.34
987.057	2577.21
987.355	2564.78
987.653	2619.24
987.951	2592.8
988.249	2561.84
988.547	2583.53
988.844	2522.74
989.142	2544.44
989.44	2528.85
989.737	2514.38
990.035	2477.55
990.332	2494.04
990.63	2468.28
990.927	2436.42
991.224	2436.42
991.521	2456.76
991.819	2395.06
992.116	2400.94
992.413	2417.44
992.71	2353.48
993.006	2386.7
993.303	2379.47
993.6	2380.15
993.897	2328.4
994.193	2337.44
994.49	2335.86
994.787	2296.54
995.083	2279.59
995.379	2268.29
995.676	2283.43
995.972	2249.76
996.268	2269.42
996.565	2256.08
996.861	2214.5
997.157	2219.48
997.453	2199.14
997.749	2205.24
998.044	2190.78
998.34	2205.24
998.636	2153.26
998.932	2152.58
999.227	2147.16
999.523	2170.44
999.818	2129.53
1000.114	2096.09
1000.409	2085.24
1000.704	2090.21
1001	2068.97
1001.295	2072.36
1001.59	2103.32
1001.885	2042.08
1002.18	2050.44
1002.475	2031.91
1002.77	2024.45
1003.065	1997.33
1003.359	1986.26
1003.654	2000.5
1003.949	1945.13
1004.243	1970.67
1004.538	1949.88
1004.832	1948.97
1005.127	1939.71
1005.421	1893.83
1005.715	1891.12
1006.009	1891.8
1006.304	1900.39
1006.598	1880.05
1006.892	1908.3
1007.186	1865.13
1007.48	1855.64
1007.773	1806.15
1008.067	1828.53
1008.361	1809.77
1008.655	1821.52
1008.948	1805.02
1009.242	1785.59
1009.535	1783.55
1009.829	1772.03
1010.122	1743.1
1010.415	1749.21
1010.708	1733.84
1011.001	1723.67
1011.295	1719.83
1011.588	1712.14
1011.881	1706.04
1012.173	1697
1012.466	1645.93
1012.759	1660.62
1013.052	1652.03
1013.344	1635.76
1013.637	1654.97
1013.93	1631.47
1014.222	1626.5
1014.514	1656.78
1014.807	1608.64
1015.099	1604.8
1015.391	1588.98
1015.683	1586.95
1015.976	1543.34
1016.268	1539.27
1016.56	1532.49
1016.851	1512.15
1017.143	1562.09
1017.435	1533.39
1017.727	1500.4
1018.018	1505.37
1018.31	1508.99
1018.602	1460.85
1018.893	1467.18
1019.185	1471.25
1019.476	1467.63
1019.767	1455.43
1020.058	1444.13
1020.35	1409.78
1020.641	1421.98
1020.932	1418.14
1021.223	1385.83
1021.514	1408.65
1021.804	1394.19
1022.095	1353.51
1022.386	1372.49
1022.677	1355.77
1022.967	1349.67
1023.258	1349.44
1023.548	1326.62
1023.839	1331.82
1024.129	1305.6
1024.419	1289.1
1024.709	1292.95
1025	1278.26
1025.29	1270.12
1025.58	1271.48
1025.87	1259.5
1026.16	1256.34
1026.449	1266.28
1026.739	1226.96
1027.029	1217.02
1027.319	1235.77
1027.608	1208.88
1027.898	1236.68
1028.187	1210.69
1028.477	1217.24
1028.766	1176.34
1029.055	1175.89
1029.344	1160.75
1029.634	1150.58
1029.923	1152.61
1030.212	1117.81
1030.501	1118.04
1030.79	1126.62
1031.078	1123.91
1031.367	1125.04
1031.656	1097.25
1031.945	1091.6
1032.233	1095.66
1032.522	1097.92
1032.81	1081.2
1033.099	1077.81
1033.387	1055.66
1033.675	1048.66
1033.963	1057.02
1034.251	1064.03
1034.54	1045.95
1034.828	1041.88
1035.116	1021.54
1035.403	1010.02
1035.691	992.39
1035.979	1014.54
1036.267	993.52
1036.554	974.31
1036.842	976.12
1037.129	974.99
1037.417	975.44
1037.704	967.31
1037.992	963.01
1038.279	945.16
1038.566	938.61
1038.853	938.61
1039.14	938.61
