Data from hue_24_FLMS001491_00098.txt Node
Date: Tue Feb 07 17:13:01 GMT 2017
User: dcchb
Spectrometer: FLMS00149
Trigger mode: 0
Integration Time (sec): 2.000000E-2
Scans to average: 10
Electric dark correction enabled: true
Nonlinearity correction enabled: false
Boxcar width: 0
XAxis mode: Wavelengths
Number of Pixels in Spectrum: 2048
>>>>>Begin Spectral Data<<<<<
341.393	-10.52
341.776	-10.52
342.16	-10.52
342.543	-62.72
342.927	-84.87
343.31	-73.35
343.693	-64.08
344.077	-62.5
344.46	-51.43
344.843	-54.81
345.226	-36.28
345.61	-37.19
345.993	-45.78
346.376	-17.75
346.759	24.05
347.142	44.17
347.525	45.75
347.908	60.89
348.291	64.96
348.674	108.34
349.057	95.01
349.44	129.14
349.823	138.17
350.206	167.1
350.588	189.25
350.971	205.29
351.354	216.82
351.737	231.96
352.119	252.97
352.502	257.27
352.884	269.92
353.267	300.2
353.65	317.6
354.032	310.15
354.414	329.36
354.797	328.45
355.179	311.5
355.562	302.24
355.944	324.16
356.326	342.24
356.709	351.05
357.091	355.34
357.473	344.5
357.855	321.22
358.238	333.88
358.62	362.58
359.002	351.5
359.384	366.19
359.766	327.55
360.148	360.77
360.53	344.95
360.912	323.25
361.294	343.37
361.676	342.24
362.057	349.02
362.439	334.78
362.821	338.62
363.203	319.86
363.584	330.26
363.966	332.97
364.348	343.59
364.729	341.56
365.111	320.32
365.493	339.75
365.874	313.54
366.256	310.83
366.637	338.62
367.019	335.23
367.4	325.29
367.781	322.35
368.163	327.77
368.544	329.58
368.925	324.84
369.306	336.81
369.688	328.68
370.069	322.12
370.45	331.16
370.831	328.45
371.212	326.19
371.593	308.34
371.974	309.02
372.355	320.99
372.736	336.81
373.117	322.58
373.498	339.75
373.879	324.16
374.26	327.1
374.641	322.58
375.021	314.21
375.402	330.26
375.783	345.63
376.163	348.79
376.544	328.68
376.925	349.47
377.305	341.78
377.686	340.65
378.066	340.2
378.447	326.19
378.827	327.32
379.208	354.44
379.588	332.97
379.968	367.55
380.349	347.43
380.729	363.48
381.109	357.83
381.489	369.13
381.87	351.73
382.25	351.05
382.63	345.63
383.01	360.99
383.39	363.71
383.77	370.03
384.15	372.29
384.53	373.87
384.91	383.82
385.29	370.71
385.67	360.32
386.049	379.3
386.429	375.23
386.809	386.53
387.189	392.4
387.568	382.91
387.948	363.71
388.328	373.65
388.707	388.79
389.087	383.37
389.466	376.59
389.846	395.34
390.225	387.66
390.605	381.78
390.984	397.15
391.363	385.63
391.743	378.17
392.122	399.41
392.501	393.53
392.881	427.21
393.26	417.26
393.639	410.94
394.018	413.87
394.397	392.18
394.776	411.16
395.155	430.14
395.534	422.01
395.913	432.4
396.292	411.84
396.671	430.37
397.05	425.62
397.429	432.63
397.808	423.14
398.186	437.6
398.565	417.72
398.944	411.84
399.323	413.42
399.701	418.62
400.08	413.42
400.458	452.74
400.837	432.63
401.215	459.3
401.594	468.79
401.972	460.2
402.351	447.54
402.729	440.31
403.107	434.89
403.486	451.84
403.864	475.34
404.242	471.27
404.62	498.62
404.999	468.79
405.377	485.74
405.755	456.36
406.133	460.88
406.511	509.46
406.889	477.6
407.267	504.72
407.645	492.74
408.023	490.71
408.401	515.34
408.779	524.15
409.156	503.36
409.534	508.56
409.912	518.05
410.29	518.73
410.667	498.39
411.045	505.17
411.422	526.86
411.8	544.72
412.178	547.88
412.555	537.03
412.933	545.62
413.31	528.9
413.687	544.94
414.065	547.43
414.442	546.98
414.819	553.76
415.197	572.51
415.574	566.64
415.951	584.72
416.328	581.1
416.705	577.71
417.082	612.06
417.46	586.98
417.837	613.64
418.214	603.02
418.591	589.69
418.967	599.41
419.344	587.2
419.721	600.54
420.098	603.47
420.475	610.25
420.852	622
421.228	638.95
421.605	639.4
421.982	622
422.358	642.57
422.735	648.9
423.111	637.37
423.488	661.78
423.864	651.38
424.241	668.56
424.617	655.67
424.994	680.76
425.37	673.98
425.746	668.33
426.123	716.01
426.499	680.53
426.875	690.93
427.251	701.55
427.627	708.55
428.003	726.63
428.379	739.74
428.756	705.84
429.132	741.32
429.507	732.73
429.883	746.75
430.259	763.24
430.635	753.75
431.011	774.99
431.387	771.38
431.763	765.28
432.138	796.91
432.514	756.01
432.89	799.63
433.265	829.23
433.641	814.31
434.016	825.16
434.392	833.75
434.767	850.25
435.143	858.16
435.518	832.39
435.894	859.51
436.269	854.99
436.644	859.29
437.02	883.92
437.395	889.57
437.77	888.21
438.145	923.01
438.52	913.97
438.895	914.88
439.271	928.89
439.646	951.71
440.021	946.06
440.395	958.72
440.77	957.14
441.145	953.07
441.52	971.82
441.895	959.85
442.27	962.33
442.645	977.47
443.019	1012.05
443.394	1002.78
443.769	1002.78
444.143	984.03
444.518	1013.63
444.892	1029.22
445.267	1015.89
445.641	1032.84
446.016	1011.37
446.39	1049.56
446.764	1031.71
447.139	1053.4
447.513	1046.63
447.887	1056.79
448.262	1082.78
448.636	1061.99
449.01	1075.1
449.384	1079.84
449.758	1098.6
450.132	1107.19
450.506	1134.53
450.88	1133.18
451.254	1118.71
451.628	1180.18
452.002	1144.25
452.376	1161.42
452.75	1156
453.123	1196
453.497	1210.01
453.871	1214.98
454.244	1231.25
454.618	1248.88
454.992	1241.65
455.365	1221.99
455.739	1281.87
456.112	1290.01
456.486	1291.14
456.859	1311.48
457.232	1355.09
457.606	1334.75
457.979	1339.95
458.352	1353.96
458.725	1356.67
459.099	1375.88
459.472	1386.73
459.845	1422.21
460.218	1416.11
460.591	1474.86
460.964	1462.21
461.337	1485.71
461.71	1493.39
462.083	1515.54
462.456	1526.61
462.829	1546.95
463.201	1579.49
463.574	1555.76
463.947	1598.93
464.32	1623.33
464.692	1633.73
465.065	1645.71
465.438	1691.13
465.81	1703.56
466.183	1697
466.555	1740.17
466.928	1760.05
467.3	1750.11
467.672	1790.79
468.045	1827.62
468.417	1804.12
468.789	1849.77
469.161	1881.63
469.534	1900.84
469.906	1956.43
470.278	1955.98
470.65	2002.31
471.022	2015.41
471.394	2040.27
471.766	2049.31
472.138	2089.76
472.51	2104.68
472.882	2161.85
473.253	2185.35
473.625	2215.41
473.997	2284.33
474.369	2315.07
474.74	2320.94
475.112	2358.23
475.484	2408.62
475.855	2469.86
476.227	2485.46
476.598	2584.89
476.97	2565.46
477.341	2610.2
477.713	2673.7
478.084	2687.71
478.455	2813.13
478.827	2825.79
479.198	2865.56
479.569	2895.84
479.94	2972.45
480.311	3000.25
480.682	3034.6
481.053	3159.56
481.424	3196.4
481.795	3231.43
482.166	3289.73
482.537	3357.07
482.908	3417.86
483.279	3461.25
483.65	3549.16
484.021	3588.71
484.391	3660.12
484.762	3683.84
485.133	3785.76
485.503	3831.18
485.874	3916.83
486.244	3960.22
486.615	4040.9
486.985	4110.27
487.356	4156.83
487.726	4200.89
488.097	4296.03
488.467	4320.66
488.837	4397.5
489.207	4458.06
489.578	4557.95
489.948	4606.08
490.318	4669.58
490.688	4737.15
491.058	4796.81
491.428	4854.21
491.798	4858.05
492.168	5011.72
492.538	5040.64
492.908	5126.97
493.278	5184.82
493.648	5223.46
494.017	5288.1
494.387	5364.25
494.757	5362.44
495.126	5463.68
495.496	5438.37
495.866	5490.35
496.235	5611.93
496.605	5648.31
496.974	5701.87
497.344	5720.63
497.713	5782.32
498.082	5811.92
498.452	5907.06
498.821	5966.04
499.19	5938.7
499.559	6054.63
499.928	6082.65
500.298	6097.11
500.667	6130.11
501.036	6142.99
501.405	6289.88
501.774	6265.24
502.143	6285.13
502.512	6337.33
502.88	6394.06
503.249	6370.55
503.618	6476.09
503.987	6483.77
504.356	6567.38
504.724	6608.29
505.093	6583.2
505.462	6649.87
505.83	6655.29
506.199	6760.15
506.567	6776.87
506.936	6830.65
507.304	6855.51
507.672	6914.72
508.041	6950.2
508.409	6952.23
508.777	7024.77
509.145	7062.06
509.514	7025.45
509.882	7118.33
510.25	7178.67
510.618	7224.09
510.986	7217.76
511.354	7201.49
511.722	7340.7
512.09	7404.65
512.458	7383.86
512.826	7430.86
513.193	7475.83
513.561	7527.13
513.929	7537.3
514.297	7589.96
514.664	7622.72
515.032	7687.35
515.4	7712.21
515.767	7720.8
516.135	7794.7
516.502	7793.57
516.869	7933.9
517.237	7868.82
517.604	7913.34
517.972	7996.05
518.339	8047.57
518.706	8061.36
519.073	8076.04
519.44	8145.42
519.808	8184.06
520.175	8195.14
520.542	8274.23
520.909	8296.38
521.276	8311.74
521.643	8355.81
522.009	8440.1
522.376	8413.44
522.743	8525.07
523.11	8603.94
523.477	8728.46
523.843	8694.33
524.21	8793.99
524.577	8864.27
524.943	8869.02
525.31	8905.4
525.676	8982.24
526.043	9028.11
526.409	9064.72
526.776	9156.02
527.142	9211.38
527.508	9248.22
527.874	9328.22
528.241	9331.83
528.607	9334.77
528.973	9440.3
529.339	9473.52
529.705	9572.28
530.071	9618.6
530.437	9637.13
530.803	9653.63
531.169	9673.97
531.535	9740.18
531.901	9775.66
532.267	9816.79
532.632	9927.97
532.998	9980.4
533.364	10024.24
533.73	10045.26
534.095	10134.3
534.461	10110.57
534.826	10266.04
535.192	10267.85
535.557	10305.59
535.923	10256.33
536.288	10407.96
536.653	10397.11
537.019	10452.48
537.384	10407.51
537.749	10494.29
538.114	10601.4
538.479	10600.27
538.845	10673.04
539.21	10635.75
539.575	10726.37
539.94	10668.97
540.305	10798.23
540.67	10779.02
541.034	10802.75
541.399	10992.13
541.764	10925.91
542.129	11052.92
542.494	11051.79
542.858	11160.48
543.223	11120.26
543.587	11172.69
543.952	11178.11
544.316	11184.66
544.681	11270.76
545.045	11260.14
545.41	11415.62
545.774	11428.72
546.138	11438.44
546.503	11419.01
546.867	11459.68
547.231	11653.8
547.595	11629.4
547.959	11610.87
548.324	11700.58
548.688	11628.72
549.052	11833.23
549.416	11802.05
549.779	11782.16
550.143	11845.66
550.507	11980.12
550.871	11957.98
551.235	11947.13
551.599	12114.58
551.962	12116.62
552.326	12126.33
552.689	12141.47
553.053	12137.18
553.417	12252.21
553.78	12306.22
554.143	12349.6
554.507	12378.53
554.87	12419.21
555.234	12581.91
555.597	12566.1
555.96	12588.24
556.323	12618.07
556.686	12663.27
557.05	12746.66
557.413	12772.64
557.776	12780.33
558.139	12858.52
558.502	12944.17
558.865	12918.86
559.228	13017.16
559.59	13121.56
559.953	13103.26
560.316	13211.95
560.679	13246.76
561.041	13249.92
561.404	13332.18
561.767	13403.59
562.129	13330.6
562.492	13493.53
562.854	13432.74
563.217	13499.18
563.579	13557.03
563.941	13614.88
564.304	13697.59
564.666	13785.27
565.028	13872.73
565.39	13788.44
565.753	13931.71
566.115	13975.78
566.477	13977.58
566.839	14025.04
567.201	14115.21
567.563	14103.23
567.925	14262.1
568.287	14306.84
568.648	14274.3
569.01	14367.18
569.372	14446.95
569.734	14432.94
570.095	14552.94
570.457	14606.49
570.819	14590.9
571.18	14710.9
571.542	14891.91
571.903	14787.28
572.265	14926.94
572.626	14973.49
572.987	14981.4
573.349	15083.77
573.71	15152.47
574.071	15187.27
574.432	15253.03
574.794	15471.33
575.155	15527.37
575.516	15480.6
575.877	15607.37
576.238	15681.27
576.599	15744.32
576.96	15888.49
577.32	15911.77
577.681	16056.85
578.042	16156.28
578.403	16240.8
578.763	16319.67
579.124	16390.18
579.485	16598.53
579.845	16731.41
580.206	16882.59
580.566	16965.98
580.927	17098.86
581.287	17249.14
581.648	17344.5
582.008	17596.92
582.368	17690.93
582.728	17929.12
583.089	18002.34
583.449	18238.72
583.809	18438.26
584.169	18594.86
584.529	18795.99
584.889	19061.07
585.249	19163.21
585.609	19289.54
585.969	19703.99
586.329	19766.58
586.688	20182.17
587.048	20315.04
587.408	20524.76
587.768	20653.34
588.127	21082.48
588.487	21334.45
588.846	21706.42
589.206	21778.74
589.565	22182.57
589.925	22493.74
590.284	22699.16
590.643	22995.2
591.003	23444.68
591.362	23873.6
591.721	24083.08
592.08	24312.45
592.44	24739.11
592.799	25038.76
593.158	25317.85
593.517	25708.12
593.876	25951.05
594.235	26296.58
594.593	26655.44
594.952	27173.4
595.311	27217.01
595.67	27720.95
596.029	28179.02
596.387	28537.2
596.746	28968.6
597.104	29148.71
597.463	29435.26
597.822	29999.54
598.18	30151.17
598.538	30538.28
598.897	30953.64
599.255	31183.46
599.613	31865.25
599.972	31957
600.33	32442.86
600.688	32721.05
601.046	33109.28
601.404	33658.65
601.762	33719.89
602.12	34234.68
602.478	34557.16
602.836	34984.04
603.194	34997.14
603.552	35554.42
603.91	35694.3
604.268	36033.73
604.625	36205.7
604.983	36783.76
605.341	36867.6
605.698	37419
606.056	37749.84
606.413	37959.78
606.771	38410.61
607.128	38584.62
607.485	38866.2
607.843	39093.53
608.2	39543.92
608.557	39879.28
608.914	39962.44
609.272	40564.23
609.629	40817.33
609.986	41122.41
610.343	41024.78
610.7	41509.29
611.057	41853.24
611.414	41916.74
611.771	42210.06
612.127	42547.68
612.484	42784.28
612.841	43068.8
613.198	43102.02
613.554	43385.17
613.911	43772.96
614.267	43864.71
614.624	43991.94
614.98	44154.19
615.337	44486.16
615.693	44627.4
616.05	44904.23
616.406	45252.24
616.762	45248.63
617.118	45346.25
617.475	45530.2
617.831	45808.61
618.187	45942.17
618.543	46126.57
618.899	46536.05
619.255	46591.42
619.611	46549.84
619.967	46857.17
620.323	47155.92
620.678	47003.83
621.034	47033.89
621.39	47037.51
621.746	47171.06
622.101	47739.41
622.457	47539.19
622.812	47706.87
623.168	47737.83
623.523	47969.69
623.879	48190.02
624.234	48093.52
624.589	48217.59
624.945	48442.44
625.3	48437.02
625.655	48481.76
626.01	48491.48
626.365	48571.48
626.72	48720.63
627.075	48765.82
627.43	48828.65
627.785	48747.74
628.14	48948.64
628.495	49108.86
628.85	49042.2
629.205	49004.69
629.559	49218.47
629.914	49021.86
630.269	49095.08
630.623	49115.64
630.978	49063.67
631.332	49288.75
631.687	49407.84
632.041	49241.52
632.396	49499.36
632.75	49292.36
633.104	49320.16
633.459	49325.81
633.813	49327.62
634.167	49307.73
634.521	49281.51
634.875	49381.63
635.229	49396.99
635.583	49434.05
635.937	49384.11
636.291	49345.02
636.645	49319.03
636.999	49255.53
637.352	49537.78
637.706	49259.59
638.06	49591.79
638.413	49503.43
638.767	49249.43
639.121	49447.39
639.474	49240.39
639.828	49280.61
640.181	49284.9
640.534	49253.04
640.888	49191.35
641.241	49075.64
641.594	49184.57
641.947	49415.3
642.301	49217.11
642.654	49281.51
643.007	49268.41
643.36	49152.7
643.713	49150.44
644.066	49307.95
644.419	49090.79
644.771	48995.42
645.124	48671.36
645.477	48599.5
645.83	48295.55
646.182	48187.53
646.535	48123.58
646.888	48171.49
647.24	47898.73
647.593	48373.29
647.945	48180.07
648.298	47906.41
648.65	47934.21
649.002	47858.05
649.355	47952.74
649.707	47995.67
650.059	48184.37
650.411	48672.72
650.763	48640.85
651.115	49059.6
651.467	48857.35
651.819	48833.17
652.171	48868.19
652.523	48781.42
652.875	48742.77
653.227	48484.93
653.578	48957.46
653.93	48825.03
654.282	48634.53
654.633	48563.34
654.985	48638.14
655.337	48680.4
655.688	48766.95
656.039	48860.96
656.391	48490.58
656.742	48634.75
657.094	48690.8
657.445	48720.85
657.796	48615.09
658.147	48540.97
658.498	48504.59
658.849	48493.74
659.2	48512.72
659.551	48462.55
659.902	48555.66
660.253	48579.84
660.604	48531.48
660.955	48308.21
661.306	48653.28
661.656	48480.86
662.007	48445.6
662.358	48476.34
662.708	48412.39
663.059	48495.55
663.409	48159.74
663.76	48423.46
664.11	48507.98
664.461	48454.87
664.811	48343.23
665.161	48457.13
665.511	48271.37
665.862	48405.61
666.212	48451.71
666.562	48442.67
666.912	48299.85
667.262	48426.62
667.612	48293.74
667.962	48471.14
668.312	48347.3
668.662	48461.65
669.011	48342.78
669.361	48301.88
669.711	48239.06
670.06	48305.27
670.41	48160.64
670.76	48169.68
671.109	48315.21
671.459	48218.49
671.808	48156.57
672.157	48174.88
672.507	48021.89
672.856	48066.18
673.205	48129.23
673.554	48276.57
673.904	48071.83
674.253	48290.13
674.602	48154.09
674.951	47515.23
675.3	47528.34
675.649	48096.69
675.998	48009.68
676.346	47972.62
676.695	48038.38
677.044	47828.45
677.393	47904.38
677.741	48075.44
678.09	47836.13
678.438	47723.59
678.787	47906.86
679.135	47835.45
679.484	47599.07
679.832	47816.24
680.181	47506.87
680.529	47626.64
680.877	47522.69
681.225	47522.01
681.573	47644.95
681.922	47362.7
682.27	47175.58
682.618	47357.05
682.966	47231.4
683.314	47283.6
683.661	47169.25
684.009	47027.79
684.357	46861.47
684.705	46970.84
685.053	46914.8
685.4	46865.53
685.748	46720
686.095	46721.81
686.443	46413.12
686.79	46475.26
687.138	46630.74
687.485	46598.2
687.832	46424.87
688.18	46396.39
688.527	46294.47
688.874	46207.25
689.221	46234.82
689.568	46080.02
689.915	46023.75
690.262	45979.23
690.609	45867.37
690.956	45652.46
691.303	45546.47
691.65	45326.82
691.997	45499.69
692.344	45220.83
692.69	45214.05
693.037	45186.03
693.383	44875.53
693.73	44972.7
694.077	44594.41
694.423	44710.79
694.769	44662.43
695.116	44474.86
695.462	44348.76
695.808	44433.28
696.155	44532.94
696.501	44231.25
696.847	44187.41
697.193	43899.96
697.539	43994.65
697.885	43669.91
698.231	43640.99
698.577	43642.34
698.923	43649.57
699.269	43508.79
699.614	43239.87
699.96	43145.63
700.306	43106.31
700.651	42969.59
700.997	42879.65
701.342	43026.99
701.688	42761.69
702.033	42617.74
702.379	42640.79
702.724	42489.83
703.069	42601.69
703.415	42063.4
703.76	42149.95
704.105	42068.37
704.45	42125.32
704.795	41896.4
705.14	41761.26
705.485	41783.63
705.83	41682.84
706.175	41722.84
706.52	41436.52
706.865	41462.06
707.209	41338.67
707.554	41188.85
707.899	41304.32
708.243	41081.73
708.588	40992.02
708.932	40729.42
709.277	40765.35
709.621	40752.93
709.966	40403.56
710.31	40527.85
710.654	40123.34
710.998	40241.75
711.342	40342.31
711.687	40171.47
712.031	40009.22
712.375	39924.25
712.719	39825.94
713.063	39852.84
713.407	39956.56
713.75	39675.67
714.094	39744.36
714.438	39488.33
714.782	39626.4
715.125	39392.28
715.469	39436.58
715.812	39246.07
716.156	39137.15
716.499	39135.57
716.843	39083.59
717.186	38944.84
717.53	39109.8
717.873	38997.94
718.216	38807.89
718.559	38755.92
718.902	38514.79
719.246	38761.11
719.589	38513.44
719.932	38203.16
720.275	38426.66
720.617	38265.53
720.96	38239.55
721.303	38238.64
721.646	38308.02
721.989	37851.08
722.331	38086.1
722.674	38026.9
723.016	37985.99
723.359	37805.66
723.701	37923.62
724.044	37637.3
724.386	37511.88
724.729	37583.29
725.071	37531.09
725.413	37580.58
725.755	37480.02
726.097	37280.25
726.439	37134.72
726.782	37247.03
727.124	37326.12
727.465	37051.33
727.807	36948.96
728.149	36936.53
728.491	36898.56
728.833	37005.91
729.175	36729.3
729.516	36716.87
729.858	36790.54
730.199	36822.41
730.541	36850.2
730.882	36517.56
731.224	36628.74
731.565	36367.05
731.906	36554.84
732.248	36444.11
732.589	36265.13
732.93	36240.73
733.271	36197.57
733.612	36092.03
733.953	36188.53
734.294	36077.34
734.635	36008.64
734.976	36074.18
735.317	35851.81
735.658	35737.69
735.999	35964.58
736.339	35772.49
736.68	35824.69
737.021	35764.81
737.361	35599.16
737.702	35649.56
738.042	35499.05
738.383	35521.65
738.723	35604.59
739.063	35410.02
739.404	35365.04
739.744	35290.47
740.084	35190.13
740.424	35329.57
740.764	35257.02
741.104	35318.27
741.444	35062.23
741.784	34900.65
742.124	35175.67
742.464	35037.6
742.804	34840.54
743.143	34914.89
743.483	34926.64
743.823	34587.66
744.162	34647.32
744.502	34797.15
744.841	34442.13
745.181	34701.56
745.52	34458.18
745.86	34553.31
746.199	34458.85
746.538	34457.72
746.877	34449.36
747.216	34447.78
747.556	34287.11
747.895	34249.14
748.234	34099.77
748.573	34112.65
748.911	34034.91
749.25	34050.73
749.589	33944.97
749.928	33952.2
750.267	33990.84
750.605	33927.12
750.944	33745.65
751.283	33639.44
751.621	33671.3
751.96	33506.11
752.298	33542.49
752.636	33621.59
752.975	33384.31
753.313	33243.29
753.651	33472.89
753.989	33176.4
754.327	33001.94
754.666	33043.3
755.004	33080.81
755.342	33068.38
755.679	32860.48
756.017	32745.68
756.355	32847.37
756.693	32682.63
757.031	32650.77
757.368	32392.24
757.706	32523.09
758.044	32403.31
758.381	32389.53
758.719	32263.21
759.056	32230.89
759.394	32176.65
759.731	31967.62
760.068	31961.52
760.405	31827.06
760.743	31705.71
761.08	31833.61
761.417	31570.12
761.754	31509.1
762.091	31532.38
762.428	31336.22
762.765	31133.07
763.102	31443.79
763.438	31040.19
763.775	31058.49
764.112	30956.57
764.449	31016.46
764.785	30834.32
765.122	30671.16
765.458	30591.84
765.795	30616.92
766.131	30525.17
766.467	30367.21
766.804	30191.17
767.14	30195.24
767.476	30141
767.812	29999.31
768.148	29997.05
768.485	29783.04
768.821	29633.67
769.157	29596.38
769.492	29545.99
769.828	29389.16
770.164	29262.38
770.5	29114.14
770.836	29117.3
771.171	29081.59
771.507	28894.03
771.842	28665.56
772.178	28845.67
772.513	28679.57
772.849	28567.03
773.184	28419.92
773.519	28421.27
773.855	28259.47
774.19	28236.42
774.525	28054.28
774.86	28052.69
775.195	28147.16
775.53	27824.45
775.865	27627.62
776.2	27497
776.535	27281.64
776.87	27338.59
777.205	27170.68
777.539	27146.73
777.874	27110.8
778.209	26951.71
778.543	26940.18
778.878	26867.42
779.212	26737.47
779.547	26640.53
779.881	26710.36
780.215	26462
780.55	26375.22
780.884	26327.99
781.218	26182.46
781.552	26183.59
781.886	26057.94
782.22	25819.08
782.554	25731.85
782.888	25622.93
783.222	25543.83
783.556	25404.63
783.889	25457.28
784.223	25220.23
784.557	25196.05
784.89	25143.39
785.224	24931.65
785.557	24949.05
785.891	24793.35
786.224	24719.45
786.558	24757.64
786.891	24520.36
787.224	24540.02
787.557	24496.18
787.891	24354.94
788.224	24222.96
788.557	24187.03
788.89	24202.17
789.223	24227.71
789.556	23865.46
789.888	23881.05
790.221	23839.47
790.554	23696.88
790.887	23532.36
791.219	23472.02
791.552	23358.35
791.884	23318.81
792.217	23249.21
792.549	23246.49
792.882	23084.24
793.214	23054.86
793.546	23043.56
793.879	22740.74
794.211	22733.74
794.543	22858.48
794.875	22531.48
795.207	22743.68
795.539	22591.6
795.871	22557.02
796.203	22431.37
796.535	22282.45
796.867	22228.67
797.198	22148.22
797.53	22053.98
797.862	21972.63
798.193	22032.06
798.525	21917.04
798.856	21878.62
799.188	21543.94
799.519	21578.97
799.85	21369.93
800.182	21534.22
800.513	21567.22
800.844	21235.92
801.175	21475.92
801.506	21290.39
801.837	21228.02
802.168	21222.37
802.499	21086.78
802.83	21016.95
803.161	20874.13
803.491	20955.71
803.822	20921.36
804.153	20759.78
804.483	20599.78
804.814	20503.06
805.145	20566.34
805.475	20474.36
805.805	20447.24
806.136	20425.55
806.466	20398.88
806.796	20280.47
807.126	20168.16
807.457	20048.39
807.787	20087.93
808.117	19967.94
808.447	19875.96
808.777	20101.72
809.107	19877.54
809.436	19790.09
809.766	19736.98
810.096	19676.64
810.426	19605.91
810.755	19657.21
811.085	19616.76
811.414	19562.75
811.744	19459.02
812.073	19412.92
812.403	19370.66
812.732	19182.87
813.061	19323.88
813.39	19153.04
813.719	19114.85
814.049	19184.45
814.378	19087.51
814.707	18983.55
815.036	19009.09
815.365	18959.37
815.693	18858.36
816.022	18812.26
816.351	18690
816.68	18622.21
817.008	18654.75
817.337	18438.94
817.665	18463.79
817.994	18523.45
818.322	18554.19
818.651	18329.56
818.979	18238.26
819.307	18390.35
819.636	18241.65
819.964	18170.24
820.292	18286.85
820.62	18181.77
820.948	18132.96
821.276	18180.86
821.604	18134.99
821.932	18131.15
822.259	18160.3
822.587	18091.83
822.915	18012.05
823.243	18005.5
823.57	18003.92
823.898	18041.66
824.225	18020.42
824.553	18030.36
824.88	18043.01
825.207	18000.08
825.535	17987.65
825.862	18034.65
826.189	18007.53
826.516	18105.84
826.843	18030.36
827.17	17996.01
827.497	18100.64
827.824	18008.21
828.151	18080.98
828.478	18039.4
828.805	18069.68
829.131	18030.59
829.458	17955.78
829.785	17890.7
830.111	17975.67
830.438	18070.13
830.764	17953.98
831.09	18000.53
831.417	17932.96
831.743	17961.66
832.069	17991.26
832.395	17901.32
832.722	17904.71
833.048	17843.7
833.374	17882.57
833.7	17747.88
834.026	17747.88
834.351	17899.74
834.677	17826.97
835.003	17861.55
835.329	17917.59
835.654	17793.08
835.98	17716.02
836.306	17732.06
836.631	17703.36
836.956	17698.39
837.282	17715.34
837.607	17666.3
837.932	17494.1
838.258	17525.74
838.583	17564.83
838.908	17461.11
839.233	17488.45
839.558	17469.24
839.883	17321
840.208	17389.92
840.533	17348.34
840.858	17283.49
841.182	17296.14
841.507	17262.24
841.832	17109.03
842.156	17202.36
842.481	17215.01
842.805	17111.74
843.13	17015.47
843.454	17093.89
843.778	16894.12
844.103	16899.32
844.427	16782.26
844.751	16816.15
845.075	16764.18
845.399	16717.4
845.723	16671.3
846.047	16614.58
846.371	16536.61
846.695	16560.12
847.019	16369.16
847.343	16391.31
847.666	16251.87
847.99	16150.86
848.313	16164.19
848.637	16054.37
848.96	16025.67
849.284	16000.13
849.607	15945.89
849.931	15801.49
850.254	15709.52
850.577	15711.1
850.9	15519.24
851.223	15520.82
851.546	15445.57
851.869	15356.53
852.192	15448.05
852.515	15283.76
852.838	15259.36
853.161	15183.65
853.483	15123.54
853.806	15001.96
854.129	15079.25
854.451	15021.17
854.774	14966.71
855.096	14914.73
855.419	14808.75
855.741	14834.29
856.063	14753.38
856.385	14709.54
856.708	14583.44
857.03	14600.62
857.352	14547.29
857.674	14542.09
857.996	14499.15
858.318	14359.95
858.64	14354.52
858.961	14383.68
859.283	14263
859.605	14231.82
859.926	14260.74
860.248	14235.43
860.57	14236.56
860.891	14199.5
861.212	14098.03
861.534	13959.51
861.855	14059.62
862.176	14001.31
862.498	14065.94
862.819	13966.96
863.14	13848.55
863.461	13899.39
863.782	13792.5
864.103	13846.29
864.424	13784.37
864.745	13837.48
865.065	13691.94
865.386	13673.41
865.707	13681.77
866.027	13623.7
866.348	13606.07
866.668	13590.7
866.989	13585.5
867.309	13580.98
867.63	13569.46
867.95	13485.39
868.27	13472.06
868.59	13472.06
868.91	13437.94
869.23	13417.83
869.55	13340.31
869.87	13414.21
870.19	13368.56
870.51	13392.74
870.83	13441.78
871.15	13306.19
871.469	13293.31
871.789	13378.73
872.109	13282.46
872.428	13187.1
872.748	13203.37
873.067	13185.06
873.386	13170.15
873.706	13071.39
874.025	13092.64
874.344	13026.2
874.663	13112.3
874.982	12935.35
875.301	12965.41
875.62	12922.7
875.939	12988.01
876.258	13003.82
876.577	12865.3
876.896	12891.06
877.214	12775.13
877.533	12870.49
877.852	12824.85
878.17	12759.31
878.489	12848.35
878.807	12752.76
879.125	12775.81
879.444	12755.7
879.762	12740.78
880.08	12636.15
880.398	12653.78
880.716	12676.6
881.034	12557.96
881.352	12645.19
881.67	12575.14
881.988	12527.45
882.306	12454.46
882.624	12457.62
882.941	12423.73
883.259	12372.43
883.577	12355.25
883.894	12341.47
884.212	12337.18
884.529	12311.64
884.846	12263.73
885.164	12205.2
885.481	12230.51
885.798	12210.4
886.115	12090.63
886.432	12146.45
886.75	12046.79
887.067	12126.11
887.383	11994.36
887.7	12065.54
888.017	12023.51
888.334	11966.11
888.651	11931.54
888.967	11963.63
889.284	11924.98
889.6	11876.17
889.917	11729.51
890.233	11764.76
890.55	11689.28
890.866	11646.57
891.182	11670.98
891.498	11550.08
891.815	11506.01
892.131	11583.75
892.447	11493.13
892.763	11434.6
893.079	11429.85
893.395	11443.19
893.71	11363.19
894.026	11346.69
894.342	11292.01
894.657	11308.73
894.973	11180.14
895.289	11238.67
895.604	11203.87
895.92	11084.1
896.235	11083.42
896.55	11007.72
896.865	11035.97
897.181	10986.93
897.496	10917.33
897.811	10914.16
898.126	10902.86
898.441	10822.19
898.756	10814.96
899.071	10742.64
899.386	10670.78
899.7	10633.72
900.015	10626.26
900.33	10569.31
900.644	10560.5
900.959	10553.27
901.273	10448.19
901.588	10495.19
901.902	10369.54
902.216	10365.7
902.531	10400.05
902.845	10318.47
903.159	10257
903.473	10180.85
903.787	10177.01
904.101	10137.69
904.415	10123.45
904.729	10057.24
905.042	10026.73
905.356	9974.98
905.67	9968.2
905.984	10001.19
906.297	9953.96
906.611	9822.44
906.924	9842.55
907.237	9832.61
907.551	9817.92
907.864	9734.98
908.177	9684.59
908.491	9728.2
908.804	9627.87
909.117	9532.5
909.43	9537.93
909.743	9431.04
910.056	9404.6
910.368	9399.4
910.681	9358.72
910.994	9393.07
911.307	9356.46
911.619	9210.48
911.932	9272.62
912.244	9199.41
912.557	9110.14
912.869	9105.4
913.181	8997.38
913.494	9039.41
913.806	8995.79
914.118	8930.03
914.43	8965.06
914.742	8888.68
915.054	8847.32
915.366	8818.85
915.678	8730.94
915.99	8741.56
916.302	8684.39
916.613	8651.62
916.925	8602.13
917.236	8661.57
917.548	8577.27
917.859	8513.77
918.171	8457.5
918.482	8492.3
918.794	8408.47
919.105	8378.64
919.416	8293.44
919.727	8276.72
920.038	8282.59
920.349	8215.93
920.66	8198.75
920.971	8176.38
921.282	8224.06
921.593	8123.5
921.903	8043.5
922.214	8013
922.525	7997.85
922.835	7972.54
923.146	7942.94
923.456	7902.26
923.767	7856.16
924.077	7756.28
924.387	7716.51
924.697	7798.76
925.008	7725.55
925.318	7625.44
925.628	7595.61
925.938	7570.97
926.248	7573.46
926.558	7519
926.867	7518.55
927.177	7480.13
927.487	7412.33
927.796	7366.46
928.106	7344.31
928.416	7326.01
928.725	7251.66
929.034	7260.7
929.344	7303.18
929.653	7199.23
929.962	7211.43
930.271	7162.4
930.581	7119.01
930.89	7032.91
931.199	7062.29
931.508	7049.18
931.817	7023.87
932.125	6935.06
932.434	6921.05
932.743	6890.09
933.051	6877.88
933.36	6853.7
933.669	6768.51
933.977	6779.13
934.286	6792.46
934.594	6713.14
934.902	6620.49
935.21	6658.23
935.519	6607.16
935.827	6608.51
936.135	6616.87
936.443	6548.85
936.751	6568.74
937.059	6511.11
937.367	6472.7
937.674	6454.84
937.982	6423.43
938.29	6351.57
938.597	6360.84
938.905	6348.86
939.213	6233.16
939.52	6337.33
939.827	6266.15
940.135	6212.14
940.442	6173.72
940.749	6189.77
941.056	6157.23
941.363	6093.5
941.67	6083.33
941.977	6008.3
942.284	5992.71
942.591	6004.46
942.898	5982.77
943.205	5977.57
943.511	5893.5
943.818	5865.93
944.125	5909.1
944.431	5828.87
944.738	5856.44
945.044	5784.13
945.35	5726.28
945.657	5747.07
945.963	5746.61
946.269	5688.31
946.575	5681.53
946.881	5673.62
947.187	5634.53
947.493	5578.48
947.799	5580.97
948.105	5531.7
948.41	5588.2
948.716	5534.87
949.022	5499.39
949.327	5494.19
949.633	5427.75
949.938	5373.52
950.244	5436.34
950.549	5363.12
950.854	5372.16
951.16	5358.83
951.465	5301.88
951.77	5284.48
952.075	5213.3
952.38	5188.44
952.685	5159.51
952.99	5160.42
953.294	5154.99
953.599	5148.44
953.904	5086.29
954.209	5078.61
954.513	5083.13
954.818	5060.3
955.122	5018.27
955.426	4978.73
955.731	4985.28
956.035	4937.6
956.339	4933.08
956.643	4911.61
956.948	4844.49
957.252	4812.4
957.556	4825.51
957.86	4808.11
958.163	4796.36
958.467	4773.98
958.771	4759.07
959.075	4722.01
959.378	4788.22
959.682	4717.49
959.985	4677.26
960.289	4662.58
960.592	4618.96
960.896	4645.63
961.199	4636.81
961.502	4603.37
961.805	4548.23
962.108	4519.08
962.411	4491.96
962.714	4496.25
963.017	4472.52
963.32	4482.01
963.623	4426.42
963.926	4418.74
964.228	4410.38
964.531	4383.71
964.833	4336.71
965.136	4322.02
965.438	4324.05
965.741	4267.11
966.043	4270.27
966.345	4226.2
966.648	4258.29
966.95	4237.95
967.252	4190.95
967.554	4176.94
967.856	4187.33
968.158	4160.44
968.46	4155.47
968.761	4122.02
969.063	4069.14
969.365	4092.42
969.666	4090.16
969.968	4031.41
970.269	4040.67
970.571	4044.51
970.872	4006.32
971.174	3923.61
971.475	3966.55
971.776	3938.98
972.077	3907.57
972.378	3927
972.679	3903.73
972.98	3872.09
973.281	3875.25
973.582	3840.9
973.883	3772.43
974.183	3803.16
974.484	3816.72
974.785	3805.65
975.085	3764.52
975.386	3695.82
975.686	3699.21
975.986	3714.35
976.287	3705.31
976.587	3660.57
976.887	3633.9
977.187	3647.69
977.487	3536.73
977.787	3599.78
978.087	3534.47
978.387	3552.77
978.687	3594.58
978.987	3517.29
979.286	3553.23
979.586	3487.46
979.885	3455.83
980.185	3469.16
980.484	3426.9
980.784	3421.03
981.083	3401.14
981.382	3385.32
981.682	3380.8
981.981	3367.69
982.28	3373.12
982.579	3313.23
982.878	3346.68
983.177	3299.45
983.475	3306.9
983.774	3281.82
984.073	3223.74
984.372	3220.35
984.67	3263.29
984.969	3238.43
985.267	3249.28
985.566	3199.79
985.864	3188.94
986.162	3187.59
986.461	3095.84
986.759	3097.64
987.057	3087.25
987.355	3094.48
987.653	3113.69
987.951	3096.29
988.249	2998.66
988.547	3033.92
988.844	3043.41
989.142	3045.89
989.44	2981.72
989.737	2972
990.035	2983.75
990.332	2922.51
990.63	2936.97
990.927	2910.3
991.224	2922.73
991.521	2898.55
991.819	2886.58
992.116	2890.87
992.413	2834.37
992.71	2848.84
993.006	2846.35
993.303	2841.38
993.6	2796.18
993.897	2793.02
994.193	2795.96
994.49	2747.82
994.787	2744.21
995.083	2734.04
995.379	2744.21
995.676	2742.63
995.972	2731.33
996.268	2725.22
996.565	2673.02
996.861	2662.85
997.157	2638.22
997.453	2648.16
997.749	2673.93
998.044	2609.07
998.34	2588.05
998.636	2574.04
998.932	2569.3
999.227	2542.4
999.523	2554.61
999.818	2539.24
1000.114	2512.12
1000.409	2486.14
1000.704	2533.37
1001	2513.71
1001.295	2451.33
1001.59	2426.48
1001.885	2458.11
1002.18	2424.44
1002.475	2409.75
1002.77	2412.01
1003.065	2373.14
1003.359	2386.93
1003.654	2391.9
1003.949	2360.04
1004.243	2340.38
1004.538	2307.38
1004.832	2259.7
1005.127	2346.93
1005.421	2292.69
1005.715	2286.37
1006.009	2261.51
1006.304	2221.96
1006.598	2197.78
1006.892	2234.16
1007.186	2179.25
1007.48	2212.02
1007.773	2184.67
1008.067	2156.88
1008.361	2133.6
1008.655	2149.65
1008.948	2113.72
1009.242	2145.35
1009.535	2149.65
1009.829	2093.6
1010.122	2065.13
1010.415	2077.11
1010.708	2047.28
1011.001	2058.58
1011.295	2037.79
1011.588	1999.59
1011.881	1994.62
1012.173	1957.79
1012.466	1956.88
1012.759	1948.52
1013.052	1979.03
1013.344	1956.21
1013.637	1929.09
1013.93	1911.91
1014.222	1957.56
1014.514	1909.65
1014.807	1900.16
1015.099	1890.22
1015.391	1883.44
1015.683	1859.26
1015.976	1876.43
1016.268	1852.71
1016.56	1847.73
1016.851	1780.84
1017.143	1801.18
1017.435	1790.79
1017.727	1778.36
1018.018	1750.56
1018.31	1790.33
1018.602	1767.51
1018.893	1730.67
1019.185	1694.74
1019.476	1706.49
1019.767	1713.95
1020.058	1703.33
1020.35	1659.26
1020.641	1647.29
1020.932	1632.37
1021.223	1630.56
1021.514	1605.71
1021.804	1636.44
1022.095	1598.7
1022.386	1570.68
1022.677	1581.75
1022.967	1577.46
1023.258	1575.2
1023.548	1560.06
1023.839	1512.15
1024.129	1536.33
1024.419	1539.72
1024.709	1500.4
1025	1502.66
1025.29	1496.33
1025.58	1486.16
1025.87	1467.4
1026.16	1443
1026.449	1461.98
1026.739	1454.07
1027.029	1441.87
1027.319	1414.98
1027.608	1393.96
1027.898	1402.32
1028.187	1403.23
1028.477	1377.24
1028.766	1381.76
1029.055	1359.39
1029.344	1372.94
1029.634	1338.14
1029.923	1377.92
1030.212	1319.39
1030.501	1321.42
1030.79	1322.78
1031.078	1276.22
1031.367	1303.12
1031.656	1274.87
1031.945	1266.51
1032.233	1250.46
1032.522	1250.46
1032.81	1284.13
1033.099	1249.33
1033.387	1251.14
1033.675	1232.83
1033.963	1218.37
1034.251	1205.04
1034.54	1187.19
1034.828	1184.93
1035.116	1201.42
1035.403	1159.62
1035.691	1192.38
1035.979	1136.79
1036.267	1147.87
1036.554	1127.3
1036.842	1133.4
1037.129	1154.19
1037.417	1142.67
1037.704	1098.83
1037.992	1098.6
1038.279	1081.65
1038.566	1097.02
1038.853	1097.02
1039.14	1097.02
