Data from hue_26_FLMS001491_00091.txt Node
Date: Tue Feb 07 17:14:49 GMT 2017
User: dcchb
Spectrometer: FLMS00149
Trigger mode: 0
Integration Time (sec): 2.000000E-2
Scans to average: 10
Electric dark correction enabled: true
Nonlinearity correction enabled: false
Boxcar width: 0
XAxis mode: Wavelengths
Number of Pixels in Spectrum: 2048
>>>>>Begin Spectral Data<<<<<
341.393	-22.65
341.776	-22.65
342.16	-22.65
342.543	-54.97
342.927	-50.45
343.31	-56.33
343.693	-60.85
344.077	-68.53
344.46	-67.4
344.843	-60.62
345.226	-50.68
345.61	-27.4
345.993	-16.78
346.376	-21.98
346.759	12.6
347.142	27.97
347.525	39.72
347.908	70.68
348.291	72.71
348.674	88.98
349.057	117.91
349.44	119.71
349.823	154.06
350.206	177.34
350.588	199.49
350.971	217.11
351.354	221.86
351.737	254.85
352.119	260.73
352.502	283.33
352.884	314.29
353.267	301.18
353.65	304.79
354.032	303.89
354.414	328.97
354.797	325.13
355.179	349.54
355.562	332.59
355.944	336.88
356.326	328.75
356.709	357.9
357.091	333.49
357.473	347.28
357.855	347.05
358.238	365.58
358.62	335.08
359.002	362.19
359.384	367.17
359.766	349.99
360.148	349.54
360.53	349.54
360.912	342.99
361.294	348.18
361.676	359.03
362.057	360.84
362.439	332.14
362.821	343.21
363.203	360.16
363.584	342.53
363.966	347.96
364.348	345.25
364.729	331.23
365.111	347.96
365.493	331.91
365.874	336.21
366.256	333.49
366.637	340.27
367.019	342.99
367.4	326.49
367.781	331.91
368.163	334.4
368.544	335.3
368.925	318.58
369.306	345.47
369.688	342.08
370.069	334.4
370.45	332.36
370.831	332.36
371.212	342.99
371.593	360.39
371.974	351.57
372.355	329.2
372.736	343.89
373.117	343.44
373.498	347.05
373.879	330.1
374.26	358.35
374.641	340.73
375.021	331.46
375.402	355.64
375.783	348.18
376.163	330.56
376.544	345.7
376.925	359.48
377.305	351.8
377.686	354.06
378.066	366.94
378.447	359.26
378.827	357
379.208	345.92
379.588	347.5
379.968	375.07
380.349	368.97
380.729	373.94
381.109	376.66
381.489	358.8
381.87	369.88
382.25	368.97
382.63	377.33
383.01	376.88
383.39	370.56
383.77	369.2
384.15	375.3
384.53	357.45
384.91	375.98
385.29	380.95
385.67	384.11
386.049	382.53
386.429	384.34
386.809	391.12
387.189	390.22
387.568	397
387.948	412.14
388.328	371.46
388.707	392.7
389.087	412.36
389.466	426.82
389.846	400.61
390.225	399.93
390.605	414.4
390.984	398.58
391.363	404.23
391.743	422.76
392.122	416.2
392.501	429.99
392.881	416.66
393.26	438.8
393.639	434.51
394.018	427.05
394.397	445.81
394.776	438.12
395.155	434.96
395.534	426.6
395.913	434.28
396.292	415.07
396.671	444.45
397.05	439.48
397.429	455.3
397.808	436.77
398.186	443.55
398.565	446.71
398.944	478.35
399.323	471.57
399.701	441.29
400.08	471.57
400.458	447.39
400.837	472.25
401.215	477.45
401.594	457.78
401.972	458.24
402.351	467.73
402.729	482.42
403.107	474.06
403.486	487.39
403.864	474.73
404.242	486.03
404.62	480.83
404.999	498.24
405.377	496.88
405.755	499.82
406.133	492.13
406.511	508.86
406.889	498.91
407.267	494.85
407.645	527.84
408.023	526.03
408.401	538.69
408.779	542.53
409.156	533.94
409.534	541.85
409.912	540.49
410.29	549.99
410.667	541.17
411.045	558.35
411.422	568.52
411.8	571
412.178	583.43
412.555	587.72
412.933	576.43
413.31	577.56
413.687	583.43
414.065	599.7
414.442	604
414.819	585.01
415.197	600.15
415.574	616.88
415.951	635.41
416.328	607.84
416.705	638.12
417.082	632.92
417.46	651.9
417.837	650.77
418.214	636.99
418.591	649.64
418.967	627.95
419.344	642.41
419.721	662.52
420.098	647.16
420.475	646.93
420.852	674.95
421.228	672.02
421.605	680.6
421.982	692.13
422.358	695.74
422.735	698
423.111	668.17
423.488	688.74
423.864	724.22
424.241	728.29
424.617	714.95
424.994	714.5
425.37	735.97
425.746	731
426.123	746.14
426.499	723.99
426.875	746.59
427.251	773.93
427.627	780.94
428.003	796.98
428.379	769.87
428.756	775.97
429.132	802.41
429.507	799.02
429.883	784.78
430.259	812.58
430.635	822.29
431.011	827.72
431.387	849.64
431.763	853.48
432.138	886.25
432.514	876.3
432.89	869.98
433.265	890.99
433.641	893.93
434.016	900.48
434.392	910.65
434.767	926.25
435.143	933.48
435.518	937.55
435.894	951.33
436.269	945.23
436.644	977.54
437.02	976.19
437.395	959.47
437.77	979.58
438.145	978.67
438.52	1006.7
438.895	1008.5
439.271	1035.85
439.646	1055.28
440.021	1018.22
440.395	1033.36
440.77	1037.2
441.145	1034.72
441.52	1075.4
441.895	1039.01
442.27	1074.04
442.645	1080.82
443.019	1097.09
443.394	1091.89
443.769	1115.62
444.143	1090.31
444.518	1126.24
444.892	1092.57
445.267	1140.7
445.641	1131.44
446.016	1128.73
446.39	1163.08
446.764	1156.75
447.139	1188.61
447.513	1171.21
447.887	1179.8
448.262	1182.96
448.636	1170.31
449.01	1203.08
449.384	1207.37
449.758	1231.55
450.132	1243.3
450.506	1241.04
450.88	1252.34
451.254	1253.02
451.628	1274.26
452.002	1287.59
452.376	1294.37
452.75	1282.62
453.123	1296.18
453.497	1322.62
453.871	1352.9
454.244	1345.9
454.618	1346.57
454.992	1368.95
455.365	1372.34
455.739	1417.76
456.112	1433.13
456.486	1425.67
456.859	1456.18
457.232	1481.26
457.606	1472.45
457.979	1473.13
458.352	1490.07
458.725	1543.63
459.099	1527.13
459.472	1560.81
459.845	1563.07
460.218	1611.65
460.591	1614.14
460.964	1629.05
461.337	1648.26
461.71	1712.67
462.083	1704.53
462.456	1716.51
462.829	1687.13
463.201	1747.47
463.574	1760.58
463.947	1782.27
464.32	1818.2
464.692	1824.98
465.065	1832.66
465.438	1877.63
465.81	1868.59
466.183	1933.23
466.555	1940.91
466.928	1960.8
467.3	1994.24
467.672	1990.63
468.045	2040.12
468.417	2088.02
468.789	2092.09
469.161	2114.69
469.534	2135.48
469.906	2201.02
470.278	2190.62
470.65	2207.34
471.022	2267.23
471.394	2318.53
471.766	2321.92
472.138	2313.33
472.51	2426.77
472.882	2437.17
473.253	2496.38
473.625	2508.58
473.997	2572.31
474.369	2614.34
474.74	2664.73
475.112	2694.56
475.484	2714.45
475.855	2783.15
476.227	2838.51
476.598	2935.23
476.97	2949.7
477.341	3041.67
477.713	3087.77
478.084	3106.3
478.455	3159.63
478.827	3176.81
479.198	3270.14
479.569	3281.21
479.94	3409.8
480.311	3435.79
480.682	3534.99
481.053	3623.35
481.424	3686.63
481.795	3745.38
482.166	3798.26
482.537	3838.94
482.908	3976.11
483.279	3981.53
483.65	4099.04
484.021	4144.92
484.391	4201.19
484.762	4279.38
485.133	4295.65
485.503	4355.76
485.874	4494.51
486.244	4513.05
486.615	4619.94
486.985	4703.1
487.356	4833.94
487.726	4845.47
488.097	4998.46
488.467	5001.62
488.837	5099.24
489.207	5176.53
489.578	5304.21
489.948	5367.26
490.318	5412.68
490.688	5443.42
491.058	5575.16
491.428	5662.39
491.798	5694.48
492.168	5816.06
492.538	5899.9
492.908	5914.36
493.278	6009.5
493.648	6029.16
494.017	6176.05
494.387	6218.99
494.757	6290.63
495.126	6316.39
495.496	6348.7
495.866	6478.42
496.235	6473.67
496.605	6612.2
496.974	6686.55
497.344	6693.1
497.713	6785.08
498.082	6771.29
498.452	6869.14
498.821	6859.88
499.19	6892.42
499.559	7074.79
499.928	7090.15
500.298	7154.56
500.667	7218.51
501.036	7151.62
501.405	7314.1
501.774	7303.25
502.143	7364.27
502.512	7429.58
502.88	7508.22
503.249	7497.37
503.618	7549.12
503.987	7563.81
504.356	7677.03
504.724	7677.93
505.093	7752.73
505.462	7830.92
505.83	7881.09
506.199	7874.31
506.567	8005.83
506.936	7980.07
507.304	8132.16
507.672	8115.89
508.041	8149.11
508.409	8150.69
508.777	8260.07
509.145	8280.4
509.514	8279.95
509.882	8374.64
510.25	8327.18
510.618	8418.03
510.986	8479.04
511.354	8535.99
511.722	8572.6
512.09	8677.68
512.458	8676.1
512.826	8773.05
513.193	8778.02
513.561	8808.98
513.929	8888.07
514.297	8934.4
514.664	8981.4
515.032	8988.18
515.4	9101.4
515.767	9099.14
516.135	9122.87
516.502	9118.35
516.869	9263.43
517.237	9170.55
517.604	9216.42
517.972	9323.77
518.339	9378
518.706	9453.03
519.073	9415.74
519.44	9490.32
519.808	9567.6
520.175	9505.91
520.542	9642.63
520.909	9688.05
521.276	9692.8
521.643	9800.36
522.009	9852.11
522.376	9893.92
522.743	9982.28
523.11	10067.7
523.477	10135.04
523.843	10111.99
524.21	10231.99
524.577	10343.4
524.943	10324.42
525.31	10423.4
525.676	10487.8
526.043	10515.6
526.409	10556.05
526.776	10712.2
527.142	10702.26
527.508	10760.56
527.874	10850.05
528.241	10946.32
528.607	10915.36
528.973	11031.29
529.339	10956.27
529.705	11084.4
530.071	11223.15
530.437	11263.83
530.803	11353.54
531.169	11343.37
531.535	11377.5
531.901	11441.45
532.267	11466.08
532.632	11511.05
532.998	11623.14
533.364	11649.58
533.73	11763.93
534.095	11789.46
534.461	11831.27
534.826	11886.41
535.192	11915.56
535.557	12032.4
535.923	12015.9
536.288	12093.64
536.653	12171.15
537.019	12080.98
537.384	12195.33
537.749	12314.65
538.114	12385.83
538.479	12341.09
538.845	12371.82
539.21	12469.67
539.575	12485.72
539.94	12495.21
540.305	12603.23
540.67	12626.28
541.034	12621.08
541.399	12752.6
541.764	12742.89
542.129	12824.92
542.494	12871.47
542.858	12953.28
543.223	12894.52
543.587	13000.73
543.952	12931.35
544.316	13105.14
544.681	13183.33
545.045	13203.66
545.41	13305.81
545.774	13317.33
546.138	13409.99
546.503	13401.4
546.867	13437.56
547.231	13643.65
547.595	13624.44
547.959	13698.57
548.324	13657.21
548.688	13774.5
549.052	13743.08
549.416	13842.52
549.779	13862.18
550.143	13854.95
550.507	14016.75
550.871	14036.86
551.235	14023.98
551.599	14094.49
551.962	14265.11
552.326	14227.82
552.689	14286.57
553.053	14231.21
553.417	14322.28
553.78	14502.39
554.143	14448.15
554.507	14448.6
554.87	14485.89
555.234	14701.48
555.597	14586.45
555.96	14642.5
556.323	14728.6
556.686	14717.3
557.05	14957.06
557.413	14902.15
557.776	14953.22
558.139	15038.87
558.502	15112.54
558.865	15084.97
559.228	15182.37
559.59	15261.01
559.953	15239.32
560.316	15387.11
560.679	15407.9
561.041	15447.67
561.404	15556.14
561.767	15648.57
562.129	15534.45
562.492	15777.83
562.854	15725.41
563.217	15641.34
563.579	15918.62
563.941	15851.96
564.304	15930.37
564.666	16072.06
565.028	16126.07
565.39	16108.9
565.753	16182.57
566.115	16240.87
566.477	16310.25
566.839	16446.74
567.201	16451.71
567.563	16528.1
567.925	16675.89
568.287	16644.93
568.648	16653.06
569.01	16691.48
569.372	16879.95
569.734	16839.05
570.095	16925.15
570.457	17014.86
570.819	17143.45
571.18	17198.81
571.542	17315.87
571.903	17340.96
572.265	17445.59
572.626	17437.45
572.987	17593.83
573.349	17555.19
573.71	17714.96
574.071	17727.84
574.432	17823.88
574.794	18047.6
575.155	18089.64
575.516	18078.56
575.877	18265.23
576.238	18372.57
576.599	18476.07
576.96	18555.61
577.32	18600.13
577.681	18744.54
578.042	18893.91
578.403	18907.24
578.763	19135.94
579.124	19210.06
579.485	19407.79
579.845	19702.93
580.206	19723.27
580.566	19839.42
580.927	20038.96
581.287	20349.01
581.648	20431.95
582.008	20607.54
582.368	20776.12
582.728	20997.36
583.089	21173.4
583.449	21474.86
583.809	21660.62
584.169	21927.5
584.529	22093.6
584.889	22448.39
585.249	22554.6
585.609	22791.66
585.969	23114.14
586.329	23295.83
586.688	23654.46
587.048	23966.09
587.408	24082.25
587.768	24503.48
588.127	24662.57
588.487	25021.21
588.846	25481.53
589.206	25608.54
589.565	25974.85
589.925	26509.53
590.284	26706.59
590.643	27101.15
591.003	27508.37
591.362	27820.23
591.721	28128.24
592.08	28523.26
592.44	29005.73
592.799	29357.36
593.158	29603.01
593.517	29923
593.876	30461.97
594.235	30734.05
594.593	31065.79
594.952	31461.26
595.311	31751.88
595.67	32251.52
596.029	32676.6
596.387	33126.08
596.746	33563.35
597.104	33728.32
597.463	34127.41
597.822	34582.31
598.18	34909.53
598.538	35336.87
598.897	35725.56
599.255	35830.41
599.613	36669.94
599.972	36934.79
600.33	37253.2
600.688	37452.74
601.046	37843.02
601.404	38363.45
601.762	38635.76
602.12	39161.17
602.478	39607.26
602.836	39807.71
603.194	40030.53
603.552	40430.74
603.91	40567.46
604.268	41073.89
604.625	41246.99
604.983	41799.07
605.341	41783.48
605.698	42442.9
606.056	42739.84
606.413	42877.91
606.771	43405.13
607.128	43749.53
607.485	43547.95
607.843	44111.1
608.2	44511.32
608.557	44829.95
608.914	44908.82
609.272	45441.69
609.629	45595.35
609.986	45942.46
610.343	46047.55
610.7	46412.73
611.057	46513.75
611.414	46734.53
611.771	46972.27
612.127	47231.47
612.484	47581.07
612.841	47787.61
613.198	47788.52
613.554	48037.55
613.911	48377.65
614.267	48560.25
614.624	48594.82
614.98	48913.01
615.337	49103.06
615.693	49238.87
616.05	49282.94
616.406	49621.01
616.762	49694
617.118	49738.07
617.475	49858.29
617.831	50081.79
618.187	50298.96
618.543	50331.95
618.899	50460.09
619.255	50610.14
619.611	50691.49
619.967	50886.29
620.323	51014.65
620.678	51090.13
621.034	51061.43
621.39	51143.46
621.746	51223.68
622.101	51686.49
622.457	51494.18
622.812	51592.49
623.168	51838.58
623.523	51711.58
623.879	51914.74
624.234	51816.89
624.589	51984.57
624.945	52146.82
625.3	52203.77
625.655	52227.27
626.01	52276.08
626.365	52309.53
626.72	52363.31
627.075	52401.5
627.43	52460.71
627.785	52496.19
628.14	52504.78
628.495	52735.73
628.85	52707.48
629.205	52526.92
629.559	52785.67
629.914	52714.04
630.269	52705
630.623	52744.32
630.978	52683.98
631.332	52838.33
631.687	52887.14
632.041	52781.38
632.396	52795.39
632.75	52859.8
633.104	52828.84
633.459	52771.44
633.813	52809.85
634.167	52885.78
634.521	52834.71
634.875	52936.18
635.229	52869.29
635.583	52717.2
635.937	52779.8
636.291	52824.09
636.645	52775.73
636.999	52749.29
637.352	52904.09
637.706	52756.3
638.06	52850.08
638.413	52807.82
638.767	52782.96
639.121	52792.68
639.474	52639.46
639.828	52674.04
640.181	52714.04
640.534	52767.6
640.888	52649.86
641.241	52543.65
641.594	52692.57
641.947	52738.44
642.301	52630.42
642.654	52697.09
643.007	52680.37
643.36	52669.75
643.713	52625
644.066	52744.32
644.419	52501.39
644.771	52331.45
645.124	51961.52
645.477	51999.93
645.83	51867.05
646.182	51737.34
646.535	51700.73
646.888	51759.03
647.24	51626.38
647.593	51750.9
647.945	51631.58
648.298	51614.18
648.65	51487.63
649.002	51461.19
649.355	51691.24
649.707	51556.1
650.059	51743.22
650.411	52114.28
650.763	52117.22
651.115	52393.14
651.467	52306.59
651.819	52265.46
652.171	52262.75
652.523	52145.69
652.875	52225.46
653.227	51980.27
653.578	52254.16
653.93	52187.05
654.282	52104.34
654.633	52018.01
654.985	52128.97
655.337	52066.37
655.688	52194.73
656.039	52094.84
656.391	51914.74
656.742	52027.5
657.094	52066.15
657.445	52166.48
657.796	52114.73
658.147	51876.55
658.498	51926.04
658.849	52164.45
659.2	51961.74
659.551	51904.12
659.902	52020.5
660.253	52004.45
660.604	52002.87
660.955	51873.38
661.306	51957
661.656	51952.02
662.007	51897.56
662.358	51965.81
662.708	51841.52
663.059	51948.41
663.409	51768.07
663.76	52005.58
664.11	51896.21
664.461	52003.55
664.811	51983.44
665.161	51997.67
665.511	51836.32
665.862	51857.79
666.212	51957
666.562	51981.4
666.912	51930.1
667.262	51832.48
667.612	51818.47
667.962	51871.35
668.312	51797.23
668.662	51906.15
669.011	51864.34
669.361	51796.77
669.711	51748.87
670.06	51704.57
670.41	51664.35
670.76	51602.88
671.109	51726.27
671.459	51708.87
671.808	51629.09
672.157	51717.45
672.507	51499.61
672.856	51584.35
673.205	51471.13
673.554	51700.28
673.904	51586.38
674.253	51765.81
674.602	51609.89
674.951	51140.97
675.3	50935.33
675.649	51533.5
675.998	51530.79
676.346	51438.14
676.695	51565.82
677.044	51342.32
677.393	51458.48
677.741	51431.59
678.09	51351.36
678.438	51279.95
678.787	51316.56
679.135	51361.53
679.484	51093.74
679.832	51292.83
680.181	51056.23
680.529	51218.94
680.877	51044.48
681.225	51055.78
681.573	51190.69
681.922	51022.78
682.27	50775.56
682.618	50900.98
682.966	50742.79
683.314	50850.13
683.661	50757.25
684.009	50518.62
684.357	50554.32
684.705	50519.29
685.053	50551.83
685.4	50494.44
685.748	50314.1
686.095	50417.6
686.443	50205.4
686.79	50157.04
687.138	50249.92
687.485	50232.97
687.832	49945.52
688.18	50119.3
688.527	49886.32
688.874	49885.19
689.221	49865.07
689.568	49722.03
689.915	49613.1
690.262	49679.09
690.609	49538.3
690.956	49338.76
691.303	49411.98
691.65	49223.51
691.997	49139.67
692.344	49008.6
692.69	48936.74
693.037	48901.93
693.383	48644.99
693.73	48890.86
694.077	48699.45
694.423	48521.83
694.769	48501.27
695.116	48329.07
695.462	48364.77
695.808	48174.5
696.155	48278.45
696.501	47854.28
696.847	47910.77
697.193	47696.54
697.539	47826.93
697.885	47546.94
698.231	47487.73
698.577	47537.68
698.923	47347.4
699.269	47249.55
699.614	47047.97
699.96	47129.78
700.306	47057.01
700.651	46934.75
700.997	46654.31
701.342	46607.31
701.688	46646.85
702.033	46575.67
702.379	46500.87
702.724	46326.64
703.069	46352.4
703.415	45996.47
703.76	46044.38
704.105	45972.29
704.45	45898.62
704.795	45641.91
705.14	45540.22
705.485	45563.04
705.83	45331.63
706.175	45350.16
706.52	45270.39
706.865	45113.79
707.209	45140.68
707.554	44880.35
707.899	44989.5
708.243	44614.14
708.588	44758.54
708.932	44575.04
709.277	44374.82
709.621	44564.65
709.966	44092.12
710.31	44309.51
710.654	43893.48
710.998	44063.87
711.342	44006.7
711.687	43869.52
712.031	43694.39
712.375	43608.51
712.719	43652.58
713.063	43496.43
713.407	43684.9
713.75	43380.72
714.094	43425.02
714.438	43216.43
714.782	43348.18
715.125	42948.87
715.469	43167.62
715.812	42915.88
716.156	42817.12
716.499	42773.96
716.843	42842.43
717.186	42472.5
717.53	42771.93
717.873	42702.78
718.216	42673.62
718.559	42358.38
718.902	42260.98
719.246	42341.43
719.589	42145.05
719.932	41943.25
720.275	41996.13
720.617	41903.93
720.96	41868.22
721.303	41916.36
721.646	41748.9
721.989	41629.81
722.331	41827.09
722.674	41600.43
723.016	41704.16
723.359	41555.69
723.701	41653.31
724.044	41322.7
724.386	41153.89
724.729	41377.16
725.071	41061.24
725.413	41179.43
725.755	41132.42
726.097	40922.26
726.439	40729.95
726.782	40750.51
727.124	40831.41
727.465	40689.95
727.807	40646.11
728.149	40648.14
728.491	40634.36
728.833	40544.19
729.175	40372.22
729.516	40279.79
729.858	40384.19
730.199	40257.19
730.541	40169.51
730.882	40101.71
731.224	40216.74
731.565	39970.87
731.906	40028.27
732.248	39943.3
732.589	39741.05
732.93	39652.91
733.271	39728.39
733.612	39712.57
733.953	39778.56
734.294	39676.19
734.635	39583.54
734.976	39636.64
735.317	39356.65
735.658	39323.43
735.999	39368.4
736.339	39254.28
736.68	39295.41
737.021	39110.55
737.361	39035.3
737.702	39267.39
738.042	39035.75
738.383	38907.85
738.723	39051.35
739.063	38848.41
739.404	38732.71
739.744	38916.43
740.084	38655.42
740.424	38643.67
740.764	38565.48
741.104	38587.86
741.444	38419.27
741.784	38322.78
742.124	38488.65
742.464	38425.15
742.804	38242.1
743.143	38174.08
743.483	38227.41
743.823	37970.24
744.162	38026.97
744.502	38005.95
744.841	37889.34
745.181	38105.16
745.52	37767.76
745.86	37841.66
746.199	37791.94
746.538	37736.13
746.877	38017.25
747.216	37702.23
747.556	37742.68
747.895	37778.84
748.234	37681.89
748.573	37433.31
748.911	37398.06
749.25	37330.94
749.589	37227.21
749.928	37343.59
750.267	37296.36
750.605	37169.59
750.944	37028.8
751.283	36892.31
751.621	37095.24
751.96	36682.37
752.298	36792.2
752.636	36848.24
752.975	36603.27
753.313	36485.99
753.651	36717.62
753.989	36433.34
754.327	36412.32
754.666	36252.78
755.004	36305.66
755.342	36290.74
755.679	36177.07
756.017	35945.89
756.355	36065.66
756.693	35959.45
757.031	35834.93
757.368	35723.07
757.706	35737.08
758.044	35527.82
758.381	35614.15
758.719	35392.91
759.056	35419.8
759.394	35303.2
759.731	35172.58
760.068	35067.27
760.405	34992.92
760.743	34878.8
761.08	34811.68
761.417	34701.4
761.754	34746.15
762.091	34608.53
762.428	34429.55
762.765	34267.97
763.102	34533.05
763.438	34274.3
763.775	34063.68
764.112	34237.46
764.449	34018.71
764.785	33857.13
765.122	33591.83
765.458	33686.06
765.795	33552.51
766.131	33626.4
766.467	33420.08
766.804	33252.4
767.14	33099.41
767.476	33137.15
767.812	32832.75
768.148	33066.64
768.485	32748.23
768.821	32637.73
769.157	32445.42
769.492	32349.15
769.828	32412.42
770.164	32170.4
770.5	32027.58
770.836	32069.38
771.171	31771.76
771.507	31712.56
771.842	31574.48
772.178	31547.59
772.513	31361.15
772.849	31381.72
773.184	31310.76
773.519	31139.69
773.855	30996.42
774.19	30840.71
774.525	30755.74
774.86	30821.73
775.195	30806.59
775.53	30454.06
775.865	30396.66
776.2	30192.82
776.535	30142.2
776.87	30020.4
777.205	29991.7
777.539	29837.13
777.874	29899.95
778.209	29663.8
778.543	29564.82
778.878	29304.03
779.212	29350.13
779.547	29250.25
779.881	29334.99
780.215	29144.71
780.55	29011.16
780.884	28884.61
781.218	28793.54
781.552	28763.93
781.886	28629.02
782.22	28454.11
782.554	28293.21
782.888	28128.24
783.222	28002.15
783.556	27874.01
783.889	27866.78
784.223	27784.75
784.557	27623.62
784.89	27698.65
785.224	27405.1
785.557	27329.17
785.891	27187.7
786.224	27090.08
786.558	27203.75
786.891	26985
787.224	26775.96
787.557	26723.99
787.891	26709.3
788.224	26771.44
788.557	26596.31
788.89	26613.03
789.223	26485.8
789.556	26250.55
789.888	26228.18
790.221	26104.57
790.554	25856.89
790.887	25862.54
791.219	25830.45
791.552	25786.84
791.884	25553.17
792.217	25574.41
792.549	25586.16
792.882	25327.41
793.214	25212.16
793.546	25271.14
793.879	25072.5
794.211	24969.91
794.543	25006.74
794.875	24945.05
795.207	25031.6
795.539	24693.08
795.871	24837.03
796.203	24424.61
796.535	24514.1
796.867	24411.51
797.198	24316.37
797.53	24301
797.862	24194.56
798.193	24239.76
798.525	23876.6
798.856	24095.13
799.188	23690.85
799.519	23685.42
799.85	23654.91
800.182	23604.52
800.513	23574.69
800.844	23434.81
801.175	23551.87
801.506	23497.18
801.837	23280.69
802.168	23246.79
802.499	23149.39
802.83	23000.02
803.161	22937.19
803.491	22896.06
803.822	22882.51
804.153	22850.64
804.483	22689.74
804.814	22527.94
805.145	22434.16
805.475	22480.03
805.805	22296.76
806.136	22454.49
806.466	22368.39
806.796	22309.87
807.126	22074.39
807.457	22170.66
807.787	22197.33
808.117	21975.41
808.447	21940.84
808.777	21843.21
809.107	21862.42
809.436	21821.74
809.766	21784.91
810.096	21671.24
810.426	21531.58
810.755	21550.79
811.085	21578.59
811.414	21452.26
811.744	21242.1
812.073	21313.06
812.403	21243.9
812.732	21193.06
813.061	21158.03
813.39	21109.44
813.719	20906.96
814.049	21173.62
814.378	20953.97
814.707	20936.12
815.036	20816.57
815.365	20736.12
815.693	20570.93
816.022	20683.02
816.351	20520.08
816.68	20492.74
817.008	20470.82
817.337	20273.76
817.665	20241.67
817.994	20305.85
818.322	20319.86
818.651	20177.72
818.979	20050.04
819.307	20214.78
819.636	20038.29
819.964	19892.53
820.292	20014.33
820.62	19984.28
820.948	19915.35
821.276	19931.85
821.604	19952.41
821.932	19867.22
822.259	20053.65
822.587	19893.66
822.915	19823.15
823.243	20035.35
823.57	19969.14
823.898	19861.12
824.225	19769.59
824.553	19757.62
824.88	19779.99
825.207	19904.05
825.535	19846.65
825.862	19901.12
826.189	19735.47
826.516	19832.42
826.843	19941.34
827.17	19817.5
827.497	19825.64
827.824	19889.36
828.151	19890.72
828.478	19824.28
828.805	19875.35
829.131	19760.1
829.458	19732.98
829.785	19740.89
830.111	19733.44
830.438	19769.14
830.764	19730.05
831.09	19795.58
831.417	19751.29
831.743	19802.81
832.069	19779.08
832.395	19697.73
832.722	19755.36
833.048	19627
833.374	19705.64
833.7	19537.28
834.026	19524.85
834.351	19585.19
834.677	19495.93
835.003	19531.18
835.329	19602.59
835.654	19421.35
835.98	19435.82
836.306	19471.52
836.631	19453.9
836.956	19538.19
837.282	19400.56
837.607	19358.53
837.932	19341.81
838.258	19344.29
838.583	19236.27
838.908	19160.57
839.233	19178.42
839.558	19101.14
839.883	19094.13
840.208	18925.32
840.533	19049.61
840.858	18959.67
841.182	18999.22
841.507	18890.07
841.832	18830.86
842.156	18855.49
842.481	18793.8
842.805	18770.07
843.13	18684.65
843.454	18647.14
843.778	18648.49
844.103	18601.71
844.427	18586.12
844.751	18578.89
845.075	18437.65
845.399	18378.9
845.723	18263.64
846.047	18433.81
846.371	18135.51
846.695	18137.32
847.019	18062.75
847.343	18018.45
847.666	17861.62
847.99	17773.71
848.313	17768.29
848.637	17599.48
848.96	17647.84
849.284	17575.53
849.607	17415.08
849.931	17399.03
850.254	17314.29
850.577	17214.18
850.9	17036.33
851.223	17065.03
851.546	17058.48
851.869	16808.09
852.192	16994.3
852.515	16796.56
852.838	16670.01
853.161	16656.45
853.483	16579.17
853.806	16634.31
854.129	16492.17
854.451	16467.76
854.774	16427.53
855.096	16363.13
855.419	16258.27
855.741	16327.65
856.063	16184.6
856.385	16109.58
856.708	16016.25
857.03	15992.52
857.352	16097.15
857.674	15999.75
857.996	15961.33
858.318	15843.82
858.64	15878.17
858.961	15885.18
859.283	15721.79
859.605	15644.96
859.926	15660.77
860.248	15609.7
860.57	15660.55
860.891	15642.92
861.212	15450.61
861.534	15385.98
861.855	15345.75
862.176	15407.22
862.498	15430.72
862.819	15346.43
863.14	15335.13
863.461	15329.71
863.782	15208.13
864.103	15338.75
864.424	15140.56
864.745	15211.97
865.065	15134.01
865.386	15003.16
865.707	15017.85
866.027	14981.47
866.348	15002.49
866.668	15030.96
866.989	14914.13
867.309	14745.32
867.63	14871.64
867.95	14821.02
868.27	14771.98
868.59	14737.86
868.91	14742.38
869.23	14717.3
869.55	14670.74
869.87	14673.68
870.19	14657.41
870.51	14665.55
870.83	14662.16
871.15	14577.64
871.469	14543.06
871.789	14625.32
872.109	14517.53
872.428	14409.51
872.748	14504.65
873.067	14459
873.386	14440.47
873.706	14476.85
874.025	14334.93
874.344	14292.45
874.663	14379.45
874.982	14282.96
875.301	14248.61
875.62	14246.8
875.939	14256.74
876.258	14253.58
876.577	14101.04
876.896	14192.11
877.214	14107.82
877.533	14024.66
877.852	14050.42
878.17	14113.7
878.489	14109.4
878.807	14097.43
879.125	14065.56
879.444	14016.52
879.762	13889.3
880.08	13930.65
880.398	13837.09
880.716	13938.79
881.034	13858.79
881.352	13855.17
881.67	13739.92
881.988	13837.32
882.306	13694.95
882.624	13719.58
882.941	13668.74
883.259	13587.38
883.577	13621.51
883.894	13542.64
884.212	13612.01
884.529	13534.5
884.846	13529.31
885.164	13526.37
885.481	13428.07
885.798	13427.39
886.115	13363.43
886.432	13312.36
886.75	13212.48
887.067	13204.79
887.383	13202.31
887.7	13254.06
888.017	13156.21
888.334	13210.44
888.651	13141.74
888.967	13082.76
889.284	12959.38
889.6	12966.38
889.917	12955.08
890.233	12955.99
890.55	12814.97
890.866	12907.63
891.182	12795.31
891.498	12692.72
891.815	12694.98
892.131	12658.82
892.447	12629.89
892.763	12570.69
893.079	12544.02
893.395	12448.43
893.71	12479.84
894.026	12470.12
894.342	12382.67
894.657	12313.74
894.973	12286.4
895.289	12349.45
895.604	12323.91
895.92	12146.74
896.235	12185.16
896.55	12173.18
896.865	12078.04
897.181	12028.33
897.496	12021.77
897.811	12044.37
898.126	11961.89
898.441	11949.69
898.756	11767.09
899.071	11811.16
899.386	11733.87
899.7	11693.65
900.015	11624.04
900.33	11596.25
900.644	11512.41
900.959	11512.64
901.273	11537.95
901.588	11486.42
901.902	11462.47
902.216	11330.95
902.531	11335.01
902.845	11306.76
903.159	11272.64
903.473	11199.42
903.787	11106.09
904.101	11054.12
904.415	11127.33
904.729	11037.62
905.042	10897.74
905.356	10991.07
905.67	10936.83
905.984	10905.65
906.297	10858.64
906.611	10762.82
906.924	10757.17
907.237	10794.46
907.551	10720.11
907.864	10639.44
908.177	10641.92
908.491	10582.94
908.804	10498.2
909.117	10515.37
909.43	10448.48
909.743	10382.27
910.056	10348.15
910.368	10317.86
910.681	10309.28
910.994	10201.94
911.307	10281.93
911.619	10159
911.932	10122.16
912.244	10064.54
912.557	10072.9
912.869	9956.97
913.181	9927.82
913.494	9940.47
913.806	9880.14
914.118	9784.54
914.43	9694.83
914.742	9741.83
915.054	9670.88
915.366	9653.7
915.678	9585.91
915.99	9547.72
916.302	9528.51
916.613	9502.74
916.925	9482.18
917.236	9413.03
917.548	9287.61
917.859	9281.73
918.171	9247.84
918.482	9190.89
918.794	9185.01
919.105	9169.42
919.416	9124.9
919.727	9109.53
920.038	9045.81
920.349	8947.96
920.66	8910.44
920.971	8927.17
921.282	8955.41
921.593	8916.77
921.903	8813.95
922.214	8785.7
922.525	8786.61
922.835	8722.2
923.146	8665.93
923.456	8629.77
923.767	8552.04
924.077	8567.63
924.387	8561.53
924.697	8534.18
925.008	8454.64
925.318	8434.07
925.628	8439.95
925.938	8336.67
926.248	8319.72
926.558	8228.88
926.867	8270.23
927.177	8210.58
927.487	8134.19
927.796	8123.8
928.106	8152.27
928.416	8075.66
928.725	8029.34
929.034	7963.8
929.344	8002.9
929.653	7918.38
929.962	7867.31
930.271	7749.8
930.581	7853.97
930.89	7825.95
931.199	7739.85
931.508	7693.07
931.817	7683.81
932.125	7660.31
932.434	7662.79
932.743	7566.75
933.051	7490.82
933.36	7450.14
933.669	7442.91
933.977	7449.47
934.286	7386.19
934.594	7360.2
934.902	7323.59
935.21	7268.68
935.519	7277.94
935.827	7249.47
936.135	7168.12
936.443	7125.86
936.751	7138.06
937.059	7139.64
937.367	7075.24
937.674	7091.06
937.982	7031.62
938.29	6978.29
938.597	7031.4
938.905	6940.33
939.213	6904.62
939.52	6885.64
939.827	6886.99
940.135	6814.45
940.442	6779.88
940.749	6760.22
941.056	6741.69
941.363	6657.85
941.67	6631.86
941.977	6623.05
942.284	6575.14
942.591	6622.14
942.898	6512.99
943.205	6529.26
943.511	6478.19
943.818	6492.88
944.125	6428.25
944.431	6403.84
944.738	6398.42
945.044	6306.9
945.35	6308.03
945.657	6271.42
945.963	6299.89
946.269	6251.76
946.575	6216.73
946.881	6142.83
947.187	6113.23
947.493	6126.56
947.799	6114.58
948.105	6062.61
948.41	6042.27
948.716	6023.97
949.022	5994.36
949.327	5996.85
949.633	5929.05
949.938	5861.26
950.244	5923.18
950.549	5895.61
950.854	5874.82
951.16	5789.4
951.465	5776.51
951.77	5788.49
952.075	5760.24
952.38	5675.73
952.685	5678.21
952.99	5661.94
953.294	5634.6
953.599	5574.26
953.904	5604.09
954.209	5505.56
954.513	5572.9
954.818	5481.83
955.122	5453.13
955.426	5442.29
955.731	5391.89
956.035	5373.14
956.339	5382.4
956.643	5393.93
956.948	5325
957.252	5282.52
957.556	5262.63
957.86	5235.06
958.163	5273.7
958.467	5212.46
958.771	5159.81
959.075	5168.17
959.378	5134.72
959.682	5114.16
959.985	5089.08
960.289	5075.97
960.592	5055.18
960.896	5012.02
961.199	5023.54
961.502	4974.5
961.805	4955.75
962.108	4956.2
962.411	4973.37
962.714	4876.2
963.017	4888.63
963.32	4925.24
963.623	4802.76
963.926	4842.3
964.228	4781.06
964.531	4784
964.833	4761.63
965.136	4701.29
965.438	4699.71
965.741	4662.19
966.043	4677.79
966.345	4621.74
966.648	4640.27
966.95	4607.73
967.252	4575.42
967.554	4609.77
967.856	4537.68
968.158	4529.77
968.46	4501.29
968.761	4471.69
969.063	4490.9
969.365	4457.23
969.666	4455.65
969.968	4400.51
970.269	4398.25
970.571	4376.55
970.872	4328.87
971.174	4304.24
971.475	4309.66
971.776	4303.33
972.077	4254.52
972.378	4271.92
972.679	4247.97
972.98	4234.18
973.281	4204.35
973.582	4196.9
973.883	4117.12
974.183	4136.11
974.484	4136.33
974.785	4080.29
975.085	4051.36
975.386	4079.84
975.686	4011.59
975.986	3986.96
976.287	4001.42
976.587	3972.27
976.887	3998.26
977.187	3973.17
977.487	3965.26
977.787	3906.73
978.087	3895.43
978.387	3878.49
978.687	3886.39
978.987	3871.25
979.286	3816.57
979.586	3824.02
979.885	3770.01
980.185	3778.38
980.484	3730.01
980.784	3763.91
981.083	3724.59
981.382	3738.38
981.682	3700.86
981.981	3669.9
982.28	3693.41
982.579	3625.84
982.878	3622.67
983.177	3617.93
983.475	3606.18
983.774	3556.23
984.073	3535.44
984.372	3535.9
984.67	3555.1
984.969	3539.29
985.267	3498.16
985.566	3476.69
985.864	3396.46
986.162	3457.93
986.461	3437.14
986.759	3444.6
987.057	3382.91
987.355	3331.61
987.653	3370.25
987.951	3301.78
988.249	3338.39
988.547	3344.94
988.844	3363.7
989.142	3325.05
989.44	3244.38
989.737	3255.45
990.035	3260.65
990.332	3223.36
990.63	3168
990.927	3149.92
991.224	3139.97
991.521	3167.09
991.819	3200.99
992.116	3139.97
992.413	3116.25
992.71	3090.94
993.006	3084.38
993.303	3102.91
993.6	3095
993.897	3026.08
994.193	3042.35
994.49	3005.29
994.787	2987.89
995.083	2980.66
995.379	2976.14
995.676	2960.09
995.972	2932.07
996.268	2946.53
996.565	2935.69
996.861	2913.54
997.157	2896.82
997.453	2867.66
997.749	2845.29
998.044	2850.04
998.34	2816.14
998.636	2832.41
998.932	2779.31
999.227	2777.95
999.523	2772.3
999.818	2761.23
1000.114	2696.82
1000.409	2712.64
1000.704	2693.66
1001	2697.95
1001.295	2658.18
1001.59	2656.37
1001.885	2679.87
1002.18	2603.94
1002.475	2624.73
1002.77	2584.06
1003.065	2571.18
1003.359	2576.15
1003.654	2574.79
1003.949	2536.6
1004.243	2539.54
1004.538	2529.82
1004.832	2496.15
1005.127	2504.96
1005.421	2467
1005.715	2468.35
1006.009	2426.09
1006.304	2432.42
1006.598	2384.29
1006.892	2419.31
1007.186	2392.42
1007.48	2374.8
1007.773	2356.72
1008.067	2357.17
1008.361	2329.37
1008.655	2334.35
1008.948	2318.53
1009.242	2285.99
1009.535	2298.41
1009.829	2271.75
1010.122	2228.81
1010.415	2264.52
1010.708	2221.81
1011.001	2212.54
1011.295	2207.12
1011.588	2174.58
1011.881	2166.67
1012.173	2154.24
1012.466	2163.28
1012.759	2122.6
1013.052	2121.47
1013.344	2106.55
1013.637	2100
1013.93	2050.51
1014.222	2061.13
1014.514	2051.41
1014.807	2057.97
1015.099	2037.63
1015.391	2034.47
1015.683	2003.96
1015.976	1996.95
1016.268	1965.77
1016.56	1951.3
1016.851	1945.66
1017.143	1919.22
1017.435	1951.08
1017.727	1900.46
1018.018	1928.25
1018.31	1883.06
1018.602	1874.7
1018.893	1862.04
1019.185	1836.96
1019.476	1864.08
1019.767	1817.52
1020.058	1809.61
1020.35	1775.72
1020.641	1805.32
1020.932	1796.73
1021.223	1783.17
1021.514	1754.02
1021.804	1743.4
1022.095	1700.92
1022.386	1718.32
1022.677	1716.06
1022.967	1662.05
1023.258	1671.99
1023.548	1674.48
1023.839	1673.35
1024.129	1622.95
1024.419	1644.19
1024.709	1627.25
1025	1596.74
1025.29	1596.06
1025.58	1562.84
1025.87	1566.68
1026.16	1557.64
1026.449	1565.78
1026.739	1547.7
1027.029	1550.19
1027.319	1540.02
1027.608	1491.2
1027.898	1507.47
1028.187	1500.47
1028.477	1506.8
1028.766	1474.26
1029.055	1481.26
1029.344	1460.7
1029.634	1432.9
1029.923	1448.04
1030.212	1422.73
1030.501	1436.06
1030.79	1424.54
1031.078	1391.55
1031.367	1404.65
1031.656	1387.25
1031.945	1372.34
1032.233	1361.94
1032.522	1363.07
1032.81	1322.17
1033.099	1348.61
1033.387	1316.29
1033.675	1319.68
1033.963	1299.8
1034.251	1303.19
1034.54	1282.4
1034.828	1277.88
1035.116	1250.76
1035.403	1270.19
1035.691	1240.59
1035.979	1254.37
1036.267	1245.79
1036.554	1243.3
1036.842	1205.79
1037.129	1188.16
1037.417	1222.96
1037.704	1192.45
1037.992	1181.61
1038.279	1162.62
1038.566	1165.34
1038.853	1165.34
1039.14	1165.34
