Data from hue_00_FLMS001491_12.txt Node
Date: Mon Feb 06 15:29:19 GMT 2017
User: dcchb
Spectrometer: FLMS00149
Trigger mode: 0
Integration Time (sec): 2.000000E-2
Scans to average: 10
Electric dark correction enabled: true
Nonlinearity correction enabled: false
Boxcar width: 0
XAxis mode: Wavelengths
Number of Pixels in Spectrum: 2048
>>>>>Begin Spectral Data<<<<<
341.393	-30.56
341.776	-30.56
342.16	-30.56
342.543	-57.91
342.927	-66.27
343.31	-66.5
343.693	-63.11
344.077	-59.04
344.46	-42.54
344.843	-58.59
345.226	-32.6
345.61	-34.86
345.993	-35.76
346.376	-2.09
346.759	6.05
347.142	19.83
347.525	57.8
347.908	49.43
348.291	60.51
348.674	84.91
349.057	116.55
349.44	133.05
349.823	140.05
350.206	137.34
350.588	192.25
350.971	198.13
351.354	197
351.737	223.89
352.119	252.37
352.502	265.7
352.884	252.59
353.267	274.74
353.65	260.5
354.032	296.43
354.414	312.03
354.797	301.63
355.179	297.11
355.562	324.45
355.944	323.32
356.326	331.69
356.709	344.79
357.091	322.19
357.473	334.62
357.855	335.08
358.238	326.71
358.62	319.48
359.002	326.71
359.384	335.53
359.766	334.85
360.148	331.23
360.53	336.66
360.912	311.35
361.294	344.12
361.676	307.51
362.057	331.46
362.439	317.22
362.821	309.77
363.203	315.87
363.584	337.79
363.966	298.47
364.348	307.28
364.729	313.83
365.111	282.87
365.493	298.47
365.874	319.71
366.256	302.53
366.637	309.99
367.019	327.39
367.4	308.86
367.781	301.63
368.163	324.91
368.544	303.66
368.925	307.96
369.306	316.32
369.688	316.09
370.069	307.96
370.45	299.82
370.831	305.25
371.212	318.58
371.593	288.98
371.974	319.71
372.355	298.69
372.736	314.51
373.117	298.24
373.498	313.38
373.879	319.26
374.26	302.31
374.641	313.83
375.021	312.93
375.402	309.99
375.783	312.25
376.163	321.52
376.544	329.2
376.925	329.2
377.305	316.77
377.686	318.13
378.066	326.94
378.447	332.59
378.827	331.46
379.208	319.48
379.588	312.48
379.968	319.94
380.349	323.1
380.729	327.17
381.109	310.22
381.489	314.74
381.87	311.57
382.25	327.39
382.63	332.59
383.01	322.19
383.39	315.87
383.77	326.26
384.15	350.89
384.53	315.87
384.91	336.43
385.29	343.21
385.67	344.12
386.049	327.39
386.429	363.32
386.809	338.92
387.189	345.47
387.568	348.18
387.948	340.5
388.328	349.54
388.707	339.37
389.087	351.35
389.466	351.35
389.846	359.93
390.225	358.58
390.605	354.74
390.984	356.32
391.363	364
391.743	374.85
392.122	366.04
392.501	345.02
392.881	356.09
393.26	348.18
393.639	369.65
394.018	350.44
394.397	338.01
394.776	369.88
395.155	368.97
395.534	373.72
395.913	361.74
396.292	368.52
396.671	369.65
397.05	384.79
397.429	389.99
397.808	359.71
398.186	369.88
398.565	385.02
398.944	350.44
399.323	360.61
399.701	386.83
400.08	383.44
400.458	366.71
400.837	381.4
401.215	391.57
401.594	386.15
401.972	378.46
402.351	387.5
402.729	374.85
403.107	394.74
403.486	391.35
403.864	397.22
404.242	394.51
404.62	403.55
404.999	404
405.377	392.7
405.755	408.75
406.133	416.66
406.511	394.51
406.889	410.78
407.267	424.11
407.645	424.57
408.023	419.82
408.401	407.62
408.779	421.85
409.156	427.05
409.534	419.37
409.912	442.87
410.29	420.95
410.667	416.66
411.045	427.05
411.422	437.9
411.8	433.15
412.178	437.67
412.555	443.55
412.933	444.68
413.31	443.32
413.687	460.04
414.065	461.17
414.442	452.81
414.819	458.24
415.197	468.86
415.574	459.82
415.951	456.65
416.328	487.61
416.705	463.43
417.082	488.52
417.46	488.07
417.837	493.94
418.214	474.28
418.591	492.36
418.967	482.19
419.344	502.98
419.721	511.79
420.098	483.32
420.475	494.17
420.852	519.03
421.228	527.61
421.605	507.73
421.982	526.26
422.358	508.63
422.735	518.35
423.111	535.97
423.488	531.45
423.864	538.46
424.241	553.38
424.617	526.71
424.994	530.1
425.37	538.46
425.746	545.47
426.123	528.52
426.499	553.83
426.875	555.18
427.251	566.71
427.627	567.84
428.003	564.45
428.379	562.41
428.756	564.67
429.132	579.36
429.507	583.43
429.883	578.46
430.259	603.32
430.635	593.37
431.011	630.66
431.387	647.38
431.763	637.89
432.138	622.53
432.514	640.6
432.89	636.99
433.265	639.25
433.641	637.21
434.016	653.26
434.392	623.88
434.767	661.17
435.143	654.62
435.518	691.68
435.894	676.08
436.269	693.03
436.644	699.36
437.02	691.45
437.395	706.37
437.77	684.45
438.145	693.03
438.52	711.34
438.895	686.03
439.271	717.89
439.646	716.08
440.021	740.49
440.395	740.26
440.77	739.81
441.145	738
441.52	752.92
441.895	740.04
442.27	765.57
442.645	736.65
443.019	758.79
443.394	769.64
443.769	759.25
444.143	779.58
444.518	788.17
444.892	770.54
445.267	779.58
445.641	777.1
446.016	795.85
446.39	805.12
446.764	793.59
447.139	806.48
447.513	797.21
447.887	782.07
448.262	796.08
448.636	818.23
449.01	803.76
449.384	820.03
449.758	810.77
450.132	798.34
450.506	844.67
450.88	845.57
451.254	843.54
451.628	851.45
452.002	852.8
452.376	851.45
452.75	885.34
453.123	875.4
453.497	883.99
453.871	888.73
454.244	907.49
454.618	918.56
454.992	912.24
455.365	901.84
455.739	936.19
456.112	946.13
456.486	932.8
456.859	945.68
457.232	936.42
457.606	974.38
457.979	976.87
458.352	971.67
458.725	1003.53
459.099	987.49
459.472	991.56
459.845	1015.06
460.218	1034.49
460.591	1043.31
460.964	1033.14
461.337	1050.76
461.71	1057.09
462.083	1076.3
462.456	1068.39
462.829	1094.83
463.201	1094.15
463.574	1130.54
463.947	1100.03
464.32	1136.64
464.692	1131.89
465.065	1139.8
465.438	1158.56
465.81	1152.91
466.183	1189.06
466.555	1205.79
466.928	1258.89
467.3	1233.13
467.672	1239.68
468.045	1267.03
468.417	1269.06
468.789	1293.69
469.161	1310.64
469.534	1297.08
469.906	1317.2
470.278	1353.35
470.65	1376.63
471.022	1372.34
471.394	1412.56
471.766	1421.15
472.138	1455.95
472.51	1490.98
472.882	1486.01
473.253	1498.66
473.625	1537.76
473.997	1521.49
474.369	1539.79
474.74	1587.92
475.112	1582.5
475.484	1659.33
475.855	1664.53
476.227	1692.1
476.598	1715.38
476.97	1753.34
477.341	1782.27
477.713	1831.76
478.084	1822.27
478.455	1844.64
478.827	1886
479.198	1936.62
479.569	1955.15
479.94	1987.91
480.311	2009.83
480.682	2064.75
481.053	2103.17
481.424	2136.16
481.795	2151.98
482.166	2204.41
482.537	2241.69
482.908	2278.75
483.279	2246.66
483.65	2327.34
484.021	2358.98
484.391	2411.41
484.762	2425.19
485.133	2428.58
485.503	2470.61
485.874	2551.97
486.244	2565.53
486.615	2604.17
486.985	2677.39
487.356	2700.44
487.726	2744.96
488.097	2804.62
488.467	2832.41
488.837	2874.22
489.207	2889.36
489.578	2927.55
489.948	2971.62
490.318	3019.53
490.688	3049.58
491.058	3073.54
491.428	3159.86
491.798	3162.12
492.168	3224.04
492.538	3216.81
492.908	3257.94
493.278	3300.65
493.648	3309.69
494.017	3382.23
494.387	3409.57
494.757	3404.37
495.126	3471.72
495.496	3457.25
495.866	3523.69
496.235	3579.28
496.605	3599.4
496.974	3584.93
497.344	3674.2
497.713	3640.75
498.082	3658.38
498.452	3720.98
498.821	3752.61
499.19	3781.31
499.559	3821.99
499.928	3829
500.298	3865.6
500.667	3889.11
501.036	3932.5
501.405	3925.94
501.774	3901.99
502.143	3936.11
502.512	3953.74
502.88	3987.86
503.249	4029.67
503.618	4068.76
503.987	4053.62
504.356	4112.83
504.724	4128.42
505.093	4141.53
505.462	4149.89
505.83	4203
506.199	4236.44
506.567	4231.02
506.936	4217.46
507.304	4250.68
507.672	4271.24
508.041	4361.41
508.409	4362.99
508.777	4344.01
509.145	4403.9
509.514	4387.4
509.882	4411.8
510.25	4418.36
510.618	4397.79
510.986	4499.26
511.354	4525.02
511.722	4566.83
512.09	4532.48
512.458	4560.73
512.826	4568.86
513.193	4611.12
513.561	4640.73
513.929	4651.12
514.297	4661.52
514.664	4665.81
515.032	4722.08
515.4	4718.69
515.767	4741.06
516.135	4751.68
516.502	4698.35
516.869	4832.36
517.237	4777.22
517.604	4826.94
517.972	4836.43
518.339	4868.06
518.706	4865.8
519.073	4864.22
519.44	4901.96
519.808	4908.74
520.175	4905.8
520.542	4972.92
520.909	4979.02
521.276	4996.87
521.643	5047.49
522.009	5049.3
522.376	5079.36
522.743	5114.16
523.11	5108.06
523.477	5134.95
523.843	5195.06
524.21	5266.47
524.577	5290.2
524.943	5301.05
525.31	5311.22
525.676	5323.42
526.043	5358.45
526.409	5405.45
526.776	5431.67
527.142	5465.34
527.508	5494.49
527.874	5504.43
528.241	5513.92
528.607	5517.99
528.973	5577.42
529.339	5584.66
529.705	5671.21
530.071	5677.76
530.437	5705.78
530.803	5723.41
531.169	5761.6
531.535	5712.34
531.901	5750.3
532.267	5801.15
532.632	5867.13
532.998	5873.46
533.364	5913.46
533.73	5915.49
534.095	5976.28
534.461	5961.59
534.826	5971.09
535.192	6038.88
535.557	6054.02
535.923	6078.88
536.288	6077.3
536.653	6110.07
537.019	6105.77
537.384	6126.56
537.749	6176.96
538.114	6201.81
538.479	6228.03
538.845	6263.96
539.21	6196.16
539.575	6278.42
539.94	6279.33
540.305	6343.51
540.67	6292.43
541.034	6415.37
541.399	6409.49
541.764	6446.33
542.129	6472.77
542.494	6467.34
542.858	6526.33
543.223	6501.24
543.587	6580.34
543.952	6579.88
544.316	6601.35
544.681	6655.59
545.045	6655.36
545.41	6721.57
545.774	6739.65
546.138	6732.65
546.503	6799.99
546.867	6779.65
547.231	6798.63
547.595	6839.76
547.959	6867.56
548.324	6854
548.688	6891.97
549.052	6939.87
549.416	6958.4
549.779	6995.69
550.143	6956.14
550.507	7046.54
550.871	7059.19
551.235	7073.66
551.599	7117.95
551.962	7109.59
552.326	7153.43
552.689	7148.91
553.053	7166.76
553.417	7166.76
553.78	7306.42
554.143	7273.88
554.507	7280.88
554.87	7363.59
555.234	7408.11
555.597	7328.56
555.96	7334.21
556.323	7398.85
556.686	7437.71
557.05	7468.22
557.413	7477.71
557.776	7463.48
558.139	7524.72
558.502	7598.84
558.865	7569.24
559.228	7634.09
559.59	7656.69
559.953	7645.17
560.316	7701.66
560.679	7709.8
561.041	7748.67
561.404	7830.02
561.767	7789.34
562.129	7765.62
562.492	7914.54
562.854	7831.83
563.217	7827.08
563.579	7933.07
563.941	7969.9
564.304	8004.93
564.666	8060.97
565.028	8108.88
565.39	8095.32
565.753	8142.1
566.115	8155.66
566.477	8163.34
566.839	8178.71
567.201	8240.18
567.563	8225.26
567.925	8334.64
568.287	8329.44
568.648	8316.34
569.01	8352.27
569.372	8438.14
569.734	8393.4
570.095	8484.92
570.457	8551.58
570.819	8510.45
571.18	8523.11
571.542	8564.24
571.903	8647.63
572.265	8733.95
572.626	8693.95
572.987	8733.05
573.349	8826.38
573.71	8819.37
574.071	8846.94
574.432	8877.68
574.794	9049.2
575.155	9007.16
575.516	9070.89
575.877	9219.14
576.238	9189.98
576.599	9364.44
576.96	9320.38
577.32	9396.53
577.681	9468.4
578.042	9599.47
578.403	9643.98
578.763	9714.49
579.124	9825
579.485	9937.31
579.845	10043.75
580.206	10085.33
580.566	10247.36
580.927	10304.31
581.287	10420.69
581.648	10452.32
582.008	10667.69
582.368	10662.49
582.728	10869.49
583.089	11088.69
583.449	11088.69
583.809	11387.67
584.169	11430.38
584.529	11575.01
584.889	11882.57
585.249	11999.63
585.609	12095.44
585.969	12298.15
586.329	12505.15
586.688	12574.3
587.048	12798.25
587.408	12991.24
587.768	13306.03
588.127	13375.86
588.487	13537.67
588.846	13896.3
589.206	14001.38
589.565	14235.73
589.925	14559.56
590.284	14749.84
590.643	14947.35
591.003	15207.45
591.362	15482.47
591.721	15756.59
592.08	15985.51
592.44	16232.29
592.799	16413.98
593.158	16713.4
593.517	17025.26
593.876	17165.37
594.235	17490.78
594.593	17744.79
594.952	18190.43
595.311	18254.15
595.67	18501.15
596.029	18846.45
596.387	19114.02
596.746	19465.19
597.104	19658.18
597.463	19799.42
597.822	20153.76
598.18	20376.36
598.538	20605.28
598.897	20996.68
599.255	21100.86
599.613	21649.32
599.972	21791.69
600.33	22073.49
600.688	22311.45
601.046	22579.01
601.404	22834.37
601.762	23062.61
602.12	23308.26
602.478	23593
602.836	23953.66
603.194	23964.96
603.552	24375.57
603.91	24475.01
604.268	24780.08
604.625	24899.63
604.983	25285.15
605.341	25402.44
605.698	25772.15
606.056	25978.92
606.413	26248.29
606.771	26454.39
607.128	26732.8
607.485	26750.43
607.843	27069.97
608.2	27380.01
608.557	27540.46
608.914	27686.9
609.272	28021.58
609.629	28273.55
609.986	28465.86
610.343	28483.49
610.7	28878.96
611.057	28945.62
611.414	29102.23
611.771	29323.69
612.127	29556.91
612.484	29617.02
612.841	29883.23
613.198	29988.31
613.554	30231.24
613.911	30502.64
614.267	30568.86
614.624	30696.76
614.98	30919.36
615.337	31199.12
615.693	31246.13
616.05	31294.49
616.406	31604.54
616.762	31642.05
617.118	31730.86
617.475	31914.13
617.831	32024.19
618.187	32317.74
618.543	32425.08
618.899	32603.61
619.255	32685.64
619.611	32855.12
619.967	32982.81
620.323	33183.7
620.678	33132.63
621.034	33125.17
621.39	33317.49
621.746	33226.87
622.101	33768.32
622.457	33505.96
622.812	33627.99
623.168	33920.18
623.523	33921.09
623.879	34032.04
624.234	33946.17
624.589	34210.12
624.945	34082.89
625.3	34435.2
625.655	34335.09
626.01	34468.42
626.365	34522.65
626.72	34579.83
627.075	34578.02
627.43	34773.04
627.785	34594.29
628.14	34811.68
628.495	34961.74
628.85	34936.88
629.205	34821.63
629.559	35071.79
629.914	35086.93
630.269	35008.29
630.623	34984.11
630.978	34950.89
631.332	35228.17
631.687	35217.1
632.041	35122.41
632.396	35139.13
632.75	35074.05
633.104	35162.86
633.459	35007.61
633.813	35166.93
634.167	35225.01
634.521	35147.27
634.875	35241.28
635.229	35274.04
635.583	35092.35
635.937	35160.15
636.291	35173.93
636.645	35340.03
636.999	35074.73
637.352	35295.51
637.706	35027.27
638.06	35226.14
638.413	35144.78
638.767	35030.43
639.121	35199.7
639.474	35028.4
639.828	35074.05
640.181	35217.55
640.534	35079.47
640.888	35181.62
641.241	34926.03
641.594	35032.47
641.947	35192.46
642.301	35014.16
642.654	35147.72
643.007	35183.88
643.36	35135.52
643.713	35093.48
644.066	35108.4
644.419	34966.26
644.771	34779.14
645.124	34518.81
645.477	34394.52
645.83	34215.09
646.182	34287.18
646.535	34018.48
646.888	34051.25
647.24	33936
647.593	34131.7
647.945	34134.87
648.298	34028.43
648.65	33847.19
649.002	33830.92
649.355	33980.07
649.707	33733.75
650.059	34068.65
650.411	34406.72
650.763	34390.45
651.115	34820.04
651.467	34656.21
651.819	34818.46
652.171	34635.64
652.523	34643.33
652.875	34645.13
653.227	34493.95
653.578	34677.45
653.93	34664.12
654.282	34498.47
654.633	34383.45
654.985	34417.57
655.337	34525.82
655.688	34492.6
656.039	34583.21
656.391	34418.25
656.742	34399.27
657.094	34409.89
657.445	34510.67
657.796	34457.34
658.147	34396.78
658.498	34406.27
658.849	34344.13
659.2	34383.67
659.551	34257.12
659.902	34510.67
660.253	34415.08
660.604	34366.72
660.955	34251.92
661.306	34397.46
661.656	34408.08
662.007	34320.4
662.358	34276.33
662.708	34333.73
663.059	34413.28
663.409	34081.08
663.76	34402.88
664.11	34320.4
664.461	34270.91
664.811	34458.02
665.161	34339.61
665.511	34438.13
665.862	34299.61
666.212	34506.15
666.562	34338.7
666.912	34229.55
667.262	34309.55
667.612	34212.15
667.962	34284.47
668.312	34200.85
668.662	34420.96
669.011	34345.71
669.361	34167.86
669.711	34058.03
670.06	34046.96
670.41	34217.57
670.76	34020.97
671.109	34145.94
671.459	34158.59
671.808	33960.86
672.157	34317.23
672.507	33969.22
672.856	33838.83
673.205	34004.47
673.554	34136.22
673.904	33994.3
674.253	34143.68
674.602	34044.7
674.951	33510.02
675.3	33405.62
675.649	33953.63
675.998	33881.76
676.346	33898.26
676.695	33940.07
677.044	33702.56
677.393	33860.3
677.741	33912.27
678.09	33872.05
678.438	33799.73
678.787	33791.6
679.135	33760.64
679.484	33604.48
679.832	33706.63
680.181	33472.96
680.529	33521.77
680.877	33501.89
681.225	33486.29
681.573	33800.64
681.922	33506.86
682.27	33400.87
682.618	33352.51
682.966	33400.2
683.314	33390.03
683.661	33215.57
684.009	33008.79
684.357	32994.78
684.705	32996.36
685.053	32991.62
685.4	32943.94
685.748	32875.46
686.095	32903.03
686.443	32691.06
686.79	32647.45
687.138	32757.05
687.485	32711.85
687.832	32669.59
688.18	32661.68
688.527	32426.21
688.874	32392.09
689.221	32394.12
689.568	32350.73
689.915	32243.62
690.262	32208.14
690.609	32132.88
690.956	32088.59
691.303	32054.24
691.65	31898.31
691.997	31799.11
692.344	31653.8
692.69	31609.96
693.037	31756.17
693.383	31405.45
693.73	31488.38
694.077	31423.07
694.423	31439.79
694.769	31124.1
695.116	31156.64
695.462	31213.59
695.808	31021.05
696.155	31156.64
696.501	30787.38
696.847	30808.17
697.193	30577.22
697.539	30769.53
697.885	30521.85
698.231	30423.1
698.577	30380.16
698.923	30214.97
699.269	30218.81
699.614	30115.54
699.96	30135.2
700.306	29973.39
700.651	29916.9
700.997	29677.58
701.342	29806.62
701.688	29814.3
702.033	29684.59
702.379	29642.1
702.724	29612.95
703.069	29653.18
703.415	29347.87
703.76	29391.71
704.105	29275.56
704.45	29249.34
704.795	28975
705.14	28927.32
705.485	29067.88
705.83	28860.65
706.175	28902.91
706.52	28812.29
706.865	28672.64
707.209	28657.04
707.554	28568.91
707.899	28634.22
708.243	28443.26
708.588	28373.66
708.932	28161.91
709.277	28163.27
709.621	28229.03
709.966	27977.06
710.31	28182.93
710.654	27904.52
710.998	27994.24
711.342	27861.58
711.687	27873.33
712.031	27723.96
712.375	27753.34
712.719	27754.02
713.063	27691.64
713.407	27671.53
713.75	27506.11
714.094	27553.34
714.438	27389.05
714.782	27431.99
715.125	27253.69
715.469	27377.3
715.812	27203.75
716.156	27146.35
716.499	27037.42
716.843	27052.11
717.186	26955.62
717.53	27222.73
717.873	26998.33
718.216	26923.08
718.559	26756.75
718.902	26614.38
719.246	26668.17
719.589	26621.62
719.932	26652.58
720.275	26550.21
720.617	26516.53
720.96	26503.2
721.303	26430.66
721.646	26429.08
721.989	26329.19
722.331	26344.11
722.674	26191.35
723.016	26167.39
723.359	26233.83
723.701	26278.8
724.044	26020.05
724.386	25948.41
724.729	26067.96
725.071	25927.85
725.413	25874.07
725.755	25855.53
726.097	25767.85
726.439	25575.09
726.782	25641.76
727.124	25804.46
727.465	25641.08
727.807	25579.84
728.149	25607.63
728.491	25542.55
728.833	25555.2
729.175	25443.57
729.516	25416.68
729.858	25450.8
730.199	25385.04
730.541	25404.02
730.882	25216.46
731.224	25341.42
731.565	25168.1
731.906	25166.51
732.248	25192.73
732.589	25019.4
732.93	24941.43
733.271	24958.38
733.612	24975.11
733.953	24978.04
734.294	24980.98
734.635	24953.86
734.976	25004.94
735.317	24835
735.658	24765.62
735.999	24834.54
736.339	24661.67
736.68	24841.32
737.021	24654.89
737.361	24587.77
737.702	24695.11
738.042	24614.89
738.383	24576.25
738.723	24451.05
739.063	24470.26
739.404	24473.65
739.744	24474.78
740.084	24293.09
740.424	24488.79
740.764	24239.53
741.104	24363.6
741.444	24228.01
741.784	24150.27
742.124	24215.35
742.464	24154.11
742.804	24095.13
743.143	24027.56
743.483	24044.51
743.823	23984.62
744.162	23887
744.502	24046.09
744.841	23903.72
745.181	24051.06
745.52	23834.57
745.86	23833.67
746.199	23912.08
746.538	23805.87
746.877	23823.5
747.216	23800.22
747.556	23856.04
747.895	23851.29
748.234	23611.3
748.573	23644.52
748.911	23503.05
749.25	23593.22
749.589	23395.94
749.928	23480.23
750.267	23437.52
750.605	23407.01
750.944	23286.34
751.283	23385.77
751.621	23285.21
751.96	23233
752.298	23139.22
752.636	23071.43
752.975	23083.63
753.313	23006.34
753.651	23115.95
753.989	23053.57
754.327	22841.15
754.666	22730.42
755.004	22826.01
755.342	22819.46
755.679	22736.97
756.017	22731.1
756.355	22650.42
756.693	22669.18
757.031	22636.18
757.368	22477.77
757.706	22470.99
758.044	22473.25
758.381	22510.09
758.719	22287.95
759.056	22436.19
759.394	22215.86
759.731	22160.49
760.068	22063.54
760.405	22067.84
760.743	21998.91
761.08	22026.71
761.417	21864.45
761.754	21868.07
762.091	21808.18
762.428	21548.98
762.765	21585.82
763.102	21682.76
763.438	21493.16
763.775	21465.59
764.112	21516.67
764.449	21401.87
764.785	21339.95
765.122	21202.32
765.458	21039.62
765.795	21087.07
766.131	21036.68
766.467	21033.97
766.804	20931.82
767.14	20920.52
767.476	20947.87
767.812	20798.27
768.148	20724.6
768.485	20668.1
768.821	20524.15
769.157	20427.65
769.492	20329.58
769.828	20259.3
770.164	20234.21
770.5	20220.2
770.836	20071.05
771.171	20020.21
771.507	20009.13
771.842	19838.97
772.178	19833.09
772.513	19746.99
772.849	19740.22
773.184	19599.65
773.519	19633.1
773.855	19583.38
774.19	19500.67
774.525	19373.9
774.86	19382.71
775.195	19339.32
775.53	19186.11
775.865	19151.08
776.2	18899.11
776.535	18946.79
776.87	18906.11
777.205	18753.35
777.539	18724.87
777.874	18752.44
778.209	18660.92
778.543	18558.33
778.878	18440.59
779.212	18420.02
779.547	18375.05
779.881	18370.53
780.215	18193.14
780.55	18336.41
780.884	18167.6
781.218	18026.59
781.552	18181.16
781.886	17949.53
782.22	17928.51
782.554	17856.65
782.888	17691
783.222	17615.53
783.556	17528.07
783.889	17558.13
784.223	17328.75
784.557	17462.31
784.89	17338.24
785.224	17218.93
785.557	17162.66
785.891	17187.97
786.224	17105.48
786.558	17063.45
786.891	16865.26
787.224	16834.3
787.557	16798.15
787.891	16811.93
788.224	16800.41
788.557	16866.62
788.89	16662.78
789.223	16665.04
789.556	16470.47
789.888	16449.68
790.221	16503.01
790.554	16302.11
790.887	16283.81
791.219	16182.12
791.552	16188.22
791.884	16098.28
792.217	16071.16
792.549	16052.4
792.882	15854.44
793.214	15793.65
793.546	15933.99
793.879	15724.05
794.211	15639.31
794.543	15657.38
794.875	15618.52
795.207	15610.38
795.539	15540.33
795.871	15514.79
796.203	15372.65
796.535	15319.09
796.867	15280.22
797.198	15234.57
797.53	15276.15
797.862	15102.6
798.193	15291.29
798.525	15035.48
798.856	15078.87
799.188	14991.87
799.519	14820.57
799.85	14881.13
800.182	14838.65
800.513	14826.22
800.844	14669.39
801.175	14752.32
801.506	14698.09
801.837	14663.96
802.168	14583.74
802.499	14522.95
802.83	14449.28
803.161	14429.62
803.491	14415.84
803.822	14440.47
804.153	14391.88
804.483	14177.42
804.814	14195.73
805.145	14172.23
805.475	14179.23
805.805	14041.83
806.136	14155.73
806.466	14050.87
806.796	13995.73
807.126	13871.9
807.457	13844.55
807.787	13922.52
808.117	13912.57
808.447	13793.93
808.777	13773.37
809.107	13738.34
809.436	13608.17
809.766	13781.05
810.096	13620.38
810.426	13598.23
810.755	13610.43
811.085	13586.25
811.414	13470.55
811.744	13483.66
812.073	13388.29
812.403	13301.29
812.732	13261.06
813.061	13309.2
813.39	13230.1
813.719	13186.49
814.049	13242.53
814.378	13148.98
814.707	13099.94
815.036	13075.31
815.365	13077.57
815.693	12987.62
816.022	12946.04
816.351	12866.27
816.68	12782.43
817.008	12868.76
817.337	12752.15
817.665	12725.94
817.994	12716.22
818.322	12704.02
818.651	12635.32
818.979	12605.49
819.307	12678.48
819.636	12695.43
819.964	12610.91
820.292	12585.38
820.62	12558.03
820.948	12499.5
821.276	12499.73
821.604	12465.83
821.932	12531.82
822.259	12473.29
822.587	12520.29
822.915	12453.63
823.243	12494.98
823.57	12444.59
823.898	12527.07
824.225	12414.08
824.553	12482.1
824.88	12498.6
825.207	12501.08
825.535	12450.92
825.862	12425.15
826.189	12471.03
826.516	12501.54
826.843	12466.96
827.17	12502.21
827.497	12490.01
827.824	12501.76
828.151	12491.59
828.478	12410.69
828.805	12537.01
829.131	12440.97
829.458	12388.54
829.785	12424.7
830.111	12431.71
830.438	12433.97
830.764	12404.82
831.09	12432.84
831.417	12392.39
831.743	12458.37
832.069	12343.57
832.395	12322.56
832.722	12424.48
833.048	12338.38
833.374	12291.82
833.7	12302.9
834.026	12396.23
834.351	12297.93
834.677	12255.67
835.003	12396
835.329	12354.19
835.654	12299.51
835.98	12154.65
836.306	12195.33
836.631	12147.42
836.956	12127.31
837.282	12137.25
837.607	12121.43
837.932	12080.08
838.258	12036.01
838.583	12054.32
838.908	11954.66
839.233	12025.16
839.558	11947.43
839.883	11895.68
840.208	11943.36
840.533	11968.44
840.858	11896.58
841.182	11915.56
841.507	11894.55
841.832	11828.56
842.156	11816.36
842.481	11787.88
842.805	11758.73
843.13	11708.11
843.454	11686.64
843.778	11655.46
844.103	11669.92
844.427	11692.52
844.751	11652.74
845.075	11497.72
845.399	11550.37
845.723	11528
846.047	11432.19
846.371	11403.94
846.695	11407.33
847.019	11295.24
847.343	11253.43
847.666	11172.31
847.99	11163.49
848.313	11165.07
848.637	11065.64
848.96	11081.46
849.284	11057.05
849.607	10990.84
849.931	10923.72
850.254	10877.62
850.577	10867.45
850.9	10724.86
851.223	10721.24
851.546	10712.43
851.869	10684.41
852.192	10677.63
852.515	10497.97
852.838	10588.59
853.161	10533.45
853.483	10486.45
853.806	10443.06
854.129	10340.91
854.451	10392.44
854.774	10304.76
855.096	10289.62
855.419	10270.63
855.741	10231.99
856.063	10174.82
856.385	10191.31
856.708	10156.29
857.03	10100.92
857.352	10091.43
857.674	10034.48
857.996	9986.12
858.318	9944.09
858.64	10064.31
858.961	9972.34
859.283	9847.14
859.605	9892.79
859.926	9876.75
860.248	9822.51
860.57	9762.62
860.891	9795.39
861.212	9740.25
861.534	9697.77
861.855	9745.68
862.176	9753.13
862.498	9721.95
862.819	9654.38
863.14	9661.61
863.461	9589.97
863.782	9594.95
864.103	9579.13
864.424	9528.28
864.745	9567.38
865.065	9475.4
865.386	9532.8
865.707	9545.46
866.027	9467.04
866.348	9459.81
866.668	9437.21
866.989	9521.73
867.309	9330.09
867.63	9371.45
867.95	9339.81
868.27	9345.23
868.59	9344.1
868.91	9330.77
869.23	9331
869.55	9298.91
869.87	9314.05
870.19	9294.84
870.51	9215.07
870.83	9265.91
871.15	9144.34
871.469	9155.18
871.789	9154.05
872.109	9232.47
872.428	9129.65
872.748	9102.3
873.067	9184.11
873.386	9104.56
873.706	9053.94
874.025	9029.76
874.344	9014.4
874.663	9019.59
874.982	8946.83
875.301	9003.32
875.62	8969.88
875.939	8909.54
876.258	8937.79
876.577	8958.8
876.896	8911.35
877.214	8933.49
877.533	8892.59
877.852	8915.19
878.17	8963.32
878.489	8837.9
878.807	8860.95
879.125	8874.29
879.444	8897.11
879.762	8820.28
880.08	8827.73
880.398	8764.68
880.716	8730.11
881.034	8714.97
881.352	8804.01
881.67	8676.78
881.988	8653.5
882.306	8637.68
882.624	8684.01
882.941	8603.79
883.259	8607.17
883.577	8602.43
883.894	8578.25
884.212	8564.46
884.529	8497.12
884.846	8449.66
885.164	8502.77
885.481	8402.43
885.798	8457.57
886.115	8399.72
886.432	8398.82
886.75	8384.81
887.067	8403.79
887.383	8377.12
887.7	8369.21
888.017	8274.75
888.334	8326.96
888.651	8306.17
888.967	8284.02
889.284	8204.93
889.6	8155.66
889.917	8121.76
890.233	8141.42
890.55	8146.85
890.866	8118.83
891.182	8065.95
891.498	8023.24
891.815	8037.02
892.131	8033.86
892.447	8031.14
892.763	7989.56
893.079	7988.43
893.395	7923.35
893.71	7917.93
894.026	7886.74
894.342	7893.07
894.657	7792.06
894.973	7797.48
895.289	7772.85
895.604	7834.99
895.92	7741.89
896.235	7751.6
896.55	7686.52
896.865	7663.47
897.181	7635.67
897.496	7604.04
897.811	7604.49
898.126	7551.84
898.441	7516.81
898.756	7414.44
899.071	7511.16
899.386	7463.02
899.7	7453.76
900.015	7413.31
900.33	7360.43
900.644	7305.74
900.959	7326.3
901.273	7261.22
901.588	7235.23
901.902	7213.09
902.216	7214.22
902.531	7163.14
902.845	7117.04
903.159	7094.45
903.473	7085.63
903.787	7095.58
904.101	7045.86
904.415	7026.43
904.729	6989.36
905.042	6955.01
905.356	6971.06
905.67	6898.07
905.984	6934
906.297	6808.35
906.611	6764.96
906.924	6853.32
907.237	6788.47
907.551	6770.61
907.864	6722.25
908.177	6740.78
908.491	6738.75
908.804	6650.39
909.117	6639.32
909.43	6657.17
909.743	6573.1
910.056	6558.87
910.368	6489.49
910.681	6515.25
910.994	6545.53
911.307	6447.23
911.619	6410.62
911.932	6478.87
912.244	6392.32
912.557	6333.79
912.869	6331.75
913.181	6260.12
913.494	6315.94
913.806	6224.64
914.118	6245.65
914.43	6203.4
914.742	6176.96
915.054	6139.67
915.366	6117.52
915.678	6121.36
915.99	6075.49
916.302	6057.86
916.613	6016.06
916.925	6014.25
917.236	5995.72
917.548	5950.07
917.859	5955.27
918.171	5875.72
918.482	5903.29
918.794	5823.29
919.105	5825.55
919.416	5810.41
919.727	5775.38
920.038	5829.17
920.349	5721.6
920.66	5700.58
920.971	5744.88
921.282	5671.21
921.593	5645.67
921.903	5581.49
922.214	5560.93
922.525	5542.4
922.835	5542.85
923.146	5519.35
923.456	5503.08
923.767	5499.23
924.077	5502.4
924.387	5445.22
924.697	5437.77
925.008	5372.68
925.318	5410.65
925.628	5392.8
925.938	5333.59
926.248	5285.45
926.558	5299.24
926.867	5260.37
927.177	5246.13
927.487	5153.93
927.796	5197.32
928.106	5182.41
928.416	5145.8
928.725	5146.7
929.034	5071.9
929.344	5129.07
929.653	5115.97
929.962	5044.33
930.271	4986.03
930.581	5027.83
930.89	5008.4
931.199	4951.23
931.508	4965.69
931.817	4971.56
932.125	4916.2
932.434	4912.58
932.743	4874.17
933.051	4806.14
933.36	4750.55
933.669	4789.87
933.977	4758.69
934.286	4795.52
934.594	4738.58
934.902	4718.46
935.21	4670.56
935.519	4659.26
935.827	4653.61
936.135	4589.2
936.443	4606.83
936.751	4595.98
937.059	4578.58
937.367	4558.02
937.674	4585.36
937.982	4538.58
938.29	4504.91
938.597	4506.72
938.905	4461.07
939.213	4391.92
939.52	4395.99
939.827	4438.47
940.135	4398.7
940.442	4363.44
940.749	4313.05
941.056	4390.56
941.363	4325.48
941.67	4302.2
941.977	4299.72
942.284	4251.36
942.591	4245.48
942.898	4187.86
943.205	4196.9
943.511	4231.92
943.818	4140.63
944.125	4107.86
944.431	4072.38
944.738	4097.24
945.044	4079.61
945.35	4067.18
945.657	4041.19
945.963	4035.54
946.269	4064.02
946.575	3999.39
946.881	4006.17
947.187	3978.14
947.493	3903.34
947.799	3946.96
948.105	3899.5
948.41	3911.25
948.716	3889.11
949.022	3859.73
949.327	3871.71
949.633	3827.87
949.938	3815.66
950.244	3821.31
950.549	3798.94
950.854	3805.95
951.16	3741.31
951.465	3734.08
951.77	3796.68
952.075	3702.22
952.38	3696.12
952.685	3725.27
952.99	3655.44
953.294	3647.53
953.599	3638.27
953.904	3597.59
954.209	3593.75
954.513	3598.94
954.818	3591.71
955.122	3562.56
955.426	3532.51
955.731	3508.55
956.035	3508.78
956.339	3547.65
956.643	3526.86
956.948	3465.84
957.252	3445.28
957.556	3405.73
957.86	3419.51
958.163	3450.02
958.467	3387.2
958.771	3384.94
959.075	3360.31
959.378	3368.44
959.682	3328.44
959.985	3306.3
960.289	3311.27
960.592	3283.47
960.896	3287.99
961.199	3279.86
961.502	3259.52
961.805	3268.11
962.108	3215.23
962.411	3240.08
962.714	3233.76
963.017	3165.28
963.32	3194.21
963.623	3175.91
963.926	3167.09
964.228	3142.91
964.531	3078.96
964.833	3096.59
965.136	3085.96
965.438	3089.35
965.741	3040.54
966.043	3072.18
966.345	3043.48
966.648	3015.23
966.95	3008.45
967.252	3008.45
967.554	2999.41
967.856	2954.67
968.158	2959.41
968.46	2933.2
968.761	2922.35
969.063	2909.25
969.365	2928.23
969.666	2898.62
969.968	2880.55
970.269	2879.42
970.571	2864.5
970.872	2878.74
971.174	2812.75
971.475	2831.06
971.776	2817.04
972.077	2805.29
972.378	2762.81
972.679	2803.26
972.98	2776.14
973.281	2728.01
973.582	2755.58
973.883	2735.01
974.183	2709.93
974.484	2714
974.785	2739.08
975.085	2669.03
975.386	2706.54
975.686	2657.05
975.986	2672.42
976.287	2652.76
976.587	2630.61
976.887	2602.36
977.187	2617.5
977.487	2643.04
977.787	2598.07
978.087	2578.41
978.387	2573.66
978.687	2562.81
978.987	2570.72
979.286	2518.52
979.586	2548.35
979.885	2491.63
980.185	2483.27
980.484	2505.64
980.784	2468.13
981.083	2438.3
981.382	2459.54
981.682	2474.68
981.981	2440.33
982.28	2420.9
982.579	2408.69
982.878	2405.76
983.177	2366.66
983.475	2391.29
983.774	2357.85
984.073	2365.31
984.372	2340.45
984.67	2345.87
984.969	2339.54
985.267	2345.19
985.566	2301.35
985.864	2299.54
986.162	2327.57
986.461	2267.45
986.759	2293.22
987.057	2258.19
987.355	2260.22
987.653	2228.36
987.951	2230.39
988.249	2239.21
988.547	2180
988.844	2196.72
989.142	2198.3
989.44	2188.59
989.737	2153.11
990.035	2158.3
990.332	2160.79
990.63	2130.96
990.927	2151.53
991.224	2120.79
991.521	2120.57
991.819	2108.59
992.116	2087.8
992.413	2081.92
992.71	2036.95
993.006	2076.73
993.303	2055.03
993.6	2001.92
993.897	2041.47
994.193	2006.44
994.49	2036.73
994.787	2004.64
995.083	1964.19
995.379	1996.5
995.676	2001.92
995.972	1953.34
996.268	1984.3
996.565	1938.65
996.861	1956.28
997.157	1926.22
997.453	1900.46
997.749	1940.01
998.044	1907.69
998.34	1863.85
998.636	1864.75
998.932	1874.47
999.227	1863.17
999.523	1845.54
999.818	1850.52
1000.114	1817.07
1000.409	1826.79
1000.704	1833.34
1001	1810.52
1001.295	1798.54
1001.59	1772.33
1001.885	1811.42
1002.18	1733.68
1002.475	1766.68
1002.77	1783.85
1003.065	1772.55
1003.359	1759.22
1003.654	1772.33
1003.949	1724.42
1004.243	1711.99
1004.538	1691.65
1004.832	1670.86
1005.127	1674.7
1005.421	1699.56
1005.715	1662.05
1006.009	1636.74
1006.304	1639.22
1006.598	1656.85
1006.892	1638.09
1007.186	1633.8
1007.48	1619.56
1007.773	1604.2
1008.067	1595.83
1008.361	1576.85
1008.655	1568.94
1008.948	1575.72
1009.242	1571.88
1009.535	1586.34
1009.829	1575.27
1010.122	1522.39
1010.415	1502.5
1010.708	1510.64
1011.001	1547.25
1011.295	1505.67
1011.588	1504.76
1011.881	1489.4
1012.173	1487.14
1012.466	1476.97
1012.759	1455.5
1013.052	1463.63
1013.344	1454.37
1013.637	1430.87
1013.93	1434.26
1014.222	1422.28
1014.514	1415.95
1014.807	1405.33
1015.099	1378.89
1015.391	1367.37
1015.683	1370.75
1015.976	1356.07
1016.268	1361.26
1016.56	1347.93
1016.851	1358.78
1017.143	1307.48
1017.435	1331.43
1017.727	1303.41
1018.018	1315.16
1018.31	1295.28
1018.602	1293.47
1018.893	1290.98
1019.185	1273.13
1019.476	1279.01
1019.767	1286.24
1020.058	1285.11
1020.35	1305.22
1020.641	1258.67
1020.932	1240.59
1021.223	1224.32
1021.514	1243.3
1021.804	1201.95
1022.095	1197.88
1022.386	1233.58
1022.677	1196.97
1022.967	1190.65
1023.258	1180.48
1023.548	1203.53
1023.839	1177.54
1024.129	1180.25
1024.419	1146.58
1024.709	1151.1
1025	1146.58
1025.29	1109.74
1025.58	1144.32
1025.87	1115.85
1026.16	1126.92
1026.449	1108.39
1026.739	1103.64
1027.029	1108.16
1027.319	1083.08
1027.608	1093.25
1027.898	1094.15
1028.187	1045.11
1028.477	1046.02
1028.766	1055.51
1029.055	1062.06
1029.344	1037.66
1029.634	1036.53
1029.923	1057.32
1030.212	1011.44
1030.501	1010.31
1030.79	1003.31
1031.078	1000.37
1031.367	989.97
1031.656	994.49
1031.945	983.87
1032.233	987.94
1032.522	985.68
1032.81	951.1
1033.099	953.59
1033.387	924.44
1033.675	939.58
1033.963	949.52
1034.251	929.64
1034.54	926.02
1034.828	911.78
1035.116	909.52
1035.403	916.3
1035.691	905
1035.979	888.96
1036.267	880.6
1036.554	928.28
1036.842	883.99
1037.129	875.63
1037.417	885.57
1037.704	863.2
1037.992	843.54
1038.279	863.88
1038.566	845.8
1038.853	845.8
1039.14	845.8
