Data from hue_30_FLMS001491_81.txt Node
Date: Mon Feb 06 15:06:11 GMT 2017
User: dcchb
Spectrometer: FLMS00149
Trigger mode: 0
Integration Time (sec): 2.000000E-2
Scans to average: 10
Electric dark correction enabled: true
Nonlinearity correction enabled: false
Boxcar width: 0
XAxis mode: Wavelengths
Number of Pixels in Spectrum: 2048
>>>>>Begin Spectral Data<<<<<
341.393	-29.18
341.776	-29.18
342.16	-29.18
342.543	-72.12
342.927	-63.76
343.31	-55.85
343.693	-86.13
344.077	-63.08
344.46	-51.1
344.843	-58.78
345.226	-41.38
345.61	-34.38
345.993	-18.33
346.376	9.91
346.759	13.3
347.142	26.19
347.525	21.89
347.908	60.08
348.291	75.68
348.674	93.08
349.057	108.9
349.44	124.26
349.823	144.37
350.206	155.67
350.588	199.29
350.971	227.08
351.354	217.82
351.737	218.27
352.119	268.21
352.502	266.63
352.884	275.67
353.267	299.62
353.65	313.86
354.032	307.53
354.414	328.1
354.797	329.45
355.179	340.3
355.562	344.37
355.944	352.5
356.326	318.61
356.709	352.5
357.091	347.08
357.473	335.56
357.855	342.11
358.238	354.76
358.62	343.01
359.002	343.69
359.384	352.73
359.766	351.15
360.148	356.35
360.53	347.31
360.912	327.87
361.294	332.39
361.676	357.93
362.057	342.11
362.439	324.48
362.821	342.79
363.203	335.33
363.584	342.11
363.966	341.88
364.348	320.64
364.729	324.26
365.111	338.72
365.493	350.02
365.874	343.01
366.256	313.86
366.637	309.34
367.019	300.08
367.4	316.8
367.781	319.06
368.163	321.55
368.544	315.67
368.925	320.19
369.306	325.84
369.688	332.39
370.069	318.16
370.45	344.82
370.831	329.45
371.212	329.91
371.593	343.69
371.974	321.55
372.355	333.3
372.736	318.61
373.117	332.62
373.498	328.78
373.879	322
374.26	335.33
374.641	332.84
375.021	338.27
375.402	324.26
375.783	319.51
376.163	343.47
376.544	363.35
376.925	330.81
377.305	328.1
377.686	347.08
378.066	359.06
378.447	344.37
378.827	341.43
379.208	340.3
379.588	354.54
379.968	354.31
380.349	336.23
380.729	334.43
381.109	347.99
381.489	360.19
381.87	359.51
382.25	326.74
382.63	354.54
383.01	360.41
383.39	361.32
383.77	350.25
384.15	343.01
384.53	337.14
384.91	370.58
385.29	367.65
385.67	378.94
386.049	360.87
386.429	357.48
386.809	354.54
387.189	371.94
387.568	369.23
387.948	383.24
388.328	392.73
388.707	368.1
389.087	374.2
389.466	370.36
389.846	380.3
390.225	385.5
390.605	377.14
390.984	375.56
391.363	388.44
391.743	398.15
392.122	390.92
392.501	388.66
392.881	387.76
393.26	395.67
393.639	386.4
394.018	388.66
394.397	388.21
394.776	390.92
395.155	410.58
395.534	407.19
395.913	397.93
396.292	425.27
396.671	420.98
397.05	409.45
397.429	406.06
397.808	408.55
398.186	400.64
398.565	394.31
398.944	409.68
399.323	421.2
399.701	426.63
400.08	416.23
400.458	399.28
400.837	416.68
401.215	424.59
401.594	419.85
401.972	427.76
402.351	419.62
402.729	434.31
403.107	446.74
403.486	443.8
403.864	458.04
404.242	402.22
404.62	449.68
404.999	438.38
405.377	435.67
405.755	459.17
406.133	471.37
406.511	479.51
406.889	470.69
407.267	468.21
407.645	476.8
408.023	468.21
408.401	470.47
408.779	463.24
409.156	469.79
409.534	488.55
409.912	492.16
410.29	474.99
410.667	482.9
411.045	485.61
411.422	482.44
411.8	486.74
412.178	493.52
412.555	487.64
412.933	505.95
413.31	512.95
413.687	506.4
414.065	505.95
414.442	529
414.819	519.51
415.197	517.02
415.574	541.65
415.951	519.51
416.328	529.68
416.705	556.57
417.082	529.9
417.46	572.16
417.837	545.72
418.214	549.79
418.591	574.87
418.967	547.75
419.344	576.23
419.721	578.49
420.098	584.36
420.475	599.28
420.852	582.56
421.228	608.32
421.605	598.15
421.982	622.78
422.358	585.04
422.735	620.52
423.111	574.65
423.488	605.61
423.864	618.49
424.241	593.18
424.617	595.44
424.994	604.93
425.37	622.1
425.746	630.24
426.123	648.32
426.499	624.81
426.875	627.07
427.251	649.9
427.627	657.13
428.003	639.28
428.379	670.91
428.756	674.98
429.132	688.99
429.507	679.5
429.883	667.52
430.259	681.31
430.635	701.87
431.011	670.69
431.387	711.82
431.763	718.6
432.138	716.79
432.514	716.11
432.89	714.08
433.265	722.89
433.641	713.4
434.016	722.89
434.392	756.79
434.767	775.77
435.143	765.83
435.518	767.41
435.894	799.95
436.269	772.15
436.644	805.37
437.02	779.16
437.395	801.98
437.77	837.24
438.145	808.99
438.52	850.8
438.895	841.08
439.271	822.32
439.646	872.72
440.021	867.52
440.395	863.45
440.77	844.7
441.145	868.88
441.52	869.1
441.895	913.62
442.27	853.73
442.645	854.41
443.019	899.16
443.394	900.97
443.769	906.61
444.143	897.12
444.518	907.74
444.892	923.56
445.267	937.12
445.641	935.77
446.016	949.55
446.39	922.66
446.764	941.64
447.139	951.36
447.513	931.92
447.887	967.63
448.262	956.33
448.636	961.08
449.01	957.46
449.384	987.29
449.758	979.38
450.132	1002.43
450.506	1004.24
450.88	1005.14
451.254	1006.27
451.628	1016.44
452.002	1025.93
452.376	1023.22
452.75	1059.6
453.123	1059.38
453.497	1074.29
453.871	1069.55
454.244	1098.7
454.618	1136.44
454.992	1098.47
455.365	1091.69
455.739	1126.72
456.112	1135.31
456.486	1148.64
456.859	1170.56
457.232	1180.05
457.606	1180.05
457.979	1198.13
458.352	1213.95
458.725	1232.48
459.099	1241.75
459.472	1256.89
459.845	1248.53
460.218	1252.14
460.591	1269.54
460.964	1324.68
461.337	1309.99
461.71	1332.59
462.083	1346.6
462.456	1357.45
462.829	1389.77
463.201	1371.01
463.574	1394.74
463.947	1393.83
464.32	1455.3
464.692	1425.25
465.065	1475.41
465.438	1468.63
465.81	1515.86
466.183	1518.8
466.555	1536.43
466.928	1531.46
467.3	1580.04
467.672	1568.52
468.045	1598.12
468.417	1632.7
468.789	1632.7
469.161	1646.48
469.534	1673.37
469.906	1728.29
470.278	1741.39
470.65	1761.96
471.022	1787.95
471.394	1806.7
471.766	1830.43
472.138	1865.01
472.51	1900.03
472.882	1950.2
473.253	1970.99
473.625	2022.97
473.997	2026.59
474.369	2040.37
474.74	2088.28
475.112	2106.13
475.484	2167.6
475.855	2194.49
476.227	2243.98
476.598	2272
476.97	2312.91
477.341	2340.02
477.713	2384.77
478.084	2470.42
478.455	2511.32
478.827	2567.81
479.198	2640.58
479.569	2616.85
479.94	2696.4
480.311	2767.36
480.682	2855.04
481.053	2908.6
481.424	2935.49
481.795	2975.49
482.166	3070.4
482.537	3048.03
482.908	3157.4
483.279	3271.07
483.65	3257.29
484.021	3380.45
484.391	3412.54
484.762	3456.83
485.133	3512.87
485.503	3561.01
485.874	3688.91
486.244	3716.94
486.615	3772.75
486.985	3897.04
487.356	3941.56
487.726	3980.43
488.097	4077.15
488.467	4112.86
488.837	4240.09
489.207	4300.88
489.578	4370.25
489.948	4450.93
490.318	4553.75
490.688	4504.49
491.058	4656.12
491.428	4751.26
491.798	4796
492.168	4906.06
492.538	4941.54
492.908	5015.43
493.278	5125.03
493.648	5072.38
494.017	5192.15
494.387	5284.35
494.757	5308.76
495.126	5402.32
495.496	5428.3
495.866	5481.86
496.235	5578.58
496.605	5610.9
496.974	5684.34
497.344	5727.96
497.713	5804.56
498.082	5832.13
498.452	5959.14
498.821	5986.03
499.19	6035.29
499.559	6108.06
499.928	6174.05
500.298	6146.02
500.667	6255.85
501.036	6299.92
501.405	6296.3
501.774	6370.88
502.143	6442.51
502.512	6482.97
502.88	6570.42
503.249	6567.26
503.618	6626.69
503.987	6649.97
504.356	6748.04
504.724	6758.44
505.093	6755.73
505.462	6822.39
505.83	6924.99
506.199	6967.25
506.567	6993.69
506.936	7064.19
507.304	7095.38
507.672	7151.42
508.041	7160.69
508.409	7219.89
508.777	7296.73
509.145	7319.1
509.514	7337.18
509.882	7343.51
510.25	7447.01
510.618	7527.23
510.986	7516.16
511.354	7574.69
511.722	7645.65
512.09	7736.49
512.458	7632.09
512.826	7796.83
513.193	7758.64
513.561	7824.85
513.929	7903.94
514.297	7917.73
514.664	7986.43
515.032	7955.24
515.4	8144.39
515.767	8070.49
516.135	8130.38
516.502	8092.87
516.869	8205.86
517.237	8324.72
517.604	8284.5
517.972	8329.24
518.339	8414.44
518.706	8396.14
519.073	8434.78
519.44	8509.58
519.808	8586.19
520.175	8577.83
520.542	8658.95
520.909	8726.97
521.276	8716.35
521.643	8812.85
522.009	8808.1
522.376	8801.32
522.743	8850.36
523.11	9008.1
523.477	9068.21
523.843	9096
524.21	9166.28
524.577	9194.53
524.943	9239.05
525.31	9315.21
525.676	9384.81
526.043	9455.32
526.409	9456.45
526.776	9580.06
527.142	9609.21
527.508	9633.62
527.874	9637.68
528.241	9819.37
528.607	9738.47
528.973	9815.31
529.339	9804.46
529.705	9922.87
530.071	10042.19
530.437	10062.31
530.803	10135.98
531.169	10142.08
531.535	10211.68
531.901	10185.47
532.267	10320.83
532.632	10311.11
532.998	10349.08
533.364	10433.14
533.73	10454.61
534.095	10584.1
534.461	10606.7
534.826	10567.6
535.192	10674.95
535.557	10784.55
535.923	10757.65
536.288	10793.59
536.653	10879.46
537.019	10820.25
537.384	10891.66
537.749	11049.4
538.114	11018.21
538.479	11066.35
538.845	11113.35
539.21	11110.41
539.575	11172.56
539.94	11226.34
540.305	11284.19
540.67	11313.8
541.034	11256.85
541.399	11406.68
541.764	11396.28
542.129	11513.12
542.494	11536.17
542.858	11604.86
543.223	11577.29
543.587	11779.55
543.952	11658.42
544.316	11660.23
544.681	11758.08
545.045	11794.46
545.41	11890.96
545.774	11908.13
546.138	11972.76
546.503	11941.35
546.867	12001.92
547.231	12136.83
547.595	12182.02
547.959	12204.62
548.324	12217.05
548.688	12361.23
549.052	12255.47
549.416	12316.71
549.779	12340.44
550.143	12377.27
550.507	12511.73
550.871	12570.04
551.235	12589.25
551.599	12632.41
551.962	12678.51
552.326	12674.89
552.689	12824.04
553.053	12778.62
553.417	12843.02
553.78	12963.47
554.143	12945.62
554.507	13012.06
554.87	12981.78
555.234	13101.32
555.597	12995.79
555.96	13102
556.323	13130.93
556.686	13163.02
557.05	13303.12
557.413	13308.55
557.776	13356.23
558.139	13471.71
558.502	13477.13
558.865	13570.01
559.228	13571.82
559.59	13628.31
559.953	13608.88
560.316	13692.27
560.679	13780.17
561.041	13822.89
561.404	13888.65
561.767	13949.44
562.129	13976.1
562.492	14033.28
562.854	14078.7
563.217	14020.39
563.579	14107.85
563.941	14104.69
564.304	14230.11
564.666	14353.72
565.028	14286.38
565.39	14378.58
565.753	14433.94
566.115	14469.87
566.477	14551.68
566.839	14580.15
567.201	14716.87
567.563	14714.16
567.925	14843.65
568.287	14757.55
568.648	14860.37
569.01	14934.27
569.372	15030.54
569.734	15021.95
570.095	15080.03
570.457	15144.21
570.819	15201.15
571.18	15267.59
571.542	15409.96
571.903	15319.79
572.265	15520.24
572.626	15620.58
572.987	15557.3
573.349	15644.31
573.71	15756.39
574.071	15811.76
574.432	15891.76
574.794	16049.72
575.155	16048.36
575.516	16126.55
575.877	16217.17
576.238	16272.31
576.599	16391.41
576.96	16564.51
577.32	16599.54
577.681	16762.02
578.042	16760.21
578.403	16964.5
578.763	17003.82
579.124	17140.54
579.485	17312.28
579.845	17522.22
580.206	17580.75
580.566	17684.25
580.927	17856.23
581.287	18126.95
581.648	18074.98
582.008	18389.32
582.368	18420.73
582.728	18668.63
583.089	18772.81
583.449	18967.16
583.809	19173.25
584.169	19460.7
584.529	19530.53
584.889	19937.07
585.249	20047.13
585.609	20114.02
585.969	20520.34
586.329	20673.78
586.688	20981.79
587.048	21146.53
587.408	21323.7
587.768	21692.73
588.127	21901.09
588.487	22006.85
588.846	22560.96
589.206	22508.31
589.565	22821.07
589.925	23164.56
590.284	23380.37
590.643	23603.87
591.003	23983.97
591.362	24348.94
591.721	24535.82
592.08	24683.84
592.44	25188.46
592.799	25455.35
593.158	25765.17
593.517	25929.46
593.876	26207.19
594.235	26491.03
594.593	26823.45
594.952	27187.96
595.311	27446.71
595.67	27767.15
596.029	28033.13
596.387	28390.19
596.746	28665.21
597.104	28887.35
597.463	29008.93
597.822	29696.82
598.18	29781.79
598.538	30056.81
598.897	30475.78
599.255	30514.65
599.613	31167.29
599.972	31244.35
600.33	31565.24
600.688	31696.77
601.046	32105.79
601.404	32433.47
601.762	32578.1
602.12	32964.75
602.478	33297.85
602.836	33446.55
603.194	33578.75
603.552	33945.07
603.91	33941.45
604.268	34499.4
604.625	34540.76
604.983	34948.88
605.341	34970.58
605.698	35435.88
606.056	35582.99
606.413	35670.9
606.771	36048.74
607.128	36240.37
607.485	36384.33
607.843	36538.22
608.2	37048.49
608.557	37353.57
608.914	37300.91
609.272	37704.97
609.629	37993.32
609.986	38222.24
610.343	38281
610.7	38617.26
611.057	38736.58
611.414	38928.44
611.771	38993.52
612.127	39306.28
612.484	39527.75
612.841	39756.89
613.198	39789.66
613.554	39902.65
613.911	40215.64
614.267	40235.3
614.624	40376.99
614.98	40685.46
615.337	40880.7
615.693	40991.66
616.05	41090.19
616.406	41513.91
616.762	41466.45
617.118	41480.01
617.475	41568.14
617.831	41855.59
618.187	41872.77
618.543	42099.66
618.899	42405.41
619.255	42442.7
619.611	42516.82
619.967	42809.69
620.323	42876.81
620.678	42950.93
621.034	42801.56
621.39	42984.6
621.746	42899.41
622.101	43399.73
622.457	43239.96
622.812	43357.48
623.168	43491.48
623.523	43505.04
623.879	43673.85
624.234	43618.49
624.589	43743.45
624.945	43910.68
625.3	44006.27
625.655	43917.24
626.01	44021.64
626.365	44102.99
626.72	44095.54
627.075	44154.07
627.43	44331.69
627.785	44331.91
628.14	44536.65
628.495	44517.22
628.85	44537.33
629.205	44374.4
629.559	44725.35
629.914	44463.44
630.269	44573.49
630.623	44462.53
630.978	44540.5
631.332	44652.81
631.687	44809.42
632.041	44652.13
632.396	44708.85
632.75	44611.91
633.104	44723.99
633.459	44562.87
633.813	44635.63
634.167	44497.11
634.521	44555.18
634.875	44643.54
635.229	44696.88
635.583	44507.05
635.937	44592.7
636.291	44693.49
636.645	44640.61
636.999	44537.78
637.352	44630.21
637.706	44453.04
638.06	44726.03
638.413	44491.01
638.767	44495.52
639.121	44500.5
639.474	44323.33
639.828	44416.21
640.181	44438.35
640.534	44443.32
640.888	44490.33
641.241	44347.96
641.594	44412.82
641.947	44288.75
642.301	44334.4
642.654	44425.92
643.007	44426.6
643.36	44148.87
643.713	44206.27
644.066	44426.37
644.419	44272.71
644.771	43924.24
645.124	43598.6
645.477	43491.94
645.83	43294.2
646.182	43090.59
646.535	43006.52
646.888	43023.7
647.24	42950.48
647.593	43123.36
647.945	42993.64
648.298	42896.47
648.65	42755.68
649.002	42796.36
649.355	42978.73
649.707	42696.48
650.059	42958.16
650.411	43436.34
650.763	43478.83
651.115	43942.32
651.467	43840.85
651.819	43855.09
652.171	43727.41
652.523	43707.07
652.875	43661.65
653.227	43564.02
653.578	43868.87
653.93	43661.42
654.282	43533.97
654.633	43339.4
654.985	43457.13
655.337	43518.83
655.688	43402.22
656.039	43643.12
656.391	43283.81
656.742	43361.09
657.094	43458.94
657.445	43541.2
657.796	43320.19
658.147	43360.64
658.498	43241.55
658.849	43355.67
659.2	43340.08
659.551	43300.98
659.902	43297.82
660.253	43291.71
660.604	43384.82
660.955	43130.14
661.306	43262.79
661.656	43339.4
662.007	43241.32
662.358	43283.81
662.708	43072.06
663.059	43246.74
663.409	43033.19
663.76	43174.88
664.11	43204.49
664.461	43231.15
664.811	43272.05
665.161	43162.68
665.511	43106.63
665.862	43225.5
666.212	43305.27
666.562	43393.18
666.912	43182.11
667.262	43104.38
667.612	43059.4
667.962	43168.78
668.312	43034.32
668.662	43217.59
669.011	43171.49
669.361	43140.08
669.711	43077.94
670.06	42925.85
670.41	43034.32
670.76	42842.01
671.109	43015.79
671.459	42945.28
671.808	42850.82
672.157	42973.98
672.507	42592.07
672.856	42762.69
673.205	42832.29
673.554	42856.47
673.904	42823.25
674.253	42857.38
674.602	42920.65
674.951	42370.38
675.3	42103.27
675.649	42849.01
675.998	42744.38
676.346	42752.97
676.695	42891.27
677.044	42512.07
677.393	42629.13
677.741	42746.42
678.09	42617.83
678.438	42388.69
678.787	42660.32
679.135	42612.86
679.484	42345.98
679.832	42483.37
680.181	42168.35
680.529	42353.89
680.877	42119.99
681.225	42182.59
681.573	42408.12
681.922	41993.9
682.27	42007.23
682.618	41905.54
682.966	41952.77
683.314	41984.86
683.661	41826.67
684.009	41713.23
684.357	41673.45
684.705	41417.41
685.053	41614.92
685.4	41466.9
685.748	41285.89
686.095	41348.26
686.443	41194.37
686.79	41082.06
687.138	41192.56
687.485	41207.02
687.832	41142.39
688.18	41077.76
688.527	40728.17
688.874	40806.13
689.221	40778.33
689.568	40743.53
689.915	40632.8
690.262	40573.59
690.609	40422.19
690.956	40367.27
691.303	40359.14
691.65	40290.66
691.997	40101.29
692.344	40004.8
692.69	39912.59
693.037	39847.29
693.383	39643
693.73	39667.4
694.077	39648.87
694.423	39591.02
694.769	39413.62
695.116	39371.82
695.462	39272.16
695.808	39116.91
696.155	39172.28
696.501	38899.51
696.847	39015.44
697.193	38654.1
697.539	38734.32
697.885	38517.15
698.231	38430.83
698.577	38328.91
698.923	38359.19
699.269	38123.49
699.614	38016.15
699.96	38051.63
700.306	37850.73
700.651	37790.84
700.997	37669.04
701.342	37671.3
701.688	37571.19
702.033	37425.65
702.379	37342.72
702.724	37299.56
703.069	37415.94
703.415	36904.76
703.76	36931.88
704.105	37019.56
704.45	36891.21
704.795	36564.43
705.14	36657.09
705.485	36540.03
705.83	36523.08
706.175	36436.75
706.52	36391.33
706.865	36260.94
707.209	36177.78
707.554	36106.14
707.899	36193.37
708.243	35991.79
708.588	35815.98
708.932	35642.65
709.277	35766.94
709.621	35681.29
709.966	35470
710.31	35654.85
710.654	35201.76
710.998	35286.95
711.342	35211.7
711.687	35190.68
712.031	35031.59
712.375	34897.81
712.719	35008.99
713.063	34951.6
713.407	35114.98
713.75	34780.98
714.094	34697.14
714.438	34580.08
714.782	34698.95
715.125	34489.23
715.469	34607.42
715.812	34209.24
716.156	34119.98
716.499	34154.1
716.843	34253.99
717.186	34020.09
717.53	34154.33
717.873	34109.13
718.216	34179.19
718.559	33913.88
718.902	33673.66
719.246	33788.01
719.589	33733.55
719.932	33547.56
720.275	33538.3
720.617	33559.09
720.96	33440.9
721.303	33456.72
721.646	33476.83
721.989	33180.57
722.331	33256.5
722.674	33211.08
723.016	33239.78
723.359	33177.86
723.701	33200.23
724.044	32959.33
724.386	32901.48
724.729	32976.96
725.071	32848.83
725.413	32743.97
725.755	32829.62
726.097	32600.02
726.439	32434.37
726.782	32336.3
727.124	32623.97
727.465	32502.39
727.807	32424.43
728.149	32258.33
728.491	32304.89
728.833	32395.05
729.175	32174.27
729.516	32168.39
729.858	32108.73
730.199	32271.44
730.541	32143.53
730.882	31988.51
731.224	32020.15
731.565	31746.03
731.906	31889.75
732.248	31851.11
732.589	31706.71
732.93	31586.49
733.271	31733.15
733.612	31631.23
733.953	31667.16
734.294	31556.2
734.635	31435.76
734.976	31426.49
735.317	31342.2
735.658	31347.62
735.999	31314.63
736.339	31282.99
736.68	31269.43
737.021	31227.85
737.361	31071.25
737.702	31322.31
738.042	31069.66
738.383	30967.97
738.723	31204.35
739.063	30851.14
739.404	30913.51
739.744	30937.69
740.084	30689.11
740.424	30917.35
740.764	30726.62
741.104	30850.01
741.444	30616.57
741.784	30472.84
742.124	30607.98
742.464	30516.68
742.804	30431.71
743.143	30428.78
743.483	30305.62
743.823	30271.94
744.162	30220.42
744.502	30285.05
744.841	30114.89
745.181	30297.25
745.52	30069.46
745.86	30086.86
746.199	30102.01
746.538	29979.3
746.877	30025.85
747.216	29886.42
747.556	29864.05
747.895	29924.61
748.234	29775.23
748.573	29641
748.911	29655.69
749.25	29661.11
749.589	29497.95
749.928	29583.6
750.267	29634.22
750.605	29477.16
750.944	29403.27
751.283	29305.87
751.621	29415.02
751.96	29163.05
752.298	29210.96
752.636	29166.44
752.975	29074.69
753.313	28977.06
753.651	29209.83
753.989	28927.57
754.327	28836.05
754.666	28617.3
755.004	28746.11
755.342	28799.44
755.679	28785.43
756.017	28607.58
756.355	28635.83
756.693	28509.5
757.031	28514.02
757.368	28413.24
757.706	28301.15
758.044	28284.2
758.381	28338.44
758.719	28153.81
759.056	28166.46
759.394	28111.32
759.731	27940.71
760.068	27959.24
760.405	27756.08
760.743	27652.58
761.08	27677.66
761.417	27536.87
761.754	27508.18
762.091	27467.95
762.428	27470.89
762.765	27221.18
763.102	27356.77
763.438	27133.72
763.775	27064.8
764.112	26952.94
764.449	27109.99
764.785	26861.64
765.122	26824.35
765.458	26672.72
765.795	26486.05
766.131	26453.29
766.467	26392.95
766.804	26388.43
767.14	26249.23
767.476	26122.67
767.812	26019.4
768.148	26217.14
768.485	25889.23
768.821	25752.29
769.157	25783.7
769.492	25650.6
769.828	25656.47
770.164	25377.16
770.5	25318.4
770.836	25288.12
771.171	25147.11
771.507	25147.33
771.842	24919.99
772.178	25105.75
772.513	24863.5
772.849	24855.82
773.184	24751.64
773.519	24790.96
773.855	24603.39
774.19	24522.04
774.525	24426
774.86	24378.31
775.195	24323.85
775.53	24224.65
775.865	24090.19
776.2	23990.08
776.535	23791.21
776.87	23818.33
777.205	23750.53
777.539	23614.27
777.874	23692.68
778.209	23389.41
778.543	23359.58
778.878	23360.71
779.212	23276.65
779.547	23069.65
779.881	23179.7
780.215	23058.57
780.55	22999.59
780.884	22926.37
781.218	22756.44
781.552	22673.05
781.886	22594.63
782.22	22522.54
782.554	22445.48
782.888	22306.73
783.222	22216.34
783.556	22078.04
783.889	22070.13
784.223	21894.99
784.557	21838.72
784.89	21729.57
785.224	21761.89
785.557	21625.84
785.891	21544.72
786.224	21512.63
786.558	21504.04
786.891	21310.15
787.224	21220.2
787.557	21200.77
787.891	21178.4
788.224	21122.58
788.557	21094.56
788.89	20936.82
789.223	20897.73
789.556	20837.84
789.888	20723.95
790.221	20594.46
790.554	20516.95
790.887	20561.47
791.219	20409.83
791.552	20394.24
791.884	20299.1
792.217	20230.85
792.549	20103.85
792.882	20050.29
793.214	20146.56
793.546	19932.1
793.879	19859.79
794.211	19728.49
794.543	19789.51
794.875	19731.2
795.207	19665.9
795.539	19577.08
795.871	19634.94
796.203	19441.27
796.535	19280.82
796.867	19243.08
797.198	19105.68
797.53	19160.82
797.862	19028.4
798.193	19192.69
798.525	19068.4
798.856	19059.81
799.188	18886.25
799.519	18742.76
799.85	18625.02
800.182	18615.08
800.513	18672.93
800.844	18515.87
801.175	18597.45
801.506	18468.41
801.837	18429.32
802.168	18429.32
802.499	18301.86
802.83	18199.49
803.161	18170.57
803.491	18230.68
803.822	18108.87
804.153	18011.02
804.483	17891.93
804.814	17854.87
805.145	17877.24
805.475	17896.45
805.805	17729.22
806.136	17703.91
806.466	17749.79
806.796	17690.81
807.126	17540.53
807.457	17511.15
807.787	17316.58
808.117	17458.95
808.447	17361.55
808.777	17364.49
809.107	17271.38
809.436	17255.79
809.766	17207.2
810.096	17110.48
810.426	17052.18
810.755	17172.85
811.085	17077.94
811.414	16928.57
811.744	16905.74
812.073	16944.84
812.403	16829.59
812.732	16724.28
813.061	16694.45
813.39	16567.22
813.719	16627.78
814.049	16635.69
814.378	16580.33
814.707	16483.83
815.036	16453.55
815.365	16381.01
815.693	16175.14
816.022	16272.76
816.351	16157.96
816.68	16156.16
817.008	16164.29
817.337	16071.19
817.665	16015.37
817.994	16061.24
818.322	15999.78
818.651	15909.16
818.979	15814.92
819.307	15920.91
819.636	15887.69
819.964	15761.37
820.292	15789.61
820.62	15753.23
820.948	15798.88
821.276	15815.83
821.604	15732.21
821.932	15763.17
822.259	15742.61
822.587	15748.03
822.915	15666.23
823.243	15735.83
823.57	15621.26
823.898	15678.43
824.225	15667.13
824.553	15619.22
824.88	15649.73
825.207	15613.35
825.535	15629.17
825.862	15674.36
826.189	15481.37
826.516	15670.07
826.843	15657.41
827.17	15633.91
827.497	15696.73
827.824	15642.05
828.151	15691.99
828.478	15599.34
828.805	15667.36
829.131	15602.05
829.458	15571.77
829.785	15592.56
830.111	15593.23
830.438	15704.19
830.764	15443.63
831.09	15661.25
831.417	15535.61
831.743	15549.39
832.069	15615.83
832.395	15471.43
832.722	15476.85
833.048	15529.05
833.374	15495.84
833.7	15460.36
834.026	15456.29
834.351	15432.79
834.677	15485.89
835.003	15451.99
835.329	15427.36
835.654	15404.76
835.98	15330.42
836.306	15329.51
836.631	15295.16
836.956	15286.8
837.282	15226.69
837.607	15167.26
837.932	15164.32
838.258	15212.23
838.583	15232.79
838.908	15138.78
839.233	15215.84
839.558	15112.12
839.883	15068.5
840.208	15045.68
840.533	15044.77
840.858	15065.34
841.182	14982.85
841.507	14922.97
841.832	14959.13
842.156	14944.66
842.481	14895.17
842.805	14847.04
843.13	14673.26
843.454	14691.56
843.778	14685.24
844.103	14701.51
844.427	14665.35
844.751	14633.49
845.075	14566.14
845.399	14478.46
845.723	14473.04
846.047	14472.81
846.371	14277.79
846.695	14288.64
847.019	14223.78
847.343	14155.53
847.666	14033.73
847.99	14002.54
848.313	14050.45
848.637	13973.39
848.96	13875.09
849.284	13811.59
849.607	13695.43
849.931	13657.69
850.254	13651.59
850.577	13611.82
850.9	13453.4
851.223	13443.69
851.546	13442.56
851.869	13313.97
852.192	13436.45
852.515	13215.44
852.838	13156.46
853.161	13234.88
853.483	13174.54
853.806	13036.69
854.129	12977.48
854.451	12993.98
854.774	12906.07
855.096	12863.36
855.419	12847.54
855.741	12848.9
856.063	12754.21
856.385	12759.41
856.708	12695.91
857.03	12708.11
857.352	12719.86
857.674	12560.77
857.996	12585.63
858.318	12518.74
858.64	12537.95
858.961	12479.64
859.283	12364.17
859.605	12386.54
859.926	12438.06
860.248	12328.01
860.57	12302.02
860.891	12291.85
861.212	12186.77
861.534	12170.05
861.855	12177.05
862.176	12149.71
862.498	12127.34
862.819	12098.18
863.14	12098.18
863.461	12048.24
863.782	12039.43
864.103	12025.19
864.424	11933.22
864.745	12050.5
865.065	11890.96
865.386	11892.31
865.707	11893.9
866.027	11827.01
866.348	11848.47
866.668	11907.68
866.989	11726.44
867.309	11709.72
867.63	11800.11
867.95	11683.28
868.27	11671.98
868.59	11650.96
868.91	11719.21
869.23	11696.16
869.55	11497.97
869.87	11605.09
870.19	11622.49
870.51	11545.66
870.83	11564.64
871.15	11511.99
871.469	11549.95
871.789	11542.27
872.109	11464.3
872.428	11379.56
872.748	11420.69
873.067	11463.63
873.386	11486.45
873.706	11416.62
874.025	11377.75
874.344	11293.01
874.663	11370.75
874.982	11314.48
875.301	11344.76
875.62	11212.11
875.939	11212.33
876.258	11236.74
876.577	11188.38
876.896	11185.21
877.214	11202.16
877.533	11228.6
877.852	11151.77
878.17	11160.36
878.489	11122.39
878.807	11089.4
879.125	11026.57
879.444	10980.7
879.762	11003.75
880.08	11046.01
880.398	10931.21
880.716	10996.07
881.034	10919.23
881.352	10899.8
881.67	10923.07
881.988	10907.03
882.306	10876.97
882.624	10799.01
882.941	10776.86
883.259	10761.95
883.577	10728.28
883.894	10718.11
884.212	10712.46
884.529	10650.31
884.846	10632.69
885.164	10599.47
885.481	10612.8
885.798	10551.33
886.115	10522.41
886.432	10518.11
886.75	10519.02
887.067	10524.67
887.383	10422.3
887.7	10428.4
888.017	10352.24
888.334	10395.18
888.651	10402.41
888.967	10331.68
889.284	10342.3
889.6	10172.36
889.917	10216.88
890.233	10213.94
890.55	10112.7
890.866	10140.04
891.182	10179.14
891.498	10117.22
891.815	10033.38
892.131	10042.87
892.447	10023.89
892.763	10022.08
893.079	9959.48
893.395	9888.07
893.71	9895.3
894.026	9911.35
894.342	9808.3
894.657	9760.62
894.973	9809.43
895.289	9746.83
895.604	9666.16
895.92	9677.46
896.235	9584.13
896.55	9639.27
896.865	9567.86
897.181	9549.78
897.496	9537.12
897.811	9524.02
898.126	9523.11
898.441	9440.4
898.756	9415.54
899.071	9354.3
899.386	9334.42
899.7	9232.05
900.015	9170.35
900.33	9157.7
900.644	9260.75
900.959	9194.76
901.273	9139.62
901.588	9082.9
901.902	9071.37
902.216	9001.99
902.531	9013.29
902.845	8991.15
903.159	8881.77
903.473	8867.54
903.787	8810.14
904.101	8783.24
904.415	8769.68
904.729	8780.53
905.042	8710.03
905.356	8683.81
905.67	8638.16
905.984	8633.42
906.297	8585.06
906.611	8628.22
906.924	8517.49
907.237	8514.32
907.551	8534.89
907.864	8432.07
908.177	8489.01
908.491	8377.6
908.804	8382.35
909.117	8319.3
909.43	8348.45
909.743	8245.18
910.056	8246.76
910.368	8184.62
910.681	8115.01
910.994	8111.17
911.307	8063.04
911.619	8062.58
911.932	8038.4
912.244	7919.54
912.557	7969.25
912.869	7926.54
913.181	7917.5
913.494	7856.26
913.806	7818.52
914.118	7813.55
914.43	7723.16
914.742	7789.37
915.054	7679.54
915.366	7593.22
915.678	7632.54
915.99	7599.32
916.302	7571.3
916.613	7516.16
916.925	7522.94
917.236	7479.1
917.548	7447.23
917.859	7402.94
918.171	7319.78
918.482	7301.25
918.794	7300.34
919.105	7322.27
919.416	7221.48
919.727	7173.12
920.038	7173.12
920.349	7178.77
920.66	7124.08
920.971	7093.34
921.282	7108.94
921.593	7014.48
921.903	6975.16
922.214	6956.17
922.525	6941.48
922.835	6933.57
923.146	6908.72
923.456	6854.48
923.767	6799.57
924.077	6776.06
924.387	6739.23
924.697	6750.53
925.008	6678.67
925.318	6649.06
925.628	6624.2
925.938	6651.1
926.248	6595.5
926.558	6588.73
926.867	6534.26
927.177	6496.07
927.487	6502.4
927.796	6436.41
928.106	6440.03
928.416	6412.46
928.725	6426.02
929.034	6360.26
929.344	6379.47
929.653	6308.28
929.962	6212.01
930.271	6245.68
930.581	6202.29
930.89	6146.7
931.199	6146.48
931.508	6155.29
931.817	6134.5
932.125	6125.01
932.434	6083.43
932.743	5986.93
933.051	5990.32
933.36	5972.24
933.669	5893.6
933.977	5906.03
934.286	5901.51
934.594	5883.21
934.902	5804.34
935.21	5813.83
935.519	5773.61
935.827	5737.22
936.135	5763.21
936.443	5661.74
936.751	5686.83
937.059	5670.56
937.367	5616.55
937.674	5606.15
937.982	5626.94
938.29	5529.09
938.597	5530
938.905	5465.59
939.213	5476.21
939.52	5466.49
939.827	5437.34
940.135	5426.04
940.442	5451.58
940.749	5391.47
941.056	5393.28
941.363	5322.54
941.67	5300.85
941.977	5295.43
942.284	5279.38
942.591	5251.36
942.898	5197.8
943.205	5235.54
943.511	5192.6
943.818	5139.05
944.125	5110.57
944.431	5088.65
944.738	5098.59
945.044	5077.8
945.35	5048.88
945.657	5040.07
945.963	4929.79
946.269	4974.3
946.575	4958.03
946.881	4908.54
947.187	4942.44
947.493	4861.31
947.799	4906.51
948.105	4911.93
948.41	4856.34
948.716	4851.82
949.022	4817.92
949.327	4791.71
949.633	4742.22
949.938	4741.77
950.244	4718.27
950.549	4708.32
950.854	4658.83
951.16	4645.95
951.465	4598.27
951.77	4642.56
952.075	4627.42
952.38	4557.59
952.685	4547.2
952.99	4514.88
953.294	4482.11
953.599	4518.5
953.904	4458.16
954.209	4438.05
954.513	4401.21
954.818	4385.85
955.122	4381.1
955.426	4354.43
955.731	4339.52
956.035	4347.2
956.339	4337.48
956.643	4275.11
956.948	4280.99
957.252	4232.85
957.556	4228.56
957.86	4225.17
958.163	4231.27
958.467	4224.27
958.771	4137.94
959.075	4142.91
959.378	4102.69
959.682	4127.09
959.985	4116.25
960.289	4078.51
960.592	4035.12
960.896	4036.02
961.199	4055.91
961.502	4039.41
961.805	4010.94
962.108	3974.56
962.411	3984.95
962.714	3895.69
963.017	3923.94
963.32	3955.57
963.623	3895.91
963.926	3870.15
964.228	3853.66
964.531	3871.06
964.833	3844.39
965.136	3781.57
965.438	3801.68
965.741	3782.47
966.043	3735.24
966.345	3761
966.648	3695.92
966.95	3715.58
967.252	3702.47
967.554	3625.19
967.856	3613.21
968.158	3561.91
968.46	3634.23
968.761	3561.69
969.063	3599.88
969.365	3576.6
969.666	3596.04
969.968	3509.71
970.269	3523.95
970.571	3527.34
970.872	3518.52
971.174	3490.28
971.475	3487.11
971.776	3471.07
972.077	3417.73
972.378	3426.55
972.679	3433.1
972.98	3429.71
973.281	3378.41
973.582	3336.83
973.883	3313.78
974.183	3352.2
974.484	3322.37
974.785	3299.09
975.085	3316.27
975.386	3306.78
975.686	3234.46
975.986	3221.58
976.287	3214.12
976.587	3186.78
976.887	3188.14
977.187	3196.95
977.487	3166.44
977.787	3161.02
978.087	3151.3
978.387	3121.47
978.687	3112.21
978.987	3118.76
979.286	3085.31
979.586	3093.68
979.885	3096.39
980.185	3058.2
980.484	3065.2
980.784	3040.12
981.083	3029.27
981.382	3013.23
981.682	2958.99
981.981	2962.15
982.28	2963.28
982.579	2954.92
982.878	2929.39
983.177	2932.32
983.475	2885.55
983.774	2877.41
984.073	2858.88
984.372	2857.98
984.67	2834.93
984.969	2870.4
985.267	2796.96
985.566	2839.9
985.864	2818.2
986.162	2786.11
986.461	2769.62
986.759	2769.39
987.057	2707.02
987.355	2757.87
987.653	2741.82
987.951	2725.1
988.249	2693.23
988.547	2715.83
988.844	2693.69
989.142	2686.68
989.44	2647.13
989.737	2646.68
990.035	2625.44
990.332	2646.46
990.63	2619.11
990.927	2566.91
991.224	2555.16
991.521	2567.14
991.819	2559.68
992.116	2562.39
992.413	2541.83
992.71	2535.72
993.006	2542.73
993.303	2510.87
993.6	2514.48
993.897	2515.39
994.193	2497.31
994.49	2453.01
994.787	2448.49
995.083	2430.64
995.379	2408.04
995.676	2371.89
995.972	2421.38
996.268	2363.07
996.565	2353.81
996.861	2331.21
997.157	2350.42
997.453	2329.85
997.749	2349.51
998.044	2345.9
998.34	2297.54
998.636	2281.27
998.932	2274.49
999.227	2249.18
999.523	2273.36
999.818	2254.38
1000.114	2261.83
1000.409	2236.75
1000.704	2199.01
1001	2186.35
1001.295	2203.98
1001.59	2172.57
1001.885	2197.88
1002.18	2138.22
1002.475	2120.14
1002.77	2106.13
1003.065	2069.75
1003.359	2102.97
1003.654	2109.52
1003.949	2065.23
1004.243	2065
1004.538	2057.09
1004.832	2044.21
1005.127	2028.17
1005.421	1979.81
1005.715	1990.65
1006.009	1994.04
1006.304	1985
1006.598	1968.51
1006.892	1933.71
1007.186	1945.68
1007.48	1961.73
1007.773	1932.12
1008.067	1911.33
1008.361	1908.17
1008.655	1927.15
1008.948	1901.16
1009.242	1906.14
1009.535	1896.42
1009.829	1878.57
1010.122	1853.93
1010.415	1850.54
1010.708	1832.92
1011.001	1817.55
1011.295	1812.81
1011.588	1806.03
1011.881	1778.23
1012.173	1771.22
1012.466	1748.63
1012.759	1756.76
1013.052	1757.44
1013.344	1748.17
1013.637	1723.09
1013.93	1732.58
1014.222	1686.26
1014.514	1706.37
1014.807	1699.81
1015.099	1681.96
1015.391	1672.24
1015.683	1666.37
1015.976	1652.13
1016.268	1634.51
1016.56	1633.83
1016.851	1615.3
1017.143	1631.34
1017.435	1589.08
1017.727	1613.04
1018.018	1593.15
1018.31	1578.01
1018.602	1551.8
1018.893	1531.46
1019.185	1553.38
1019.476	1528.07
1019.767	1508.86
1020.058	1512.25
1020.35	1519.71
1020.641	1474.96
1020.932	1517.45
1021.223	1449.43
1021.514	1453.94
1021.804	1450.33
1022.095	1476.77
1022.386	1407.62
1022.677	1420.05
1022.967	1413.49
1023.258	1427.73
1023.548	1399.48
1023.839	1365.59
1024.129	1356.09
1024.419	1377.11
1024.709	1375.3
1025	1359.03
1025.29	1345.02
1025.58	1318.36
1025.87	1336.43
1026.16	1328.52
1026.449	1330.78
1026.739	1293.95
1027.029	1301.86
1027.319	1272.71
1027.608	1267.28
1027.898	1278.13
1028.187	1247.85
1028.477	1251.01
1028.766	1235.65
1029.055	1233.61
1029.344	1228.19
1029.634	1211.69
1029.923	1226.15
1030.212	1196.55
1030.501	1196.32
1030.79	1166.95
1031.078	1169.21
1031.367	1158.81
1031.656	1142.77
1031.945	1133.28
1032.233	1125.59
1032.522	1147.51
1032.81	1141.18
1033.099	1139.6
1033.387	1112.48
1033.675	1090.56
1033.963	1090.34
1034.251	1094.63
1034.54	1092.6
1034.828	1075.42
1035.116	1081.75
1035.403	1074.75
1035.691	1073.84
1035.979	1081.75
1036.267	1066.16
1036.554	1037.46
1036.842	1021.64
1037.129	1023.9
1037.417	1002.43
1037.704	1029.78
1037.992	997.46
1038.279	989.32
1038.566	979.83
1038.853	979.83
1039.14	979.83
