Data from hue_50_FLMS001491_48.txt Node
Date: Mon Feb 06 15:10:12 GMT 2017
User: dcchb
Spectrometer: FLMS00149
Trigger mode: 0
Integration Time (sec): 2.000000E-2
Scans to average: 10
Electric dark correction enabled: true
Nonlinearity correction enabled: false
Boxcar width: 0
XAxis mode: Wavelengths
Number of Pixels in Spectrum: 2048
>>>>>Begin Spectral Data<<<<<
341.393	-14.94
341.776	-14.94
342.16	-14.94
342.543	-45
342.927	-77.54
343.31	-61.95
343.693	-70.31
344.077	-77.77
344.46	-79.8
344.843	-43.87
345.226	-25.79
345.61	-29.18
345.993	-30.76
346.376	-7.94
346.759	2.23
347.142	37.26
347.525	48.78
347.908	43.36
348.291	80.65
348.674	101.89
349.057	113.19
349.44	128.33
349.823	140.76
350.206	169.01
350.588	200.42
350.971	214.88
351.354	225.95
351.737	256.91
352.119	248.55
352.502	240.19
352.884	274.09
353.267	280.87
353.65	282
354.032	295.56
354.414	313.18
354.797	308.44
355.179	326.52
355.562	317.48
355.944	338.72
356.326	322.22
356.709	349.34
357.091	340.98
357.473	342.34
357.855	358.15
358.238	339.85
358.62	351.37
359.002	347.31
359.384	329.45
359.766	324.48
360.148	343.92
360.53	341.43
360.912	359.51
361.294	333.97
361.676	335.56
362.057	326.97
362.439	351.83
362.821	350.92
363.203	321.09
363.584	312.96
363.966	312.05
364.348	329
364.729	302.56
365.111	324.71
365.493	303.69
365.874	311.15
366.256	308.44
366.637	319.29
367.019	322.22
367.4	324.03
367.781	321.32
368.163	323.81
368.544	309.79
368.925	310.25
369.306	336.01
369.688	301.88
370.069	338.04
370.45	317.7
370.831	346.86
371.212	312.73
371.593	303.24
371.974	336.23
372.355	322.68
372.736	311.6
373.117	308.21
373.498	315.44
373.879	302.79
374.26	319.51
374.641	303.24
375.021	299.4
375.402	315.22
375.783	328.78
376.163	322.45
376.544	337.36
376.925	317.93
377.305	318.83
377.686	319.96
378.066	323.81
378.447	331.04
378.827	321.09
379.208	342.34
379.588	345.27
379.968	338.04
380.349	333.3
380.729	337.59
381.109	324.26
381.489	343.92
381.87	333.07
382.25	340.08
382.63	309.12
383.01	341.21
383.39	336.91
383.77	346.4
384.15	343.69
384.53	347.53
384.91	349.34
385.29	325.39
385.67	339.85
386.049	359.06
386.429	343.01
386.809	348.89
387.189	345.05
387.568	352.05
387.948	363.58
388.328	361.77
388.707	347.08
389.087	371.49
389.466	340.53
389.846	362.67
390.225	370.58
390.605	353.86
390.984	367.87
391.363	352.96
391.743	379.17
392.122	335.1
392.501	385.27
392.881	378.94
393.26	364.93
393.639	370.36
394.018	358.38
394.397	360.41
394.776	366.97
395.155	380.53
395.534	366.52
395.913	389.11
396.292	376.23
396.671	357.48
397.05	369.68
397.429	374.88
397.808	374.2
398.186	387.98
398.565	382.33
398.944	368.55
399.323	379.4
399.701	377.36
400.08	383.69
400.458	373.52
400.837	392.96
401.215	387.53
401.594	388.66
401.972	394.54
402.351	386.18
402.729	389.57
403.107	387.53
403.486	369.23
403.864	377.14
404.242	395.44
404.62	395.67
404.999	405.84
405.377	382.79
405.755	419.85
406.133	406.74
406.511	408.32
406.889	423.69
407.267	420.98
407.645	417.59
408.023	417.59
408.401	418.72
408.779	448.32
409.156	401.09
409.534	417.36
409.912	416.91
410.29	425.05
410.667	409.9
411.045	428.44
411.422	410.13
411.8	451.26
412.178	423.69
412.555	442.22
412.933	465.72
413.31	457.59
413.687	449.23
414.065	428.66
414.442	452.39
414.819	453.97
415.197	467.08
415.574	472.05
415.951	470.24
416.328	465.72
416.705	464.59
417.082	460.07
417.46	467.98
417.837	470.47
418.214	472.05
418.591	461.43
418.967	483.35
419.344	482.44
419.721	493.52
420.098	478.83
420.475	487.42
420.852	482.67
421.228	484.48
421.605	489.45
421.982	518.15
422.358	514.76
422.735	500.07
423.111	492.39
423.488	510.24
423.864	521.77
424.241	510.69
424.617	513.86
424.994	524.03
425.37	544.36
425.746	495.78
426.123	511.14
426.499	525.38
426.875	531.71
427.251	536.68
427.627	545.49
428.003	530.58
428.379	551.82
428.756	556.79
429.132	560.86
429.507	566.51
429.883	554.31
430.259	575.55
430.635	572.16
431.011	578.26
431.387	588.88
431.763	601.99
432.138	610.13
432.514	601.31
432.89	616.45
433.265	595.21
433.641	623.46
434.016	578.04
434.392	616.68
434.767	621.88
435.143	617.58
435.518	613.06
435.894	628.43
436.269	658.71
436.644	636.11
437.02	656.23
437.395	652.16
437.77	647.41
438.145	663.68
438.52	641.54
438.895	644.7
439.271	685.6
439.646	651.03
440.021	657.58
440.395	688.09
440.77	673.17
441.145	667.52
441.52	689.67
441.895	683.34
442.27	706.39
442.645	698.48
443.019	698.48
443.394	708.88
443.769	684.25
444.143	733.74
444.518	699.61
444.892	712.72
445.267	716.56
445.641	717.47
446.016	726.73
446.39	720.63
446.764	728.77
447.139	732.16
447.513	756.34
447.887	729.9
448.262	741.42
448.636	761.76
449.01	758.37
449.384	766.96
449.758	741.42
450.132	768.99
450.506	780.52
450.88	771.25
451.254	763.12
451.628	768.99
452.002	796.11
452.376	816.67
452.75	822.77
453.123	816.22
453.497	828.88
453.871	816.9
454.244	837.46
454.618	851.47
454.992	848.31
455.365	858.71
455.739	865.03
456.112	892.83
456.486	864.81
456.859	898.48
457.232	895.32
457.606	893.28
457.979	915.65
458.352	906.84
458.725	948.65
459.099	935.09
459.472	950.46
459.845	992.71
460.218	957.69
460.591	976.44
460.964	975.31
461.337	1008.98
461.71	1005.14
462.083	1025.03
462.456	1000.17
462.829	1032.71
463.201	1046.95
463.574	1052.15
463.947	1064.35
464.32	1074.97
464.692	1112.48
465.065	1099.6
465.438	1112.03
465.81	1151.13
466.183	1158.81
466.555	1180.28
466.928	1183.9
467.3	1150.22
467.672	1173.05
468.045	1238.58
468.417	1258.24
468.789	1244.46
469.161	1277
469.534	1302.31
469.906	1324
470.278	1338.69
470.65	1353.83
471.022	1411.91
471.394	1409.88
471.766	1447.17
472.138	1442.65
472.51	1491.46
472.882	1543.21
473.253	1583.66
473.625	1573.72
473.997	1614.62
474.369	1652.81
474.74	1654.62
475.112	1739.81
475.484	1758.12
475.855	1832.24
476.227	1848.96
476.598	1897.77
476.97	1946.14
477.341	2021.61
477.713	2038.11
478.084	2075.4
478.455	2122.63
478.827	2219.12
479.198	2270.87
479.569	2290.76
479.94	2411.89
480.311	2425.67
480.682	2492.34
481.053	2621.15
481.424	2670.64
481.795	2723.06
482.166	2814.81
482.537	2881.25
482.908	2992.44
483.279	3087.35
483.65	3136.61
484.021	3225.65
484.391	3257.51
484.762	3356.72
485.133	3493.67
485.503	3586.77
485.874	3701.8
486.244	3784.73
486.615	3913.77
486.985	3977.49
487.356	4130.26
487.726	4213.65
488.097	4342.68
488.467	4366.18
488.837	4586.07
489.207	4694.09
489.578	4805.72
489.948	4913.97
490.318	5091.14
490.688	5120.29
491.058	5280.28
491.428	5381.98
491.798	5504.01
492.168	5688.41
492.538	5803.89
492.908	5922.98
493.278	6062.19
493.648	6133.37
494.017	6259.47
494.387	6428.28
494.757	6466.47
495.126	6701.72
495.496	6750.3
495.866	6903.97
496.235	7001.37
496.605	7172.66
496.974	7228.26
497.344	7356.39
497.713	7519.1
498.082	7611.75
498.452	7788.92
498.821	7820.78
499.19	7931.74
499.559	8084.05
499.928	8181
500.298	8383.48
500.667	8435.68
501.036	8542.12
501.405	8675.9
501.774	8691.27
502.143	8888.1
502.512	9010.81
502.88	9102.56
503.249	9179.62
503.618	9371.25
503.987	9378.71
504.356	9530.12
504.724	9655.99
505.093	9717.46
505.462	9797
505.83	9919.03
506.199	10055.53
506.567	10157.44
506.936	10257.1
507.304	10422.3
507.672	10475.63
508.041	10604.44
508.409	10727.15
508.777	10817.77
509.145	10904.09
509.514	11064.09
509.882	11117.19
510.25	11156.06
510.618	11277.42
510.986	11403.97
511.354	11519.67
511.722	11667.24
512.09	11728.93
512.458	11775.26
512.826	11955.36
513.193	12011.18
513.561	12091.18
513.929	12198.52
514.297	12319.65
514.664	12386.76
515.032	12470.15
515.4	12632.63
515.767	12631.96
516.135	12787.66
516.502	12772.74
516.869	12965.05
517.237	13008.9
517.604	13120.76
517.972	13206.18
518.339	13332.28
518.706	13371.37
519.073	13512.16
519.44	13609.33
519.808	13804.58
520.175	13702.66
520.542	13945.59
520.909	14059.49
521.276	14056.33
521.643	14192.14
522.009	14339.48
522.376	14439.14
522.743	14574.5
523.11	14652.69
523.477	14857.66
523.843	14869.41
524.21	15015.85
524.577	15258.78
524.943	15223.07
525.31	15257.2
525.676	15397.53
526.043	15588.49
526.409	15679.33
526.776	15843.85
527.142	15901.47
527.508	15910.06
527.874	16062.6
528.241	16217.62
528.607	16260.79
528.973	16465.53
529.339	16362.71
529.705	16722.92
530.071	16664.62
530.437	16733.54
530.803	16888.12
531.169	17050.82
531.535	16992.97
531.901	16970.6
532.267	17184.83
532.632	17304.15
532.998	17305.51
533.364	17396.12
533.73	17406.52
534.095	17642.22
534.461	17703.91
534.826	17805.83
535.192	17877.69
535.557	18044.47
535.923	18080.85
536.288	18164.69
536.653	18180.28
537.019	18234.75
537.384	18167.18
537.749	18453.5
538.114	18447.62
538.479	18424.57
538.845	18515.87
539.21	18660.95
539.575	18694.17
539.94	18740.04
540.305	18854.39
540.67	18829.99
541.034	18940.49
541.399	18912.24
541.764	19093.93
542.129	19130.77
542.494	19185.91
542.858	19261.16
543.223	19289.41
543.587	19408.05
543.952	19419.8
544.316	19571.89
544.681	19502.06
545.045	19694.6
545.41	19784.99
545.774	19758.77
546.138	19763.52
546.503	19881.71
546.867	19862.95
547.231	20092.1
547.595	20121.7
547.959	20234.92
548.324	20228.14
548.688	20302.04
549.052	20416.84
549.416	20394.92
549.779	20422.03
550.143	20463.16
550.507	20607.11
550.871	20806.2
551.235	20785.87
551.599	20935.24
551.962	20864.06
552.326	20932.3
552.689	21151.05
553.053	21047.55
553.417	21149.47
553.78	21384.27
554.143	21326.19
554.507	21466.98
554.87	21437.83
555.234	21628.33
555.597	21658.16
555.96	21757.59
556.323	21741.32
556.686	21885.5
557.05	22051.14
557.413	22072.16
557.776	22076
558.139	22207.52
558.502	22335.88
558.865	22417.91
559.228	22501.53
559.59	22635.76
559.953	22594.18
560.316	22912.82
560.679	22861.52
561.041	23006.82
561.404	23058.57
561.767	23150.1
562.129	23219.47
562.492	23449.52
562.854	23419.24
563.217	23416.53
563.579	23591.22
563.941	23727.94
564.304	23747.14
564.666	23993.47
565.028	23881.6
565.39	24106.91
565.753	24146
566.115	24237.53
566.477	24335.38
566.839	24443.85
567.201	24573.56
567.563	24459.67
567.925	24703.05
568.287	24710.28
568.648	24903.5
569.01	24994.12
569.372	25132.19
569.734	24980.78
570.095	25307.1
570.457	25324.05
570.819	25440.88
571.18	25518.85
571.542	25594.55
571.903	25702.8
572.265	25798.39
572.626	25833.42
572.987	25929.23
573.349	26047.2
573.71	26274.76
574.071	26263.46
574.432	26380.07
574.794	26577.8
575.155	26618.25
575.516	26555.66
575.877	26678.82
576.238	26839.72
576.599	26921.3
576.96	26904.58
577.32	27008.3
577.681	27075.42
578.042	27224.34
578.403	27287.62
578.763	27373.26
579.124	27487.84
579.485	27643.76
579.845	27677.66
580.206	27834.95
580.566	27840.82
580.927	27916.53
581.287	28058.67
581.648	28067.26
582.008	28261.15
582.368	28278.78
582.728	28519.22
583.089	28394.25
583.449	28464.99
583.809	28613.68
584.169	28818.65
584.529	28756.28
584.889	29012.77
585.249	29022.94
585.609	29011.64
585.969	29235.14
586.329	29251.63
586.688	29428.8
587.048	29398.07
587.408	29482.59
587.768	29558.29
588.127	29692.75
588.487	29728.91
588.846	30037.37
589.206	29841.9
589.565	30007.77
589.925	30228.56
590.284	30202.57
590.643	30358.5
591.003	30408.44
591.362	30653.63
591.721	30680.29
592.08	30768.43
592.44	31011.36
592.799	30838.48
593.158	31003.45
593.517	31017.46
593.876	31320.73
594.235	31239.38
594.593	31367.73
594.952	31461.07
595.311	31430.56
595.67	31532.48
596.029	31890.66
596.387	31868.06
596.746	32077.77
597.104	31842.3
597.463	31931.34
597.822	32188.5
598.18	32069.19
598.538	32230.54
598.897	32447.03
599.255	32298.78
599.613	32767.92
599.972	32626.23
600.33	32791.65
600.688	32770.64
601.046	32936.96
601.404	32990.06
601.762	33058.54
602.12	33197.74
602.478	33388.47
602.836	33245.43
603.194	33239.32
603.552	33353.9
603.91	33437.96
604.268	33470.28
604.625	33496.72
604.983	33815.58
605.341	33508.7
605.698	33892.87
606.056	33875.24
606.413	33896.03
606.771	33966.99
607.128	34003.15
607.485	34159.98
607.843	34125.85
608.2	34273.65
608.557	34407.65
608.914	34352.74
609.272	34676.12
609.629	34621.89
609.986	34766.97
610.343	34667.31
610.7	34988.66
611.057	34856.46
611.414	35003.12
611.771	35059.39
612.127	35275.88
612.484	35172.83
612.841	35323.11
613.198	35261.42
613.554	35341.19
613.911	35631.58
614.267	35653.27
614.624	35423.67
614.98	35599.04
615.337	35918.58
615.693	35891.68
616.05	35817.11
616.406	36066.82
616.762	35963.77
617.118	35993.38
617.475	36038.8
617.831	36302.97
618.187	36112.24
618.543	36151.56
618.899	36436.53
619.255	36455.06
619.611	36307.04
619.967	36539.12
620.323	36594.94
620.678	36602.17
621.034	36589.74
621.39	36589.52
621.746	36486.92
622.101	36923.75
622.457	36785.22
622.812	36663.87
623.168	36935.95
623.523	36943.41
623.879	37032.44
624.234	36808.04
624.589	37102.5
624.945	37113.12
625.3	37130.75
625.655	37110.18
626.01	37077.41
626.365	37102.5
626.72	37156.28
627.075	37248.94
627.43	37152.89
627.785	37189.95
628.14	37127.36
628.495	37307.92
628.85	37203.06
629.205	37179.56
629.559	37380.23
629.914	37168.26
630.269	37263.62
630.623	37201.93
630.978	37227.02
631.332	37288.93
631.687	37268.37
632.041	37231.54
632.396	37211.2
632.75	37213.23
633.104	37288.93
633.459	36972.11
633.813	36934.14
634.167	37054.14
634.521	37091.88
634.875	37050.07
635.229	37102.05
635.583	36954.71
635.937	36916.06
636.291	36892.11
636.645	36944.54
636.999	36837.2
637.352	36919.23
637.706	36795.84
638.06	36962.16
638.413	36829.51
638.767	36747.48
639.121	36827.93
639.474	36599.69
639.828	36713.58
640.181	36748.38
640.534	36789.06
640.888	36567.15
641.241	36569.86
641.594	36595.85
641.947	36743.19
642.301	36606.92
642.654	36752.23
643.007	36530.54
643.36	36462.06
643.713	36568.73
644.066	36606.24
644.419	36433.59
644.771	36114.5
645.124	35834.96
645.477	35788.41
645.83	35518.36
646.182	35455.99
646.535	35290.34
646.888	35413.28
647.24	35369.21
647.593	35459.38
647.945	35399.72
648.298	35282.66
648.65	35183.23
649.002	35130.8
649.355	35166.28
649.707	35136.45
650.059	35304.35
650.411	35801.52
650.763	35696.89
651.115	36022.75
651.467	35948.86
651.819	35929.2
652.171	35959.7
652.523	35928.97
652.875	35789.99
653.227	35693.27
653.578	35956.54
653.93	35884.45
654.282	35771.23
654.633	35591.13
654.985	35742.31
655.337	35819.14
655.688	35784.34
656.039	35937.33
656.391	35639.26
656.742	35629.77
657.094	35707.73
657.445	35812.14
657.796	35680.39
658.147	35557.23
658.498	35584.57
658.849	35641.29
659.2	35549.77
659.551	35530.34
659.902	35618.24
660.253	35510.9
660.604	35632.03
660.955	35424.35
661.306	35651.01
661.656	35467.97
662.007	35558.13
662.358	35329.89
662.708	35320.85
663.059	35402.43
663.409	35199.27
663.76	35416.22
664.11	35376.22
664.461	35508.64
664.811	35443.56
665.161	35380.06
665.511	35288.54
665.862	35399.72
666.212	35562.2
666.562	35456.44
666.912	35313.17
667.262	35352.26
667.612	35379.83
667.962	35381.64
668.312	35319.27
668.662	35433.16
669.011	35497.34
669.361	35247.41
669.711	35346.39
670.06	35221.87
670.41	35080.86
670.76	35163.57
671.109	35301.19
671.459	35207.18
671.808	35071.59
672.157	35288.76
672.507	35024.81
672.856	35031.59
673.205	35181.42
673.554	35248.76
673.904	35096.9
674.253	35281.53
674.602	35128.31
674.951	34491.49
675.3	34463.47
675.649	35095.32
675.998	34891.71
676.346	34993.4
676.695	35006.96
677.044	34689.23
677.393	34831.15
677.741	34965.15
678.09	34878.83
678.438	34810.13
678.787	34874.31
679.135	34849
679.484	34614.88
679.832	34763.13
680.181	34536.24
680.529	34593.64
680.877	34499.18
681.225	34533.53
681.573	34761.77
681.922	34488.78
682.27	34317.04
682.618	34401.1
682.966	34245.85
683.314	34350.71
683.661	34274.55
684.009	34118.17
684.357	33963.15
684.705	33950.72
685.053	33952.07
685.4	33948.68
685.748	33752.98
686.095	33753.43
686.443	33700.33
686.79	33711.63
687.138	33783.94
687.485	33577.85
687.832	33552.08
688.18	33662.36
688.527	33505.53
688.874	33349.15
689.221	33419.21
689.568	33300.34
689.915	33148.48
690.262	33122.26
690.609	32965.21
690.956	32932.67
691.303	32952.78
691.65	32720.24
691.997	32871.65
692.344	32607.25
692.69	32550.3
693.037	32588.04
693.383	32283.64
693.73	32400.25
694.077	32233.47
694.423	32318.44
694.769	32108.28
695.116	31967.49
695.462	32109.86
695.808	31891.11
696.155	32006.81
696.501	31699.93
696.847	31821.06
697.193	31462.65
697.539	31652.47
697.885	31489.77
698.231	31283.89
698.577	31381.97
698.923	31272.37
699.269	31069.44
699.614	30916.22
699.96	30871.7
700.306	30944.69
700.651	30768.65
700.997	30673.06
701.342	30739.95
701.688	30487.98
702.033	30587.19
702.379	30515.33
702.724	30365.95
703.069	30351.49
703.415	30135.9
703.76	30217.03
704.105	30129.8
704.45	29944.04
704.795	29925.51
705.14	29866.76
705.485	29802.58
705.83	29740.43
706.175	29666.31
706.52	29632.64
706.865	29483.26
707.209	29570.04
707.554	29455.24
707.899	29526.88
708.243	29300.22
708.588	29322.36
708.932	29063.61
709.277	29074.46
709.621	29116.04
709.966	28809.61
710.31	29017.51
710.654	28644.42
710.998	28831.98
711.342	28740.68
711.687	28672.89
712.031	28520.58
712.375	28497.3
712.719	28500.92
713.063	28299.79
713.407	28519.67
713.75	28391.32
714.094	28279.91
714.438	28160.59
714.782	28136.18
715.125	28052.34
715.469	28075.39
715.812	27926.92
716.156	27831.1
716.499	27870.88
716.843	27910.42
717.186	27579.59
717.53	27762.86
717.873	27838.79
718.216	27635.63
718.559	27591.79
718.902	27428.18
719.246	27425.24
719.589	27393.15
719.932	27307.95
720.275	27306.6
720.617	27182.31
720.96	27179.14
721.303	27175.08
721.646	27097.56
721.989	26964.46
722.331	27055.76
722.674	27010.56
723.016	27017.34
723.359	26877.91
723.701	26987.96
724.044	26773.73
724.386	26728.08
724.729	26748.87
725.071	26782.09
725.413	26738.03
725.755	26632.04
726.097	26639.5
726.439	26513.85
726.782	26460.52
727.124	26536
727.465	26407.41
727.807	26319.05
728.149	26333.97
728.491	26286.74
728.833	26352.27
729.175	26310.47
729.516	26156.12
729.858	26186.85
730.199	26122.45
730.541	26199.06
730.882	25968.78
731.224	26224.82
731.565	25977.14
731.906	25977.82
732.248	25893.98
732.589	25732.4
732.93	25788.67
733.271	25813.3
733.612	25738.73
733.953	25757.03
734.294	25694.44
734.635	25576.7
734.976	25637.49
735.317	25447.44
735.658	25494.44
735.999	25541
736.339	25492.41
736.68	25536.93
737.021	25358.85
737.361	25301
737.702	25378.74
738.042	25325.41
738.383	25303.94
738.723	25327.44
739.063	25163.15
739.404	25195.24
739.744	25204.73
740.084	25032.76
740.424	24992.99
740.764	24973.1
741.104	25091.29
741.444	24884.29
741.784	24745.54
742.124	24885.42
742.464	24896.72
742.804	24856.95
743.143	24680.9
743.483	24736.72
743.823	24627.35
744.162	24627.12
744.502	24637.97
744.841	24513.9
745.181	24622.15
745.52	24393
745.86	24529.27
746.199	24514.36
746.538	24434.58
746.877	24519.33
747.216	24470.97
747.556	24235.04
747.895	24349.39
748.234	24202.5
748.573	24202.05
748.911	24208.37
749.25	24160.01
749.589	24017.65
749.928	24070.07
750.267	24140.13
750.605	23931.77
750.944	23768.39
751.283	23918.89
751.621	23908.95
751.96	23739.23
752.298	23687.03
752.636	23682.96
752.975	23665.34
753.313	23442.07
753.651	23666.47
753.989	23596.64
754.327	23387.38
754.666	23409.98
755.004	23454.5
755.342	23389.64
755.679	23315.52
756.017	23259.93
756.355	23354.84
756.693	23109.42
757.031	23218.8
757.368	22884.34
757.706	23082.75
758.044	22814.74
758.381	22986.26
758.719	22851.12
759.056	22848.86
759.394	22820.39
759.731	22552.15
760.068	22622.65
760.405	22504.46
760.743	22454.07
761.08	22421.76
761.417	22335.2
761.754	22422.88
762.091	22247.75
762.428	22203
762.765	22040.97
763.102	22071.26
763.438	21912.39
763.775	21849.34
764.112	21999.85
764.449	21900.41
764.785	21730.93
765.122	21591.27
765.458	21595.34
765.795	21441.89
766.131	21502.91
766.467	21433.76
766.804	21306.08
767.14	21280.09
767.476	21151.73
767.812	21142.47
768.148	21118.06
768.485	21020.66
768.821	20904.96
769.157	20886.2
769.492	20903.38
769.828	20740.44
770.164	20642.14
770.5	20401.92
770.836	20506.1
771.171	20494.8
771.507	20329.38
771.842	20244.64
772.178	20243.06
772.513	20181.14
772.849	20013.91
773.184	19940.01
773.519	20007.81
773.855	19842.39
774.19	19751.09
774.525	19709.28
774.86	19772.11
775.195	19613.92
775.53	19634.94
775.865	19375.73
776.2	19386.35
776.535	19200.37
776.87	19215.51
777.205	19240.14
777.539	19001.51
777.874	19112.01
778.209	18957.44
778.543	18914.73
778.878	18826.37
779.212	18768.97
779.547	18640.84
779.881	18786.82
780.215	18473.84
780.55	18610.78
780.884	18516.77
781.218	18493.27
781.552	18396.32
781.886	18269.1
782.22	18202.21
782.554	18185.48
782.888	18063
783.222	17932.61
783.556	17917.92
783.889	17828.88
784.223	17703.24
784.557	17606.97
784.89	17718.83
785.224	17603.58
785.557	17535.56
785.891	17462.56
786.224	17433.19
786.558	17411.49
786.891	17173.76
787.224	17160.42
787.557	17179.18
787.891	17156.36
788.224	17062.8
788.557	17023.7
788.89	16970.15
789.223	16835.69
789.556	16727.67
789.888	16797.5
790.221	16653.09
790.554	16603.15
790.887	16593.89
791.219	16545.07
791.552	16563.38
791.884	16338.98
792.217	16259.66
792.549	16237.51
792.882	16146.44
793.214	16138.3
793.546	16147.8
793.879	16016.5
794.211	15969.72
794.543	15962.26
794.875	15948.03
795.207	15970.4
795.539	15923.17
795.871	15821.48
796.203	15691.76
796.535	15653.12
796.867	15601.37
797.198	15585.1
797.53	15541.26
797.862	15331.77
798.193	15384.65
798.525	15350.08
798.856	15307.14
799.188	15248.38
799.519	15179.01
799.85	15038.67
800.182	15092.91
800.513	15058.78
800.844	14934.04
801.175	14949.41
801.506	14941.95
801.837	14826.47
802.168	14845.91
802.499	14762.3
802.83	14731.56
803.161	14692.47
803.491	14699.92
803.822	14642.07
804.153	14633.71
804.483	14494.96
804.814	14459.93
805.145	14443.66
805.475	14306.71
805.805	14306.04
806.136	14330.67
806.466	14362.31
806.796	14298.13
807.126	14180.39
807.457	14094.97
807.787	14057.46
808.117	14084.8
808.447	14021.07
808.777	14031.47
809.107	13957.12
809.436	13945.82
809.766	13980.4
810.096	13930.9
810.426	13806.39
810.755	13771.36
811.085	13762.77
811.414	13685.49
811.744	13620.63
812.073	13587.86
812.403	13599.39
812.732	13477.81
813.061	13539.28
813.39	13447.75
813.719	13377.25
814.049	13504.48
814.378	13383.35
814.707	13382.44
815.036	13355.33
815.365	13263.13
815.693	13179.51
816.022	13103.13
816.351	13080.98
816.68	13006.41
817.008	13085.73
817.337	13005.28
817.665	12956.69
817.994	13007.31
818.322	12908.11
818.651	12989.69
818.979	12876.7
819.307	12856.58
819.636	12918.28
819.964	12808.67
820.292	12806.19
820.62	12765.51
820.948	12674.21
821.276	12782.46
821.604	12793.53
821.932	12749.69
822.259	12664.05
822.587	12768.45
822.915	12683.93
823.243	12730.94
823.57	12680.77
823.898	12638.28
824.225	12605.97
824.553	12669.7
824.88	12628.79
825.207	12662.46
825.535	12654.55
825.862	12747.21
826.189	12641
826.516	12701.11
826.843	12610.26
827.17	12689.13
827.497	12684.16
827.824	12586.76
828.151	12609.13
828.478	12620.43
828.805	12687.1
829.131	12603.93
829.458	12620.66
829.785	12504.73
830.111	12597.38
830.438	12656.81
830.764	12621.56
831.09	12652.29
831.417	12555.35
831.743	12613.65
832.069	12503.6
832.395	12468.34
832.722	12623.59
833.048	12488.23
833.374	12477.16
833.7	12503.6
834.026	12505.86
834.351	12492.07
834.677	12467.67
835.003	12524.84
835.329	12461.11
835.654	12498.63
835.98	12388.8
836.306	12395.8
836.631	12327.56
836.956	12445.97
837.282	12423.37
837.607	12268.12
837.932	12381.34
838.258	12262.02
838.583	12233.1
838.908	12187
839.233	12288.91
839.558	12250.27
839.883	12217.5
840.208	12038.07
840.533	12096.15
840.858	12110.61
841.182	12176.83
841.507	12101.8
841.832	12018.86
842.156	12004.18
842.481	12035.59
842.805	12053.67
843.13	11891.64
843.454	12016.15
843.778	11875.59
844.103	11888.7
844.427	11837.4
844.751	11868.36
845.075	11808.47
845.399	11749.27
845.723	11645.54
846.047	11701.36
846.371	11515.38
846.695	11560.8
847.019	11533.91
847.343	11529.61
847.666	11379.11
847.99	11394.25
848.313	11340.24
848.637	11307.47
848.96	11249.39
849.284	11252.11
849.607	11160.58
849.931	11117.87
850.254	11087.59
850.577	11019.34
850.9	10901.83
851.223	10925.56
851.546	10907.03
851.869	10752.23
852.192	10799.01
852.515	10693.48
852.838	10697.54
853.161	10757.2
853.483	10674.27
853.806	10603.76
854.129	10582.97
854.451	10475.4
854.774	10538.45
855.096	10495.97
855.419	10413.26
855.741	10393.14
856.063	10352.47
856.385	10315.18
856.708	10279.93
857.03	10271.34
857.352	10279.02
857.674	10215.97
857.996	10231.12
858.318	10176.2
858.64	10121.97
858.961	10087.84
859.283	10038.58
859.605	9966.94
859.926	10054.85
860.248	10008.52
860.57	9978.24
860.891	9965.59
861.212	9843.1
861.534	9887.62
861.855	9942.54
862.176	9886.94
862.498	9857.11
862.819	9802.43
863.14	9764.01
863.461	9718.13
863.782	9750.45
864.103	9742.77
864.424	9738.47
864.745	9699.38
865.065	9672.94
865.386	9618.93
865.707	9549.1
866.027	9606.95
866.348	9632.03
866.668	9572.6
866.989	9612.37
867.309	9461.19
867.63	9540.06
867.95	9539.83
868.27	9386.84
868.59	9473.39
868.91	9461.42
869.23	9435.66
869.55	9472.49
869.87	9466.39
870.19	9428.88
870.51	9315.21
870.83	9389.1
871.15	9311.37
871.469	9324.47
871.789	9397.24
872.109	9319.27
872.428	9280.86
872.748	9311.59
873.067	9321.31
873.386	9309.56
873.706	9234.08
874.025	9165.38
874.344	9213.29
874.663	9203.35
874.982	9208.09
875.301	9147.53
875.62	9109.11
875.939	9114.53
876.258	9052.39
876.577	9087.64
876.896	9067.76
877.214	9066.85
877.533	9058.26
877.852	9000.41
878.17	9025.27
878.489	9030.92
878.807	9073.63
879.125	8967.19
879.444	8972.17
879.762	8906.63
880.08	8971.26
880.398	8823.92
880.716	8884.94
881.034	8872.96
881.352	8832.73
881.67	8849.91
881.988	8877.7
882.306	8813.98
882.624	8767.88
882.941	8731.49
883.259	8731.27
883.577	8758.39
883.894	8691.49
884.212	8620.31
884.529	8660.99
884.846	8632.97
885.164	8660.08
885.481	8604.72
885.798	8639.29
886.115	8525.62
886.432	8534.89
886.75	8533.31
887.067	8546.64
887.383	8421.45
887.7	8441.33
888.017	8414.89
888.334	8470.03
888.651	8405.4
888.967	8393.2
889.284	8334.89
889.6	8335.8
889.917	8201.11
890.233	8298.51
890.55	8219.42
890.866	8261.22
891.182	8233.65
891.498	8196.59
891.815	8153.2
892.131	8143.03
892.447	8108.01
892.763	8088.35
893.079	8084.05
893.395	8026.65
893.71	8042.02
894.026	7990.5
894.342	7984.85
894.657	7960.67
894.973	7909.14
895.289	7956.6
895.604	7949.37
895.92	7849.26
896.235	7807.68
896.55	7836.15
896.865	7827.11
897.181	7749.6
897.496	7786.21
897.811	7723.61
898.126	7663.27
898.441	7691.29
898.756	7600.68
899.071	7581.02
899.386	7620.56
899.7	7474.35
900.015	7482.03
900.33	7414.92
900.644	7440
900.959	7441.13
901.273	7386.22
901.588	7357.52
901.902	7316.84
902.216	7278.65
902.531	7301.47
902.845	7247.46
903.159	7210.4
903.473	7237.07
903.787	7108.03
904.101	7119.56
904.415	7149.39
904.729	7081.82
905.042	7019
905.356	7085.44
905.67	7014.48
905.984	7005.89
906.297	7031.88
906.611	6959.56
906.924	6889.73
907.237	6873.92
907.551	6878.43
907.864	6847.02
908.177	6828.49
908.491	6807.25
908.804	6779.91
909.117	6725.67
909.43	6675.5
909.743	6678.44
910.056	6654.26
910.368	6643.64
910.681	6611.55
910.994	6571.55
911.307	6513.25
911.619	6504.21
911.932	6491.78
912.244	6447.49
912.557	6464.43
912.869	6462.17
913.181	6417.2
913.494	6386.92
913.806	6326.59
914.118	6331.33
914.43	6306.02
914.742	6255.4
915.054	6213.37
915.366	6190.77
915.678	6215.18
915.99	6116.2
916.302	6091.34
916.613	6132.92
916.925	6097.44
917.236	6086.37
917.548	6036.88
917.859	6030.1
918.171	5983.32
918.482	5986.03
918.794	5930.44
919.105	5934.05
919.416	5890.44
919.727	5857.67
920.038	5865.58
920.349	5810.21
920.66	5781.97
920.971	5764.79
921.282	5732.25
921.593	5712.59
921.903	5696.55
922.214	5676.21
922.525	5643.21
922.835	5639.6
923.146	5614.29
923.456	5615.19
923.767	5564.8
924.077	5562.31
924.387	5526.38
924.697	5499.94
925.008	5515.76
925.318	5484.8
925.628	5447.29
925.938	5371.58
926.248	5410.68
926.558	5348.08
926.867	5370
927.177	5281.41
927.487	5336.1
927.796	5236.44
928.106	5243.45
928.416	5231.25
928.725	5254.97
929.034	5232.38
929.344	5170.23
929.653	5146.96
929.962	5065.15
930.271	5055.21
930.581	5065.38
930.89	5066.96
931.199	5006.17
931.508	4959.62
931.817	5023.57
932.125	4980.63
932.434	4960.52
932.743	4863.57
933.051	4911.93
933.36	4896.79
933.669	4842.1
933.977	4837.81
934.286	4801.43
934.594	4826.74
934.902	4798.49
935.21	4722.11
935.519	4717.14
935.827	4749.45
936.135	4731.6
936.443	4682.33
936.751	4632.17
937.059	4615.67
937.367	4636.91
937.674	4597.82
937.982	4582.22
938.29	4596.91
938.597	4571.15
938.905	4514.43
939.213	4492.51
939.52	4452.74
939.827	4482.11
940.135	4474.88
940.442	4401.89
940.749	4436.47
941.056	4416.13
941.363	4361.44
941.67	4360.08
941.977	4351.27
942.284	4320.08
942.591	4326.86
942.898	4257.03
943.205	4317.15
943.511	4245.51
943.818	4226.53
944.125	4191.73
944.431	4210.03
944.738	4130.48
945.044	4184.95
945.35	4139.52
945.657	4063.14
945.963	4105.63
946.269	4092.97
946.575	4064.27
946.881	4082.58
947.187	4053.42
947.493	4042.35
947.799	4017.95
948.105	4018.17
948.41	3985.4
948.716	3960.32
949.022	3862.7
949.327	3921
949.633	3833.77
949.938	3898.4
950.244	3892.3
950.549	3826.99
950.854	3837.38
951.16	3811.17
951.465	3785.86
951.77	3772.98
952.075	3785.18
952.38	3761.68
952.685	3775.01
952.99	3691.63
953.294	3697.28
953.599	3708.35
953.904	3700.44
954.209	3645.3
954.513	3694.34
954.818	3629.71
955.122	3595.81
955.426	3574.79
955.731	3557.39
956.035	3549.48
956.339	3557.39
956.643	3535.7
956.948	3530.05
957.252	3504.96
957.556	3514.46
957.86	3443.27
958.163	3402.82
958.467	3452.31
958.771	3463.61
959.075	3440.11
959.378	3416.15
959.682	3391.07
959.985	3358.75
960.289	3360.11
960.592	3337.96
960.896	3336.83
961.199	3288.47
961.502	3306.78
961.805	3264.74
962.108	3268.36
962.411	3258.64
962.714	3234.46
963.017	3231.75
963.32	3246.89
963.623	3183.16
963.926	3172.32
964.228	3212.09
964.531	3175.93
964.833	3134.8
965.136	3117.4
965.438	3128.48
965.741	3105.65
966.043	3101.36
966.345	3085.77
966.648	3094.58
966.95	3081.92
967.252	3038.76
967.554	2971.87
967.856	2994.02
968.158	3007.35
968.46	2967.35
968.761	2991.31
969.063	2975.49
969.365	2941.82
969.666	2960.35
969.968	2902.49
970.269	2879.67
970.571	2890.52
970.872	2870.86
971.174	2857.75
971.475	2860.46
971.776	2831.76
972.077	2822.04
972.378	2832.21
972.679	2804.19
972.98	2810.52
973.281	2795.15
973.582	2778.2
973.883	2764.19
974.183	2777.98
974.484	2773.01
974.785	2702.5
975.085	2718.54
975.386	2729.39
975.686	2708.38
975.986	2685.78
976.287	2677.19
976.587	2670.41
976.887	2667.7
977.187	2674.93
977.487	2666.57
977.787	2615.27
978.087	2588.6
978.387	2598.1
978.687	2595.16
978.987	2523.07
979.286	2573.46
979.586	2528.94
979.885	2529.17
980.185	2531.66
980.484	2498.66
980.784	2489.4
981.083	2456.63
981.382	2488.27
981.682	2439.46
981.981	2458.44
982.28	2471.77
982.579	2439.91
982.878	2407.37
983.177	2442.85
983.475	2426.12
983.774	2388.16
984.073	2395.16
984.372	2372.79
984.67	2356.07
984.969	2340.93
985.267	2328.72
985.566	2316.3
985.864	2338.67
986.162	2311.55
986.461	2300.25
986.759	2312.45
987.057	2281.04
987.355	2264.32
987.653	2295.96
987.951	2278.78
988.249	2259.12
988.547	2245.34
988.844	2217.09
989.142	2236.3
989.44	2202.4
989.737	2193.36
990.035	2219.35
990.332	2191.33
990.63	2181.38
990.927	2130.99
991.224	2134.15
991.521	2124.66
991.819	2125.34
992.116	2096.64
992.413	2088.5
992.71	2087.15
993.006	2087.37
993.303	2073.59
993.6	2075.62
993.897	2034.49
994.193	2078.79
994.49	2052.35
994.787	2014.61
995.083	2031.56
995.379	1968.96
995.676	2018.22
995.972	1979.58
996.268	1959.47
996.565	1977.55
996.861	1992.46
997.157	1963.54
997.453	1922.86
997.749	1933.71
998.044	1918.34
998.34	1920.6
998.636	1926.7
998.932	1909.98
999.227	1886.7
999.523	1898
999.818	1853.93
1000.114	1864.1
1000.409	1851.67
1000.704	1859.13
1001	1830.21
1001.295	1830.43
1001.59	1816.2
1001.885	1798.57
1002.18	1802.86
1002.475	1803.77
1002.77	1784.78
1003.065	1785.24
1003.359	1774.61
1003.654	1745.01
1003.949	1720.6
1004.243	1742.3
1004.538	1731.9
1004.832	1742.3
1005.127	1703.66
1005.421	1691.9
1005.715	1673.15
1006.009	1697.78
1006.304	1645.58
1006.598	1671.79
1006.892	1659.82
1007.186	1660.72
1007.48	1620.27
1007.773	1622.53
1008.067	1610.78
1008.361	1607.61
1008.655	1622.53
1008.948	1596.09
1009.242	1559.48
1009.535	1599.03
1009.829	1582.08
1010.122	1534.39
1010.415	1596.77
1010.708	1569.42
1011.001	1514.96
1011.295	1524
1011.588	1550.44
1011.881	1546.37
1012.173	1455.75
1012.466	1490.1
1012.759	1482.19
1013.052	1465.7
1013.344	1472.48
1013.637	1484.45
1013.93	1466.15
1014.222	1443.78
1014.514	1450.1
1014.807	1441.74
1015.099	1421.4
1015.391	1435.64
1015.683	1386.83
1015.976	1415.08
1016.268	1398.35
1016.56	1386.83
1016.851	1389.31
1017.143	1365.36
1017.435	1333.72
1017.727	1348.64
1018.018	1340.95
1018.31	1303.21
1018.602	1322.42
1018.893	1318.13
1019.185	1323.33
1019.476	1295.76
1019.767	1283.1
1020.058	1285.36
1020.35	1272.71
1020.641	1266.15
1020.932	1241.52
1021.223	1228.87
1021.514	1234.06
1021.804	1228.87
1022.095	1251.69
1022.386	1237
1022.677	1215.53
1022.967	1221.63
1023.258	1194.52
1023.548	1192.71
1023.839	1180.28
1024.129	1177.79
1024.419	1174.18
1024.709	1152.71
1025	1161.52
1025.29	1159.49
1025.58	1131.02
1025.87	1150.68
1026.16	1144.57
1026.449	1140.28
1026.739	1124.46
1027.029	1125.14
1027.319	1099.6
1027.608	1094.63
1027.898	1074.75
1028.187	1056.22
1028.477	1078.14
1028.766	1067.29
1029.055	1039.27
1029.344	1046.95
1029.634	1032.26
1029.923	1023.9
1030.212	1017.57
1030.501	1012.37
1030.79	1005.14
1031.078	1025.93
1031.367	1021.87
1031.656	1010.34
1031.945	969.44
1032.233	981.19
1032.522	982.09
1032.81	975.99
1033.099	962.21
1033.387	959.04
1033.675	979.38
1033.963	935.54
1034.251	949.33
1034.54	917.46
1034.828	926.28
1035.116	922.21
1035.403	941.64
1035.691	931.02
1035.979	932.6
1036.267	902.55
1036.554	897.58
1036.842	881.76
1037.129	872.04
1037.417	905.03
1037.704	887.18
1037.992	876.56
1038.279	882.21
1038.566	829.33
1038.853	829.33
1039.14	829.33
