Data from hue_90_FLMS001491_97.txt Node
Date: Mon Feb 06 15:25:57 GMT 2017
User: dcchb
Spectrometer: FLMS00149
Trigger mode: 0
Integration Time (sec): 2.000000E-2
Scans to average: 10
Electric dark correction enabled: true
Nonlinearity correction enabled: false
Boxcar width: 0
XAxis mode: Wavelengths
Number of Pixels in Spectrum: 2048
>>>>>Begin Spectral Data<<<<<
341.393	-11.72
341.776	-11.72
342.16	-11.72
342.543	-39.29
342.927	-54.21
343.31	-72.29
343.693	-67.54
344.077	-65.73
344.46	-61.89
344.843	-50.82
345.226	-50.59
345.61	-18.95
345.993	-4.04
346.376	-9.24
346.759	14.94
347.142	11.55
347.525	44.77
347.908	58.33
348.291	63.3
348.674	85
349.057	123.19
349.44	134.04
349.823	143.98
350.206	173.58
350.588	183.3
350.971	215.84
351.354	236.41
351.737	232.56
352.119	261.26
352.502	259.91
352.884	292.22
353.267	267.37
353.65	291.09
354.032	300.81
354.414	313.24
354.797	312.79
355.179	308.04
355.562	324.09
355.944	306.91
356.326	313.01
356.709	348.04
357.091	326.57
357.473	353.47
357.855	357.53
358.238	348.04
358.62	346.69
359.002	344.2
359.384	332.45
359.766	355.5
360.148	335.61
360.53	335.39
360.912	337.42
361.294	343.3
361.676	328.61
362.057	318.44
362.439	333.8
362.821	324.54
363.203	316.18
363.584	324.31
363.966	342.39
364.348	312.56
364.729	310.3
365.111	328.83
365.493	305.56
365.874	303.75
366.256	304.43
366.637	314.6
367.019	308.49
367.4	310.08
367.781	326.35
368.163	332.67
368.544	342.39
368.925	311.43
369.306	317.08
369.688	307.14
370.069	338.32
370.45	313.92
370.831	320.25
371.212	319.79
371.593	313.47
371.974	298.1
372.355	316.4
372.736	296.74
373.117	313.01
373.498	313.01
373.879	306.91
374.26	323.18
374.641	298.55
375.021	307.59
375.402	320.92
375.783	323.64
376.163	313.01
376.544	321.83
376.925	324.99
377.305	343.3
377.686	327.7
378.066	329.74
378.447	332.67
378.827	341.94
379.208	319.34
379.588	344.2
379.968	351.43
380.349	317.53
380.729	329.96
381.109	329.29
381.489	345.56
381.87	357.98
382.25	337.19
382.63	340.36
383.01	343.3
383.39	348.95
383.77	358.21
384.15	344.88
384.53	365.44
384.91	360.92
385.29	355.95
385.67	381.71
386.049	355.95
386.429	343.07
386.809	336.29
387.189	359.79
387.568	364.09
387.948	374.71
388.328	358.66
388.707	359.11
389.087	359.79
389.466	363.18
389.846	370.87
390.225	380.36
390.605	365.22
390.984	361.6
391.363	363.41
391.743	361.83
392.122	360.7
392.501	373.35
392.881	362.05
393.26	409.28
393.639	394.59
394.018	369.96
394.397	389.4
394.776	372.9
395.155	384.65
395.534	385.1
395.913	381.04
396.292	382.17
396.671	405.89
397.05	378.1
397.429	385.33
397.808	381.26
398.186	401.6
398.565	404.54
398.944	390.07
399.323	400.92
399.701	375.16
400.08	391.43
400.458	407.93
400.837	401.15
401.215	401.83
401.594	396.85
401.972	411.09
402.351	413.12
402.729	416.06
403.107	400.24
403.486	406.35
403.864	423.97
404.242	438.66
404.62	422.62
404.999	430.53
405.377	417.64
405.755	427.36
406.133	428.94
406.511	424.2
406.889	415.84
407.267	439.34
407.645	449.28
408.023	441.37
408.401	438.21
408.779	444.76
409.156	452.45
409.534	442.73
409.912	429.85
410.29	468.04
410.667	449.06
411.045	443.41
411.422	462.61
411.8	445.44
412.178	476.4
412.555	466.68
412.933	496.51
413.31	445.67
413.687	487.25
414.065	493.12
414.442	479.11
414.819	472.78
415.197	502.61
415.574	482.95
415.951	503.97
416.328	500.81
416.705	502.61
417.082	500.13
417.46	505.78
417.837	503.29
418.214	503.29
418.591	522.05
418.967	508.26
419.344	511.43
419.721	517.3
420.098	533.12
420.475	510.07
420.852	532.67
421.228	518.21
421.605	540.8
421.982	556.4
422.358	541.48
422.735	548.04
423.111	565.21
423.488	569.73
423.864	547.36
424.241	571.99
424.617	578.77
424.994	572.22
425.37	565.89
425.746	561.14
426.123	580.8
426.499	574.7
426.875	570.18
427.251	595.04
427.627	581.93
428.003	596.17
428.379	592.33
428.756	632.1
429.132	615.38
429.507	621.71
429.883	600.92
430.259	619.22
430.635	640.46
431.011	620.8
431.387	632.33
431.763	622.84
432.138	645.89
432.514	656.06
432.89	664.19
433.265	681.82
433.641	664.42
434.016	661.93
434.392	687.24
434.767	699.67
435.143	680.46
435.518	709.61
435.894	717.98
436.269	709.16
436.644	741.93
437.02	700.35
437.395	736.28
437.77	733.34
438.145	759.56
438.52	743.51
438.895	760.69
439.271	749.16
439.646	739.67
440.021	760.01
440.395	752.1
440.77	761.59
441.145	772.44
441.52	795.94
441.895	791.87
442.27	799.33
442.645	780.8
443.019	791.65
443.394	795.26
443.769	819.89
444.143	820.35
444.518	823.96
444.892	818.09
445.267	840.01
445.641	858.99
446.016	848.59
446.39	844.07
446.764	839.55
447.139	856.95
447.513	849.05
447.887	855.6
448.262	871.87
448.636	887.69
449.01	901.25
449.384	908.03
449.758	916.84
450.132	922.26
450.506	899.44
450.88	916.16
451.254	939.21
451.628	901.93
452.002	938.31
452.376	948.25
452.75	950.51
453.123	981.02
453.497	973.11
453.871	969.95
454.244	989.83
454.618	990.96
454.992	1004.07
455.365	1007.46
455.739	1037.06
456.112	1039.1
456.486	1054.69
456.859	1070.73
457.232	1081.81
457.606	1078.64
457.979	1109.15
458.352	1125.42
458.725	1091.3
459.099	1124.52
459.472	1138.08
459.845	1145.76
460.218	1162.71
460.591	1162.71
460.964	1192.77
461.337	1195.48
461.71	1232.31
462.083	1209.26
462.456	1254.68
462.829	1270.5
463.201	1290.84
463.574	1289.26
463.947	1299.2
464.32	1340.11
464.692	1327
465.065	1369.94
465.438	1365.87
465.81	1399.54
466.183	1404.51
466.555	1445.41
466.928	1453.32
467.3	1447
467.672	1493.1
468.045	1528.58
468.417	1536.26
468.789	1527.67
469.161	1567.22
469.534	1584.62
469.906	1660.32
470.278	1662.81
470.65	1677.05
471.022	1734.67
471.394	1733.32
471.766	1782.13
472.138	1788.91
472.51	1856.48
472.882	1868
473.253	1912.29
473.625	1909.81
473.997	1955.68
474.369	2011.27
474.74	2041.33
475.112	2104.15
475.484	2161.1
475.855	2176.24
476.227	2232.29
476.598	2315.45
476.97	2340.31
477.341	2402.68
477.713	2454.43
478.084	2502.11
478.455	2611.03
478.827	2642.67
479.198	2715.44
479.569	2775.32
479.94	2867.75
480.311	2911.82
480.682	3001.53
481.053	3113.84
481.424	3180.74
481.795	3270.22
482.166	3316.33
482.537	3407.62
482.908	3521.97
483.279	3613.04
483.65	3676.77
484.021	3825.46
484.391	3868.85
484.762	3997.21
485.133	3996.99
485.503	4153.82
485.874	4239.01
486.244	4384.32
486.615	4502.73
486.985	4600.59
487.356	4677.19
487.726	4798.55
488.097	4993.57
488.467	5071.99
488.837	5199.89
489.207	5276.27
489.578	5441.92
489.948	5540.22
490.318	5664.74
490.688	5802.14
491.058	5874
491.428	6035.12
491.798	6152.63
492.168	6302.69
492.538	6350.82
492.908	6516.69
493.278	6644.37
493.648	6746.52
494.017	6891.82
494.387	6980.41
494.757	7122.33
495.126	7247.52
495.496	7287.75
495.866	7423.11
496.235	7587.63
496.605	7673.95
496.974	7792.59
497.344	7908.07
497.713	7983.55
498.082	8135.18
498.452	8178.8
498.821	8251.34
499.19	8376.76
499.559	8540.37
499.928	8635.73
500.298	8679.12
500.667	8825.11
501.036	8879.34
501.405	8893.13
501.774	8997.76
502.143	9197.3
502.512	9186.68
502.88	9383.28
503.249	9362.72
503.618	9440.01
503.987	9558.2
504.356	9641.81
504.724	9779.66
505.093	9755.7
505.462	9744.63
505.83	9929.48
506.199	9973.33
506.567	10077.28
506.936	10161.12
507.304	10270.04
507.672	10290.15
508.041	10373.99
508.409	10444.73
508.777	10606.08
509.145	10602.91
509.514	10591.84
509.882	10688.33
510.25	10710.71
510.618	10849.01
510.986	10783.25
511.354	10913.87
511.722	11030.25
512.09	11137.14
512.458	11110.24
512.826	11220.07
513.193	11314.76
513.561	11279.73
513.929	11307.3
514.297	11387.75
514.664	11524.47
515.032	11508.88
515.4	11523.79
515.767	11566.05
516.135	11655.09
516.502	11603.34
516.869	11726.95
517.237	11705.03
517.604	11736.67
517.972	11822.77
518.339	11865.48
518.706	11838.14
519.073	11857.12
519.44	12013.72
519.808	12053.27
520.175	11974.63
520.542	12120.39
520.909	12111.12
521.276	12173.49
521.643	12273.38
522.009	12232.25
522.376	12226.15
522.743	12347.73
523.11	12436.09
523.477	12497.1
523.843	12469.98
524.21	12508.63
524.577	12627.72
524.943	12637.66
525.31	12722.41
525.676	12733.48
526.043	12702.29
526.409	12751.56
526.776	12775.29
527.142	12809.86
527.508	12784.1
527.874	12768.28
528.241	12879.46
528.607	12889.41
528.973	12949.07
529.339	12930.99
529.705	13025.22
530.071	12968.05
530.437	13005.79
530.803	13069.06
531.169	12948.61
531.535	12865.68
531.901	12900.48
532.267	13049.18
532.632	13017.31
532.998	12987.48
533.364	13041.72
533.73	13011.44
534.095	13078.33
534.461	13008.95
534.826	12974.15
535.192	13025.45
535.557	13099.12
535.923	12962.85
536.288	13016.86
536.653	13025.45
537.019	12910.2
537.384	12956.75
537.749	12932.57
538.114	12978.44
538.479	12894.15
538.845	12951.33
539.21	12831.1
539.575	12869.97
539.94	12857.32
540.305	12903.64
540.67	12800.14
541.034	12772.12
541.399	12769.41
541.764	12705.46
542.129	12746.13
542.494	12730.09
542.858	12689.86
543.223	12643.99
543.587	12724.21
543.952	12618.23
544.316	12667.49
544.681	12540.04
545.045	12590.43
545.41	12605.12
545.774	12487.84
546.138	12476.31
546.503	12479.7
546.867	12453.49
547.231	12518.8
547.595	12419.59
547.959	12420.27
548.324	12410.1
548.688	12309.31
549.052	12326.48
549.416	12301.4
549.779	12330.55
550.143	12259.14
550.507	12352.92
550.871	12315.18
551.235	12225.02
551.599	12310.89
551.962	12221.18
552.326	12169.43
552.689	12169.65
553.053	12145.7
553.417	12134.62
553.78	12204.91
554.143	12157.45
554.507	12152.93
554.87	12131.01
555.234	12261.63
555.597	12070.45
555.96	12044.01
556.323	12112.7
556.686	12113.83
557.05	12113.61
557.413	12102.76
557.776	12067.73
558.139	12126.49
558.502	12067.28
558.865	12103.89
559.228	12084.68
559.59	12027.06
559.953	12114.74
560.316	12143.21
560.679	12098.69
561.041	12186.6
561.404	12131.01
561.767	12149.54
562.129	12109.31
562.492	12174.62
562.854	12181.4
563.217	12102.76
563.579	12105.02
563.941	12179.14
564.304	12241.06
564.666	12328.97
565.028	12238.12
565.39	12238.58
565.753	12262.98
566.115	12366.26
566.477	12262.3
566.839	12366.03
567.201	12332.81
567.563	12310.44
567.925	12427.05
568.287	12382.08
568.648	12394.28
569.01	12446.03
569.372	12508.85
569.734	12424.56
570.095	12409.87
570.457	12439.02
570.819	12486.03
571.18	12501.39
571.542	12557.21
571.903	12504.33
572.265	12500.26
572.626	12580.94
572.987	12636.98
573.349	12590.88
573.71	12590.21
574.071	12608.96
574.432	12690.32
574.794	12733.48
575.155	12605.12
575.516	12699.81
575.877	12614.61
576.238	12634.5
576.599	12735.06
576.96	12739.81
577.32	12680.82
577.681	12695.51
578.042	12693.71
578.403	12694.38
578.763	12725.34
579.124	12788.39
579.485	12751.78
579.845	12833.59
580.206	12729.64
580.566	12765.34
580.927	12665.91
581.287	12753.14
581.648	12785.23
582.008	12786.36
582.368	12841.05
582.728	12730.77
583.089	12780.71
583.449	12759.24
583.809	12808.96
584.169	12775.96
584.529	12684.21
584.889	12837.43
585.249	12745
585.609	12701.16
585.969	12719.47
586.329	12735.74
586.688	12705
587.048	12754.95
587.408	12646.25
587.768	12631.11
588.127	12665.23
588.487	12668.4
588.846	12635.85
589.206	12620.94
589.565	12650.32
589.925	12665.46
590.284	12658.23
590.643	12612.58
591.003	12671.79
591.362	12695.06
591.721	12634.95
592.08	12582.3
592.44	12589.3
592.799	12615.52
593.158	12696.19
593.517	12668.62
593.876	12590.21
594.235	12553.37
594.593	12588.17
594.952	12518.57
595.311	12444.67
595.67	12582.75
596.029	12603.99
596.387	12659.36
596.746	12594.05
597.104	12543.2
597.463	12483.09
597.822	12575.06
598.18	12506.37
598.538	12502.75
598.897	12589.75
599.255	12500.94
599.613	12643.76
599.972	12524.67
600.33	12529.64
600.688	12526.03
601.046	12545.46
601.404	12637.44
601.762	12518.8
602.12	12653.48
602.478	12598.34
602.836	12578.23
603.194	12505.01
603.552	12602.41
603.91	12464.56
604.268	12542.3
604.625	12433.83
604.983	12491
605.341	12492.13
605.698	12611
606.056	12604.89
606.413	12527.61
606.771	12610.32
607.128	12621.84
607.485	12514.28
607.843	12562.18
608.2	12611.67
608.557	12639.24
608.914	12596.53
609.272	12652.35
609.629	12629.07
609.986	12655.74
610.343	12669.53
610.7	12736.42
611.057	12668.62
611.414	12695.51
611.771	12637.89
612.127	12746.81
612.484	12709.52
612.841	12757.21
613.198	12691.9
613.554	12618.68
613.911	12760.14
614.267	12712.91
614.624	12734.16
614.98	12686.7
615.337	12874.72
615.693	12735.51
616.05	12780.71
616.406	12901.38
616.762	12770.54
617.118	12852.8
617.475	12771.22
617.831	12898.9
618.187	12866.36
618.543	12944.77
618.899	12937.99
619.255	12876.07
619.611	12845.57
619.967	12958.11
620.323	12972.12
620.678	12935.96
621.034	12909.07
621.39	12918.78
621.746	12914.49
622.101	13024.77
622.457	12867.49
622.812	12921.72
623.168	12962.17
623.523	12985.22
623.879	13055.28
624.234	12928.28
624.589	12973.25
624.945	13002.62
625.3	12941.83
625.655	12899.8
626.01	13020.48
626.365	12908.39
626.72	12870.65
627.075	12946.13
627.43	12886.92
627.785	12892.34
628.14	12884.66
628.495	12892.57
628.85	12891.44
629.205	12900.25
629.559	12914.04
629.914	12863.19
630.269	12919.01
630.623	12871.78
630.978	12853.02
631.332	12833.14
631.687	12822.29
632.041	12741.61
632.396	12818.67
632.75	12732.35
633.104	12775.96
633.459	12651
633.813	12648.74
634.167	12763.31
634.521	12626.59
634.875	12668.62
635.229	12702.97
635.583	12620.49
635.937	12647.61
636.291	12659.58
636.645	12664.78
636.999	12608.51
637.352	12576.87
637.706	12561.51
638.06	12638.34
638.413	12575.97
638.767	12522.64
639.121	12502.52
639.474	12454.84
639.828	12537.1
640.181	12519.25
640.534	12498.46
640.888	12417.55
641.241	12454.62
641.594	12468.17
641.947	12420.72
642.301	12336.2
642.654	12450.55
643.007	12404.22
643.36	12414.62
643.713	12446.25
644.066	12430.66
644.419	12335.3
644.771	12266.37
645.124	12140.05
645.477	12161.52
645.83	12117.45
646.182	12077.22
646.535	11977.79
646.888	12016.89
647.24	11980.96
647.593	12026.15
647.945	11959.71
648.298	11892.14
648.65	11928.75
649.002	11886.5
649.355	11912.26
649.707	11917.23
650.059	11925.36
650.411	12135.08
650.763	12132.14
651.115	12277.22
651.467	12268.18
651.819	12198.13
652.171	12275.41
652.523	12216.88
652.875	12226.83
653.227	12157
653.578	12202.19
653.93	12275.64
654.282	12208.07
654.633	12107.28
654.985	12087.62
655.337	12166.71
655.688	12208.97
656.039	12095.98
656.391	12123.1
656.742	12163.1
657.094	12161.52
657.445	12208.52
657.796	12168.97
658.147	12195.64
658.498	12200.39
658.849	12157.9
659.2	12141.63
659.551	12086.26
659.902	12153.61
660.253	12099.15
660.604	12191.35
660.955	12117.9
661.306	12189.54
661.656	12151.8
662.007	12123.33
662.358	12111.57
662.708	12179.37
663.059	12092.82
663.409	12063.67
663.76	12214.4
664.11	12238.35
664.461	12166.49
664.811	12235.86
665.161	12163.1
665.511	12147.73
665.862	12156.54
666.212	12192.02
666.562	12268.18
666.912	12181.4
667.262	12187.73
667.612	12152.03
667.962	12214.62
668.312	12231.12
668.662	12236.77
669.011	12273.38
669.361	12166.94
669.711	12164
670.06	12160.61
670.41	12085.81
670.76	12099.15
671.109	12238.12
671.459	12250.55
671.808	12131.01
672.157	12143.44
672.507	12130.33
672.856	12106.38
673.205	12166.04
673.554	12149.31
673.904	12058.69
674.253	12161.52
674.602	12050.56
674.951	11935.53
675.3	11863.45
675.649	12000.62
675.998	11932.6
676.346	11997
676.695	12089.88
677.044	11919.49
677.393	11961.07
677.741	11943.67
678.09	11907.06
678.438	11887.63
678.787	11924.69
679.135	11953.16
679.484	11756.1
679.832	11899.38
680.181	11864.8
680.529	11885.82
680.877	11777.57
681.225	11755.43
681.573	11827.51
681.922	11805.14
682.27	11750.68
682.618	11829.32
682.966	11776.44
683.314	11773.73
683.661	11666.61
684.009	11633.17
684.357	11623.23
684.705	11532.61
685.053	11571.7
685.4	11583.45
685.748	11528.31
686.095	11573.51
686.443	11498.71
686.79	11330.58
687.138	11481.53
687.485	11397.92
687.832	11351.14
688.18	11417.81
688.527	11349.79
688.874	11301.2
689.221	11316.11
689.568	11252.39
689.915	11242.67
690.262	11227.53
690.609	11151.83
690.956	11119.96
691.303	11062.11
691.65	11065.27
691.997	11038.16
692.344	10927.65
692.69	10961.77
693.037	10945.5
693.383	10879.29
693.73	10825.28
694.077	10821.44
694.423	10823.7
694.769	10752.74
695.116	10709.58
695.462	10729.69
695.808	10686.53
696.155	10720.2
696.501	10556.13
696.847	10597.49
697.193	10535.8
697.539	10504.61
697.885	10436.59
698.231	10415.57
698.577	10412.41
698.923	10362.47
699.269	10338.74
699.614	10227.33
699.96	10180.1
700.306	10250.83
700.651	10230.95
700.997	10160.89
701.342	10150.95
701.688	10107.33
702.033	10022.59
702.379	9969.94
702.724	9997.51
703.069	9992.76
703.415	9862.37
703.76	9905.3
704.105	9887.9
704.45	9852.65
704.795	9710.28
705.14	9736.95
705.485	9708.47
705.83	9790.73
706.175	9692.2
706.52	9689.04
706.865	9587.8
707.209	9615.14
707.554	9536.5
707.899	9597.52
708.243	9580.57
708.588	9451.98
708.932	9411.98
709.277	9387.8
709.621	9434.58
709.966	9381.02
710.31	9440.46
710.654	9271.42
710.998	9277.3
711.342	9299.44
711.687	9278.65
712.031	9211.99
712.375	9181.71
712.719	9248.37
713.063	9164.76
713.407	9228.49
713.75	9128.6
714.094	9204.53
714.438	9083.41
714.782	9092.67
715.125	9073.69
715.469	9066.91
715.812	9029.85
716.156	8945.1
716.499	8999.11
716.843	9016.29
717.186	8904.65
717.53	8963.41
717.873	8979.68
718.216	8954.14
718.559	8912.34
718.902	8820.36
719.246	8883.64
719.589	8844.54
719.932	8808.38
720.275	8885.9
720.617	8797.09
720.96	8845.45
721.303	8815.84
721.646	8768.84
721.989	8776.52
722.331	8755.05
722.674	8743.75
723.016	8724.77
723.359	8726.35
723.701	8812.9
724.044	8648.61
724.386	8686.58
724.729	8690.87
725.071	8673.02
725.413	8649.52
725.755	8658.78
726.097	8606.13
726.439	8598.22
726.782	8597.54
727.124	8673.92
727.465	8659.69
727.807	8609.75
728.149	8607.49
728.491	8539.24
728.833	8670.76
729.175	8512.8
729.516	8562.97
729.858	8526.81
730.199	8498.79
730.541	8587.83
730.882	8485.68
731.224	8549.63
731.565	8537.2
731.906	8549.63
732.248	8548.28
732.589	8488.17
732.93	8472.8
733.271	8466.02
733.612	8495.4
733.953	8517.77
734.294	8520.48
734.635	8471.9
734.976	8522.97
735.317	8441.61
735.658	8480.48
735.999	8494.27
736.339	8490.88
736.68	8550.31
737.021	8462.18
737.361	8478.45
737.702	8501.27
738.042	8537.43
738.383	8507.15
738.723	8556.64
739.063	8432.57
739.404	8586.92
739.744	8551.44
740.084	8545.79
740.424	8597.09
740.764	8569.07
741.104	8601.61
741.444	8615.85
741.784	8571.55
742.124	8529.75
742.464	8594.6
742.804	8616.75
743.143	8574.94
743.483	8623.53
743.823	8683.87
744.162	8678.22
744.502	8708.73
744.841	8698.56
745.181	8779.46
745.52	8765.45
745.86	8798.89
746.199	8882.96
746.538	8854.26
746.877	8897.42
747.216	8878.89
747.556	8960.7
747.895	9013.12
748.234	9002.5
748.573	9110.3
748.911	9106.23
749.25	9120.24
749.589	9155.27
749.928	9268.26
750.267	9353.68
750.605	9283.17
750.944	9434.13
751.283	9533.79
751.621	9574.47
751.96	9555.48
752.298	9732.65
752.636	9749.15
752.975	9782.37
753.313	9815.14
753.651	9981.01
753.989	10096.03
754.327	10205.64
754.666	10197.95
755.004	10346.42
755.342	10469.58
755.679	10538.96
756.017	10629.58
756.355	10787.77
756.693	10812.85
757.031	10986.41
757.368	11093.07
757.706	11235.89
758.044	11389.79
758.381	11486.51
758.719	11556.79
759.056	11771.02
759.394	11839.26
759.731	11909.55
760.068	12020.05
760.405	12163.55
760.743	12276.32
761.08	12534.16
761.417	12563.54
761.754	12706.81
762.091	12761.05
762.428	12963.08
762.765	13081.49
763.102	13229.51
763.438	13362.84
763.775	13428.6
764.112	13677.18
764.449	13763.73
764.785	13911.07
765.122	13928.48
765.458	14068.81
765.795	14192.2
766.131	14330.72
766.467	14419.08
766.804	14591.28
767.14	14647.78
767.476	14800.77
767.812	14824.95
768.148	14993.98
768.485	15044.6
768.821	15154.66
769.157	15274.2
769.492	15362.11
769.828	15422.22
770.164	15461.09
770.5	15561.2
770.836	15668.32
771.171	15702.44
771.507	15842.32
771.842	15845.71
772.178	15973.39
772.513	16065.82
772.849	16082.54
773.184	16112.37
773.519	16171.13
773.855	16229.88
774.19	16262.88
774.525	16242.31
774.86	16386.04
775.195	16390.78
775.53	16416.09
775.865	16519.37
776.2	16346.27
776.535	16524.57
776.87	16606.15
777.205	16558.46
777.539	16610.66
777.874	16659.03
778.209	16659.48
778.543	16619.93
778.878	16626.26
779.212	16632.81
779.547	16625.58
779.881	16720.04
780.215	16633.49
780.55	16719.59
780.884	16661.96
781.218	16587.39
781.552	16835.52
781.886	16749.87
782.22	16659.03
782.554	16588.29
782.888	16626.03
783.222	16601.85
783.556	16576.32
783.889	16503.78
784.223	16488.86
784.557	16494.06
784.89	16569.99
785.224	16478.92
785.557	16574.06
785.891	16466.94
786.224	16420.84
786.558	16413.38
786.891	16381.97
787.224	16351.24
787.557	16278.02
787.891	16307.17
788.224	16270.33
788.557	16402.08
788.89	16323.67
789.223	16429.88
789.556	16285.25
789.888	16198.25
790.221	16182.43
790.554	16063.79
790.887	16107.63
791.219	16051.13
791.552	16026.95
791.884	16042.32
792.217	15988.76
792.549	15840.29
792.882	15848.43
793.214	15844.81
793.546	15891.14
793.879	15741.99
794.211	15705.6
794.543	15793.74
794.875	15714.42
795.207	15844.58
795.539	15657.7
795.871	15695.89
796.203	15566.17
796.535	15591.71
796.867	15410.24
797.198	15400.75
797.53	15491.15
797.862	15406.85
798.193	15360.08
798.525	15355.56
798.856	15376.35
799.188	15155.34
799.519	15201.21
799.85	15111.27
800.182	15073.76
800.513	15109.69
800.844	14902.69
801.175	15158.05
801.506	15067.43
801.837	14932.52
802.168	14949.47
802.499	14916.25
802.83	14806.64
803.161	14883.03
803.491	14762.8
803.822	14706.76
804.153	14724.84
804.483	14602.81
804.814	14530.27
805.145	14630.6
805.475	14565.75
805.805	14515.13
806.136	14517.16
806.466	14489.36
806.796	14461.12
807.126	14399.2
807.457	14352.19
807.787	14320.1
808.117	14302.48
808.447	14262.25
808.777	14278.52
809.107	14182.03
809.436	14234.23
809.766	14097.28
810.096	14216.6
810.426	14055.93
810.755	14119.88
811.085	14054.57
811.414	14066.33
811.744	14011.19
812.073	13997.4
812.403	13880.34
812.732	13875.6
813.061	13833.79
813.39	13742.72
813.719	13789.27
814.049	13814.35
814.378	13754.02
814.707	13700.46
815.036	13664.53
815.365	13586.79
815.693	13500.01
816.022	13566
816.351	13505.66
816.68	13418.21
817.008	13506.79
817.337	13430.64
817.665	13349.28
817.994	13383.41
818.322	13407.13
818.651	13377.08
818.979	13297.76
819.307	13284.2
819.636	13299.11
819.964	13225.22
820.292	13259.11
820.62	13168.5
820.948	13208.95
821.276	13235.61
821.604	13199
821.932	13244.43
822.259	13259.79
822.587	13148.38
822.915	13135.5
823.243	13204.88
823.57	13093.47
823.898	13211.66
824.225	13142.96
824.553	13114.94
824.88	13202.84
825.207	13183.18
825.535	13180.47
825.862	13204.65
826.189	13168.5
826.516	13160.13
826.843	13229.06
827.17	13215.05
827.497	13286.01
827.824	13147.48
828.151	13205.33
828.478	13178.66
828.805	13319
829.131	13231.77
829.458	13131.89
829.785	13109.06
830.111	13156.97
830.438	13236.29
830.764	13128.27
831.09	13141.83
831.417	13089.18
831.743	13222.28
832.069	13149.51
832.395	13112.68
832.722	13238.78
833.048	13194.94
833.374	13163.98
833.7	13100.47
834.026	13073.81
834.351	13089.18
834.677	13107.93
835.003	13203.75
835.329	13134.15
835.654	13027.03
835.98	12914.49
836.306	12998.56
836.631	12978.67
836.956	13060.93
837.282	13037.88
837.607	12903.42
837.932	12898.67
838.258	12991.33
838.583	12904.1
838.908	12842.4
839.233	12814.38
839.558	12844.21
839.883	12806.02
840.208	12776.19
840.533	12769.86
840.858	12751.56
841.182	12735.74
841.507	12741.39
841.832	12687.15
842.156	12657.32
842.481	12657.32
842.805	12587.04
843.13	12564.9
843.454	12552.69
843.778	12476.31
844.103	12455.97
844.427	12383.66
844.751	12434.05
845.075	12366.03
845.399	12371.91
845.723	12348.63
846.047	12277.67
846.371	12263.66
846.695	12237.45
847.019	12138.92
847.343	12071.12
847.666	12015.08
847.99	11934.18
848.313	11962.65
848.637	11907.74
848.96	11867.74
849.284	11767.4
849.607	11720.17
849.931	11739.83
850.254	11668.87
850.577	11582.55
850.9	11505.94
851.223	11523.12
851.546	11453.96
851.869	11400.86
852.192	11477.01
852.515	11354.08
852.838	11319.28
853.161	11297.81
853.483	11246.74
853.806	11199.51
854.129	11132.16
854.451	11108.66
854.774	11082.9
855.096	10987.54
855.419	11030.02
855.741	10906.86
856.063	10937.82
856.385	10856.92
856.708	10852.85
857.03	10821.66
857.352	10816.69
857.674	10737.83
857.996	10712.97
858.318	10660.54
858.64	10712.97
858.961	10639.75
859.283	10636.36
859.605	10591.61
859.926	10590.48
860.248	10546.64
860.57	10478.85
860.891	10555.46
861.212	10457.15
861.534	10407.44
861.855	10418.51
862.176	10432.97
862.498	10458.74
862.819	10332.86
863.14	10316.37
863.461	10326.31
863.782	10297.16
864.103	10321.34
864.424	10236.37
864.745	10292.19
865.065	10224.39
865.386	10211.74
865.707	10113.43
866.027	10183.94
866.348	10147.56
866.668	10131.29
866.989	10132.87
867.309	9992.08
867.63	10055.81
867.95	9997.96
868.27	9955.7
868.59	10035.7
868.91	9978.3
869.23	10031.85
869.55	9933.33
869.87	9989.82
870.19	9958.86
870.51	9985.08
870.83	9954.79
871.15	9868.92
871.469	9874.8
871.789	9908.24
872.109	9897.17
872.428	9855.14
872.748	9870.96
873.067	9801.8
873.386	9788.47
873.706	9749.38
874.025	9682.26
874.344	9685.88
874.663	9693.56
874.982	9654.01
875.301	9697.85
875.62	9610.62
875.939	9654.92
876.258	9687.46
876.577	9620.57
876.896	9547.35
877.214	9600.23
877.533	9598.87
877.852	9584.41
878.17	9534.47
878.489	9589.61
878.807	9515.48
879.125	9488.14
879.444	9486.78
879.762	9449.72
880.08	9442.72
880.398	9389.16
880.716	9453.11
881.034	9392.32
881.352	9450.85
881.67	9368.82
881.988	9351.65
882.306	9308.26
882.624	9331.31
882.941	9290.86
883.259	9247.47
883.577	9150.3
883.894	9195.04
884.212	9181.48
884.529	9146.23
884.846	9155.72
885.164	9183.06
885.481	9118.43
885.798	9116.62
886.115	9042.05
886.432	8996.4
886.75	9042.5
887.067	8995.5
887.383	8954.14
887.7	8920.47
888.017	8986.46
888.334	8956.18
888.651	8908.27
888.967	8899
889.284	8737.88
889.6	8827.14
889.917	8728.39
890.233	8736.07
890.55	8709.86
890.866	8715.51
891.182	8670.76
891.498	8645.9
891.815	8667.6
892.131	8540.82
892.447	8558.9
892.763	8566.58
893.079	8560.03
893.395	8486.36
893.71	8477.32
894.026	8470.09
894.342	8453.59
894.657	8405.91
894.973	8344.89
895.289	8386.25
895.604	8328.17
895.92	8328.85
896.235	8261.73
896.55	8202.3
896.865	8253.82
897.181	8170.43
897.496	8143.54
897.811	8120.49
898.126	8123.66
898.441	8109.65
898.756	8095.41
899.071	8039.59
899.386	7990.78
899.7	7970.44
900.015	7946.94
900.33	7920.72
900.644	7895.87
900.959	7876.66
901.273	7880.95
901.588	7825.59
901.902	7739.26
902.216	7759.15
902.531	7638.47
902.845	7644.57
903.159	7698.36
903.473	7597.12
903.787	7573.84
904.101	7614.97
904.415	7515.99
904.729	7504.24
905.042	7496.33
905.356	7450.45
905.67	7408.65
905.984	7431.02
906.297	7373.17
906.611	7322.32
906.924	7302.66
907.237	7296.79
907.551	7210.91
907.864	7199.39
908.177	7251.14
908.491	7140.18
908.804	7130.46
909.117	7066.06
909.43	7073.97
909.743	7026.28
910.056	6979.73
910.368	6996.45
910.681	6991.48
910.994	6960.75
911.307	6864.03
911.619	6842.11
911.932	6859.06
912.244	6792.39
912.557	6840.98
912.869	6772.73
913.181	6739.96
913.494	6717.37
913.806	6667.2
914.118	6635.11
914.43	6611.83
914.742	6610.48
915.054	6558.27
915.366	6506.07
915.678	6516.47
915.99	6457.71
916.302	6472.17
916.613	6384.49
916.925	6422.68
917.236	6327.09
917.548	6313.76
917.859	6312.4
918.171	6300.65
918.482	6259.3
918.794	6269.47
919.105	6263.82
919.416	6212.29
919.727	6176.36
920.038	6238.73
920.349	6122.81
920.66	6099.75
920.971	6128.91
921.282	6074.9
921.593	6003.49
921.903	5996.93
922.214	5980.66
922.525	5956.71
922.835	5894.56
923.146	5865.86
923.456	5887.11
923.767	5862.92
924.077	5822.02
924.387	5868.35
924.697	5790.38
925.008	5805.53
925.318	5789.25
925.628	5716.26
925.938	5727.34
926.248	5645.3
926.558	5685.08
926.867	5665.87
927.177	5622.71
927.487	5614.34
927.796	5488.92
928.106	5581.12
928.416	5496.15
928.725	5553.1
929.034	5490.51
929.344	5506.78
929.653	5455.25
929.962	5411.19
930.271	5396.27
930.581	5341.58
930.89	5338.42
931.199	5291.64
931.508	5300.23
931.817	5316.5
932.125	5298.19
932.434	5260.68
932.743	5227.24
933.051	5202.15
933.36	5174.81
933.669	5140.01
933.977	5142.72
934.286	5123.51
934.594	5088.71
934.902	5061.36
935.21	5076.96
935.519	5038.77
935.827	5020.01
936.135	4996.06
936.443	4955.83
936.751	4921.03
937.059	4887.13
937.367	4915.61
937.674	4920.35
937.982	4860.92
938.29	4836.06
938.597	4812.56
938.905	4795.83
939.213	4755.61
939.52	4751.54
939.827	4718.55
940.135	4754.03
940.442	4721.94
940.749	4662.96
941.056	4654.37
941.363	4653.01
941.67	4646.01
941.977	4581.83
942.284	4574.37
942.591	4558.55
942.898	4518.1
943.205	4550.42
943.511	4483.3
943.818	4505.45
944.125	4463.41
944.431	4447.37
944.738	4433.58
945.044	4410.08
945.35	4394.04
945.657	4355.85
945.963	4301.16
946.269	4329.63
946.575	4354.49
946.881	4313.14
947.187	4303.64
947.493	4268.62
947.799	4248.5
948.105	4237.66
948.41	4211.89
948.716	4179.81
949.022	4170.09
949.327	4204.66
949.633	4138.45
949.938	4156.53
950.244	4142.74
950.549	4082.86
950.854	4040.6
951.16	4059.13
951.465	4038.11
951.77	4039.92
952.075	3995.63
952.38	3965.8
952.685	3974.39
952.99	3928.06
953.294	3930.09
953.599	3935.29
953.904	3904.56
954.209	3852.81
954.513	3874.05
954.818	3834.73
955.122	3833.15
955.426	3828.4
955.731	3779.36
956.035	3737.56
956.339	3781.62
956.643	3781.4
956.948	3748.4
957.252	3705.47
957.556	3740.49
957.86	3685.13
958.163	3715.86
958.467	3712.02
958.771	3646.94
959.075	3635.86
959.378	3612.81
959.682	3620.27
959.985	3613.72
960.289	3588.18
960.592	3567.62
960.896	3530.56
961.199	3547.96
961.502	3520.39
961.805	3500.5
962.108	3462.76
962.411	3472.03
962.714	3445.81
963.017	3460.28
963.32	3432.71
963.623	3416.21
963.926	3394.74
964.228	3377.57
964.531	3393.61
964.833	3373.27
965.136	3336.21
965.438	3319.26
965.741	3301.41
966.043	3262.32
966.345	3291.02
966.648	3262.54
966.95	3259.6
967.252	3207.18
967.554	3197.01
967.856	3206.95
968.158	3163.33
968.46	3186.39
968.761	3190.9
969.063	3143.67
969.365	3150
969.666	3143
969.968	3094.86
970.269	3123.11
970.571	3029.78
970.872	3081.3
971.174	3056.45
971.475	3044.02
971.776	3038.59
972.077	2973.51
972.378	3003.11
972.679	3048.08
972.98	3021.42
973.281	2959.72
973.582	2934.87
973.883	2953.17
974.183	2976
974.484	2936.45
974.785	2910.46
975.085	2881.31
975.386	2876.79
975.686	2863.68
975.986	2847.86
976.287	2818.71
976.587	2804.7
976.887	2772.84
977.187	2805.83
977.487	2810.58
977.787	2775.1
978.087	2778.71
978.387	2744.36
978.687	2760.63
978.987	2708.66
979.286	2704.36
979.586	2750.92
979.885	2684.48
980.185	2661.65
980.484	2655.55
980.784	2671.37
981.083	2650.35
981.382	2649.45
981.682	2625.5
981.981	2602.22
982.28	2581.2
982.579	2609
982.878	2559.51
983.177	2573.07
983.475	2559.28
983.774	2524.26
984.073	2546.63
984.372	2504.6
984.67	2508.66
984.969	2507.53
985.267	2494.65
985.566	2489.23
985.864	2465.95
986.162	2443.35
986.461	2445.16
986.759	2426.63
987.057	2434.54
987.355	2399.29
987.653	2399.29
987.951	2398.16
988.249	2376.46
988.547	2380.53
988.844	2384.82
989.142	2333.07
989.44	2355.22
989.737	2334.2
990.035	2330.59
990.332	2323.36
990.63	2308.22
990.927	2310.7
991.224	2282
991.521	2275.22
991.819	2299.4
992.116	2248.78
992.413	2226.18
992.71	2260.76
993.006	2215.56
993.303	2227.09
993.6	2215.56
993.897	2204.72
994.193	2170.37
994.49	2173.08
994.787	2150.93
995.083	2114.77
995.379	2108.45
995.676	2157.94
995.972	2130.82
996.268	2106.87
996.565	2124.72
996.861	2052.4
997.157	2065.96
997.453	2035
997.749	2068.22
998.044	2039.97
998.34	2051.27
998.636	2023.03
998.932	2017.15
999.227	2018.05
999.523	2021.22
999.818	1994.33
1000.114	1972.18
1000.409	1937.83
1000.704	1955.68
1001	1955.46
1001.295	1936.02
1001.59	1934.21
1001.885	1908
1002.18	1891.96
1002.475	1852.63
1002.77	1896.48
1003.065	1872.52
1003.359	1894.67
1003.654	1864.39
1003.949	1832.3
1004.243	1832.07
1004.538	1831.39
1004.832	1819.42
1005.127	1828
1005.421	1799.3
1005.715	1783.03
1006.009	1792.3
1006.304	1764.95
1006.598	1760.89
1006.892	1751.85
1007.186	1722.47
1007.48	1713.2
1007.773	1710.04
1008.067	1731.96
1008.361	1690.61
1008.655	1690.83
1008.948	1662.81
1009.242	1678.63
1009.535	1677.05
1009.829	1663.49
1010.122	1628.69
1010.415	1630.04
1010.708	1601.79
1011.001	1616.03
1011.295	1611.29
1011.588	1621
1011.881	1564.51
1012.173	1590.49
1012.466	1558.63
1012.759	1574.45
1013.052	1557.28
1013.344	1566.54
1013.637	1539.65
1013.93	1531.74
1014.222	1515.47
1014.514	1501.68
1014.807	1495.81
1015.099	1484.73
1015.391	1487.67
1015.683	1452.19
1015.976	1468.01
1016.268	1462.14
1016.56	1440.89
1016.851	1421.23
1017.143	1449.03
1017.435	1428.01
1017.727	1422.82
1018.018	1397.51
1018.31	1412.19
1018.602	1390.95
1018.893	1405.87
1019.185	1377.39
1019.476	1366.32
1019.767	1336.94
1020.058	1337.17
1020.35	1328.35
1020.641	1306.89
1020.932	1315.93
1021.223	1310.73
1021.514	1303.72
1021.804	1291.97
1022.095	1299.43
1022.386	1299.66
1022.677	1278.19
1022.967	1269.37
1023.258	1255.14
1023.548	1242.26
1023.839	1255.59
1024.129	1231.63
1024.419	1216.49
1024.709	1218.75
1025	1197.74
1025.29	1196.83
1025.58	1214.69
1025.87	1170.17
1026.16	1176.95
1026.449	1178.08
1026.739	1202.48
1027.029	1142.6
1027.319	1168.13
1027.608	1153.22
1027.898	1140.11
1028.187	1136.5
1028.477	1119.77
1028.766	1104.86
1029.055	1093.33
1029.344	1099.66
1029.634	1074.8
1029.923	1105.99
1030.212	1090.17
1030.501	1074.12
1030.79	1070.96
1031.078	1045.88
1031.367	1047.91
1031.656	1035.93
1031.945	1042.49
1032.233	1053.33
1032.522	1048.36
1032.81	1023.5
1033.099	1023.28
1033.387	991.87
1033.675	1018.08
1033.963	982.38
1034.251	990.28
1034.54	968.36
1034.828	963.39
1035.116	957.07
1035.403	967.69
1035.691	971.75
1035.979	964.07
1036.267	924.52
1036.554	944.86
1036.842	926.56
1037.129	935.14
1037.417	891.53
1037.704	902.38
1037.992	918.42
1038.279	913.45
1038.566	911.42
1038.853	911.42
1039.14	911.42
