Data from hue_240_FLMS001491_00063.txt Node
Date: Tue Feb 07 16:35:47 GMT 2017
User: dcchb
Spectrometer: FLMS00149
Trigger mode: 0
Integration Time (sec): 2.000000E-2
Scans to average: 10
Electric dark correction enabled: true
Nonlinearity correction enabled: false
Boxcar width: 0
XAxis mode: Wavelengths
Number of Pixels in Spectrum: 2048
>>>>>Begin Spectral Data<<<<<
341.393	-35.15
341.776	-35.15
342.16	-35.15
342.543	-64.31
342.927	-53.23
343.31	-68.37
343.693	-45.78
344.077	-61.82
344.46	-58.2
344.843	-52.1
345.226	-50.97
345.61	-50.07
345.993	-20.69
346.376	2.36
346.759	17.5
347.142	32.19
347.525	42.36
347.908	62.24
348.291	64.73
348.674	95.92
349.057	90.72
349.44	130.72
349.823	170.04
350.206	169.81
350.588	178.17
350.971	218.62
351.354	202.13
351.737	236.25
352.119	234.22
352.502	259.08
352.884	255.23
353.267	274.44
353.65	302.92
354.032	311.05
354.414	309.47
354.797	299.75
355.179	299.07
355.562	316.93
355.944	298.62
356.326	326.87
356.709	296.59
357.091	345.17
357.473	327.77
357.855	354.44
358.238	320.54
358.62	332.75
359.002	349.92
359.384	354.67
359.766	335.23
360.148	336.14
360.53	337.04
360.912	310.15
361.294	326.87
361.676	317.83
362.057	330.94
362.439	337.94
362.821	306.76
363.203	306.53
363.584	343.37
363.966	343.82
364.348	315.34
364.729	313.99
365.111	307.89
365.493	311.05
365.874	319.19
366.256	333.2
366.637	314.44
367.019	294.33
367.4	313.76
367.781	301.33
368.163	301.33
368.544	301.79
368.925	310.6
369.306	342.91
369.688	302.69
370.069	314.89
370.45	304.72
370.831	309.02
371.212	313.08
371.593	309.24
371.974	288.9
372.355	301.56
372.736	295.46
373.117	309.24
373.498	314.44
373.879	320.77
374.26	313.99
374.641	294.78
375.021	314.89
375.402	315.12
375.783	323.71
376.163	318.73
376.544	307.66
376.925	331.62
377.305	311.28
377.686	325.06
378.066	326.87
378.447	307.66
378.827	314.44
379.208	336.36
379.588	311.05
379.968	320.99
380.349	328
380.729	336.14
381.109	339.75
381.489	329.58
381.87	352.41
382.25	343.59
382.63	332.52
383.01	347.43
383.39	331.84
383.77	328
384.15	340.88
384.53	334.33
384.91	340.65
385.29	370.48
385.67	349.69
386.049	326.64
386.429	354.21
386.809	333.2
387.189	342.46
387.568	345.4
387.948	344.27
388.328	356.93
388.707	369.58
389.087	370.94
389.466	340.2
389.846	360.99
390.225	345.85
390.605	361.45
390.984	347.89
391.363	352.18
391.743	358.96
392.122	369.35
392.501	361.9
392.881	389.47
393.26	366.19
393.639	352.41
394.018	398.73
394.397	389.69
394.776	366.19
395.155	373.2
395.534	379.75
395.913	383.14
396.292	402.57
396.671	371.61
397.05	398.96
397.429	399.18
397.808	387.43
398.186	400.09
398.565	380.88
398.944	398.73
399.323	410.48
399.701	386.08
400.08	418.84
400.458	398.51
400.837	389.92
401.215	417.04
401.594	410.48
401.972	409.58
402.351	412.52
402.729	412.29
403.107	437.38
403.486	427.43
403.864	440.77
404.242	432.4
404.62	452.52
404.999	430.82
405.377	452.97
405.755	440.99
406.133	454.78
406.511	463.59
406.889	454.1
407.267	472.85
407.645	445.28
408.023	464.04
408.401	455
408.779	480.31
409.156	479.41
409.534	467.88
409.912	482.12
410.29	472.18
410.667	489.58
411.045	524.83
411.422	512.4
411.8	527.54
412.178	523.47
412.555	534.77
412.933	530.03
413.31	546.07
413.687	545.85
414.065	553.98
414.442	565.06
414.819	564.38
415.197	565.06
415.574	586.3
415.951	586.98
416.328	606.18
416.705	596.02
417.082	596.47
417.46	610.7
417.837	615.9
418.214	631.95
418.591	643.7
418.967	626.98
419.344	647.09
419.721	634.21
420.098	622.91
420.475	667.2
420.852	634.88
421.228	661.55
421.605	671.72
421.982	700.42
422.358	685.73
422.735	695.22
423.111	721.89
423.488	733.86
423.864	736.8
424.241	731.38
424.617	752.17
424.994	744.26
425.37	760.76
425.746	766.18
426.123	771.15
426.499	786.29
426.875	783.36
427.251	818.38
427.627	808.89
428.003	821.32
428.379	840.3
428.756	820.19
429.132	852.28
429.507	881.66
429.883	875.56
430.259	874.65
430.635	887.53
431.011	890.02
431.387	907.42
431.763	917.36
432.138	943.8
432.514	942
432.89	947.64
433.265	986.51
433.641	962.33
434.016	997.13
434.392	1009.56
434.767	1039.39
435.143	1028.32
435.518	1047.98
435.894	1089.34
436.269	1064.48
436.644	1092.73
437.02	1090.24
437.395	1104.93
437.77	1104.48
438.145	1149.22
438.52	1157.36
438.895	1182.44
439.271	1178.82
439.646	1202.1
440.021	1231.25
440.395	1243
440.77	1212.04
441.145	1230.8
441.52	1273.51
441.895	1276.45
442.27	1280.74
442.645	1305.83
443.019	1317.8
443.394	1308.99
443.769	1320.74
444.143	1333.62
444.518	1334.75
444.892	1343.79
445.267	1358.26
445.641	1363
446.016	1379.95
446.39	1400.51
446.764	1413.85
447.139	1414.52
447.513	1413.17
447.887	1424.69
448.262	1399.38
448.636	1459.04
449.01	1460.85
449.384	1463.11
449.758	1493.62
450.132	1518.93
450.506	1501.3
450.88	1518.48
451.254	1510.79
451.628	1560.96
452.002	1553.05
452.376	1560.28
452.75	1591.47
453.123	1567.06
453.497	1609.77
453.871	1607.06
454.244	1641.19
454.618	1682.54
454.992	1699.72
455.365	1686.16
455.739	1740.17
456.112	1749.66
456.486	1758.92
456.859	1753.5
457.232	1760.96
457.606	1774.06
457.979	1830.33
458.352	1824.01
458.725	1868.75
459.099	1870.33
459.472	1926.38
459.845	1899.71
460.218	1925.7
460.591	1928.41
460.964	1941.97
461.337	2010.44
461.71	2006.15
462.083	2050.44
462.456	2062.87
462.829	2067.39
463.201	2091.8
463.574	2084.79
463.947	2132.25
464.32	2154.39
464.692	2179.02
465.065	2201.4
465.438	2197.56
465.81	2244.33
466.183	2294.73
466.555	2288.63
466.928	2280.49
467.3	2343.77
467.672	2324.78
468.045	2385.35
468.417	2401.62
468.789	2431.9
469.161	2449.07
469.534	2500.15
469.906	2554.16
470.278	2565.46
470.65	2576.3
471.022	2598.67
471.394	2705.34
471.766	2697.2
472.138	2721.16
472.51	2767.26
472.882	2768.61
473.253	2827.14
473.625	2829.18
473.997	2913.69
474.369	2909.17
474.74	2945.33
475.112	3019.23
475.484	3049.28
475.855	3081.15
476.227	3098.32
476.598	3199.11
476.97	3206.34
477.341	3263.74
477.713	3284.98
478.084	3335.38
478.455	3403.63
478.827	3420.8
479.198	3502.15
479.569	3466.45
479.94	3645.88
480.311	3615.82
480.682	3672.32
481.053	3718.42
481.424	3810.39
481.795	3833.22
482.166	3890.62
482.537	3936.04
482.908	3997.28
483.279	4032.76
483.65	4093.55
484.021	4165.64
484.391	4177.62
484.762	4246.99
485.133	4221.46
485.503	4284.28
485.874	4417.16
486.244	4422.81
486.615	4503.71
486.985	4508.23
487.356	4619.19
487.726	4661.67
488.097	4739.41
488.467	4740.54
488.837	4824.15
489.207	4884.26
489.578	4930.36
489.948	4999.74
490.318	5033.64
490.688	5078.84
491.058	5102.34
491.428	5166.74
491.798	5194.76
492.168	5317.7
492.538	5334.42
492.908	5373.29
493.278	5399.05
493.648	5430.92
494.017	5507.98
494.387	5585.26
494.757	5560.4
495.126	5613.74
495.496	5625.49
495.866	5668.88
496.235	5748.42
496.605	5782.32
496.974	5793.62
497.344	5823.9
497.713	5843.56
498.082	5922.43
498.452	5965.82
498.821	5920.17
499.19	5976.89
499.559	5989.32
499.928	5988.87
500.298	6077
500.667	6117
501.036	6117
501.405	6123.33
501.774	6136.21
502.143	6184.8
502.512	6194.74
502.88	6229.31
503.249	6269.76
503.618	6314.51
503.987	6291.01
504.356	6321.74
504.724	6429.76
505.093	6377.33
505.462	6375.98
505.83	6474.28
506.199	6506.14
506.567	6556.76
506.936	6519.48
507.304	6563.77
507.672	6563.09
508.041	6641.73
508.409	6631.56
508.777	6703.88
509.145	6703.88
509.514	6704.78
509.882	6734.16
510.25	6776.87
510.618	6775.51
510.986	6789.07
511.354	6811.67
511.722	6882.63
512.09	6892.35
512.458	6907.49
512.826	6897.09
513.193	6956.3
513.561	6938.67
513.929	7055.05
514.297	7041.27
514.664	7051.66
515.032	7059.35
515.4	7069.52
515.767	7134.83
516.135	7083.53
516.502	7086.92
516.869	7130.53
517.237	7192.45
517.604	7176.41
517.972	7197.65
518.339	7190.64
518.706	7215.5
519.073	7253.02
519.44	7241.49
519.808	7305.67
520.175	7290.08
520.542	7336.4
520.909	7359.45
521.276	7378.66
521.643	7422.28
522.009	7402.62
522.376	7469.28
522.743	7437.64
523.11	7483.52
523.477	7544.08
523.843	7629.28
524.21	7570.75
524.577	7633.12
524.943	7609.62
525.31	7623.4
525.676	7707.01
526.043	7690.97
526.409	7744.98
526.776	7731.65
527.142	7761.02
527.508	7758.76
527.874	7797.63
528.241	7844.86
528.607	7793.34
528.973	7888.71
529.339	7847.12
529.705	7881.93
530.071	7913.34
530.437	7893.9
530.803	7984.52
531.169	7967.35
531.535	7866.33
531.901	7923.96
532.267	7930.29
532.632	7931.64
532.998	7959.44
533.364	7984.75
533.73	8020.9
534.095	8018.42
534.461	8070.85
534.826	8035.82
535.192	8066.78
535.557	8065.65
535.923	8050.96
536.288	8013.67
536.653	8071.07
537.019	7978.87
537.384	8015.71
537.749	7991.75
538.114	7997.85
538.479	7968.48
538.845	8035.59
539.21	7927.35
539.575	7934.35
539.94	7942.04
540.305	7970.51
540.67	7979.32
541.034	7930.51
541.399	7971.19
541.764	8035.37
542.129	7903.85
542.494	7972.54
542.858	7964.18
543.223	7973.67
543.587	8071.98
543.952	7969.38
544.316	7974.8
544.681	7978.65
545.045	7950.4
545.41	7958.53
545.774	7934.13
546.138	7937.07
546.503	7913.79
546.867	7919.44
547.231	7955.14
547.595	7941.81
547.959	7970.51
548.324	7906.56
548.688	7895.26
549.052	7920.12
549.416	7911.53
549.779	7930.74
550.143	7925.77
550.507	7946.56
550.871	7923.73
551.235	7910.63
551.599	7924.86
551.962	7929.16
552.326	7934.58
552.689	7907.46
553.053	7905.43
553.417	7850.29
553.78	7966.22
554.143	7873.11
554.507	7912.21
554.87	7939.1
555.234	7908.14
555.597	7907.69
555.96	7941.13
556.323	7925.54
556.686	7918.53
557.05	7950.4
557.413	7961.47
557.776	7966.22
558.139	8026.33
558.502	8034.46
558.865	7935.48
559.228	8032.66
559.59	8011.64
559.953	8012.54
560.316	8068.59
560.679	8043.05
561.041	8060.68
561.404	8100.9
561.767	8106.1
562.129	8102.26
562.492	8210.96
562.854	8080.79
563.217	8096.38
563.579	8141.35
563.941	8163.27
564.304	8202.14
564.666	8250.28
565.028	8232.88
565.39	8243.72
565.753	8258.64
566.115	8328.47
566.477	8330.05
566.839	8347.45
567.201	8412.53
567.563	8404.17
567.925	8410.5
568.287	8399.2
568.648	8469.25
569.01	8459.76
569.372	8522.59
569.734	8514.45
570.095	8544.51
570.457	8572.75
570.819	8530.04
571.18	8571.62
571.542	8559.87
571.903	8518.52
572.265	8665.63
572.626	8684.62
572.987	8682.36
573.349	8650.27
573.71	8622.92
574.071	8711.51
574.432	8699.08
574.794	8827.21
575.155	8796.25
575.516	8748.34
575.877	8856.14
576.238	8791.96
576.599	8929.58
576.96	8841.45
577.32	8887.1
577.681	8974.33
578.042	8849.36
578.403	8931.84
578.763	8983.59
579.124	8943.14
579.485	8925.74
579.845	8956.47
580.206	9010.48
580.566	8975.68
580.927	9023.82
581.287	9080.54
581.648	9008
582.008	9142.23
582.368	9026.3
582.728	9090.03
583.089	9111.05
583.449	9117.15
583.809	9080.99
584.169	9148.56
584.529	9138.39
584.889	9204.15
585.249	9131.84
585.609	9130.25
585.969	9159.86
586.329	9160.08
586.688	9215.45
587.048	9166.64
587.408	9196.92
587.768	9170.93
588.127	9204.83
588.487	9219.52
588.846	9194.43
589.206	9237.37
589.565	9217.71
589.925	9278.05
590.284	9261.78
590.643	9186.98
591.003	9257.71
591.362	9319.63
591.721	9277.6
592.08	9275.79
592.44	9344.03
592.799	9278.72
593.158	9347.2
593.517	9356.69
593.876	9318.72
594.235	9351.04
594.593	9365.5
594.952	9368.44
595.311	9298.61
595.67	9342.45
596.029	9340.64
596.387	9479.62
596.746	9488.21
597.104	9341.32
597.463	9354.88
597.822	9481.88
598.18	9395.56
598.538	9389.23
598.897	9427.65
599.255	9401.43
599.613	9490.7
599.972	9438.95
600.33	9495.44
600.688	9396.24
601.046	9411.38
601.404	9466.97
601.762	9465.39
602.12	9501.54
602.478	9468.55
602.836	9565.95
603.194	9466.52
603.552	9486.4
603.91	9455.44
604.268	9544.48
604.625	9488.44
604.983	9485.73
605.341	9452.51
605.698	9560.53
606.056	9592.62
606.413	9568.66
606.771	9537.48
607.128	9558.72
607.485	9495.67
607.843	9564.14
608.2	9546.97
608.557	9649.11
608.914	9554.65
609.272	9567.3
609.629	9638.26
609.986	9627.19
610.343	9554.88
610.7	9652.95
611.057	9656.12
611.414	9669.22
611.771	9700.86
612.127	9660.64
612.484	9627.64
612.841	9717.81
613.198	9668.77
613.554	9709
613.911	9680.07
614.267	9715.1
614.624	9718.71
614.98	9765.72
615.337	9780.86
615.693	9772.95
616.05	9701.54
616.406	9891.14
616.762	9754.87
617.118	9765.27
617.475	9840.74
617.831	9793.06
618.187	9869.44
618.543	9758.26
618.899	9860.18
619.255	9847.98
619.611	9760.29
619.967	9851.59
620.323	9943.34
620.678	9891.14
621.034	9865.15
621.39	9881.42
621.746	9802.1
622.101	9864.47
622.457	9834.64
622.812	9846.39
623.168	9854.53
623.523	9865.6
623.879	9908.99
624.234	9808.2
624.589	9871.48
624.945	9850.24
625.3	9899.73
625.655	9860.86
626.01	9859.05
626.365	9876.22
626.72	9870.8
627.075	9835.55
627.43	9882.1
627.785	9868.77
628.14	9918.93
628.495	9899.73
628.85	9880.07
629.205	9771.14
629.559	9892.27
629.914	9788.99
630.269	9810.69
630.623	9765.27
630.978	9829.9
631.332	9845.94
631.687	9781.76
632.041	9747.41
632.396	9699.73
632.75	9795.1
633.104	9765.49
633.459	9666.51
633.813	9676.45
634.167	9652.27
634.521	9714.65
634.875	9716
635.229	9757.58
635.583	9589.68
635.937	9654.31
636.291	9678.49
636.645	9631.48
636.999	9623.35
637.352	9631.26
637.706	9557.59
638.06	9578.38
638.413	9604.82
638.767	9513.75
639.121	9558.27
639.474	9454.99
639.828	9549.9
640.181	9477.14
640.534	9483.01
640.888	9443.01
641.241	9381.32
641.594	9529.57
641.947	9534.09
642.301	9482.56
642.654	9504.26
643.007	9528.89
643.36	9384.48
643.713	9448.21
644.066	9460.64
644.419	9389.91
644.771	9388.55
645.124	9211.83
645.477	9257.93
645.83	9131.84
646.182	9110.14
646.535	9095.45
646.888	9141.78
647.24	9117.37
647.593	9103.59
647.945	9151.27
648.298	9044.83
648.65	9040.54
649.002	9057.94
649.355	9122.12
649.707	9034.66
650.059	9010.94
650.411	9222
650.763	9207.31
651.115	9274.88
651.467	9226.52
651.819	9217.94
652.171	9318.27
652.523	9266.75
652.875	9244.83
653.227	9242.79
653.578	9289.8
653.93	9288.44
654.282	9241.66
654.633	9232.4
654.985	9222
655.337	9245.96
655.688	9266.75
656.039	9200.08
656.391	9175.22
656.742	9171.61
657.094	9256.35
657.445	9258.61
657.796	9278.5
658.147	9167.77
658.498	9163.7
658.849	9232.4
659.2	9250.03
659.551	9215.9
659.902	9233.75
660.253	9201.21
660.604	9202.34
660.955	9166.41
661.306	9218.84
661.656	9194.21
662.007	9207.31
662.358	9169.12
662.708	9171.38
663.059	9204.6
663.409	9165.96
663.76	9183.36
664.11	9217.26
664.461	9290.93
664.811	9262
665.161	9255.22
665.511	9193.3
665.862	9199.41
666.212	9244.15
666.562	9194.89
666.912	9198.5
667.262	9151.72
667.612	9222.46
667.962	9191.27
668.312	9145.17
668.662	9210.7
669.011	9213.87
669.361	9187.2
669.711	9165.73
670.06	9117.15
670.41	9164.83
670.76	9165.96
671.109	9217.48
671.459	9215.9
671.808	9083.7
672.157	9143.59
672.507	9138.84
672.856	9105.85
673.205	9135.68
673.554	9153.98
673.904	9092.97
674.253	9201.44
674.602	9099.07
674.951	9016.13
675.3	8990.14
675.649	9063.82
675.998	9090.26
676.346	9090.48
676.695	9068.34
677.044	9022.69
677.393	9021.56
677.741	9061.1
678.09	9002.12
678.438	9017.49
678.787	9029.92
679.135	9022.23
679.484	8921.9
679.832	8955.12
680.181	8874.22
680.529	8958.06
680.877	8881
681.225	8901.33
681.573	8925.29
681.922	8916.25
682.27	8892.29
682.618	8755.57
682.966	8782.47
683.314	8823.82
683.661	8831.05
684.009	8737.95
684.357	8744.73
684.705	8749.93
685.053	8735.01
685.4	8726.65
685.748	8712.86
686.095	8610.95
686.443	8630.83
686.79	8618.86
687.138	8595.81
687.485	8697.05
687.832	8603.49
688.18	8629.48
688.527	8523.26
688.874	8578.86
689.221	8477.84
689.568	8458.18
689.915	8489.37
690.262	8433.55
690.609	8404.4
690.956	8400.1
691.303	8380.44
691.65	8366.66
691.997	8345.64
692.344	8280.33
692.69	8331.41
693.037	8344.29
693.383	8241.24
693.73	8195.36
694.077	8104.29
694.423	8212.31
694.769	8134.35
695.116	8122.15
695.462	8126.44
695.808	8081.02
696.155	8088.7
696.501	7984.75
696.847	7970.74
697.193	7902.72
697.539	7912.21
697.885	7934.81
698.231	7895.03
698.577	7849.61
698.923	7865.88
699.269	7803.96
699.614	7759.22
699.96	7730.74
700.306	7780.69
700.651	7695.72
700.997	7689.16
701.342	7620.24
701.688	7623.4
702.033	7559.22
702.379	7608.49
702.724	7574.36
703.069	7570.52
703.415	7502.27
703.76	7474.7
704.105	7479.45
704.45	7478.32
704.795	7362.84
705.14	7435.16
705.485	7389.51
705.83	7375.27
706.175	7405.78
706.52	7325.78
706.865	7323.97
707.209	7396.06
707.554	7223.41
707.899	7217.76
708.243	7193.81
708.588	7195.84
708.932	7146.13
709.277	7166.92
709.621	7123.3
709.966	7134.37
710.31	7142.28
710.654	7112.68
710.998	7033.59
711.342	7011.67
711.687	7066.35
712.031	6951.33
712.375	6987.26
712.719	7048.95
713.063	6983.64
713.407	7001.27
713.75	7004.21
714.094	6982.97
714.438	6914.04
714.782	6940.71
715.125	6886.92
715.469	6932.8
715.812	6866.58
716.156	6844.66
716.499	6773.03
716.843	6852.12
717.186	6792.91
717.53	6861.39
717.873	6848.05
718.216	6819.58
718.559	6761.95
718.902	6759.24
719.246	6744.55
719.589	6718.11
719.932	6733.93
720.275	6685.35
720.617	6698.91
720.96	6697.32
721.303	6702.3
721.646	6678.12
721.989	6662.07
722.331	6693.93
722.674	6690.32
723.016	6689.41
723.359	6624.11
723.701	6661.84
724.044	6615.29
724.386	6587.04
724.729	6653.26
725.071	6584.11
725.413	6614.16
725.755	6578.91
726.097	6527.84
726.439	6566.48
726.782	6570.32
727.124	6520.15
727.465	6516.09
727.807	6566.71
728.149	6524.45
728.491	6512.47
728.833	6499.14
729.175	6522.87
729.516	6534.16
729.858	6516.31
730.199	6505.69
730.541	6467.05
730.882	6448.97
731.224	6568.06
731.565	6454.62
731.906	6495.3
732.248	6470.44
732.589	6483.09
732.93	6380.95
733.271	6477.89
733.612	6441.74
733.953	6530.32
734.294	6469.53
734.635	6476.76
734.976	6449.42
735.317	6439.25
735.658	6477.89
735.999	6471.79
736.339	6439.93
736.68	6465.69
737.021	6467.73
737.361	6456.88
737.702	6458.69
738.042	6462.98
738.383	6464.11
738.723	6503.88
739.063	6506.37
739.404	6500.94
739.744	6483.54
740.084	6383.21
740.424	6493.04
740.764	6448.06
741.104	6478.35
741.444	6457.1
741.784	6448.52
742.124	6490.1
742.464	6532.81
742.804	6499.36
743.143	6537.1
743.483	6558.8
743.823	6551.11
744.162	6533.26
744.502	6572.58
744.841	6533.49
745.181	6632.92
745.52	6618.91
745.86	6643.99
746.199	6659.36
746.538	6679.25
746.877	6666.36
747.216	6737.1
747.556	6763.08
747.895	6762.18
748.234	6783.88
748.573	6825.46
748.911	6872.01
749.25	6935.96
749.589	6929.63
749.928	6939.8
750.267	7032.91
750.605	7011.89
750.944	7089.4
751.283	7094.38
751.621	7155.84
751.96	7163.98
752.298	7211.21
752.636	7323.52
752.975	7314.93
753.313	7361.49
753.651	7493.01
753.989	7441.03
754.327	7565.78
754.666	7616.17
755.004	7714.02
755.342	7798.31
755.679	7812.55
756.017	7894.58
756.355	7994.92
756.693	8101.81
757.031	8213.44
757.368	8225.42
757.706	8274.91
758.044	8351.07
758.381	8468.58
758.719	8560.78
759.056	8726.88
759.394	8676.03
759.731	8758.51
760.068	8845.97
760.405	8967.55
760.743	8992.63
761.08	9113.98
761.417	9222.91
761.754	9300.65
762.091	9408.44
762.428	9538.83
762.765	9521.88
763.102	9708.54
763.438	9717.58
763.775	9841.65
764.112	9870.12
764.449	10108.99
764.785	10147.18
765.122	10145.82
765.458	10232.82
765.795	10275.08
766.131	10386.04
766.467	10407.28
766.804	10484.79
767.14	10612.02
767.476	10602.53
767.812	10649.31
768.148	10789.87
768.485	10768.63
768.821	10751.91
769.157	11016.98
769.492	10958.23
769.828	11009.07
770.164	11021.96
770.5	11049.75
770.836	11188.73
771.171	11147.6
771.507	11253.36
771.842	11186.7
772.178	11244.1
772.513	11299.69
772.849	11332.68
773.184	11319.12
773.519	11402.51
773.855	11471.44
774.19	11456.52
774.525	11458.33
774.86	11526.58
775.195	11600.25
775.53	11515.95
775.865	11622.62
776.2	11486.35
776.535	11494.26
776.87	11566.12
777.205	11522.51
777.539	11508.04
777.874	11562.51
778.209	11503.3
778.543	11618.78
778.878	11538.55
779.212	11556.63
779.547	11575.61
779.881	11670.98
780.215	11559.57
780.55	11668.49
780.884	11571.55
781.218	11615.16
781.552	11569.51
781.886	11544.43
782.22	11543.75
782.554	11552.79
782.888	11501.49
783.222	11510.08
783.556	11389.18
783.889	11437.09
784.223	11420.36
784.557	11366.58
784.89	11394.38
785.224	11411.78
785.557	11424.66
785.891	11328.16
786.224	11352.12
786.558	11304.21
786.891	11279.12
787.224	11288.84
787.557	11287.71
787.891	11218.11
788.224	11267.6
788.557	11228.73
788.89	11208.84
789.223	11174.95
789.556	11161.39
789.888	11110.77
790.221	11033.93
790.554	11023.31
790.887	11023.09
791.219	10954.61
791.552	10899.02
791.884	10949.42
792.217	10911.22
792.549	10914.61
792.882	10874.16
793.214	10852.47
793.546	10910.55
793.879	10727.73
794.211	10702.42
794.543	10812.02
794.875	10729.99
795.207	10805.24
795.539	10767.73
795.871	10721.85
796.203	10605.7
796.535	10600.5
796.867	10558.92
797.198	10581.97
797.53	10586.94
797.862	10484.57
798.193	10535.42
798.525	10458.35
798.856	10441.41
799.188	10385.81
799.519	10344.69
799.85	10269.43
800.182	10305.59
800.513	10373.16
800.844	10294.52
801.175	10355.53
801.506	10255.2
801.837	10251.13
802.168	10192.37
802.499	10202.54
802.83	10137.23
803.161	10083.45
803.491	10129.78
803.822	10082.55
804.153	10103.56
804.483	9975.66
804.814	9966.39
805.145	9984.7
805.475	9937.01
805.805	9906.96
806.136	9944.02
806.466	9941.53
806.796	9890.23
807.126	9821.54
807.457	9846.85
807.787	9795.55
808.117	9741.99
808.447	9700.41
808.777	9747.19
809.107	9730.01
809.436	9693.86
809.766	9705.38
810.096	9599.85
810.426	9680.75
810.755	9647.75
811.085	9595.78
811.414	9596.91
811.744	9510.81
812.073	9551.49
812.403	9541.99
812.732	9447.76
813.061	9394.88
813.39	9434.88
813.719	9399.63
814.049	9387.87
814.378	9419.96
814.707	9371.83
815.036	9384.94
815.365	9360.76
815.693	9266.75
816.022	9258.61
816.351	9256.58
816.68	9208.22
817.008	9162.12
817.337	9165.51
817.665	9143.36
817.994	9115.11
818.322	9125.73
818.651	9123.7
818.979	9038.05
819.307	9076.92
819.636	9020.2
819.964	9049.58
820.292	9022.91
820.62	9053.42
820.948	8946.53
821.276	9012.52
821.604	9066.08
821.932	9064.95
822.259	9049.13
822.587	9038.96
822.915	9039.64
823.243	9031.5
823.57	9016.58
823.898	8967.32
824.225	8964.61
824.553	9003.48
824.88	8950.6
825.207	9016.81
825.535	8967.09
825.862	8994.44
826.189	8955.12
826.516	9049.8
826.843	8995.12
827.17	9009.35
827.497	8939.3
827.824	8974.55
828.151	9033.99
828.478	8992.86
828.805	9035.34
829.131	9008.22
829.458	9029.47
829.785	8965.74
830.111	8991.05
830.438	9019.07
830.764	8994.89
831.09	9007.32
831.417	9009.13
831.743	9005.06
832.069	8972.97
832.395	8951.5
832.722	9016.58
833.048	8994.66
833.374	8980.43
833.7	8938.62
834.026	8974.1
834.351	8989.69
834.677	9003.48
835.003	8970.48
835.329	8934.78
835.654	9017.04
835.98	8956.93
836.306	8944.04
836.631	8899.75
836.956	8968.9
837.282	8892.52
837.607	8826.08
837.932	8791.05
838.258	8798.96
838.583	8881.67
838.908	8824.05
839.233	8842.8
839.558	8828.12
839.883	8783.82
840.208	8758.74
840.533	8807.1
840.858	8737.72
841.182	8738.63
841.507	8778.4
841.832	8676.71
842.156	8704.05
842.481	8645.52
842.805	8716.71
843.13	8669.7
843.454	8603.94
843.778	8576.37
844.103	8547.44
844.427	8538.63
844.751	8546.77
845.075	8546.54
845.399	8505.19
845.723	8463.61
846.047	8464.51
846.371	8403.49
846.695	8423.15
847.019	8343.83
847.343	8313.1
847.666	8223.84
847.99	8185.19
848.313	8287.11
848.637	8146.55
848.96	8121.47
849.284	8159.21
849.607	8135.48
849.931	8128.02
850.254	7988.14
850.577	7970.51
850.9	7984.75
851.223	7950.85
851.546	7907.91
851.869	7897.97
852.192	7912.21
852.515	7794.24
852.838	7769.39
853.161	7772.78
853.483	7728.26
853.806	7691.42
854.129	7691.65
854.451	7641.48
854.774	7624.76
855.096	7594.02
855.419	7557.64
855.741	7616.17
856.063	7587.7
856.385	7503.18
856.708	7455.5
857.03	7400.81
857.352	7480.35
857.674	7444.42
857.996	7391.54
858.318	7379.57
858.64	7348.83
858.961	7389.74
859.283	7358.32
859.605	7303.64
859.926	7322.62
860.248	7295.05
860.57	7279.46
860.891	7264.77
861.212	7206.92
861.534	7187.71
861.855	7139.12
862.176	7191.32
862.498	7091.66
862.819	7145.67
863.14	7141.15
863.461	7128.72
863.782	7039.24
864.103	7135.05
864.424	7039.69
864.745	7076.3
865.065	7028.84
865.386	6981.16
865.707	6971.44
866.027	7068.39
866.348	7021.84
866.668	6978.9
866.989	7041.04
867.309	7017.77
867.63	6944.78
867.95	6990.65
868.27	6970.31
868.59	6954.94
868.91	6891.22
869.23	6928.96
869.55	6909.07
869.87	6935.74
870.19	6903.87
870.51	6958.11
870.83	6868.39
871.15	6839.92
871.469	6812.58
871.789	6886.25
872.109	6828.85
872.428	6802.86
872.748	6807.6
873.067	6796.08
873.386	6817.09
873.706	6759.92
874.025	6755.4
874.344	6756.53
874.663	6721.05
874.982	6694.39
875.301	6693.71
875.62	6701.62
875.939	6700.49
876.258	6707.49
876.577	6638.34
876.896	6657.32
877.214	6581.39
877.533	6620.72
877.852	6606.93
878.17	6602.64
878.489	6626.82
878.807	6574.62
879.125	6541.62
879.444	6564.67
879.762	6573.94
880.08	6538.01
880.398	6516.31
880.716	6531.68
881.034	6528.29
881.352	6557.67
881.67	6493.04
881.988	6488.06
882.306	6499.81
882.624	6425.24
882.941	6414.17
883.259	6393.83
883.577	6382.3
883.894	6327.39
884.212	6366.49
884.529	6381.4
884.846	6320.16
885.164	6341.63
885.481	6304.34
885.798	6332.36
886.115	6277.45
886.432	6276.77
886.75	6312.48
887.067	6267.5
887.383	6225.02
887.7	6264.57
888.017	6222.53
888.334	6227.05
888.651	6181.41
888.967	6234.51
889.284	6172.14
889.6	6146.38
889.917	6129.43
890.233	6121.29
890.55	6076.78
890.866	6101.63
891.182	6022.31
891.498	6030.67
891.815	6035.65
892.131	6050.56
892.447	6007.85
892.763	5963.33
893.079	5942.54
893.395	5938.93
893.71	5944.35
894.026	5914.97
894.342	5907.97
894.657	5853.5
894.973	5892.15
895.289	5855.54
895.604	5860.28
895.92	5832.49
896.235	5783.68
896.55	5729.89
896.865	5801.75
897.181	5740.74
897.496	5729.21
897.811	5720.85
898.126	5715.65
898.441	5637.01
898.756	5576
899.071	5695.54
899.386	5650.35
899.7	5593.17
900.015	5570.12
900.33	5525.6
900.644	5486.06
900.959	5493.29
901.273	5514.76
901.588	5417.81
901.902	5443.35
902.216	5420.97
902.531	5435.89
902.845	5394.76
903.159	5333.29
903.473	5357.02
903.787	5323.35
904.101	5317.47
904.415	5264.82
904.729	5250.58
905.042	5291.94
905.356	5225.27
905.67	5184.82
905.984	5221.43
906.297	5151.83
906.611	5137.14
906.924	5169.45
907.237	5122.22
907.551	5113.64
907.864	5096.46
908.177	5095.11
908.491	5133.52
908.804	5054.2
909.117	4948.9
909.43	5011.94
909.743	4992.28
910.056	4971.27
910.368	4936.24
910.681	4900.76
910.994	4886.75
911.307	4915.68
911.619	4856.02
911.932	4921.33
912.244	4823.25
912.557	4800.65
912.869	4777.83
913.181	4759.52
913.494	4750.48
913.806	4749.35
914.118	4737.83
914.43	4680.2
914.742	4712.52
915.054	4654.89
915.366	4659.41
915.678	4620.77
915.99	4627.55
916.302	4569.92
916.613	4553.2
916.925	4560.2
917.236	4561.11
917.548	4510.49
917.859	4546.42
918.171	4508.23
918.482	4464.61
918.794	4430.04
919.105	4435.46
919.416	4413.77
919.727	4426.42
920.038	4395.01
920.349	4328.12
920.66	4344.84
920.971	4367.44
921.282	4261
921.593	4292.19
921.903	4296.26
922.214	4315.92
922.525	4221.91
922.835	4232.53
923.146	4237.73
923.456	4166.99
923.767	4151.4
924.077	4154.79
924.387	4176.94
924.697	4108.24
925.008	4127.9
925.318	4074.79
925.628	4087
925.938	4032.54
926.248	4038.18
926.558	4007.23
926.867	4028.24
927.177	3997.51
927.487	4030.05
927.796	3934.46
928.106	3963.16
928.416	3901.69
928.725	3910.28
929.034	3925.65
929.344	3919.77
929.653	3844.07
929.962	3858.08
930.271	3830.73
930.581	3801.35
930.89	3796.84
931.199	3806.55
931.508	3811.3
931.817	3757.97
932.125	3722.03
932.434	3727.46
932.743	3717.52
933.051	3679.55
933.36	3683.84
933.669	3662.15
933.977	3628.03
934.286	3649.49
934.594	3633.22
934.902	3604.98
935.21	3606.78
935.519	3602.49
935.827	3567.01
936.135	3577.86
936.443	3488.14
936.751	3540.12
937.059	3534.47
937.367	3504.87
937.674	3472.32
937.982	3492.66
938.29	3432.33
938.597	3447.24
938.905	3440.91
939.213	3386.45
939.52	3382.38
939.827	3383.96
940.135	3388.71
940.442	3348.94
940.749	3374.47
941.056	3381.25
941.363	3345.1
941.67	3306.68
941.977	3340.35
942.284	3249.28
942.591	3294.93
942.898	3275.94
943.205	3256.51
943.511	3248.6
943.818	3219.45
944.125	3205.89
944.431	3189.17
944.738	3175.38
945.044	3164.54
945.35	3146.91
945.657	3164.99
945.963	3074.14
946.269	3135.61
946.575	3086.57
946.881	3082.96
947.187	3087.02
947.493	3077.08
947.799	3037.99
948.105	3036.18
948.41	3038.66
948.716	3041.15
949.022	2996.18
949.327	2997.99
949.633	2961.15
949.938	2979.46
950.244	2975.61
950.549	2953.69
950.854	2937.42
951.16	2892.9
951.465	2907.37
951.77	2944.43
952.075	2899.23
952.38	2898.55
952.685	2847.48
952.99	2850.65
953.294	2865.33
953.599	2818.78
953.904	2824.21
954.209	2794.15
954.513	2815.62
954.818	2810.19
955.122	2732.68
955.426	2754.38
955.731	2734.26
956.035	2737.65
956.339	2730.42
956.643	2727.71
956.948	2699.91
957.252	2673.7
957.556	2682.06
957.86	2661.72
958.163	2675.96
958.467	2668.28
958.771	2664.89
959.075	2670.99
959.378	2607.71
959.682	2625.79
959.985	2597.32
960.289	2599.58
960.592	2568.39
960.896	2557.09
961.199	2525.68
961.502	2558.68
961.805	2544.21
962.108	2507.83
962.411	2485.46
962.714	2507.15
963.017	2470.09
963.32	2490.65
963.623	2454.95
963.926	2464.44
964.228	2409.08
964.531	2450.43
964.833	2456.53
965.136	2405.23
965.438	2400.49
965.741	2400.04
966.043	2415.85
966.345	2366.36
966.648	2376.08
966.95	2346.25
967.252	2369.3
967.554	2334.05
967.856	2302.64
968.158	2321.17
968.46	2310.32
968.761	2315.74
969.063	2278.46
969.365	2289.76
969.666	2271.45
969.968	2271.45
970.269	2248.4
970.571	2227.61
970.872	2236.2
971.174	2231
971.475	2204.56
971.776	2207.72
972.077	2204.56
972.378	2221.06
972.679	2224
972.98	2186.48
973.281	2180.38
973.582	2159.14
973.883	2165.69
974.183	2132.92
974.484	2093.83
974.785	2090.21
975.085	2111
975.386	2127.95
975.686	2091.12
975.986	2080.72
976.287	2091.8
976.587	2057.22
976.887	2081.63
977.187	2092.7
977.487	2052.02
977.787	2063.1
978.087	2051.12
978.387	2033.04
978.687	2018.35
978.987	2039.14
979.286	1999.14
979.586	1989.65
979.885	1993.27
980.185	1984.91
980.484	1988.75
980.784	1956.66
981.083	1928.86
981.382	1941.29
981.682	1946.04
981.981	1947.39
982.28	1945.36
982.579	1925.02
982.878	1893.38
983.177	1882.54
983.475	1877.11
983.774	1882.99
984.073	1899.03
984.372	1888.86
984.67	1820.16
984.969	1849.99
985.267	1859.94
985.566	1850.22
985.864	1806.15
986.162	1842.99
986.461	1811.35
986.759	1800.05
987.057	1782.2
987.355	1788.53
987.653	1798.92
987.951	1768.64
988.249	1759.37
988.547	1770
988.844	1762.76
989.142	1737.23
989.44	1748.53
989.737	1735.19
990.035	1738.36
990.332	1711.69
990.63	1719.15
990.927	1693.61
991.224	1689.55
991.521	1703.33
991.819	1661.07
992.116	1661.3
992.413	1658.36
992.71	1674.86
993.006	1634.86
993.303	1640.06
993.6	1629.21
993.897	1629.21
994.193	1642.32
994.49	1609.55
994.787	1612.03
995.083	1618.14
995.379	1606.84
995.676	1599.15
995.972	1570.45
996.268	1591.47
996.565	1539.72
996.861	1541.98
997.157	1570
997.453	1569.32
997.749	1547.18
998.044	1534.07
998.34	1549.44
998.636	1512.6
998.932	1527.06
999.227	1480.51
999.523	1509.89
999.818	1505.82
1000.114	1481.64
1000.409	1494.52
1000.704	1445.94
1001	1456.56
1001.295	1461.3
1001.59	1468.76
1001.885	1432.38
1002.18	1443.9
1002.475	1436.22
1002.77	1426.05
1003.065	1396.9
1003.359	1415.65
1003.654	1361.64
1003.949	1372.49
1004.243	1390.57
1004.538	1367.52
1004.832	1362.32
1005.127	1358.93
1005.421	1363.45
1005.715	1326.84
1006.009	1333.4
1006.304	1337.92
1006.598	1311.02
1006.892	1329.78
1007.186	1281.2
1007.48	1327.75
1007.773	1330.91
1008.067	1304.25
1008.361	1283.45
1008.655	1288.88
1008.948	1309.44
1009.242	1241.2
1009.535	1233.96
1009.829	1259.5
1010.122	1242.33
1010.415	1241.65
1010.708	1231.48
1011.001	1211.82
1011.295	1215.21
1011.588	1238.03
1011.881	1231.25
1012.173	1217.47
1012.466	1203.01
1012.759	1212.5
1013.052	1214.98
1013.344	1190.12
1013.637	1181.76
1013.93	1161.2
1014.222	1179.5
1014.514	1168.43
1014.807	1182.89
1015.099	1134.98
1015.391	1158.26
1015.683	1115.78
1015.976	1102.22
1016.268	1121.2
1016.56	1094.99
1016.851	1118.71
1017.143	1088.43
1017.435	1066.51
1017.727	1070.13
1018.018	1092.73
1018.31	1076.68
1018.602	1078.94
1018.893	1075.1
1019.185	1024.93
1019.476	1093.63
1019.767	1063.35
1020.058	1030.13
1020.35	1033.29
1020.641	1041.65
1020.932	1052.05
1021.223	1018.83
1021.514	1010.92
1021.804	1002.78
1022.095	1002.78
1022.386	991.49
1022.677	985.84
1022.967	985.84
1023.258	995.1
1023.548	976.57
1023.839	963.69
1024.129	951.26
1024.419	952.62
1024.709	936.8
1025	953.07
1025.29	931.6
1025.58	937.7
1025.87	935.44
1026.16	913.97
1026.449	932.73
1026.739	922.33
1027.029	904.03
1027.319	901.54
1027.608	897.7
1027.898	874.2
1028.187	892.73
1028.477	865.39
1028.766	891.37
1029.055	874.43
1029.344	860.42
1029.634	887.31
1029.923	836.91
1030.212	857.03
1030.501	842.56
1030.79	860.64
1031.078	822
1031.367	849.79
1031.656	817.93
1031.945	826.29
1032.233	796.91
1032.522	797.82
1032.81	817.7
1033.099	813.18
1033.387	811.83
1033.675	801.89
1033.963	802.11
1034.251	788.78
1034.54	806.18
1034.828	772.73
1035.116	778.38
1035.403	784.03
1035.691	778.38
1035.979	772.51
1036.267	761.66
1036.554	771.83
1036.842	735.45
1037.129	748.78
1037.417	737.03
1037.704	771.6
1037.992	725.28
1038.279	719.4
1038.566	739.51
1038.853	739.51
1039.14	739.51
