Data from hue_34_FLMS001491_00028.txt Node
Date: Tue Feb 07 17:25:24 GMT 2017
User: dcchb
Spectrometer: FLMS00149
Trigger mode: 0
Integration Time (sec): 2.000000E-2
Scans to average: 10
Electric dark correction enabled: true
Nonlinearity correction enabled: false
Boxcar width: 0
XAxis mode: Wavelengths
Number of Pixels in Spectrum: 2048
>>>>>Begin Spectral Data<<<<<
341.393	-13.26
341.776	-13.26
342.16	-13.26
342.543	-71.34
342.927	-57.1
343.31	-59.59
343.693	-50.1
344.077	-62.98
344.46	-57.33
344.843	-60.49
345.226	-48.52
345.61	-22.75
345.993	-42.64
346.376	-34.96
346.759	14.08
347.142	29
347.525	22.22
347.908	63.35
348.291	88.43
348.674	99.05
349.057	123.23
349.44	115.55
349.823	158.26
350.206	155.77
350.588	198.48
350.971	207.3
351.354	225.83
351.737	252.27
352.119	239.61
352.502	270.35
352.884	277.58
353.267	277.13
353.65	309.22
354.032	299.5
354.414	309.89
354.797	303.79
355.179	310.8
355.562	326.16
355.944	331.59
356.326	333.62
356.709	328.88
357.091	348.08
357.473	345.15
357.855	332.27
358.238	339.04
358.62	339.95
359.002	348.76
359.384	361.42
359.766	332.27
360.148	352.15
360.53	346.05
360.912	338.37
361.294	326.84
361.676	333.17
362.057	322.77
362.439	325.71
362.821	336.56
363.203	320.97
363.584	320.51
363.966	334.53
364.348	306.28
364.729	315.77
365.111	315.54
365.493	332.04
365.874	305.83
366.256	335.2
366.637	318.71
367.019	329.33
367.4	327.52
367.781	327.52
368.163	308.76
368.544	312.6
368.925	318.25
369.306	332.94
369.688	307.41
370.069	322.1
370.45	315.32
370.831	306.28
371.212	318.03
371.593	317.35
371.974	325.26
372.355	335.2
372.736	318.03
373.117	331.59
373.498	323.23
373.879	323.68
374.26	315.99
374.641	323.9
375.021	310.8
375.402	318.25
375.783	323.68
376.163	313.51
376.544	340.63
376.925	342.21
377.305	340.17
377.686	345.6
378.066	321.19
378.447	321.19
378.827	338.14
379.208	321.64
379.588	344.47
379.968	319.84
380.349	310.57
380.729	322.32
381.109	338.82
381.489	337.69
381.87	341.53
382.25	355.09
382.63	330.68
383.01	354.19
383.39	335.66
383.77	356.67
384.15	333.4
384.53	355.32
384.91	318.03
385.29	340.4
385.67	351.7
386.049	355.32
386.429	346.05
386.809	348.54
387.189	371.36
387.568	348.99
387.948	363.22
388.328	377.69
388.707	348.31
389.087	360.29
389.466	380.17
389.846	366.16
390.225	374.07
390.605	368.42
390.984	359.61
391.363	364.35
391.743	339.04
392.122	341.08
392.501	360.74
392.881	340.17
393.26	370
393.639	383.11
394.018	384.69
394.397	394.86
394.776	385.37
395.155	375.2
395.534	356.45
395.913	366.39
396.292	390.34
396.671	391.92
397.05	375.88
397.429	384.92
397.808	386.73
398.186	386.73
398.565	373.17
398.944	383.34
399.323	393.51
399.701	385.82
400.08	383.79
400.458	391.02
400.837	387.41
401.215	386.73
401.594	378.82
401.972	399.83
402.351	378.14
402.729	402.32
403.107	415.43
403.486	413.62
403.864	401.87
404.242	411.36
404.62	391.25
404.999	413.39
405.377	424.92
405.755	419.95
406.133	423.34
406.511	421.75
406.889	415.88
407.267	427.86
407.645	410.91
408.023	411.36
408.401	419.04
408.779	440.96
409.156	410.68
409.534	424.69
409.912	452.04
410.29	435.54
410.667	458.36
411.045	438.03
411.422	449.1
411.8	451.36
412.178	447.97
412.555	453.84
412.933	453.17
413.31	458.59
413.687	455.2
414.065	484.8
414.442	471.02
414.819	473.28
415.197	458.82
415.574	494.97
415.951	471.92
416.328	471.02
416.705	475.31
417.082	482.09
417.46	508.76
417.837	501.07
418.214	498.81
418.591	518.02
418.967	502.43
419.344	514.41
419.721	510.79
420.098	523.22
420.475	524.35
420.852	515.54
421.228	522.54
421.605	538.59
421.982	537.46
422.358	518.48
422.735	533.16
423.111	527.51
423.488	558.02
423.864	536.55
424.241	514.86
424.617	532.94
424.994	533.16
425.37	538.14
425.746	563.9
426.123	568.64
426.499	567.74
426.875	576.55
427.251	553.28
427.627	572.03
428.003	584.01
428.379	589.43
428.756	594.86
429.132	605.48
429.507	575.2
429.883	591.47
430.259	597.8
430.635	589.43
431.011	605.25
431.387	609.77
431.763	614.97
432.138	621.3
432.514	638.7
432.89	635.31
433.265	658.36
433.641	645.7
434.016	655.65
434.392	669.66
434.767	671.01
435.143	646.83
435.518	662.2
435.894	659.26
436.269	690.9
436.644	687.96
437.02	703.1
437.395	692.71
437.77	681.41
438.145	691.35
438.52	720.05
438.895	721.18
439.271	716.66
439.646	710.33
440.021	709.88
440.395	737.9
440.77	723.67
441.145	717.34
441.52	769.32
441.895	733.84
442.27	755.3
442.645	763.89
443.019	765.7
443.394	769.99
443.769	746.49
444.143	758.47
444.518	775.42
444.892	775.64
445.267	763.89
445.641	788.75
446.016	788.07
446.39	772.48
446.764	792.59
447.139	758.02
447.513	793.27
447.887	790.33
448.262	808.64
448.636	820.39
449.01	817
449.384	820.16
449.758	818.81
450.132	797.56
450.506	826.72
450.88	853.38
451.254	837.79
451.628	848.18
452.002	841.86
452.376	863.32
452.75	888.18
453.123	851.8
453.497	882.31
453.871	891.12
454.244	916.43
454.618	903.55
454.992	914.17
455.365	933.61
455.739	926.15
456.112	930.22
456.486	961.4
456.859	955.98
457.232	977.22
457.606	939.48
457.979	989.65
458.352	986.71
458.725	999.14
459.099	1022.64
459.472	1040.04
459.845	1038.91
460.218	1039.82
460.591	1046.6
460.964	1061.51
461.337	1098.8
461.71	1081.62
462.083	1102.64
462.456	1125.92
462.829	1123.66
463.201	1125.01
463.574	1139.48
463.947	1139.93
464.32	1179.93
464.692	1164.56
465.065	1178.8
465.438	1207.27
465.81	1245.91
466.183	1248.63
466.555	1281.39
466.928	1289.08
467.3	1260.6
467.672	1291.79
468.045	1325.69
468.417	1335.18
468.789	1347.61
469.161	1369.98
469.534	1380.6
469.906	1421.73
470.278	1441.39
470.65	1472.12
471.022	1477.09
471.394	1550.99
471.766	1514.61
472.138	1574.72
472.51	1597.99
472.882	1621.5
473.253	1665.11
473.625	1681.16
473.997	1706.24
474.369	1715.96
474.74	1738.33
475.112	1779.68
475.484	1819.91
475.855	1834.6
476.227	1897.42
476.598	1913.24
476.97	1955.5
477.341	2026.68
477.713	2051.77
478.084	2075.04
478.455	2179
478.827	2219
479.198	2260.58
479.569	2297.64
479.94	2348.03
480.311	2419.44
480.682	2484.07
481.053	2571.53
481.424	2598.42
481.795	2649.49
482.166	2722.94
482.537	2760.45
482.908	2812.88
483.279	2919.99
483.65	2968.13
484.021	3022.82
484.391	3102.14
484.762	3164.51
485.133	3213.32
485.503	3346.42
485.874	3413.99
486.244	3484.05
486.615	3587.77
486.985	3655.12
487.356	3738.96
487.726	3769.24
488.097	3969.46
488.467	3981.66
488.837	4042.68
489.207	4172.84
489.578	4285.61
489.948	4290.13
490.318	4421.2
490.688	4447.64
491.058	4508.65
491.428	4649.89
491.798	4745.03
492.168	4868.87
492.538	4894.41
492.908	5037.9
493.278	5125.13
493.648	5133.72
494.017	5269.99
494.387	5340.5
494.757	5452.58
495.126	5508.4
495.496	5612.13
495.866	5687.83
496.235	5733.93
496.605	5745
496.974	5888.73
497.344	6013.92
497.713	6013.25
498.082	6079.23
498.452	6158.33
498.821	6213.92
499.19	6314.71
499.559	6404.42
499.928	6483.06
500.298	6522.84
500.667	6579.33
501.036	6675.15
501.405	6747.92
501.774	6767.12
502.143	6862.49
502.512	6840.34
502.88	6976.84
503.249	7014.8
503.618	7063.39
503.987	7131.41
504.356	7231.07
504.724	7262.25
505.093	7339.31
505.462	7355.13
505.83	7468.57
506.199	7545.41
506.567	7668.34
506.936	7628.34
507.304	7772.07
507.672	7713.99
508.041	7798.96
508.409	7840.99
508.777	7888.22
509.145	8008
509.514	8031.5
509.882	8099.97
510.25	8111.72
510.618	8237.37
510.986	8234.43
511.354	8314.88
511.722	8429.91
512.09	8476.68
512.458	8433.07
512.826	8495.67
513.193	8572.95
513.561	8594.87
513.929	8665.38
514.297	8838.71
514.664	8806.17
515.032	8753.06
515.4	8904.47
515.767	9008.2
516.135	8985.82
516.502	9005.26
516.869	9111.02
517.237	9081.64
517.604	9110.57
517.972	9196.44
518.339	9224.01
518.706	9312.59
519.073	9395.3
519.44	9416.09
519.808	9516.2
520.175	9476.43
520.542	9544
520.909	9550.78
521.276	9704.22
521.643	9764.79
522.009	9785.8
522.376	9828.06
522.743	9945.8
523.11	9968.17
523.477	10060.6
523.843	10093.82
524.21	10195.06
524.577	10301.27
524.943	10346.24
525.31	10397.54
525.676	10413.36
526.043	10506.91
526.409	10557.08
526.776	10558.89
527.142	10616.74
527.508	10684.08
527.874	10779.67
528.241	10821.71
528.607	10830.97
528.973	11051.76
529.339	10971.99
529.705	11145.77
530.071	11171.3
530.437	11187.12
530.803	11343.28
531.169	11338.3
531.535	11288.14
531.901	11475.25
532.267	11385.53
532.632	11543.5
532.998	11534.91
533.364	11601.57
533.73	11565.87
534.095	11733.32
534.461	11703.27
534.826	11809.93
535.192	11993.43
535.557	11947.78
535.923	11961.11
536.288	12009.92
536.653	12059.41
537.019	12082.46
537.384	12178.51
537.749	12215.12
538.114	12258.51
538.479	12256.02
538.845	12323.36
539.21	12311.39
539.575	12380.54
539.94	12459.4
540.305	12537.82
540.67	12460.76
541.034	12580.08
541.399	12725.16
541.764	12702.79
542.129	12672.28
542.494	12714.76
542.858	12856.68
543.223	12804.93
543.587	12972.38
543.952	12973.97
544.316	13033.63
544.681	13034.3
545.045	13107.75
545.41	13235.43
545.774	13260.51
546.138	13251.93
546.503	13311.59
546.867	13316.56
547.231	13466.84
547.595	13452.6
547.959	13493.05
548.324	13536.89
548.688	13569.66
549.052	13607.85
549.416	13715.64
549.779	13698.02
550.143	13775.08
550.507	13825.7
550.871	13843.1
551.235	13813.27
551.599	13840.16
551.962	13986.37
552.326	14031.79
552.689	14149.76
553.053	14093.26
553.417	14086.25
553.78	14280.15
554.143	14285.34
554.507	14341.61
554.87	14403.31
555.234	14436.53
555.597	14445.34
555.96	14585.22
556.323	14539.8
556.686	14559.69
557.05	14644.21
557.413	14760.13
557.776	14782.51
558.139	14825.9
558.502	14874.48
558.865	14802.39
559.228	15024.99
559.59	15079
559.953	15106.57
560.316	15178.2
560.679	15119.67
561.041	15343.62
561.404	15337.29
561.767	15509.04
562.129	15421.13
562.492	15489.38
562.854	15517.18
563.217	15562.83
563.579	15622.94
563.941	15608.02
564.304	15730.96
564.666	15729.83
565.028	15826.32
565.39	15951.06
565.753	16008.24
566.115	16064.73
566.477	16104.96
566.839	16074.22
567.201	16185.63
567.563	16275.57
567.925	16341.34
568.287	16453.42
568.648	16335.01
569.01	16476.25
569.372	16608.9
569.734	16600.99
570.095	16710.37
570.457	16755.11
570.819	16761.66
571.18	16819.29
571.542	16985.16
571.903	17045.95
572.265	17065.84
572.626	17194.42
572.987	17278.26
573.349	17420.63
573.71	17422.44
574.071	17542.43
574.432	17614.75
574.794	17848.64
575.155	17703.33
575.516	17818.59
575.877	17922.31
576.238	18072.14
576.599	18231.68
576.96	18212.7
577.32	18335.41
577.681	18530.43
578.042	18551.9
578.403	18701.27
578.763	18824.21
579.124	19004.32
579.485	19106.91
579.845	19276.4
580.206	19323.18
580.566	19460.8
580.927	19612.21
581.287	19859.44
581.648	19935.14
582.008	20184.17
582.368	20329.71
582.728	20458.29
583.089	20573.09
583.449	20763.37
583.809	20948.67
584.169	21185.5
584.529	21298.04
584.889	21712.27
585.249	21779.61
585.609	22027.06
585.969	22308.86
586.329	22401.97
586.688	22684.67
587.048	22871.79
587.408	22977.32
587.768	23224.09
588.127	23537.76
588.487	23603.52
588.846	24069.04
589.206	24194.01
589.565	24371.18
589.925	24683.04
590.284	24890.94
590.643	25138.17
591.003	25433.75
591.362	25692.73
591.721	25920.29
592.08	26217.23
592.44	26428.3
592.799	26771.12
593.158	26839.36
593.517	27191.22
593.876	27464.21
594.235	27641.38
594.593	27825.78
594.952	28070.07
595.311	28343.28
595.67	28671.18
596.029	29065.75
596.387	29323.82
596.746	29410.6
597.104	29599.74
597.463	29785.28
597.822	30215.55
598.18	30197.24
598.538	30512.26
598.897	30856.21
599.255	30950.67
599.613	31528.06
599.972	31347.72
600.33	31735.96
600.688	31807.37
601.046	32191.09
601.404	32412.33
601.762	32584.75
602.12	32783.62
602.478	33178.41
602.836	33222.02
603.194	33295.47
603.552	33493.2
603.91	33575.68
604.268	33947.88
604.625	34019.97
604.983	34276.01
605.341	34361.2
605.698	34620.63
606.056	35003.44
606.413	35057
606.771	35367.5
607.128	35518.23
607.485	35381.97
607.843	35696.08
608.2	36088.39
608.557	36141.49
608.914	36269.85
609.272	36460.35
609.629	36580.35
609.986	36927.91
610.343	36897.18
610.7	37188.7
611.057	37302.37
611.414	37513.43
611.771	37557.28
612.127	37860.09
612.484	37907.1
612.841	38224.38
613.198	38173.76
613.554	38258.5
613.911	38521.32
614.267	38557.47
614.624	38432.28
614.98	38871.36
615.337	39076.11
615.693	38980.29
616.05	39016.67
616.406	39385.93
616.762	39301.41
617.118	39472.48
617.475	39528.52
617.831	39791.11
618.187	39869.53
618.543	39935.74
618.899	40197.66
619.255	40061.16
619.611	40396.97
619.967	40434.26
620.323	40547.25
620.678	40369.18
621.034	40472.23
621.39	40603.97
621.746	40542.28
622.101	41080.57
622.457	40835.83
622.812	40963.29
623.168	41149.05
623.523	41153.56
623.879	41368.7
624.234	41082.15
624.589	41204.18
624.945	41375.03
625.3	41512.88
625.655	41401.69
626.01	41384.97
626.365	41616.15
626.72	41553.55
627.075	41602.14
627.43	41561.24
627.785	41525.98
628.14	41798.07
628.495	41796.26
628.85	41878.29
629.205	41707.67
629.559	41909.48
629.914	41866.54
630.269	41877.39
630.623	41924.17
630.978	41793.55
631.332	41961.91
631.687	41987.67
632.041	41878.74
632.396	42011.62
632.75	41955.58
633.104	41862.47
633.459	41736.83
633.813	41899.08
634.167	41833.32
634.521	41841.68
634.875	41985.18
635.229	41870.83
635.583	41756.71
635.937	41884.85
636.291	41671.29
636.645	41819.76
636.999	41720.1
637.352	41847.33
637.706	41653.21
638.06	41860.44
638.413	41780.44
638.767	41651.18
639.121	41609.82
639.474	41436.5
639.828	41652.53
640.181	41401.02
640.534	41720.1
640.888	41609.37
641.241	41219.33
641.594	41546.55
641.947	41582.03
642.301	41399.66
642.654	41467.23
643.007	41529.83
643.36	41437.63
643.713	41385.65
644.066	41558.07
644.419	41323.5
644.771	41063.17
645.124	40622.05
645.477	40664.09
645.83	40549.29
646.182	40281.95
646.535	40276.3
646.888	40396.52
647.24	40055.51
647.593	40286.47
647.945	40285.11
648.298	40028.17
648.65	40024.55
649.002	39966.03
649.355	40074.5
649.707	40077.43
650.059	40201.5
650.411	40651.88
650.763	40697.53
651.115	41035.83
651.467	40915.83
651.819	40990.86
652.171	40850.3
652.523	40880.13
652.875	40927.36
653.227	40729.4
653.578	41050.74
653.93	40942.04
654.282	40669.74
654.633	40723.52
654.985	40744.76
655.337	40719.68
655.688	40669.51
656.039	40842.16
656.391	40589.96
656.742	40629.06
657.094	40646.91
657.445	40734.82
657.796	40579.34
658.147	40629.74
658.498	40502.06
658.849	40635.84
659.2	40533.69
659.551	40536.41
659.902	40561.94
660.253	40366.47
660.604	40562.85
660.955	40383.42
661.306	40592.22
661.656	40548.83
662.007	40436.97
662.358	40396.75
662.708	40457.54
663.059	40489.18
663.409	40261.38
663.76	40425
664.11	40483.53
664.461	40498.67
664.811	40488.95
665.161	40433.13
665.511	40428.84
665.862	40407.14
666.212	40565.78
666.562	40486.24
666.912	40263.64
667.262	40357.88
667.612	40264.1
667.962	40239.46
668.312	40337.77
668.662	40436.07
669.011	40276.3
669.361	40279.69
669.711	40335.06
670.06	40340.48
670.41	40194.72
670.76	40040.37
671.109	40250.54
671.459	40116.53
671.808	40062.52
672.157	40290.99
672.507	39947.27
672.856	40016.42
673.205	40011.9
673.554	40109.3
673.904	40002.86
674.253	40303.19
674.602	40083.31
674.951	39631.57
675.3	39448.75
675.649	40086.93
675.998	39997.89
676.346	39928.74
676.695	40207.15
677.044	39714.51
677.393	39767.39
677.741	39918.57
678.09	39918.57
678.438	39712.47
678.787	39658.69
679.135	39758.12
679.484	39543.89
679.832	39768.29
680.181	39428.41
680.529	39723.77
680.877	39518.81
681.225	39370.56
681.573	39608.07
681.922	39437
682.27	39280.17
682.618	39368.75
682.966	39183.9
683.314	39339.6
683.661	39195.65
684.009	38950.46
684.357	38994.3
684.705	38865.49
685.053	39050.8
685.4	38810.58
685.748	38678.15
686.095	38692.61
686.443	38679.28
686.79	38629.56
687.138	38538.72
687.485	38628.43
687.832	38473.41
688.18	38474.54
688.527	38242.68
688.874	38281.1
689.221	38155.9
689.568	38096.7
689.915	38011.27
690.262	37956.81
690.609	37848.57
690.956	37742.58
691.303	37671.85
691.65	37434.79
691.997	37479.31
692.344	37216.04
692.69	37252.42
693.037	37318.64
693.383	37070.51
693.73	37248.58
694.077	36994.58
694.423	36988.25
694.769	36736.96
695.116	36840.01
695.462	36715.26
695.808	36652.67
696.155	36694.02
696.501	36550.3
696.847	36420.81
697.193	36121.61
697.539	36268.95
697.885	36122.74
698.231	35993.7
698.577	36008.39
698.923	35876.87
699.269	35627.83
699.614	35613.37
699.96	35583.99
700.306	35498.57
700.651	35231.01
700.997	35242.08
701.342	35113.5
701.688	35045.93
702.033	34915.76
702.379	34953.73
702.724	34894.07
703.069	34948.3
703.415	34547.18
703.76	34505.83
704.105	34507.19
704.45	34562.78
704.795	34232.62
705.14	34266.51
705.485	34149.46
705.83	34037.59
706.175	34136.8
706.52	33999.63
706.865	33852.51
707.209	33833.31
707.554	33642.58
707.899	33769.13
708.243	33492.52
708.588	33503.6
708.932	33230.84
709.277	33374.79
709.621	33252.98
709.966	33111.74
710.31	33209.14
710.654	32974.12
710.998	32948.13
711.342	32953.78
711.687	32907.23
712.031	32812.99
712.375	32755.59
712.719	32672.43
713.063	32737.06
713.407	32626.78
713.75	32526.67
714.094	32518.76
714.438	32422.49
714.782	32419.33
715.125	32256.4
715.469	32306.34
715.812	32093.24
716.156	32030.19
716.499	31982.96
716.843	31962.85
717.186	31827.71
717.53	32002.17
717.873	31914.49
718.216	31754.72
718.559	31652.57
718.902	31408.96
719.246	31517.43
719.589	31427.04
719.932	31257.33
720.275	31362.64
720.617	31421.62
720.96	31157.67
721.303	31188.63
721.646	31357.89
721.989	31036.09
722.331	31089.2
722.674	31017.33
723.016	30974.62
723.359	30970.33
723.701	30906.6
724.044	30791.35
724.386	30645.82
724.729	30728.3
725.071	30606.95
725.413	30644.24
725.755	30736.21
726.097	30585.26
726.439	30364.24
726.782	30502.32
727.124	30492.83
727.465	30353.4
727.807	30328.09
728.149	30216.68
728.491	30181.65
728.833	30230.69
729.175	30199.05
729.516	29972.62
729.858	30066.17
730.199	30013.07
730.541	29935.55
730.882	29858.27
731.224	30049.9
731.565	29749.12
731.906	29752.51
732.248	29846.74
732.589	29646.3
732.93	29492.85
733.271	29477.49
733.612	29546.41
733.953	29640.65
734.294	29570.14
734.635	29459.86
734.976	29448.34
735.317	29285.4
735.658	29257.61
735.999	29309.13
736.339	29239.3
736.68	29239.08
737.021	29196.37
737.361	29116.59
737.702	29298.06
738.042	29157.72
738.383	29000.89
738.723	29157.04
739.063	28989.36
739.404	28990.95
739.744	28892.19
740.084	28787.34
740.424	28818.52
740.764	28812.42
741.104	28862.14
741.444	28745.08
741.784	28539.43
742.124	28668.47
742.464	28517.96
742.804	28488.81
743.143	28344.86
743.483	28374.47
743.823	28267.8
744.162	28307.57
744.502	28335.82
744.841	28268.48
745.181	28314.58
745.52	28089.05
745.86	28264.19
746.199	28063.51
746.538	28078.65
746.877	28160.69
747.216	28043.63
747.556	28121.37
747.895	27988.71
748.234	27814.25
748.573	27878.43
748.911	27835.5
749.25	27826.68
749.589	27708.49
749.928	27665.56
750.267	27678.89
750.605	27747.59
750.944	27530.42
751.283	27447.48
751.621	27485.22
751.96	27299.47
752.298	27303.53
752.636	27230.32
752.975	27372.46
753.313	27113.26
753.651	27202.29
753.989	27119.81
754.327	27070.55
754.666	26947.61
755.004	26993.94
755.342	26914.39
755.679	26901.28
756.017	26778.8
756.355	26849.99
756.693	26635.08
757.031	26670.56
757.368	26575.19
757.706	26615.42
758.044	26380.17
758.381	26456.32
758.719	26384.46
759.056	26311.92
759.394	26279.15
759.731	26129.78
760.068	26065.83
760.405	26019.95
760.743	25834.87
761.08	26035.54
761.417	25631.04
761.754	25840.97
762.091	25712.16
762.428	25592.84
762.765	25400.31
763.102	25624.48
763.438	25323.7
763.775	25201.89
764.112	25274.89
764.449	25295.45
764.785	25087.77
765.122	24968.68
765.458	24842.58
765.795	24884.84
766.131	24864.5
766.467	24750.61
766.804	24727.1
767.14	24578.63
767.476	24596.26
767.812	24283.05
768.148	24477.39
768.485	24241.24
768.821	24178.19
769.157	24029.95
769.492	24044.41
769.828	24067.91
770.164	23763.51
770.5	23947.01
770.836	23823.4
771.171	23596.74
771.507	23603.29
771.842	23426.57
772.178	23372.34
772.513	23422.96
772.849	23238.78
773.184	23142.96
773.519	23104.32
773.855	22999.01
774.19	22926.47
774.525	22847.15
774.86	22774.39
775.195	22709.76
775.53	22616.88
775.865	22490.55
776.2	22345.7
776.535	22286.04
776.87	22287.17
777.205	22205.59
777.539	22039.94
777.874	22120.84
778.209	21886.95
778.543	21815.54
778.878	21713.62
779.212	21638.82
779.547	21630.91
779.881	21666.85
780.215	21385.95
780.55	21477.25
780.884	21308.44
781.218	21280.19
781.552	21271.83
781.886	21133.53
782.22	21176.91
782.554	20996.35
782.888	20757.26
783.222	20762.01
783.556	20703.93
783.889	20575.35
784.223	20446.99
784.557	20435.24
784.89	20557.04
785.224	20319.99
785.557	20131.07
785.891	20185.08
786.224	20081.8
786.558	20152.31
786.891	19903.5
787.224	19849.72
787.557	19800
787.891	19854.92
788.224	19776.73
788.557	19745.99
788.89	19622.83
789.223	19564.3
789.556	19456.96
789.888	19393.23
790.221	19352.1
790.554	19144.43
790.887	19167.93
791.219	19146.46
791.552	19099.23
791.884	19011.32
792.217	18911.44
792.549	18925.67
792.882	18689.75
793.214	18659.92
793.546	18664.89
793.879	18508.06
794.211	18397.33
794.543	18580.6
794.875	18443.2
795.207	18462.64
795.539	18323.88
795.871	18227.61
796.203	18100.16
796.535	18106.71
796.867	17966.83
797.198	18027.62
797.53	17930.22
797.862	17852.93
798.193	18013.38
798.525	17789.43
798.856	17821.07
799.188	17560.51
799.519	17509.67
799.85	17449.1
800.182	17485.94
800.513	17428.54
800.844	17402.55
801.175	17403.45
801.506	17432.83
801.837	17203.01
802.168	17278.03
802.499	17124.82
802.83	17011.15
803.161	16989.45
803.491	17007.98
803.822	16935.9
804.153	16858.84
804.483	16761.44
804.814	16635.79
805.145	16718.73
805.475	16695
805.805	16547.21
806.136	16606.87
806.466	16561.9
806.796	16520.77
807.126	16356.25
807.457	16396.48
807.787	16418.4
808.117	16256.82
808.447	16233.09
808.777	16240.32
809.107	16196.03
809.436	16064.51
809.766	16163.04
810.096	16098.86
810.426	15925.3
810.755	15979.54
811.085	15941.57
811.414	15880.33
811.744	15757.62
812.073	15748.36
812.403	15756.94
812.732	15658.87
813.061	15656.61
813.39	15562.83
813.719	15486.9
814.049	15608.93
814.378	15467.46
814.707	15380.01
815.036	15421.36
815.365	15370.06
815.693	15217.52
816.022	15175.72
816.351	15191.31
816.68	15141.37
817.008	15126.9
817.337	14965.55
817.665	15022.5
817.994	15051.88
818.322	15035.61
818.651	14879
818.979	14870.19
819.307	14906.57
819.636	14826.35
819.964	14847.36
820.292	14844.43
820.62	14780.92
820.948	14698.22
821.276	14788.61
821.604	14749.51
821.932	14777.76
822.259	14744.54
822.587	14676.97
822.915	14669.74
823.243	14804.88
823.57	14742.06
823.898	14751.55
824.225	14674.94
824.553	14597.43
824.88	14732.34
825.207	14730.53
825.535	14632.45
825.862	14728.04
826.189	14603.53
826.516	14683.3
826.843	14728.5
827.17	14646.69
827.497	14671.55
827.824	14714.03
828.151	14647.82
828.478	14617.77
828.805	14770.53
829.131	14678.55
829.458	14664.77
829.785	14574.83
830.111	14556.52
830.438	14690.98
830.764	14537.09
831.09	14691.66
831.417	14530.08
831.743	14577.77
832.069	14548.61
832.395	14590.87
832.722	14515.62
833.048	14442.85
833.374	14505.45
833.7	14441.5
834.026	14519.91
834.351	14531.44
834.677	14429.97
835.003	14412.8
835.329	14446.92
835.654	14347.26
835.98	14332.35
836.306	14360.82
836.631	14320.6
836.956	14367.6
837.282	14378
837.607	14211.22
837.932	14300.49
838.258	14251.9
838.583	14270.43
838.908	14159.25
839.233	14106.59
839.558	14157.21
839.883	14096.65
840.208	14007.84
840.533	14052.13
840.858	14085.58
841.182	14021.62
841.507	14031.57
841.832	13877.9
842.156	13903.43
842.481	13956.77
842.805	13884.45
843.13	13832.48
843.454	13822.31
843.778	13767.39
844.103	13700.5
844.427	13621.86
844.751	13702.76
845.075	13650.56
845.399	13533.73
845.723	13510.22
846.047	13548.87
846.371	13448.98
846.695	13383
847.019	13322.88
847.343	13231.59
847.666	13205.83
847.99	13163.79
848.313	13120.4
848.637	13095.09
848.96	12939.62
849.284	12941.43
849.607	12927.87
849.931	12833.41
850.254	12679.06
850.577	12741.66
850.9	12639.29
851.223	12617.59
851.546	12511.15
851.869	12521.32
852.192	12510.25
852.515	12418.28
852.838	12422.79
853.161	12379.86
853.483	12297.37
853.806	12286.08
854.129	12262.35
854.451	12206.3
854.774	12119.98
855.096	12074.78
855.419	12063.48
855.741	12052.64
856.063	11960.89
856.385	11897.16
856.708	11969.02
857.03	11853.32
857.352	11876.14
857.674	11777.84
857.996	11727.45
858.318	11686.54
858.64	11732.19
858.961	11653.55
859.283	11647
859.605	11569.71
859.926	11500.79
860.248	11603.16
860.57	11494.68
860.891	11501.46
861.212	11432.09
861.534	11434.57
861.855	11448.58
862.176	11397.74
862.498	11329.94
862.819	11367
863.14	11212.88
863.461	11205.65
863.782	11314.12
864.103	11222.83
864.424	11249.72
864.745	11240.45
865.065	11148.48
865.386	11105.09
865.707	11089.5
866.027	11135.37
866.348	11067.12
866.668	11057.63
866.989	11019.44
867.309	10993.23
867.63	11019.89
867.95	10935.6
868.27	10882.27
868.59	10969.27
868.91	10826.9
869.23	10898.32
869.55	10798.66
869.87	10870.07
870.19	10820.58
870.51	10826.9
870.83	10931.76
871.15	10809.28
871.469	10793.69
871.789	10794.36
872.109	10771.09
872.428	10668.26
872.748	10775.38
873.067	10695.83
873.386	10658.32
873.706	10630.98
874.025	10586.23
874.344	10550.08
874.663	10621.49
874.982	10632.79
875.301	10550.98
875.62	10558.44
875.939	10480.92
876.258	10571.32
876.577	10437.54
876.896	10455.61
877.214	10495.61
877.533	10406.35
877.852	10402.73
878.17	10452.68
878.489	10418.1
878.807	10366.35
879.125	10430.3
879.444	10367.03
879.762	10229.86
880.08	10300.14
880.398	10303.98
880.716	10313.7
881.034	10242.29
881.352	10267.6
881.67	10197.32
881.988	10277.77
882.306	10219.01
882.624	10070.09
882.941	10099.69
883.259	10017.89
883.577	10117.54
883.894	10043.65
884.212	10045.23
884.529	10036.87
884.846	9961.84
885.164	9895.86
885.481	9877.33
885.798	10000.03
886.115	9923.65
886.432	9889.53
886.75	9814.05
887.067	9848.4
887.383	9754.62
887.7	9780.83
888.017	9710.1
888.334	9769.08
888.651	9694.5
888.967	9746.48
889.284	9594.17
889.6	9612.25
889.917	9586.71
890.233	9609.31
890.55	9454.74
890.866	9597.11
891.182	9456.32
891.498	9436.88
891.815	9466.49
892.131	9366.38
892.447	9411.8
892.763	9316.66
893.079	9320.73
893.395	9371.58
893.71	9322.54
894.026	9223.1
894.342	9247.51
894.657	9172.03
894.973	9165.03
895.289	9190.34
895.604	9177.68
895.92	9095.2
896.235	9051.58
896.55	9010.91
896.865	8975.88
897.181	8961.87
897.496	8937.46
897.811	8873.51
898.126	8860.63
898.441	8798.26
898.756	8771.82
899.071	8746.96
899.386	8753.51
899.7	8620.18
900.015	8667.41
900.33	8655.66
900.644	8638.04
900.959	8613.18
901.273	8541.99
901.588	8550.35
901.902	8425.84
902.216	8436.23
902.531	8428.55
902.845	8371.15
903.159	8359.62
903.473	8389.45
903.787	8268.33
904.101	8292.96
904.415	8248.22
904.729	8194.88
905.042	8220.42
905.356	8125.96
905.67	8165.28
905.984	8126.64
906.297	8092.06
906.611	8064.72
906.924	7990.37
907.237	8034.89
907.551	7954.89
907.864	7927.55
908.177	7895.23
908.491	7932.52
908.804	7852.75
909.117	7753.09
909.43	7718.06
909.743	7702.92
910.056	7706.31
910.368	7686.42
910.681	7684.61
910.994	7584.73
911.307	7570.27
911.619	7488.01
911.932	7536.37
912.244	7420.67
912.557	7417.05
912.869	7408.01
913.181	7397.84
913.494	7361.46
913.806	7298.18
914.118	7277.39
914.43	7289.37
914.742	7276.72
915.054	7143.84
915.366	7187.9
915.678	7163.95
915.99	7134.12
916.302	7072.2
916.613	7021.13
916.925	7025.65
917.236	7000.11
917.548	6994.01
917.859	6951.3
918.171	6958.08
918.482	6893
918.794	6861.81
919.105	6876.73
919.416	6806.67
919.727	6815.71
920.038	6733.23
920.349	6706.33
920.66	6692.32
920.971	6644.64
921.282	6642.38
921.593	6593.57
921.903	6519
922.214	6518.09
922.525	6495.95
922.835	6476.06
923.146	6513.35
923.456	6420.24
923.767	6438.77
924.077	6366.23
924.387	6379.11
924.697	6326.01
925.008	6276.06
925.318	6247.36
925.628	6261.15
925.938	6204.2
926.248	6129.17
926.558	6111.1
926.867	6164.2
927.177	6075.84
927.487	6040.59
927.796	6023.42
928.106	6034.94
928.416	5960.37
928.725	6016.64
929.034	5927.6
929.344	5950.65
929.653	5967.37
929.962	5847.83
930.271	5871.78
930.581	5804.89
930.89	5803.53
931.199	5737.32
931.508	5718.11
931.817	5772.35
932.125	5674.27
932.434	5652.13
932.743	5638.79
933.051	5596.99
933.36	5653.26
933.669	5531.9
933.977	5567.83
934.286	5589.53
934.594	5531
934.902	5481.28
935.21	5513.82
935.519	5436.31
935.827	5427.05
936.135	5408.97
936.443	5343.21
936.751	5330.33
937.059	5291
937.367	5320.83
937.674	5304.79
937.982	5210.56
938.29	5248.75
938.597	5259.14
938.905	5210.56
939.213	5194.96
939.52	5134.17
939.827	5072.48
940.135	5094.4
940.442	5087.62
940.749	5068.19
941.056	5085.13
941.363	4920.62
941.67	5012.14
941.977	4968.3
942.284	4911.81
942.591	4913.84
942.898	4900.73
943.205	4893.05
943.511	4874.52
943.818	4837.46
944.125	4849.43
944.431	4835.42
944.738	4778.25
945.044	4755.88
945.35	4736.67
945.657	4693.28
945.963	4684.69
946.269	4657.8
946.575	4654.19
946.881	4643.79
947.187	4626.84
947.493	4645.15
947.799	4604.02
948.105	4560.63
948.41	4506.62
948.716	4519.95
949.022	4487.41
949.327	4511.82
949.633	4427.3
949.938	4464.81
950.244	4481.31
950.549	4395.44
950.854	4401.99
951.16	4361.31
951.465	4345.27
951.77	4327.64
952.075	4327.87
952.38	4310.47
952.685	4285.83
952.99	4236.12
953.294	4218.04
953.599	4193.63
953.904	4225.27
954.209	4154.54
954.513	4174.88
954.818	4143.01
955.122	4111.83
955.426	4104.37
955.731	4081.32
956.035	4034.54
956.339	4089.91
956.643	4038.38
956.948	4030.02
957.252	3993.86
957.556	4002.68
957.86	3967.2
958.163	3956.58
958.467	3948.67
958.771	3908.67
959.075	3949.8
959.378	3887.65
959.682	3841.78
959.985	3870.93
960.289	3864.38
960.592	3826.41
960.896	3819.86
961.199	3809.91
961.502	3750.93
961.805	3763.36
962.108	3748.67
962.411	3745.28
962.714	3702.57
963.017	3706.19
963.32	3741.89
963.623	3672.29
963.926	3668.45
964.228	3661.44
964.531	3611.28
964.833	3657.15
965.136	3573.99
965.438	3572.63
965.741	3522.24
966.043	3542.12
966.345	3527.21
966.648	3475.46
966.95	3508
967.252	3477.04
967.554	3451.73
967.856	3464.16
968.158	3458.51
968.46	3404.27
968.761	3396.82
969.063	3362.92
969.365	3367.44
969.666	3361.34
969.968	3328.12
970.269	3352.75
970.571	3312.75
970.872	3298.97
971.174	3286.31
971.475	3263.26
971.776	3232.3
972.077	3227.33
972.378	3259.87
972.679	3200.21
972.98	3178.97
973.281	3139.65
973.582	3192.08
973.883	3148.46
974.183	3133.32
974.484	3129.48
974.785	3080.67
975.085	3100.1
975.386	3119.54
975.686	3055.13
975.986	3030.27
976.287	3042.02
976.587	3017.39
976.887	3014.45
977.187	3005.87
977.487	3027.56
977.787	2990.73
978.087	2944.85
978.387	2914.57
978.687	2949.37
978.987	2949.37
979.286	2904.4
979.586	2879.09
979.885	2864.63
980.185	2870.96
980.484	2867.57
980.784	2847.45
981.083	2849.04
981.382	2796.38
981.682	2783.5
981.981	2783.27
982.28	2781.69
982.579	2782.14
982.878	2745.08
983.177	2760.9
983.475	2766.1
983.774	2718.64
984.073	2716.16
984.372	2714.8
984.67	2668.48
984.969	2690.62
985.267	2682.71
985.566	2655.82
985.864	2633
986.162	2630.28
986.461	2622.6
986.759	2626.44
987.057	2595.93
987.355	2583.51
987.653	2589.16
987.951	2539.44
988.249	2554.81
988.547	2512.77
988.844	2538.08
989.142	2566.33
989.44	2514.58
989.737	2490.85
990.035	2493.34
990.332	2479.33
990.63	2467.35
990.927	2417.86
991.224	2463.28
991.521	2438.2
991.819	2381.48
992.116	2418.54
992.413	2430.06
992.71	2390.52
993.006	2393.45
993.303	2376.73
993.6	2345.32
993.897	2336.51
994.193	2362.27
994.49	2310.07
994.787	2265.55
995.083	2298.32
995.379	2271.2
995.676	2280.46
995.972	2267.13
996.268	2254.7
996.565	2244.31
996.861	2226.45
997.157	2207.47
997.453	2182.16
997.749	2215.38
998.044	2181.48
998.34	2174.25
998.636	2177.19
998.932	2155.49
999.227	2123.4
999.523	2122.73
999.818	2124.31
1000.114	2101.71
1000.409	2082.28
1000.704	2076.4
1001	2044.31
1001.295	2051.54
1001.59	2039.57
1001.885	2041.15
1002.18	2015.38
1002.475	2010.41
1002.77	2014.25
1003.065	1958.44
1003.359	1991.43
1003.654	1979.91
1003.949	1955.05
1004.243	1932.9
1004.538	1954.6
1004.832	1922.96
1005.127	1948.27
1005.421	1897.65
1005.715	1889.51
1006.009	1915.73
1006.304	1860.36
1006.598	1851.77
1006.892	1840.7
1007.186	1846.35
1007.48	1900.13
1007.773	1832.79
1008.067	1801.83
1008.361	1831.43
1008.655	1797.54
1008.948	1772.91
1009.242	1804.99
1009.535	1748.73
1009.829	1774.49
1010.122	1760.02
1010.415	1734.49
1010.708	1757.54
1011.001	1728.84
1011.295	1692.23
1011.588	1693.59
1011.881	1702.17
1012.173	1688.61
1012.466	1694.04
1012.759	1662.17
1013.052	1654.49
1013.344	1623.98
1013.637	1635.28
1013.93	1637.54
1014.222	1601.16
1014.514	1585.79
1014.807	1585.57
1015.099	1569.29
1015.391	1585.11
1015.683	1559.58
1015.976	1554.38
1016.268	1530.2
1016.56	1554.15
1016.851	1515.29
1017.143	1539.24
1017.435	1511.44
1017.727	1508.51
1018.018	1520.71
1018.31	1507.38
1018.602	1480.71
1018.893	1462.18
1019.185	1466.47
1019.476	1431.22
1019.767	1432.35
1020.058	1407.27
1020.35	1432.58
1020.641	1408.17
1020.932	1408.17
1021.223	1372.69
1021.514	1364.33
1021.804	1355.74
1022.095	1355.29
1022.386	1354.61
1022.677	1357.1
1022.967	1342.41
1023.258	1343.99
1023.548	1324.33
1023.839	1329.08
1024.129	1301.28
1024.419	1294.5
1024.709	1300.83
1025	1276.65
1025.29	1234.16
1025.58	1273.03
1025.87	1239.59
1026.16	1227.61
1026.449	1260.15
1026.739	1206.37
1027.029	1202.52
1027.319	1203.2
1027.608	1202.98
1027.898	1213.6
1028.187	1200.49
1028.477	1187.16
1028.766	1177.21
1029.055	1164.33
1029.344	1147.84
1029.634	1164.56
1029.923	1145.58
1030.212	1139.7
1030.501	1131.11
1030.79	1141.74
1031.078	1122.08
1031.367	1126.14
1031.656	1104.45
1031.945	1079.14
1032.233	1123.66
1032.522	1083.66
1032.81	1059.7
1033.099	1048.86
1033.387	1066.94
1033.675	1041.4
1033.963	1042.53
1034.251	1027.16
1034.54	1043.66
1034.828	1050.44
1035.116	1028.52
1035.403	1017.44
1035.691	1006.6
1035.979	995.3
1036.267	999.59
1036.554	980.84
1036.842	1002.08
1037.129	962.53
1037.417	954.17
1037.704	975.41
1037.992	960.27
1038.279	965.47
1038.566	963.44
1038.853	963.44
1039.14	963.44
