Data from hue_24_FLMS001491_00073.txt Node
Date: Tue Feb 07 17:12:44 GMT 2017
User: dcchb
Spectrometer: FLMS00149
Trigger mode: 0
Integration Time (sec): 2.000000E-2
Scans to average: 10
Electric dark correction enabled: true
Nonlinearity correction enabled: false
Boxcar width: 0
XAxis mode: Wavelengths
Number of Pixels in Spectrum: 2048
>>>>>Begin Spectral Data<<<<<
341.393	7.29
341.776	7.29
342.16	7.29
342.543	-72.48
342.927	-62.99
343.31	-72.03
343.693	-89.66
344.077	-65.25
344.46	-40.62
344.843	-55.31
345.226	-32.94
345.61	-26.84
345.993	-19.83
346.376	7.06
346.759	11.58
347.142	6.61
347.525	37.57
347.908	67.17
348.291	76.89
348.674	84.8
349.057	110.79
349.44	127.96
349.823	142.88
350.206	178.81
350.588	197.34
350.971	206.83
351.354	220.84
351.737	233.5
352.119	244.57
352.502	248.19
352.884	274.17
353.267	286.6
353.65	306.26
354.032	299.94
354.414	312.59
354.797	289.99
355.179	339.03
355.562	311.69
355.944	341.52
356.326	328.18
356.709	331.12
357.091	353.72
357.473	347.84
357.855	344.91
358.238	373.61
358.62	367.73
359.002	334.74
359.384	345.13
359.766	325.02
360.148	329.09
360.53	333.83
360.912	343.32
361.294	347.62
361.676	351.69
362.057	344.68
362.439	325.02
362.821	340.61
363.203	344.91
363.584	341.52
363.966	334.51
364.348	331.8
364.729	320.05
365.111	310.1
365.493	325.47
365.874	324.79
366.256	304.91
366.637	310.56
367.019	317.79
367.4	327.96
367.781	319.6
368.163	350.1
368.544	315.75
368.925	323.66
369.306	327.51
369.688	322.31
370.069	329.77
370.45	343.55
370.831	309.2
371.212	341.52
371.593	307.62
371.974	335.64
372.355	318.01
372.736	335.87
373.117	329.31
373.498	330.9
373.879	311.46
374.26	316.66
374.641	302.2
375.021	341.29
375.402	325.25
375.783	322.31
376.163	336.32
376.544	349.2
376.925	337.67
377.305	329.99
377.686	339.48
378.066	345.13
378.447	336.54
378.827	340.61
379.208	330.44
379.588	343.55
379.968	331.57
380.349	347.39
380.729	360.72
381.109	354.17
381.489	356.66
381.87	347.84
382.25	337.67
382.63	333.16
383.01	346.94
383.39	353.95
383.77	350.33
384.15	338.35
384.53	355.75
384.91	371.12
385.29	340.39
385.67	356.21
386.049	368.18
386.429	359.14
386.809	365.92
387.189	378.13
387.568	366.83
387.948	375.41
388.328	368.86
388.707	362.76
389.087	366.6
389.466	371.57
389.846	349.65
390.225	362.76
390.605	349.2
390.984	397.79
391.363	393.72
391.743	392.81
392.122	398.24
392.501	367.5
392.881	397.79
393.26	396.43
393.639	390.78
394.018	385.13
394.397	382.19
394.776	372.25
395.155	379.03
395.534	387.84
395.913	397.79
396.292	402.31
396.671	387.62
397.05	395.53
397.429	395.75
397.808	387.39
398.186	406.83
398.565	408.41
398.944	407.96
399.323	412.48
399.701	402.53
400.08	411.57
400.458	398.24
400.837	406.83
401.215	420.38
401.594	404.11
401.972	411.57
402.351	407.28
402.729	397.11
403.107	428.07
403.486	428.29
403.864	414.73
404.242	409.31
404.62	416.09
404.999	404.34
405.377	422.19
405.755	418.8
406.133	435.07
406.511	429.42
406.889	445.69
407.267	423.32
407.645	445.02
408.023	448.86
408.401	447.05
408.779	456.32
409.156	449.99
409.534	448.63
409.912	448.86
410.29	454.06
410.667	444.79
411.045	453.15
411.422	488.86
411.8	477.11
412.178	473.26
412.555	492.47
412.933	485.02
413.31	484.11
413.687	480.27
414.065	494.05
414.442	470.1
414.819	489.99
415.197	503.77
415.574	497.67
415.951	501.96
416.328	499.03
416.705	511.46
417.082	522.98
417.46	518.69
417.837	501.96
418.214	508.29
418.591	524.79
418.967	512.36
419.344	512.36
419.721	523.88
420.098	526.82
420.475	539.03
420.852	546.48
421.228	528.63
421.605	528.4
421.982	538.8
422.358	552.81
422.735	544.22
423.111	545.35
423.488	544
423.864	567.27
424.241	572.47
424.617	550.78
424.994	553.49
425.37	555.3
425.746	563.88
426.123	591.68
426.499	591
426.875	584.67
427.251	584.9
427.627	569.08
428.003	595.75
428.379	605.69
428.756	603.88
429.132	636.88
429.507	615.18
429.883	632.58
430.259	629.64
430.635	654.73
431.011	636.88
431.387	656.99
431.763	644.79
432.138	642.3
432.514	681.62
432.89	683.88
433.265	680.04
433.641	693.37
434.016	673.49
434.392	696.31
434.767	701.51
435.143	701.06
435.518	707.38
435.894	699.02
436.269	698.57
436.644	724.11
437.02	736.31
437.395	733.14
437.77	741.73
438.145	735.63
438.52	750.77
438.895	740.15
439.271	752.35
439.646	779.02
440.021	737.21
440.395	757.1
440.77	770.88
441.145	776.76
441.52	788.96
441.895	786.93
442.27	772.92
442.645	780.15
443.019	796.42
443.394	803.2
443.769	812.01
444.143	824.22
444.518	808.85
444.892	817.66
445.267	802.52
445.641	829.19
446.016	834.38
446.39	837.77
446.764	842.07
447.139	800.71
447.513	838
447.887	859.92
448.262	861.73
448.636	877.55
449.01	842.52
449.384	887.94
449.758	896.08
450.132	888.39
450.506	888.85
450.88	921.39
451.254	899.92
451.628	886.36
452.002	928.62
452.376	899.69
452.75	923.2
453.123	920.48
453.497	953.7
453.871	944.21
454.244	942.4
454.618	949.64
454.992	972.01
455.365	980.6
455.739	987.38
456.112	1009.52
456.486	1003.87
456.859	1026.24
457.232	1041.61
457.606	1043.19
457.979	1051.78
458.352	1065.11
458.725	1072.57
459.099	1092.01
459.472	1095.39
459.845	1125.22
460.218	1115.96
460.591	1129.74
460.964	1119.8
461.337	1169.29
461.71	1138.33
462.083	1161.38
462.456	1183.98
462.829	1195.51
463.201	1193.47
463.574	1212
463.947	1197.99
464.32	1239.35
464.692	1251.32
465.065	1242.51
465.438	1284.09
465.81	1302.62
466.183	1322.28
466.555	1360.47
466.928	1340.59
467.3	1318.44
467.672	1367.7
468.045	1372.45
468.417	1416.97
468.789	1433.24
469.161	1412.9
469.534	1443.63
469.906	1487.93
470.278	1454.03
470.65	1508.49
471.022	1541.48
471.394	1555.72
471.766	1579.22
472.138	1569.96
472.51	1635.04
472.882	1664.65
473.253	1656.28
473.625	1675.94
473.997	1727.24
474.369	1752.55
474.74	1767.24
475.112	1786.68
475.484	1824.87
475.855	1875.26
476.227	1881.36
476.598	1941.7
476.97	1936.73
477.341	1984.86
477.713	2006.78
478.084	2040.23
478.455	2102.15
478.827	2081.58
479.198	2172.43
479.569	2197.51
479.94	2259.21
480.311	2263.05
480.682	2333.33
481.053	2336.72
481.424	2426.66
481.795	2453.55
482.166	2478.86
482.537	2532.87
482.908	2598.86
483.279	2644.28
483.65	2674.79
484.021	2752.07
484.391	2735.13
484.762	2804.73
485.133	2882.24
485.503	2887.66
485.874	2982.58
486.244	2998.4
486.615	3040.65
486.985	3065.51
487.356	3142.8
487.726	3203.14
488.097	3246.98
488.467	3294.21
488.837	3343.92
489.207	3435.67
489.578	3456.69
489.948	3506.4
490.318	3558.16
490.688	3580.53
491.058	3615.55
491.428	3704.82
491.798	3752.27
492.168	3811.03
492.538	3830.01
492.908	3857.81
493.278	3936.68
493.648	3944.59
494.017	3975.77
494.387	4013.51
494.757	4088.31
495.126	4144.81
495.496	4159.72
495.866	4193.17
496.235	4255.09
496.605	4286.05
496.974	4296.21
497.344	4340.06
497.713	4354.07
498.082	4410.11
498.452	4487.62
498.821	4485.36
499.19	4542.08
499.559	4552.03
499.928	4605.59
500.298	4633.83
500.667	4659.37
501.036	4720.16
501.405	4700.95
501.774	4735.53
502.143	4784.56
502.512	4778.69
502.88	4827.5
503.249	4851.91
503.618	4872.92
503.987	4914.28
504.356	4949.53
504.724	4955.18
505.093	4991.56
505.462	5015.52
505.83	5069.98
506.199	5034.05
506.567	5169.41
506.936	5106.14
507.304	5191.33
507.672	5173.48
508.041	5213.03
508.409	5288.51
508.777	5299.13
509.145	5332.57
509.514	5313.14
509.882	5348.39
510.25	5363.76
510.618	5417.32
510.986	5442.4
511.354	5432.68
511.722	5521.04
512.09	5506.35
512.458	5478.78
512.826	5600.81
513.193	5603.98
513.561	5599.91
513.929	5633.35
514.297	5679
514.664	5730.75
515.032	5701.6
515.4	5789.73
515.767	5798.32
516.135	5798.1
516.502	5721.94
516.869	5839.9
517.237	5888.04
517.604	5846.46
517.972	5914.48
518.339	5924.87
518.706	5961.71
519.073	5994.93
519.44	6043.06
519.808	6083.29
520.175	6075.6
520.542	6107.47
520.909	6120.35
521.276	6152.21
521.643	6182.94
522.009	6229.05
522.376	6227.69
522.743	6308.82
523.11	6361.02
523.477	6407.12
523.843	6405.09
524.21	6440.79
524.577	6477.63
524.943	6529.6
525.31	6576.15
525.676	6590.84
526.043	6648.92
526.409	6632.42
526.776	6687.34
527.142	6736.6
527.508	6783.83
527.874	6822.02
528.241	6822.7
528.607	6851.63
528.973	6891.63
529.339	6893.66
529.705	6923.72
530.071	7003.04
530.437	7055.24
530.803	7114.22
531.169	7143.37
531.535	7130.26
531.901	7147.44
532.267	7183.37
532.632	7241.9
532.998	7285.97
533.364	7300.43
533.73	7258.4
534.095	7369.81
534.461	7398.51
534.826	7425.17
535.192	7486.87
535.557	7487.77
535.923	7479.18
536.288	7532.29
536.653	7565.51
537.019	7568.22
537.384	7655
537.749	7602.34
538.114	7698.61
538.479	7685.96
538.845	7791.26
539.21	7797.59
539.575	7763.47
539.94	7815.67
540.305	7882.56
540.67	7910.36
541.034	7951.26
541.399	7979.96
541.764	7993.29
542.129	8050.24
542.494	8080.3
542.858	8077.13
543.223	8059.96
543.587	8147.86
543.952	8187.19
544.316	8234.64
544.681	8180.63
545.045	8222.67
545.41	8300.18
545.774	8353.06
546.138	8294.75
546.503	8398.71
546.867	8386.28
547.231	8488.42
547.595	8464.24
547.959	8487.52
548.324	8527.74
548.688	8543.11
549.052	8621.3
549.416	8550.11
549.779	8614.29
550.143	8625.82
550.507	8700.39
550.871	8728.19
551.235	8756.21
551.599	8811.35
551.962	8820.84
552.326	8849.77
552.689	8862.87
553.053	8880.95
553.417	8927.28
553.78	8983.1
554.143	9031.01
554.507	9027.62
554.87	9020.61
555.234	9099.7
555.597	9047.5
555.96	9131.12
556.323	9179.02
556.686	9106.03
557.05	9232.36
557.413	9284.11
557.776	9300.38
558.139	9275.74
558.502	9311.22
558.865	9339.02
559.228	9444.55
559.59	9422.41
559.953	9408.62
560.316	9588.96
560.679	9540.14
561.041	9576.75
561.404	9614.04
561.767	9695.62
562.129	9673.47
562.492	9743.08
562.854	9765.68
563.217	9766.13
563.579	9793.25
563.941	9873.92
564.304	9887.93
564.666	9973.35
565.028	9937.87
565.39	10066.46
565.753	10054.93
566.115	10069.4
566.477	10135.84
566.839	10135.61
567.201	10155.5
567.563	10242.95
567.925	10302.61
568.287	10320.92
568.648	10308.26
569.01	10385.77
569.372	10407.69
569.734	10373.57
570.095	10482.94
570.457	10542.38
570.819	10549.84
571.18	10519.1
571.542	10616.27
571.903	10701.47
572.265	10658.99
572.626	10819.43
572.987	10812.2
573.349	10859.88
573.71	10925.64
574.071	11023.95
574.432	11029.15
574.794	11113.21
575.155	11147.56
575.516	11129.26
575.877	11293.09
576.238	11364.28
576.599	11367.22
576.96	11480.88
577.32	11618.28
577.681	11566.98
578.042	11743.93
578.403	11853.76
578.763	11875
579.124	11973.53
579.485	12084.03
579.845	12216.46
580.206	12323.12
580.566	12394.98
580.927	12557.47
581.287	12706.84
581.648	12792.49
582.008	13027.28
582.368	13114.06
582.728	13224.12
583.089	13369.87
583.449	13537.1
583.809	13632.69
584.169	13861.61
584.529	13972.8
584.889	14286.01
585.249	14353.58
585.609	14488.26
585.969	14756.28
586.329	14974.58
586.688	15177.74
587.048	15359.65
587.408	15499.54
587.768	15826.76
588.127	15974.1
588.487	16193.98
588.846	16480.3
589.206	16650.01
589.565	16892.04
589.925	17189.44
590.284	17475.3
590.643	17788.06
591.003	18017.21
591.362	18333.13
591.721	18646.8
592.08	18857.41
592.44	19148.48
592.799	19520.22
593.158	19749.82
593.517	20027.33
593.876	20271.84
594.235	20569.01
594.593	20926.29
594.952	21190.46
595.311	21437.46
595.67	21828.64
596.029	22188.63
596.387	22628.39
596.746	22764.2
597.104	23000.36
597.463	23279.67
597.822	23781.58
598.18	24009.82
598.538	24247.33
598.897	24586.75
599.255	24703.59
599.613	25368.88
599.972	25555.09
600.33	25945.59
600.688	26033.04
601.046	26509.42
601.404	26756.19
601.762	27015.84
602.12	27455.83
602.478	27753.45
602.836	28046.55
603.194	28083.16
603.552	28488.12
603.91	28647.66
604.268	29018.95
604.625	29249
604.983	29620.52
605.341	29650.35
605.698	30138.93
606.056	30509.76
606.413	30615.3
606.771	31013.7
607.128	31283.75
607.485	31406.91
607.843	31488.27
608.2	31960.35
608.557	32290.51
608.914	32407.57
609.272	32801.68
609.629	33064.27
609.986	33323.02
610.343	33366.64
610.7	33722.79
611.057	33996.45
611.414	34063.12
611.771	34273.96
612.127	34637.56
612.484	34829.65
612.841	34991
613.198	35040.04
613.554	35285.46
613.911	35606.13
614.267	35913.24
614.624	35813.58
614.98	36068.49
615.337	36482.49
615.693	36432.54
616.05	36635.03
616.406	37032.3
616.762	36978.07
617.118	37228.68
617.475	37253.31
617.831	37532.85
618.187	37721.1
618.543	37849.91
618.899	38175.78
619.255	38284.25
619.611	38306.62
619.967	38582.32
620.323	38723.11
620.678	38792.48
621.034	38741.41
621.39	38892.37
621.746	39024.12
622.101	39424.56
622.457	39215.97
622.812	39429.53
623.168	39536.87
623.523	39642.63
623.879	39880.36
624.234	39800.37
624.589	40041.94
624.945	40112.22
625.3	40255.27
625.655	40345.89
626.01	40368.49
626.365	40447.81
626.72	40469.27
627.075	40509.73
627.43	40480.57
627.785	40546.56
628.14	40736.16
628.495	40729.83
628.85	40793.11
629.205	40725.54
629.559	40873.33
629.914	40882.37
630.269	41042.59
630.623	40914.23
630.978	40915.36
631.332	41085.98
631.687	41211.85
632.041	41054.34
632.396	41123.27
632.75	41231.06
633.104	41237.16
633.459	41087.56
633.813	41173.21
634.167	41155.13
634.521	41296.15
634.875	41373.66
635.229	41417.05
635.583	41154.23
635.937	41107.22
636.291	41324.39
636.645	41304.96
636.999	41128.24
637.352	41324.85
637.706	41039.66
638.06	41271.97
638.413	41158.52
638.767	41204.85
639.121	41259.54
639.474	41009.83
639.828	41121.91
640.181	41214.57
640.534	41129.6
640.888	40983.16
641.241	40855.48
641.594	41041.24
641.947	41127.34
642.301	41062.25
642.654	41207.79
643.007	41155.36
643.36	41088.24
643.713	40967.34
644.066	41178.63
644.419	41021.12
644.771	40730.06
645.124	40531.42
645.477	40428.82
645.83	40181.15
646.182	40185.67
646.535	39886.69
646.888	40128.49
647.24	39950.64
647.593	40107.25
647.945	40185.44
648.298	39902.74
648.65	39729.63
649.002	39696.87
649.355	39948.61
649.707	39785.68
650.059	40035.39
650.411	40504.98
650.763	40553.11
651.115	40898.19
651.467	40798.53
651.819	40622.94
652.171	40682.6
652.523	40586.11
652.875	40619.55
653.227	40438.09
653.578	40694.35
653.93	40716.27
654.282	40509.95
654.633	40516.73
654.985	40568.48
655.337	40611.87
655.688	40638.99
656.039	40728.93
656.391	40409.16
656.742	40488.48
657.094	40517.18
657.445	40660.68
657.796	40487.13
658.147	40477.64
658.498	40307.25
658.849	40591.53
659.2	40483.74
659.551	40320.13
659.902	40493
660.253	40548.59
660.604	40457.07
660.955	40415.27
661.306	40438.09
661.656	40482.61
662.007	40337.07
662.358	40313.12
662.708	40419.33
663.059	40394.7
663.409	40030.87
663.76	40419.33
664.11	40387.92
664.461	40349.73
664.811	40432.21
665.161	40273.57
665.511	40372.33
665.862	40352.67
666.212	40420.69
666.562	40361.93
666.912	40474.7
667.262	40321.48
667.612	40246.68
667.962	40340.46
668.312	40308.6
668.662	40505.66
669.011	40270.41
669.361	40223.86
669.711	40277.87
670.06	40211.65
670.41	40172.56
670.76	40027.25
671.109	40390.63
671.459	40229.96
671.808	40120.13
672.157	40148.83
672.507	40044.43
672.856	40040.59
673.205	40093.01
673.554	40175.72
673.904	39985.67
674.253	40213.69
674.602	40104.76
674.951	39441.96
675.3	39347.27
675.649	39909.06
675.998	39930.08
676.346	39948.84
676.695	40015.73
677.044	39737.99
677.393	39796.98
677.741	39952
678.09	39780.03
678.438	39669.3
678.787	39781.61
679.135	39783.87
679.484	39469.53
679.832	39679.92
680.181	39473.14
680.529	39574.16
680.877	39316.31
681.225	39476.31
681.573	39756.98
681.922	39473.37
682.27	39298.46
682.618	39301.17
682.966	39314.73
683.314	39375.29
683.661	39102.31
684.009	38980.27
684.357	38923.78
684.705	38869.99
685.053	38921.52
685.4	39025.47
685.748	38755.65
686.095	38834.52
686.443	38582.54
686.79	38628.87
687.138	38564.47
687.485	38567.18
687.832	38431.36
688.18	38556.1
688.527	38276.79
688.874	38247.64
689.221	38317.92
689.568	38072.05
689.915	37922
690.262	38047.64
690.609	37954.76
690.956	37646.52
691.303	37696.69
691.65	37589.58
691.997	37519.07
692.344	37321.11
692.69	37205.86
693.037	37374.89
693.383	37026.43
693.73	37258.51
694.077	36967.22
694.423	37061
694.769	36960.21
695.116	36843.38
695.462	36663.95
695.808	36549.83
696.155	36731.52
696.501	36322.94
696.847	36484.52
697.193	36061.93
697.539	36306.67
697.885	36117.52
698.231	36106.9
698.577	36085.66
698.923	35949.17
699.269	35737.87
699.614	35496.07
699.96	35468.05
700.306	35547.14
700.651	35270.54
700.997	35233.03
701.342	35308.73
701.688	35159.36
702.033	35088.63
702.379	34972.7
702.724	34887.27
703.069	35033.94
703.415	34538.81
703.76	34694.96
704.105	34633.5
704.45	34463.11
704.795	34346.5
705.14	34284.35
705.485	34223.34
705.83	34034.19
706.175	34127.52
706.52	34203.22
706.865	34049.56
707.209	33999.39
707.554	33883.69
707.899	33923.68
708.243	33684.59
708.588	33679.17
708.932	33398.27
709.277	33277.37
709.621	33429.91
709.966	33181.78
710.31	33349.69
710.654	33026.98
710.998	33134.55
711.342	32967.1
711.687	32956.48
712.031	32732.98
712.375	32702.02
712.719	32864.5
713.063	32654.34
713.407	32771.17
713.75	32622.02
714.094	32594.23
714.438	32399.66
714.782	32408.02
715.125	32237.4
715.469	32422.48
715.812	32186.1
716.156	32164.86
716.499	32147.69
716.843	32118.53
717.186	31890.52
717.53	32084.18
717.873	31996.05
718.216	31869.73
718.559	31792.89
718.902	31620.69
719.246	31690.97
719.589	31671.77
719.932	31448.5
720.275	31441.26
720.617	31494.82
720.96	31370.53
721.303	31440.36
721.646	31322.62
721.989	31316.3
722.331	31287.14
722.674	31159.24
723.016	31231.55
723.359	31045.12
723.701	31143.42
724.044	30896.42
724.386	30729.42
724.729	30913.14
725.071	30763.77
725.413	30702.98
725.755	30756.31
726.097	30559.93
726.439	30378.24
726.782	30515.64
727.124	30680.38
727.465	30397.9
727.807	30392.7
728.149	30304.57
728.491	30303.67
728.833	30354.06
729.175	30200.84
729.516	30063.45
729.858	30079.72
730.199	30139.6
730.541	30111.58
730.882	30013.5
731.224	30148.42
731.565	29902.32
731.906	29900.51
732.248	29753.62
732.589	29779.84
732.93	29682.67
733.271	29678.82
733.612	29786.39
733.953	29686.73
734.294	29659.62
734.635	29547.53
734.976	29597.24
735.317	29416.68
735.658	29387.08
735.999	29383.01
736.339	29506.85
736.68	29441.77
737.021	29319.29
737.361	29146.41
737.702	29345.95
738.042	29194.54
738.383	28969.92
738.723	29138.95
739.063	28979.18
739.404	29169.01
739.744	29072.96
740.084	28863.03
740.424	28971.95
740.764	28775.12
741.104	28935.11
741.444	28720.21
741.784	28793.65
742.124	28807.21
742.464	28693.54
742.804	28649.92
743.143	28486.09
743.483	28581
743.823	28420.78
744.162	28454.9
744.502	28460.78
744.841	28400.89
745.181	28500.55
745.52	28284.06
745.86	28392.3
746.199	28364.51
746.538	28163.61
746.877	28438.86
747.216	28397.05
747.556	28252.42
747.895	28109.15
748.234	28002.94
748.573	28067.34
748.911	28002.48
749.25	28008.36
749.589	27940.56
749.928	27973.11
750.267	28026.89
750.605	27949.38
750.944	27856.5
751.283	27728.59
751.621	27874.58
751.96	27581.7
752.298	27705.09
752.636	27701.48
752.975	27602.95
753.313	27443.85
753.651	27512.1
753.989	27498.32
754.327	27331.32
754.666	27229.62
755.004	27330.64
755.342	27261.03
755.679	27230.53
756.017	27049.06
756.355	27116.63
756.693	26981.04
757.031	26995.73
757.368	26994.6
757.706	26957.99
758.044	26718.22
758.381	26880.25
758.719	26680.03
759.056	26691.56
759.394	26680.94
759.731	26482.07
760.068	26441.4
760.405	26389.42
760.743	26156.66
761.08	26311.68
761.417	26220.16
761.754	26098.81
762.091	26188.75
762.428	26013.38
762.765	25964.35
763.102	25882.77
763.438	25690.68
763.775	25737.91
764.112	25708.31
764.449	25787.85
764.785	25617.46
765.122	25396
765.458	25300.63
765.795	25466.51
766.131	25307.41
766.467	25109.45
766.804	25076.01
767.14	24941.32
767.476	25012.96
767.812	24822.45
768.148	24859.06
768.485	24547.21
768.821	24528.45
769.157	24563.93
769.492	24577.49
769.828	24549.69
770.164	24193.09
770.5	24233.54
770.836	24237.61
771.171	24062.25
771.507	24012.98
771.842	23877.39
772.178	23751.97
772.513	23810.96
772.849	23571.87
773.184	23575.03
773.519	23434.92
773.855	23505.88
774.19	23358.99
774.525	23251.87
774.86	23308.14
775.195	23274.92
775.53	23171.42
775.865	23006.23
776.2	22861.15
776.535	22628.61
776.87	22705
777.205	22547.26
777.539	22566.92
777.874	22503.87
778.209	22393.37
778.543	22296.65
778.878	22180.26
779.212	22259.81
779.547	22123.54
779.881	22123.32
780.215	21908.18
780.55	22004.22
780.884	21754.51
781.218	21693.5
781.552	21683.1
781.886	21564.24
782.22	21524.24
782.554	21435.88
782.888	21226.62
783.222	21152.49
783.556	21130.57
783.889	21067.53
784.223	20852.16
784.557	20877.02
784.89	20884.25
785.224	20723.13
785.557	20665.95
785.891	20599.74
786.224	20503.02
786.558	20554.32
786.891	20426.64
787.224	20265.29
787.557	20283.82
787.891	20202.01
788.224	20019.42
788.557	20091.73
788.89	20050.83
789.223	20032.98
789.556	19874.11
789.888	19789.37
790.221	19707.56
790.554	19596.15
790.887	19581.24
791.219	19513.22
791.552	19486.78
791.884	19316.16
792.217	19404.07
792.549	19261.24
792.882	19175.15
793.214	19094.92
793.546	19139.44
793.879	18917.53
794.211	18844.76
794.543	18969.95
794.875	18803.86
795.207	18908.03
795.539	18649.96
795.871	18722.73
796.203	18629.4
796.535	18537.42
796.867	18437.31
797.198	18461.72
797.53	18340.82
797.862	18232.8
798.193	18245.68
798.525	18058.34
798.856	18093.59
799.188	17844.79
799.519	17975.86
799.85	17853.6
800.182	17732.02
800.513	17725.24
800.844	17595.3
801.175	17695.41
801.506	17721.4
801.837	17598.69
802.168	17512.59
802.499	17503.78
802.83	17360.96
803.161	17416.77
803.491	17329.09
803.822	17328.87
804.153	17226.5
804.483	17069.89
804.814	17046.84
805.145	17022.66
805.475	17031.02
805.805	16899.05
806.136	16930.68
806.466	16914.41
806.796	16866.73
807.126	16692.95
807.457	16706.28
807.787	16677.36
808.117	16614.53
808.447	16496.35
808.777	16631.26
809.107	16480.3
809.436	16432.84
809.766	16428.78
810.096	16336.8
810.426	16294.32
810.755	16257.93
811.085	16316.92
811.414	16312.4
811.744	16112.4
812.073	16032.63
812.403	16168.67
812.732	15990.14
813.061	15966.64
813.39	15909.47
813.719	15864.5
814.049	15921.22
814.378	15816.59
814.707	15731.85
815.036	15701.79
815.365	15660.44
815.693	15511.74
816.022	15461.34
816.351	15500.67
816.68	15361.69
817.008	15457.73
817.337	15344.96
817.665	15212.09
817.994	15330.27
818.322	15302.7
818.651	15252.54
818.979	15212.31
819.307	15262.93
819.636	15212.76
819.964	15013.22
820.292	15164.86
820.62	15113.11
820.948	15016.61
821.276	15097.74
821.604	14963.05
821.932	15108.59
822.259	15109.94
822.587	15114.91
822.915	15092.09
823.243	14992.66
823.57	14988.81
823.898	14998.08
824.225	14966.89
824.553	14957.18
824.88	14918.53
825.207	15057.74
825.535	14975.26
825.862	15034.92
826.189	14885.54
826.516	14944.3
826.843	15070.39
827.17	14978.42
827.497	15012.09
827.824	15014.58
828.151	14953.56
828.478	14899.33
828.805	15088.47
829.131	14973.45
829.458	14973.22
829.785	14787.92
830.111	14925.09
830.438	14932.32
830.764	14982.26
831.09	14940.68
831.417	14868.82
831.743	14977.74
832.069	14887.35
832.395	14838.54
832.722	14828.14
833.048	14828.37
833.374	14825.43
833.7	14804.41
834.026	14838.76
834.351	14792.21
834.677	14729.16
835.003	14802.61
835.329	14674.92
835.654	14680.12
835.98	14593.35
836.306	14702.49
836.631	14602.84
836.956	14706.11
837.282	14651.87
837.607	14599.67
837.932	14579.56
838.258	14488.04
838.583	14453.69
838.908	14392.45
839.233	14456.63
839.558	14384.76
839.883	14398.77
840.208	14316.29
840.533	14354.48
840.858	14387.7
841.182	14296.63
841.507	14320.81
841.832	14115.62
842.156	14159.68
842.481	14189.29
842.805	14153.58
843.13	14112.68
843.454	14142.51
843.778	14041.27
844.103	14024.32
844.427	13979.8
844.751	13973.02
845.075	14026.81
845.399	13911.78
845.723	13868.17
846.047	13856.87
846.371	13741.84
846.695	13722.41
847.019	13615.07
847.343	13558.8
847.666	13505.24
847.99	13498.68
848.313	13399.25
848.637	13393.38
848.96	13280.61
849.284	13254.4
849.607	13216.88
849.931	13099.83
850.254	12967.4
850.577	12987.96
850.9	12916.1
851.223	12946.83
851.546	12869.77
851.869	12737.8
852.192	12872.26
852.515	12661.19
852.838	12707.52
853.161	12705.26
853.483	12559.73
853.806	12542.33
854.129	12456.68
854.451	12434.53
854.774	12332.61
855.096	12384.59
855.419	12261.88
855.741	12330.81
856.063	12263.01
856.385	12230.92
856.708	12256.23
857.03	12152.51
857.352	12166.06
857.674	12166.74
857.996	12057.37
858.318	11976.01
858.64	11987.31
858.961	12033.41
859.283	11901.21
859.605	11866.19
859.926	11865.96
860.248	11822.34
860.57	11750.93
860.891	11758.62
861.212	11690.14
861.534	11644.04
861.855	11643.14
862.176	11653.31
862.498	11690.6
862.819	11588
863.14	11548.68
863.461	11530.83
863.782	11532.41
864.103	11516.82
864.424	11469.36
864.745	11450.6
865.065	11461.22
865.386	11324.28
865.707	11407.67
866.027	11382.36
866.348	11329.25
866.668	11289.25
866.989	11239.31
867.309	11184.62
867.63	11264.85
867.95	11239.31
868.27	11152.98
868.59	11136.26
868.91	11213.09
869.23	11154.79
869.55	11121.12
869.87	11157.28
870.19	11089.26
870.51	11146.66
870.83	11058.3
871.15	11040.44
871.469	11028.92
871.789	11066.43
872.109	11042.93
872.428	10981.01
872.748	10987.34
873.067	10932.42
873.386	10954.8
873.706	10869.38
874.025	10855.59
874.344	10812.88
874.663	10912.76
874.982	10786.67
875.301	10869.83
875.62	10781.02
875.939	10749.15
876.258	10738.76
876.577	10721.81
876.896	10675.26
877.214	10676.39
877.533	10733.11
877.852	10687.23
878.17	10679.1
878.489	10606.56
878.807	10627.57
879.125	10586.67
879.444	10602.26
879.762	10494.7
880.08	10554.13
880.398	10511.42
880.716	10570.63
881.034	10556.16
881.352	10464.87
881.67	10417.86
881.988	10434.36
882.306	10374.47
882.624	10320.92
882.941	10336.06
883.259	10252.44
883.577	10326.56
883.894	10266.23
884.212	10256.96
884.529	10174.7
884.846	10214.25
885.164	10193.69
885.481	10148.94
885.798	10206.79
886.115	10093.58
886.432	10122.95
886.75	10113.69
887.067	10137.64
887.383	9982.62
887.7	10082.96
888.017	9996.86
888.334	10053.58
888.651	9969.51
888.967	9850.87
889.284	9917.08
889.6	9901.94
889.917	9818.78
890.233	9835.28
890.55	9778.1
890.866	9745.56
891.182	9710.54
891.498	9668.95
891.815	9646.81
892.131	9614.72
892.447	9569.52
892.763	9575.62
893.079	9513.7
893.395	9493.37
893.71	9485.46
894.026	9389.41
894.342	9411.11
894.657	9353.48
894.973	9349.19
895.289	9301.51
895.604	9305.12
895.92	9248.17
896.235	9176.31
896.55	9186.93
896.865	9129.31
897.181	9135.18
897.496	9178.57
897.811	9078.69
898.126	9045.69
898.441	9050.44
898.756	9003.44
899.071	8942.19
899.386	8928.64
899.7	8866.94
900.015	8805.93
900.33	8829.43
900.644	8783.33
900.959	8737.45
901.273	8718.92
901.588	8725.25
901.902	8692.26
902.216	8669.89
902.531	8639.83
902.845	8597.12
903.159	8577.01
903.473	8543.33
903.787	8487.06
904.101	8446.84
904.415	8463.34
904.729	8397.12
905.042	8315.32
905.356	8319.16
905.67	8255.88
905.984	8320.29
906.297	8226.51
906.611	8252.95
906.924	8179.95
907.237	8144.25
907.551	8187.86
907.864	8127.98
908.177	8090.47
908.491	8065.16
908.804	8001.2
909.117	7982.9
909.43	7979.06
909.743	7829.68
910.056	7858.61
910.368	7847.31
910.681	7787.65
910.994	7802.34
911.307	7756.69
911.619	7678.5
911.932	7707.42
912.244	7629.69
912.557	7659.29
912.869	7594.89
913.181	7577.26
913.494	7514.66
913.806	7424.27
914.118	7489.58
914.43	7392.4
914.742	7405.51
915.054	7347.21
915.366	7312.63
915.678	7316.25
915.99	7277.61
916.302	7218.62
916.613	7156.7
916.925	7192.18
917.236	7141.34
917.548	7077.84
917.859	7078.06
918.171	7058.63
918.482	7043.71
918.794	7010.95
919.105	7023.15
919.416	6921.68
919.727	6908.35
920.038	6889.82
920.349	6868.58
920.66	6822.25
920.971	6781.8
921.282	6756.26
921.593	6761.69
921.903	6687.34
922.214	6659.54
922.525	6664.51
922.835	6586.1
923.146	6555.36
923.456	6586.55
923.767	6531.86
924.077	6581.58
924.387	6462.03
924.697	6431.75
925.008	6444.63
925.318	6381.13
925.628	6383.84
925.938	6390.17
926.248	6285.09
926.558	6308.59
926.867	6276.95
927.177	6244.19
927.487	6264.52
927.796	6161.25
928.106	6151.08
928.416	6137.75
928.725	6138.65
929.034	6048.26
929.344	6097.98
929.653	6048.26
929.962	5977.07
930.271	5980.24
930.581	5953.35
930.89	5848.04
931.199	5922.39
931.508	5853.24
931.817	5882.84
932.125	5815.04
932.434	5793.35
932.743	5761.49
933.051	5748.83
933.36	5743.41
933.669	5669.74
933.977	5668.38
934.286	5639.91
934.594	5674.48
934.902	5605.33
935.21	5577.54
935.519	5560.59
935.827	5523.75
936.135	5492.79
936.443	5480.14
936.751	5491.21
937.059	5469.07
937.367	5434.04
937.674	5425.68
937.982	5348.16
938.29	5367.82
938.597	5359.01
938.905	5281.5
939.213	5276.98
939.52	5227.72
939.827	5186.59
940.135	5186.59
940.442	5183.65
940.749	5169.19
941.056	5205.8
941.363	5127.38
941.67	5153.59
941.977	5080.15
942.284	5028.62
942.591	5021.17
942.898	5012.13
943.205	5021.85
943.511	4957.21
943.818	4971.45
944.125	4899.81
944.431	4906.59
944.738	4862.08
945.044	4867.5
945.35	4817.78
945.657	4826.82
945.963	4794.96
946.269	4771.23
946.575	4781.85
946.881	4700.5
947.187	4722.87
947.493	4655.53
947.799	4691.68
948.105	4657.79
948.41	4655.08
948.716	4578.02
949.022	4564.68
949.327	4603.33
949.633	4524.46
949.938	4554.06
950.244	4535.3
950.549	4523.78
950.854	4502.09
951.16	4515.64
951.465	4441.52
951.77	4448.98
952.075	4407.4
952.38	4383.67
952.685	4397.45
952.99	4319.49
953.294	4323.78
953.599	4320.85
953.904	4292.82
954.209	4259.61
954.513	4240.62
954.818	4235.88
955.122	4210.12
955.426	4188.19
955.731	4232.71
956.035	4177.35
956.339	4141.19
956.643	4105.49
956.948	4079.27
957.252	4066.62
957.556	4128.76
957.86	4022.78
958.163	4031.59
958.467	4050.8
958.771	3992.04
959.075	3956.11
959.378	4007.63
959.682	4011.02
959.985	3920.63
960.289	3872.72
960.592	3866.17
960.896	3862.1
961.199	3872.27
961.502	3844.48
961.805	3851.48
962.108	3832.27
962.411	3813.74
962.714	3760.18
963.017	3815.1
963.32	3780.07
963.623	3753.18
963.926	3722.44
964.228	3700.98
964.531	3646.06
964.833	3715.44
965.136	3667.08
965.438	3623.46
965.741	3656.91
966.043	3602.9
966.345	3618.49
966.648	3563.13
966.95	3584.82
967.252	3569
967.554	3492.17
967.856	3506.4
968.158	3477.48
968.46	3477.71
968.761	3475.9
969.063	3444.94
969.365	3400.65
969.666	3403.81
969.968	3426.18
970.269	3373.75
970.571	3337.37
970.872	3350.02
971.174	3355.45
971.475	3332.17
971.776	3325.62
972.077	3327.88
972.378	3314.55
972.679	3288.56
972.98	3232.51
973.281	3236.81
973.582	3234.32
973.883	3213.76
974.183	3202.68
974.484	3188.45
974.785	3190.71
975.085	3189.58
975.386	3155.45
975.686	3161.1
975.986	3150.03
976.287	3096.25
976.587	3065.06
976.887	3067.32
977.187	3033.65
977.487	3060.09
977.787	3046.08
978.087	3001.79
978.387	3038.62
978.687	2988.9
978.987	2968.11
979.286	2969.02
979.586	2963.59
979.885	2949.58
980.185	2933.31
980.484	2928.57
980.784	2926.31
981.083	2893.77
981.382	2877.72
981.682	2863.71
981.981	2884.05
982.28	2861.68
982.579	2842.24
982.878	2835.69
983.177	2774.45
983.475	2815.35
983.774	2769.93
984.073	2768.35
984.372	2752.98
984.67	2729.25
984.969	2735.13
985.267	2747.33
985.566	2748.68
985.864	2707.33
986.162	2675.69
986.461	2652.19
986.759	2691.06
987.057	2632.08
987.355	2642.47
987.653	2619.87
987.951	2589.59
988.249	2566.99
988.547	2648.35
988.844	2603.6
989.142	2588.24
989.44	2542.36
989.737	2576.26
990.035	2504.62
990.332	2540.78
990.63	2535.36
990.927	2527.45
991.224	2496.71
991.521	2472.99
991.819	2470.27
992.116	2433.44
992.413	2472.99
992.71	2409.26
993.006	2417.39
993.303	2417.17
993.6	2391.63
993.897	2414.68
994.193	2362.25
994.49	2357.96
994.787	2345.31
995.083	2326.77
995.379	2328.58
995.676	2338.07
995.972	2279.54
996.268	2329.26
996.565	2296.95
996.861	2255.14
997.157	2247
997.453	2261.01
997.749	2223.05
998.044	2212.43
998.34	2209.94
998.636	2235.93
998.932	2176.27
999.227	2176.72
999.523	2166.1
999.818	2158.87
1000.114	2166.33
1000.409	2151.86
1000.704	2103.28
1001	2143.95
1001.295	2068.93
1001.59	2071.64
1001.885	2099.89
1002.18	2076.39
1002.475	2076.16
1002.77	2072.09
1003.065	2057.4
1003.359	2027.12
1003.654	2037.97
1003.949	2021.02
1004.243	2024.41
1004.538	1970.85
1004.832	1990.96
1005.127	1978.08
1005.421	1948.03
1005.715	1939.21
1006.009	1960
1006.304	1923.4
1006.598	1901.02
1006.892	1912.55
1007.186	1935.37
1007.48	1878.65
1007.773	1891.76
1008.067	1860.8
1008.361	1866.9
1008.655	1837.52
1008.948	1840.46
1009.242	1818.54
1009.535	1796.62
1009.829	1825.32
1010.122	1801.37
1010.415	1752.55
1010.708	1755.49
1011.001	1737.19
1011.295	1752.1
1011.588	1744.42
1011.881	1715.94
1012.173	1714.14
1012.466	1694.02
1012.759	1699.22
1013.052	1708.71
1013.344	1695.38
1013.637	1671.2
1013.93	1655.83
1014.222	1633.46
1014.514	1651.54
1014.807	1652.89
1015.099	1604.99
1015.391	1629.84
1015.683	1595.04
1015.976	1609.28
1016.268	1587.59
1016.56	1549.85
1016.851	1568.15
1017.143	1561.82
1017.435	1550.3
1017.727	1534.03
1018.018	1518.89
1018.31	1517.3
1018.602	1491.09
1018.893	1498.1
1019.185	1479.79
1019.476	1479.34
1019.767	1503.75
1020.058	1464.42
1020.35	1461.26
1020.641	1433.24
1020.932	1429.4
1021.223	1422.17
1021.514	1433.69
1021.804	1397.53
1022.095	1401.15
1022.386	1360.25
1022.677	1351.66
1022.967	1396.63
1023.258	1362.28
1023.548	1372.68
1023.839	1344.65
1024.129	1342.17
1024.419	1321.15
1024.709	1332.45
1025	1319.8
1025.29	1283.64
1025.58	1268.72
1025.87	1291.32
1026.16	1285.67
1026.449	1270.98
1026.739	1233.47
1027.029	1256.97
1027.319	1235.05
1027.608	1241.38
1027.898	1249.29
1028.187	1217.88
1028.477	1229.18
1028.766	1214.71
1029.055	1169.97
1029.344	1209.06
1029.634	1171.78
1029.923	1187.14
1030.212	1175.62
1030.501	1174.49
1030.79	1143.08
1031.078	1152.57
1031.367	1116.64
1031.656	1145.79
1031.945	1119.12
1032.233	1101.5
1032.522	1113.47
1032.81	1085.23
1033.099	1081.61
1033.387	1092.68
1033.675	1070.99
1033.963	1070.99
1034.251	1090.2
1034.54	1055.85
1034.828	1035.96
1035.116	1053.36
1035.403	1016.98
1035.691	1045.68
1035.979	1038.22
1036.267	1034.15
1036.554	1014.72
1036.842	1021.95
1037.129	986.92
1037.417	983.53
1037.704	983.08
1037.992	1005.23
1038.279	981.73
1038.566	957.55
1038.853	957.55
1039.14	957.55
