Data from hue_30_FLMS001491_26.txt Node
Date: Mon Feb 06 15:04:56 GMT 2017
User: dcchb
Spectrometer: FLMS00149
Trigger mode: 0
Integration Time (sec): 2.000000E-2
Scans to average: 10
Electric dark correction enabled: true
Nonlinearity correction enabled: false
Boxcar width: 0
XAxis mode: Wavelengths
Number of Pixels in Spectrum: 2048
>>>>>Begin Spectral Data<<<<<
341.393	-18.88
341.776	-18.88
342.16	-18.88
342.543	-79
342.927	-73.35
343.31	-81.48
343.693	-71.76
344.077	-69.96
344.46	-39
344.843	-64.76
345.226	-50.75
345.61	-31.31
345.993	-39.9
346.376	4.84
346.759	29.02
347.142	32.19
347.525	39.87
347.908	65.86
348.291	59.31
348.674	91.85
349.057	125.97
349.44	127.33
349.823	147.21
350.206	165.29
350.588	211.62
350.971	206.42
351.354	235.12
351.737	226.76
352.119	244.84
352.502	267.21
352.884	271.05
353.267	266.31
353.65	286.65
354.032	308.11
354.414	294.55
354.797	313.54
355.179	345.85
355.562	316.02
355.944	351.28
356.326	329.13
356.709	337.49
357.091	336.59
357.473	323.48
357.855	356.25
358.238	365.29
358.62	365.51
359.002	349.02
359.384	335.68
359.766	358.96
360.148	354.44
360.53	358.28
360.912	326.64
361.294	334.33
361.676	339.98
362.057	323.48
362.439	344.72
362.821	323.25
363.203	331.39
363.584	330.03
363.966	327.77
364.348	319.19
364.729	334.78
365.111	329.13
365.493	323.71
365.874	319.64
366.256	322.35
366.637	333.65
367.019	312.63
367.4	328.45
367.781	328.23
368.163	321.45
368.544	295.01
368.925	318.51
369.306	316.93
369.688	327.32
370.069	320.54
370.45	300.43
370.831	340.2
371.212	312.18
371.593	335.01
371.974	311.5
372.355	319.41
372.736	319.41
373.117	335.01
373.498	303.59
373.879	329.36
374.26	318.28
374.641	308.57
375.021	328.9
375.402	322.8
375.783	336.81
376.163	341.11
376.544	339.52
376.925	337.94
377.305	316.93
377.686	331.62
378.066	329.13
378.447	344.5
378.827	339.07
379.208	336.81
379.588	319.19
379.968	323.71
380.349	321.45
380.729	337.04
381.109	353.99
381.489	362.35
381.87	339.75
382.25	340.2
382.63	346.98
383.01	346.08
383.39	366.87
383.77	342.91
384.15	355.8
384.53	369.13
384.91	356.47
385.29	351.73
385.67	344.5
386.049	335.91
386.429	357.6
386.809	358.73
387.189	339.98
387.568	370.03
387.948	373.65
388.328	363.25
388.707	363.25
389.087	351.73
389.466	364.16
389.846	370.26
390.225	371.39
390.605	371.16
390.984	365.51
391.363	376.36
391.743	366.87
392.122	378.62
392.501	375.68
392.881	382.69
393.26	365.96
393.639	356.02
394.018	360.32
394.397	379.75
394.776	381.78
395.155	377.04
395.534	384.95
395.913	376.59
396.292	395.79
396.671	382.46
397.05	385.85
397.429	384.27
397.808	398.96
398.186	380.2
398.565	432.63
398.944	402.35
399.323	397.83
399.701	375
400.08	402.35
400.458	393.08
400.837	396.47
401.215	394.44
401.594	398.96
401.972	424.49
402.351	412.74
402.729	408.22
403.107	400.77
403.486	422.46
403.864	418.62
404.242	432.63
404.62	413.65
404.999	431.73
405.377	424.04
405.755	426.3
406.133	416.81
406.511	424.04
406.889	425.62
407.267	448
407.645	420.2
408.023	454.32
408.401	445.51
408.779	433.08
409.156	453.42
409.534	449.8
409.912	446.87
410.29	459.52
410.667	474.21
411.045	438.96
411.422	454.78
411.8	480.99
412.178	446.41
412.555	463.36
412.933	484.15
413.31	474.44
413.687	481.67
414.065	476.7
414.442	476.7
414.819	503.36
415.197	513.98
415.574	495.23
415.951	473.76
416.328	492.74
416.705	508.56
417.082	543.81
417.46	496.58
417.837	501.33
418.214	515.79
418.591	519.41
418.967	546.75
419.344	527.54
419.721	521.67
420.098	528.22
420.475	526.19
420.852	520.54
421.228	549.91
421.605	537.26
421.982	551.5
422.358	536.13
422.735	522.8
423.111	544.94
423.488	551.5
423.864	558.5
424.241	557.82
424.617	555.34
424.994	561.44
425.37	555.79
425.746	566.41
426.123	583.36
426.499	588.78
426.875	570.48
427.251	607.99
427.627	602.34
428.003	597.37
428.379	614.09
428.756	615.45
429.132	626.07
429.507	611.83
429.883	613.42
430.259	636.01
430.635	628.78
431.011	619.07
431.387	649.12
431.763	631.27
432.138	625.39
432.514	680.76
432.89	649.12
433.265	662.23
433.641	653.19
434.016	656.35
434.392	709.23
434.767	691.83
435.143	695.45
435.518	695.67
435.894	719.85
436.269	715.56
436.644	694.77
437.02	711.27
437.395	706.97
437.77	730.7
438.145	738.16
438.52	753.75
438.895	749.91
439.271	715.56
439.646	751.49
440.021	761.21
440.395	784.94
440.77	745.16
441.145	776.58
441.52	766.63
441.895	777.71
442.27	764.6
442.645	787.2
443.019	775.22
443.394	786.07
443.769	803.02
444.143	796.69
444.518	801.89
444.892	800.76
445.267	796.69
445.641	809.34
446.016	839.4
446.39	856.57
446.764	845.27
447.139	824.48
447.513	822
447.887	863.58
448.262	849.57
448.636	855.67
449.01	884.37
449.384	864.03
449.758	853.41
450.132	890.7
450.506	891.83
450.88	872.39
451.254	901.77
451.628	901.32
452.002	886.18
452.376	909.45
452.75	916.46
453.123	946.74
453.497	923.69
453.871	902.67
454.244	946.06
454.618	961.88
454.992	991.26
455.365	975.67
455.739	978.15
456.112	998.04
456.486	1004.37
456.859	1000.3
457.232	1037.13
457.606	996
457.979	1013.18
458.352	1052.5
458.725	1067.19
459.099	1062.44
459.472	1077.58
459.845	1097.7
460.218	1103.8
460.591	1081.88
460.964	1122.33
461.337	1145.15
461.71	1133.18
462.083	1164.36
462.456	1172.5
462.829	1198.26
463.201	1190.35
463.574	1235.32
463.947	1217.02
464.32	1245.49
464.692	1247.98
465.065	1242.33
465.438	1276.9
465.81	1283.68
466.183	1309.44
466.555	1339.5
466.928	1351.93
467.3	1348.54
467.672	1366.84
468.045	1376.79
468.417	1398.48
468.789	1448.65
469.161	1413.4
469.534	1423.34
469.906	1510.57
470.278	1511.7
470.65	1479.83
471.022	1537.91
471.394	1557.57
471.766	1573.16
472.138	1599.15
472.51	1616.1
472.882	1674.86
473.253	1671.24
473.625	1699.04
473.997	1762.54
474.369	1763.22
474.74	1795.76
475.112	1837.56
475.484	1866.72
475.855	1882.08
476.227	1926.6
476.598	1963.89
476.97	2000.27
477.341	2065.36
477.713	2063.1
478.084	2099.25
478.455	2177.22
478.827	2178.8
479.198	2281.17
479.569	2304.22
479.94	2371.11
480.311	2373.82
480.682	2423.09
481.053	2511.45
481.424	2567.26
481.795	2586.7
482.166	2687.26
482.537	2674.38
482.908	2793.02
483.279	2823.75
483.65	2840.48
484.021	2953.02
484.391	2957.99
484.762	3052.45
485.133	3081.15
485.503	3080.02
485.874	3202.27
486.244	3289.73
486.615	3367.69
486.985	3385.55
487.356	3467.58
487.726	3539.21
488.097	3604.07
488.467	3653.56
488.837	3761.13
489.207	3772.66
489.578	3879.54
489.948	3929.71
490.318	3965.87
490.688	4037.73
491.058	4145.07
491.428	4189.59
491.798	4222.36
492.168	4372.64
492.538	4339.19
492.908	4396.59
493.278	4552.75
493.648	4563.37
494.017	4578.96
494.387	4672.97
494.757	4734.89
495.126	4793.19
495.496	4781.44
495.866	4904.83
496.235	4959.52
496.605	5035.9
496.974	5084.48
497.344	5148.66
497.713	5194.76
498.082	5206.06
498.452	5328.77
498.821	5304.14
499.19	5378.49
499.559	5360.18
499.928	5457.13
500.298	5510.91
500.667	5506.62
501.036	5548.43
501.405	5623
501.774	5659.39
502.143	5755.88
502.512	5732.6
502.88	5848.08
503.249	5788.65
503.618	5853.28
503.987	5883.56
504.356	6019.15
504.724	5960.39
505.093	6032.03
505.462	6027.51
505.83	6127.4
506.199	6200.39
506.567	6217.34
506.936	6211.69
507.304	6296.88
507.672	6304.11
508.041	6362.42
508.409	6403.77
508.777	6507.72
509.145	6574.16
509.514	6519.02
509.882	6511.79
510.25	6569.64
510.618	6618.23
510.986	6662.07
511.354	6691.9
511.722	6754.95
512.09	6843.76
512.458	6806.47
512.826	6854.38
513.193	6896.64
513.561	6903.87
513.929	6930.99
514.297	7045.34
514.664	7084.88
515.032	7079.69
515.4	7073.81
515.767	7186.58
516.135	7157.42
516.502	7155.62
516.869	7277.65
517.237	7246.46
517.604	7270.19
517.972	7347.48
518.339	7375.05
518.706	7313.35
519.073	7349.51
519.44	7465.67
519.808	7543.4
520.175	7486.68
520.542	7531.2
520.909	7550.41
521.276	7601.93
521.643	7702.5
522.009	7734.58
522.376	7766.9
522.743	7791.98
523.11	7846.9
523.477	7864.07
523.843	7946.33
524.21	8034.92
524.577	8029.94
524.943	8145.87
525.31	8118.08
525.676	8192.43
526.043	8210.96
526.409	8246.66
526.776	8339.77
527.142	8344.29
527.508	8397.62
527.874	8456.15
528.241	8457.73
528.607	8554.22
528.973	8619.99
529.339	8606.2
529.705	8625.18
530.071	8724.84
530.437	8744.5
530.803	8781.11
531.169	8844.16
531.535	8881
531.901	8908.34
532.267	9002.12
532.632	9021.56
532.998	9010.03
533.364	9073.53
533.73	9100.42
534.095	9173.87
534.461	9183.59
534.826	9253.87
535.192	9247.99
535.557	9356.91
535.923	9304.26
536.288	9357.82
536.653	9398.72
537.019	9467.42
537.384	9497.7
537.749	9480.3
538.114	9550.81
538.479	9578.38
538.845	9643.01
539.21	9617.25
539.575	9724.36
539.94	9752.16
540.305	9701.54
540.67	9745.15
541.034	9861.76
541.399	9939.5
541.764	9829.9
542.129	9976.33
542.494	10000.74
542.858	10061.76
543.223	10066.05
543.587	10153.5
543.952	10195.99
544.316	10182.66
544.681	10238.02
545.045	10245.93
545.41	10295.87
545.774	10325.25
546.138	10375.87
546.503	10507.85
546.867	10453.84
547.231	10551.91
547.595	10552.36
547.959	10613.15
548.324	10613.15
548.688	10648.18
549.052	10671
549.416	10692.25
549.779	10753.26
550.143	10784.9
550.507	10836.42
550.871	10904.9
551.235	10859.47
551.599	10968.62
551.962	10983.99
552.326	11034.61
552.689	11144.44
553.053	11068.28
553.417	11050.2
553.78	11201.84
554.143	11170.43
554.507	11176.53
554.87	11230.09
555.234	11346.69
555.597	11281.61
555.96	11323.19
556.323	11430.31
556.686	11442.74
557.05	11507.82
557.413	11461.27
557.776	11580.36
558.139	11630.75
558.502	11648.83
558.865	11631.43
559.228	11700.81
559.59	11748.49
559.953	11781.71
560.316	11830.75
560.679	11922.27
561.041	11926.11
561.404	11991.2
561.767	11994.13
562.129	11996.39
562.492	12124.53
562.854	12156.62
563.217	12123.4
563.579	12125.43
563.941	12262.15
564.304	12300.11
564.666	12364.97
565.028	12390.73
565.39	12435.03
565.753	12495.14
566.115	12466.89
566.477	12576.27
566.839	12588.92
567.201	12679.31
567.563	12600.9
567.925	12760.44
568.287	12763.61
568.648	12856.26
569.01	12828.24
569.372	12988.46
569.734	12912.98
570.095	12992.3
570.457	13111.84
570.819	13150.49
571.18	13202.69
571.542	13219.41
571.903	13316.81
572.265	13349.58
572.626	13365.4
572.987	13510.25
573.349	13510.25
573.71	13600.42
574.071	13690.59
574.432	13773.75
574.794	13841.09
575.155	13936.23
575.516	13930.58
575.877	14065.27
576.238	14202.66
576.599	14294.19
576.96	14354.75
577.32	14481.07
577.681	14529.43
578.042	14770.11
578.403	14773.27
578.763	14856.21
579.124	15028.4
579.485	15228.4
579.845	15358.11
580.206	15391.11
580.566	15489.18
580.927	15802.4
581.287	15893.47
581.648	16063.18
582.008	16307.24
582.368	16422.49
582.728	16673.56
583.089	16672.2
583.449	16971.18
583.809	17161.91
584.169	17390.38
584.529	17606.42
584.889	17871.27
585.249	18051.38
585.609	18231.94
585.969	18466.28
586.329	18673.96
586.688	18925.48
587.048	19153.04
587.408	19343.09
587.768	19619.47
588.127	19937.65
588.487	20124.54
588.846	20538.99
589.206	20683.4
589.565	20867.12
589.925	21371.06
590.284	21519.99
590.643	21817.83
591.003	22168.56
591.362	22501.43
591.721	22827.52
592.08	23002.21
592.44	23415.08
592.799	23548.86
593.158	23859.36
593.517	24150.65
593.876	24429.29
594.235	24616.4
594.593	25002.83
594.952	25297.51
595.311	25504.96
595.67	25876.03
596.029	26304.72
596.387	26627.42
596.746	26935.89
597.104	27084.81
597.463	27320.74
597.822	27683.21
598.18	27855.41
598.538	28129.08
598.897	28525.9
599.255	28642.51
599.613	29358.65
599.972	29523.39
600.33	29705.08
600.688	29864.85
601.046	30291.73
601.404	30636.58
601.762	30839.74
602.12	31239.73
602.478	31372.38
602.836	31643.79
603.194	31648.31
603.552	31998.13
603.91	32134.4
604.268	32475.18
604.625	32720.37
604.983	32954.94
605.341	33043.98
605.698	33468.6
606.056	33782.04
606.413	33804.86
606.771	34226.54
607.128	34466.09
607.485	34447.1
607.843	34688.23
608.2	35117.14
608.557	35307.42
608.914	35487.3
609.272	35826.73
609.629	36054.97
609.986	36232.37
610.343	36265.13
610.7	36762.3
611.057	36826.48
611.414	36955.06
611.771	36951.9
612.127	37352.34
612.484	37386.01
612.841	37647.92
613.198	37680.92
613.554	37937.63
613.911	38222.14
614.267	38312.76
614.624	38476.6
614.98	38560.89
615.337	38898.74
615.693	38867.33
616.05	38965.85
616.406	39327.43
616.762	39277.48
617.118	39302.34
617.475	39462.79
617.831	39702.11
618.187	39945.04
618.543	40093.73
618.899	40234.07
619.255	40224.58
619.611	40389.55
619.967	40558.13
620.323	40724.9
620.678	40688.52
621.034	40697.56
621.39	40781.4
621.746	40760.16
622.101	41276.98
622.457	41015.97
622.812	41239.24
623.168	41404.66
623.523	41539.35
623.879	41679.23
624.234	41369.41
624.589	41619.34
624.945	41680.81
625.3	41890.52
625.655	41912.22
626.01	41867.7
626.365	41970.29
626.72	41946.79
627.075	42050.52
627.43	42108.82
627.785	41899.79
628.14	42165.54
628.495	42239.89
628.85	42166.67
629.205	42100.01
629.559	42491.19
629.914	42164.19
630.269	42330.96
630.623	42387.91
630.978	42250.29
631.332	42474.69
631.687	42463.62
632.041	42382.04
632.396	42654.57
632.75	42285.09
633.104	42546.55
633.459	42318.76
633.813	42273.34
634.167	42309.49
634.521	42414.35
634.875	42490.73
635.229	42411.64
635.583	42180.46
635.937	42337.97
636.291	42271.3
636.645	42247.58
636.999	42288.03
637.352	42509.49
637.706	42215.94
638.06	42313.79
638.413	42316.27
638.767	42236.28
639.121	42340.91
639.474	41984.53
639.828	42138.2
640.181	42196.28
640.534	42153.79
640.888	42078.31
641.241	41986.57
641.594	42004.64
641.947	42193.34
642.301	42071.76
642.654	42055.26
643.007	42064.76
643.36	41984.08
643.713	42000.58
644.066	42085.32
644.419	41850.3
644.771	41655.95
645.124	41288.73
645.477	41202.86
645.83	41057.32
646.182	40797.22
646.535	40779.37
646.888	41057.78
647.24	40762.19
647.593	40964.22
647.945	40858.91
648.298	40719.48
648.65	40520.16
649.002	40574.17
649.355	40732.81
649.707	40584.34
650.059	40712.25
650.411	41200.6
650.763	41261.39
651.115	41617.76
651.467	41583.86
651.819	41504.09
652.171	41422.51
652.523	41427.26
652.875	41457.09
653.227	41074.27
653.578	41505.45
653.93	41434.49
654.282	41268.84
654.633	41070.88
654.985	41296.64
655.337	41229.07
655.688	41305
656.039	41350.88
656.391	41131.67
656.742	41174.84
657.094	41175.51
657.445	41237.66
657.796	41160.6
658.147	41089.41
658.498	41111.11
658.849	41170.09
659.2	41013.94
659.551	41024.33
659.902	41134.16
660.253	41039.92
660.604	41063.2
660.955	41059.81
661.306	41069.08
661.656	41075.4
662.007	40989.3
662.358	40940.94
662.708	40929.87
663.059	40847.16
663.409	40732.81
663.76	40934.84
664.11	40973.94
664.461	41006.25
664.811	40988.17
665.161	40909.31
665.511	40891.68
665.862	40875.41
666.212	40947.04
666.562	41032.47
666.912	40929.42
667.262	40891
667.612	40870.44
667.962	40833.38
668.312	40742.3
668.662	41004.67
669.011	40893.94
669.361	40909.98
669.711	40792.02
670.06	40823.43
670.41	40725.58
670.76	40769.2
671.109	40794.51
671.459	40766.71
671.808	40714.96
672.157	40797.44
672.507	40586.38
672.856	40530.78
673.205	40656.21
673.554	40590.22
673.904	40459.15
674.253	40611.01
674.602	40405.36
674.951	39927.86
675.3	39746.85
675.649	40421.18
675.998	40461.63
676.346	40357.23
676.695	40532.14
677.044	40126.73
677.393	40272.49
677.741	40388.42
678.09	40250.11
678.438	40204.24
678.787	40271.81
679.135	40372.6
679.484	40067.97
679.832	40156.78
680.181	40028.2
680.529	40111.59
680.877	39782.1
681.225	39886.06
681.573	40089.44
681.922	39804.02
682.27	39613.29
682.618	39832.27
682.966	39667.08
683.314	39661.2
683.661	39647.64
684.009	39491.94
684.357	39458.04
684.705	39408.55
685.053	39318.39
685.4	39285.17
685.748	39055.57
686.095	39266.64
686.443	39009.02
686.79	38955.23
687.138	38902.13
687.485	38836.14
687.832	38773.99
688.18	38790.49
688.527	38573.77
688.874	38622.81
689.221	38548.46
689.568	38475.02
689.915	38381.91
690.262	38282.26
690.609	38162.94
690.956	38141.24
691.303	38020.79
691.65	38038.42
691.997	37848.14
692.344	37711.88
692.69	37706.45
693.037	37577.87
693.383	37405.89
693.73	37429.17
694.077	37189.4
694.423	37376.97
694.769	37254.71
695.116	37080.71
695.462	37120.25
695.808	36865.34
696.155	36995.74
696.501	36616.99
696.847	36643.66
697.193	36344.45
697.539	36696.76
697.885	36199.15
698.231	36216.1
698.577	36255.42
698.923	36118.47
699.269	35935.43
699.614	35825.15
699.96	35809.78
700.306	35752.83
700.651	35593.97
700.997	35513.06
701.342	35519.16
701.688	35284.14
702.033	35306.06
702.379	35248.21
702.724	35208.66
703.069	35162.34
703.415	34849.8
703.76	34823.36
704.105	34887.32
704.45	34693.42
704.795	34567.55
705.14	34547.44
705.485	34293.89
705.83	34238.07
706.175	34368.46
706.52	34260.89
706.865	34174.79
707.209	34042.37
707.554	33958.3
707.899	34108.35
708.243	33811.19
708.588	33725.31
708.932	33533.45
709.277	33503.4
709.621	33522.61
709.966	33361.93
710.31	33509.95
710.654	33156.52
710.998	33152.22
711.342	33179.79
711.687	33134.59
712.031	32879.46
712.375	32844.21
712.719	32844.66
713.063	32756.98
713.407	32791.33
713.75	32713.14
714.094	32678.79
714.438	32572.58
714.782	32536.19
715.125	32532.58
715.469	32567.6
715.812	32207.16
716.156	32149.76
716.499	32239.93
716.843	32116.99
717.186	32078.35
717.53	32157.45
717.873	32099.59
718.216	32000.39
718.559	31872.48
718.902	31678.36
719.246	31759.72
719.589	31565.82
719.932	31447.86
720.275	31511.13
720.617	31460.74
720.96	31394.75
721.303	31401.53
721.646	31299.39
721.989	31194.08
722.331	31236.34
722.674	31235.44
723.016	31286.28
723.359	31243.8
723.701	31192.73
724.044	30891.72
724.386	30706.64
724.729	30991.6
725.071	30821.44
725.413	30778.05
725.755	30708.9
726.097	30711.16
726.439	30538.73
726.782	30492.4
727.124	30724.26
727.465	30453.76
727.807	30406.76
728.149	30348.23
728.491	30268.23
728.833	30456.25
729.175	30253.09
729.516	30300.55
729.858	30115.01
730.199	30190.49
730.541	30035.24
730.882	30163.83
731.224	30081.57
731.565	29772.65
731.906	29990.27
732.248	29952.08
732.589	29791.41
732.93	29711.18
733.271	29764.29
733.612	29724.74
733.953	29748.92
734.294	29550.28
734.635	29458.53
734.976	29681.8
735.317	29421.7
735.658	29487.91
735.999	29369.72
736.339	29361.59
736.68	29486.33
737.021	29330.4
737.361	29062.61
737.702	29381.47
738.042	29198.2
738.383	29191.87
738.723	29174.25
739.063	29013.35
739.404	29106.45
739.744	28879.79
740.084	28805.22
740.424	28951.2
740.764	28815.61
741.104	28892.9
741.444	28699.01
741.784	28573.81
742.124	28768.38
742.464	28666.46
742.804	28518.22
743.143	28553.25
743.483	28500.14
743.823	28452.91
744.162	28468.95
744.502	28534.72
744.841	28318.45
745.181	28376.98
745.52	28379.92
745.86	28240.49
746.199	28177.44
746.538	28184.44
746.877	28277.1
747.216	28261.05
747.556	28056.76
747.895	28186.02
748.234	28089.98
748.573	28042.98
748.911	27991.91
749.25	27908.29
749.589	27869.65
749.928	27792.14
750.267	27926.82
750.605	27658.35
750.944	27687.28
751.283	27607.96
751.621	27646.83
751.96	27547.4
752.298	27494.52
752.636	27607.06
752.975	27412.71
753.313	27420.85
753.651	27405.03
753.989	27298.82
754.327	27128.65
754.666	27068.99
755.004	27014.53
755.342	27072.38
755.679	27065.6
756.017	26942.67
756.355	27032.61
756.693	26887.75
757.031	26904.7
757.368	26738.15
757.706	26700.64
758.044	26684.59
758.381	26717.36
758.719	26625.39
759.056	26561.21
759.394	26528.67
759.731	26270.37
760.068	26350.82
760.405	26231.95
760.743	26095.46
761.08	26198.51
761.417	26033.99
761.754	25840.78
762.091	25897.27
762.428	25826.99
762.765	25738.18
763.102	25914.9
763.438	25568.47
763.775	25453.21
764.112	25569.14
764.449	25572.53
764.785	25406.44
765.122	25182.49
765.458	25212.32
765.795	25127.35
766.131	25104.52
766.467	25037.41
766.804	24931.42
767.14	24766.45
767.476	24809.39
767.812	24591.09
768.148	24691.65
768.485	24408.72
768.821	24404.2
769.157	24346.58
769.492	24243.08
769.828	24218.45
770.164	24081.95
770.5	24070.2
770.836	23994.72
771.171	23818.68
771.507	23860.49
771.842	23662.98
772.178	23640.61
772.513	23525.36
772.849	23513.83
773.184	23459.37
773.519	23336.43
773.855	23256.21
774.19	23074.29
774.525	23137.8
774.86	23044.01
775.195	23059.61
775.53	22832.94
775.865	22710.46
776.2	22664.81
776.535	22528.32
776.87	22512.95
777.205	22514.08
777.539	22314.54
777.874	22387.76
778.209	22167.43
778.543	22110.7
778.878	22046.3
779.212	22022.34
779.547	21793.65
779.881	21900.09
780.215	21756.14
780.55	21743.03
780.884	21568.12
781.218	21520.66
781.552	21494.45
781.886	21385.3
782.22	21270.05
782.554	21228.47
782.888	21055.36
783.222	20968.81
783.556	20844.3
783.889	20843.62
784.223	20673.23
784.557	20689.27
784.89	20743.28
785.224	20504.64
785.557	20525.89
785.891	20451.76
786.224	20344.42
786.558	20254.71
786.891	20197.08
787.224	20064.2
787.557	20022.4
787.891	19976.3
788.224	19980.14
788.557	19889.07
788.89	19806.81
789.223	19875.28
789.556	19751.44
789.888	19644.33
790.221	19476.87
790.554	19481.62
790.887	19390.1
791.219	19373.6
791.552	19293.83
791.884	19229.2
792.217	19213.38
792.549	19077.34
792.882	18894.97
793.214	18842.32
793.546	18861.98
793.879	18744.69
794.211	18661.76
794.543	18681.87
794.875	18730.68
795.207	18607.07
795.539	18584.24
795.871	18485.71
796.203	18464.02
796.535	18288.66
796.867	18214.31
797.198	18238.72
797.53	18192.61
797.862	18064.48
798.193	18096.35
798.525	18040.3
798.856	17974.32
799.188	17797.82
799.519	17711.72
799.85	17650.48
800.182	17713.08
800.513	17650.93
800.844	17441.9
801.175	17604.16
801.506	17542.24
801.837	17366.42
802.168	17342.69
802.499	17342.69
802.83	17183.6
803.161	17142.02
803.491	17111.06
803.822	17115.36
804.153	17036.04
804.483	16827.68
804.814	16923.04
805.145	16870.62
805.475	16878.07
805.805	16765.53
806.136	16697.96
806.466	16684.86
806.796	16646.21
807.126	16560.57
807.457	16563.28
807.787	16495.48
808.117	16428.59
808.447	16289.16
808.777	16377.52
809.107	16272.44
809.436	16280.8
809.766	16215.72
810.096	16180.46
810.426	16207.81
810.755	16209.39
811.085	16107.92
811.414	16077.87
811.744	15916.74
812.073	15895.73
812.403	15869.74
812.732	15719.91
813.061	15729.85
813.39	15680.36
813.719	15650.76
814.049	15685.34
814.378	15606.24
814.707	15627.94
815.036	15587.03
815.365	15476.08
815.693	15377.77
816.022	15414.16
816.351	15357.89
816.68	15259.81
817.008	15337.77
817.337	15240.83
817.665	15108.85
817.994	15186.37
818.322	15141.4
818.651	15066.82
818.979	14957.9
819.307	15100.72
819.636	14978.69
819.964	14787.05
820.292	14946.37
820.62	14868.63
820.948	14856.88
821.276	14898.24
821.604	14861.4
821.932	14947.95
822.259	14788.41
822.587	14879.93
822.915	14763.55
823.243	14821.86
823.57	14750.45
823.898	14877.22
824.225	14735.76
824.553	14733.95
824.88	14826.6
825.207	14785.92
825.535	14797.22
825.862	14774.63
826.189	14649.66
826.516	14863.21
826.843	14843.32
827.17	14761.52
827.497	14846.71
827.824	14792.93
828.151	14768.07
828.478	14787.51
828.805	14852.82
829.131	14712.48
829.458	14662.54
829.785	14597
830.111	14664.8
830.438	14756.1
830.764	14715.64
831.09	14687.17
831.417	14715.64
831.743	14772.59
832.069	14691.92
832.395	14590.68
832.722	14713.61
833.048	14623.22
833.374	14703.89
833.7	14537.8
834.026	14532.37
834.351	14567.85
834.677	14583.67
835.003	14655.53
835.329	14505.93
835.654	14547.29
835.98	14540.73
836.306	14489.44
836.631	14431.36
836.956	14493.5
837.282	14490.11
837.607	14276.11
837.932	14361.76
838.258	14351.36
838.583	14421.41
838.908	14237.69
839.233	14272.27
839.558	14218.03
839.883	14217.58
840.208	14205.15
840.533	14105.04
840.858	14212.83
841.182	14119.73
841.507	14239.5
841.832	14100.97
842.156	14057.58
842.481	14003.12
842.805	13942.78
843.13	13961.99
843.454	13941.88
843.778	13930.58
844.103	13827.98
844.427	13818.04
844.751	13808.55
845.075	13708.66
845.399	13734.2
845.723	13624.6
846.047	13681.1
846.371	13549.8
846.695	13570.14
847.019	13428.45
847.343	13447.88
847.666	13339.18
847.99	13305.51
848.313	13271.84
848.637	13143.71
848.96	13144.61
849.284	13067.33
849.607	13016.03
849.931	12978.97
850.254	12872.08
850.577	12886.54
850.9	12776.03
851.223	12733.78
851.546	12692.87
851.869	12593.89
852.192	12597.51
852.515	12555.25
852.838	12407.68
853.161	12418.08
853.483	12412.2
853.806	12373.56
854.129	12305.99
854.451	12304.86
854.774	12207.46
855.096	12141.02
855.419	12168.37
855.741	12052.66
856.063	12058.31
856.385	12021.03
856.708	11965.89
857.03	11985.32
857.352	11953
857.674	11930.18
857.996	11921.37
858.318	11899.22
858.64	11801.82
858.961	11766.8
859.283	11744.42
859.605	11554.15
859.926	11712.56
860.248	11690.41
860.57	11642.73
860.891	11603.86
861.212	11579.68
861.534	11606.57
861.855	11480.47
862.176	11438.67
862.498	11492.9
862.819	11450.19
863.14	11363.19
863.461	11422.4
863.782	11333.36
864.103	11391.89
864.424	11340.82
864.745	11274.15
865.065	11235.06
865.386	11229.86
865.707	11235.28
866.027	11176.53
866.348	11174.49
866.668	11122.29
866.989	11213.14
867.309	11056.98
867.63	11026.48
867.95	11070.09
868.27	10966.82
868.59	11032.35
868.91	10995.74
869.23	10928.4
869.55	10918.23
869.87	10985.35
870.19	10922.07
870.51	10952.35
870.83	10965.23
871.15	10869.87
871.469	10844.11
871.789	10831.23
872.109	10780.15
872.428	10779.48
872.748	10827.16
873.067	10819.25
873.386	10769.08
873.706	10744.45
874.025	10701.06
874.344	10689.31
874.663	10759.36
874.982	10665.13
875.301	10671.91
875.62	10620.16
875.939	10572.02
876.258	10683.43
876.577	10550.78
876.896	10525.7
877.214	10560.05
877.533	10513.27
877.852	10519.6
878.17	10514.17
878.489	10538.13
878.807	10533.16
879.125	10458.13
879.444	10508.52
879.762	10420.84
880.08	10391.69
880.398	10312.82
880.716	10396.44
881.034	10341.97
881.352	10346.04
881.67	10250
881.988	10296.78
882.306	10288.19
882.624	10174.52
882.941	10197.12
883.259	10149.89
883.577	10117.8
883.894	10045.48
884.212	10027.63
884.529	10128.87
884.846	10077.57
885.164	10067.18
885.481	9990.12
885.798	9998.25
886.115	9880.29
886.432	9979.95
886.75	9976.79
887.067	9950.35
887.383	9875.77
887.7	9859.05
888.017	9761.42
888.334	9822.67
888.651	9818.82
888.967	9768.2
889.284	9686.4
889.6	9712.16
889.917	9677.58
890.233	9672.39
890.55	9624.25
890.866	9565.05
891.182	9560.07
891.498	9533.86
891.815	9483.47
892.131	9473.3
892.447	9463.58
892.763	9407.31
893.079	9404.6
893.395	9344.94
893.71	9327.31
894.026	9330.7
894.342	9290.7
894.657	9202.12
894.973	9267.43
895.289	9236.92
895.604	9200.53
895.92	9118.73
896.235	9107.2
896.55	9082.12
896.865	9060.65
897.181	8988.56
897.496	8981.11
897.811	8928
898.126	8910.6
898.441	8900.88
898.756	8904.72
899.071	8817.72
899.386	8759.64
899.7	8810.71
900.015	8706.99
900.33	8676.03
900.644	8668.12
900.959	8627.67
901.273	8572.75
901.588	8561
901.902	8572.3
902.216	8506.77
902.531	8438.3
902.845	8431.74
903.159	8436.71
903.473	8435.36
903.787	8400.33
904.101	8295.47
904.415	8319.43
904.729	8295.47
905.042	8222.26
905.356	8136.83
905.67	8216.38
905.984	8155.82
906.297	8126.44
906.611	8056.16
906.924	8064.75
907.237	8002.37
907.551	8012.54
907.864	7975.03
908.177	7975.93
908.491	7892.55
908.804	7867.46
909.117	7832.89
909.43	7834.02
909.743	7797.63
910.056	7710.4
910.368	7709.27
910.681	7646.45
910.994	7652.78
911.307	7613.91
911.619	7574.36
911.932	7587.02
912.244	7470.41
912.557	7456.85
912.869	7437.87
913.181	7410.3
913.494	7404.2
913.806	7336.86
914.118	7300.7
914.43	7324.65
914.742	7264.09
915.054	7294.82
915.366	7170.98
915.678	7232.23
915.99	7090.53
916.302	7086.01
916.613	7052.12
916.925	7093.92
917.236	7064.09
917.548	7007.37
917.859	7020.48
918.171	6955.62
918.482	6908.84
918.794	6863.65
919.105	6927.83
919.416	6856.19
919.727	6816.42
920.038	6763.08
920.349	6759.7
920.66	6685.12
920.971	6683.76
921.282	6679.47
921.593	6633.82
921.903	6562.41
922.214	6572.36
922.525	6578.46
922.835	6513.6
923.146	6543.88
923.456	6447.84
923.767	6447.84
924.077	6388.18
924.387	6364
924.697	6365.13
925.008	6382.53
925.318	6292.59
925.628	6293.49
925.938	6248.97
926.248	6182.99
926.558	6208.3
926.867	6196.55
927.177	6141.86
927.487	6099.37
927.796	6086.72
928.106	6055.98
928.416	6059.15
928.725	6041.07
929.034	6019.6
929.344	5954.74
929.653	5997.46
929.962	5941.41
930.271	5888.53
930.581	5860.74
930.89	5852.6
931.199	5831.36
931.508	5771.92
931.817	5765.82
932.125	5790.46
932.434	5718.82
932.743	5682.66
933.051	5691.7
933.36	5637.01
933.669	5625.04
933.977	5559.5
934.286	5578.03
934.594	5574.42
934.902	5523.34
935.21	5532.83
935.519	5468.66
935.827	5460.29
936.135	5469.11
936.443	5399.28
936.751	5392.73
937.059	5356.34
937.367	5350.47
937.674	5300.3
937.982	5298.04
938.29	5239.74
938.597	5221.43
938.905	5182.34
939.213	5159.29
939.52	5116.57
939.827	5186.86
940.135	5178.95
940.442	5117.25
940.749	5107.31
941.056	5111.38
941.363	5068.21
941.67	5034.32
941.977	4992.28
942.284	4968.78
942.591	4949.57
942.898	4926.75
943.205	4938.73
943.511	4900.31
943.818	4867.77
944.125	4866.64
944.431	4810.37
944.738	4815.11
945.044	4808.79
945.35	4790.48
945.657	4740.09
945.963	4747.77
946.269	4702.57
946.575	4691.27
946.881	4673.87
947.187	4641.78
947.493	4646.98
947.799	4592.97
948.105	4637.72
948.41	4571.73
948.716	4523.82
949.022	4512.75
949.327	4510.71
949.633	4470.26
949.938	4466.42
950.244	4453.09
950.549	4428.91
950.854	4422.58
951.16	4374.45
951.465	4354.33
951.77	4296.26
952.075	4337.84
952.38	4334.67
952.685	4288.12
952.99	4312.75
953.294	4252.87
953.599	4277.95
953.904	4243.15
954.209	4195.02
954.513	4195.47
954.818	4140.78
955.122	4134.23
955.426	4119.99
955.731	4112.53
956.035	4066.21
956.339	4049.26
956.643	4060.56
956.948	4000.9
957.252	4019.43
957.556	4047.22
957.86	4013.33
958.163	4007
958.467	3928.58
958.771	3925.65
959.075	3961.12
959.378	3876.83
959.682	3922.26
959.985	3880.45
960.289	3811.52
960.592	3838.87
960.896	3831.18
961.199	3822.82
961.502	3809.26
961.805	3777.63
962.108	3705.54
962.411	3767.23
962.714	3691.75
963.017	3686.78
963.32	3692.43
963.623	3718.42
963.926	3657.63
964.228	3700.34
964.531	3639.33
964.833	3618.99
965.136	3541.25
965.438	3583.51
965.741	3564.75
966.043	3566.56
966.345	3535.37
966.648	3545.32
966.95	3447.24
967.252	3500.57
967.554	3469.16
967.856	3464.64
968.158	3402.5
968.46	3436.84
968.761	3393
969.063	3380.12
969.365	3425.77
969.666	3395.26
969.968	3325.66
970.269	3340.35
970.571	3334.7
970.872	3352.33
971.174	3257.64
971.475	3259.67
971.776	3253.12
972.077	3266.45
972.378	3221.03
972.679	3238.66
972.98	3196.4
973.281	3187.59
973.582	3146
973.883	3165.89
974.183	3169.73
974.484	3156.63
974.785	3132.9
975.085	3134.48
975.386	3113.69
975.686	3094.71
975.986	3088.38
976.287	3065.55
976.587	3051.77
976.887	3007.7
977.187	3031.21
977.487	3025.78
977.787	2980.13
978.087	3005.9
978.387	2973.13
978.687	2970.42
978.987	2944.2
979.286	2938.55
979.586	2939.46
979.885	2883.41
980.185	2876.63
980.484	2852.45
980.784	2861.94
981.083	2835.28
981.382	2836.86
981.682	2834.15
981.981	2842.74
982.28	2786.01
982.579	2766.35
982.878	2757.99
983.177	2769.52
983.475	2756.64
983.774	2725.68
984.073	2715.06
984.372	2705.79
984.67	2675.96
984.969	2685.68
985.267	2674.83
985.566	2655.85
985.864	2663.98
986.162	2652.23
986.461	2654.04
986.759	2647.03
987.057	2596.19
987.355	2597.54
987.653	2579.01
987.951	2586.7
988.249	2560.94
988.547	2564.55
988.844	2568.17
989.142	2567.49
989.44	2507.6
989.737	2511.22
990.035	2505.8
990.332	2465.57
990.63	2445.68
990.927	2458.79
991.224	2478.9
991.521	2413.37
991.819	2409.53
992.116	2397.78
992.413	2422.41
992.71	2376.31
993.006	2388.51
993.303	2358
993.6	2370.88
993.897	2352.81
994.193	2364.33
994.49	2309.87
994.787	2311.22
995.083	2275.97
995.379	2315.29
995.676	2299.7
995.972	2264.22
996.268	2271
996.565	2246.82
996.861	2221.74
997.157	2253.37
997.453	2226.71
997.749	2199.36
998.044	2194.84
998.34	2200.49
998.636	2160.95
998.932	2185.13
999.227	2169.99
999.523	2146.48
999.818	2085.92
1000.114	2127.27
1000.409	2089.76
1000.704	2087.5
1001	2087.5
1001.295	2068.97
1001.59	2070.55
1001.885	2059.93
1002.18	2039.37
1002.475	2027.39
1002.77	2002.98
1003.065	2018.8
1003.359	1982.19
1003.654	2005.24
1003.949	1976.54
1004.243	1981.52
1004.538	1975.19
1004.832	1950.1
1005.127	1948.3
1005.421	1921.4
1005.715	1890.22
1006.009	1918.92
1006.304	1879.37
1006.598	1883.89
1006.892	1855.42
1007.186	1864.91
1007.48	1854.29
1007.773	1814.97
1008.067	1825.14
1008.361	1819.94
1008.655	1812.03
1008.948	1795.76
1009.242	1783.78
1009.535	1817.9
1009.829	1756.66
1010.122	1739.04
1010.415	1741.07
1010.708	1709.88
1011.001	1731.13
1011.295	1727.51
1011.588	1723.44
1011.881	1722.77
1012.173	1681.86
1012.466	1684.35
1012.759	1676.66
1013.052	1655.87
1013.344	1674.18
1013.637	1633.73
1013.93	1639.83
1014.222	1579.72
1014.514	1616.55
1014.807	1620.17
1015.099	1600.51
1015.391	1576.33
1015.683	1567.74
1015.976	1591.7
1016.268	1525.03
1016.56	1542.43
1016.851	1541.53
1017.143	1534.97
1017.435	1507.4
1017.727	1506.27
1018.018	1493.17
1018.31	1487.07
1018.602	1490.91
1018.893	1480.29
1019.185	1468.76
1019.476	1460.85
1019.767	1462.21
1020.058	1440.74
1020.35	1419.72
1020.641	1426.73
1020.932	1414.07
1021.223	1401.19
1021.514	1411.81
1021.804	1376.56
1022.095	1389.67
1022.386	1361.42
1022.677	1341.98
1022.967	1368.42
1023.258	1356.67
1023.548	1314.19
1023.839	1334.3
1024.129	1317.8
1024.419	1313.06
1024.709	1318.71
1025	1306.96
1025.29	1260.18
1025.58	1313.96
1025.87	1261.99
1026.16	1242.78
1026.449	1245.04
1026.739	1253.17
1027.029	1219.5
1027.319	1212.95
1027.608	1214.76
1027.898	1204.81
1028.187	1183.12
1028.477	1189.67
1028.766	1173.85
1029.055	1198.71
1029.344	1166.4
1029.634	1132.72
1029.923	1139.05
1030.212	1162.1
1030.501	1145.15
1030.79	1141.31
1031.078	1098.38
1031.367	1087.75
1031.656	1101.76
1031.945	1066.74
1032.233	1073.52
1032.522	1094.31
1032.81	1068.09
1033.099	1076.23
1033.387	1073.52
1033.675	1061.54
1033.963	1068.77
1034.251	1054.53
1034.54	1059.73
1034.828	1040.98
1035.116	1043.69
1035.403	1014.76
1035.691	1014.76
1035.979	1021.31
1036.267	1001.43
1036.554	996.23
1036.842	977.25
1037.129	973.41
1037.417	961.66
1037.704	979.73
1037.992	952.39
1038.279	972.5
1038.566	942.45
1038.853	942.45
1039.14	942.45
