Data from hue_30_FLMS001491_73.txt Node
Date: Mon Feb 06 15:05:55 GMT 2017
User: dcchb
Spectrometer: FLMS00149
Trigger mode: 0
Integration Time (sec): 2.000000E-2
Scans to average: 10
Electric dark correction enabled: true
Nonlinearity correction enabled: false
Boxcar width: 0
XAxis mode: Wavelengths
Number of Pixels in Spectrum: 2048
>>>>>Begin Spectral Data<<<<<
341.393	-14.93
341.776	-14.93
342.16	-14.93
342.543	-61.48
342.927	-57.41
343.31	-51.99
343.693	-67.36
344.077	-61.48
344.46	-66.23
344.843	-38.88
345.226	-27.81
345.61	-43.4
345.993	-23.97
346.376	6.09
346.759	0.21
347.142	30.27
347.525	38.18
347.908	61
348.291	56.71
348.674	74.79
349.057	113.88
349.44	137.16
349.823	117.72
350.206	155.91
350.588	194.33
350.971	210.6
351.354	213.99
351.737	230.04
352.119	255.8
352.502	257.15
352.884	264.61
353.267	276.14
353.65	279.07
354.032	288.57
354.414	286.53
354.797	305.97
355.179	328.34
355.562	316.81
355.944	325.4
356.326	316.14
356.709	340.99
357.091	354.78
357.473	348
357.855	359.3
358.238	321.79
358.62	343.93
359.002	339.19
359.384	336.47
359.766	340.99
360.148	327.21
360.53	355.68
360.912	342.35
361.294	314.78
361.676	347.55
362.057	312.07
362.439	333.99
362.821	315.91
363.203	321.11
363.584	350.26
363.966	333.08
364.348	316.36
364.729	329.47
365.111	331.05
365.493	316.81
365.874	305.74
366.256	308.45
366.637	282.01
367.019	311.39
367.4	298.51
367.781	318.85
368.163	301.67
368.544	301.67
368.925	315.68
369.306	332.18
369.688	318.85
370.069	313.65
370.45	297.83
370.831	321.11
371.212	311.84
371.593	307.77
371.974	315.46
372.355	319.53
372.736	310.26
373.117	310.94
373.498	314.33
373.879	294.22
374.26	311.62
374.641	310.49
375.021	329.92
375.402	317.04
375.783	313.65
376.163	295.35
376.544	321.11
376.925	310.94
377.305	313.65
377.686	314.78
378.066	324.05
378.447	321.11
378.827	329.02
379.208	311.39
379.588	326.76
379.968	336.7
380.349	311.16
380.729	333.08
381.109	324.27
381.489	324.05
381.87	332.41
382.25	353.2
382.63	334.67
383.01	316.59
383.39	344.38
383.77	346.19
384.15	342.58
384.53	350.49
384.91	342.58
385.29	329.02
385.67	346.87
386.049	355.68
386.429	354.78
386.809	355.46
387.189	357.72
387.568	369.24
387.948	356.36
388.328	359.3
388.707	359.52
389.087	354.78
389.466	373.54
389.846	346.87
390.225	343.25
390.605	362.01
390.984	367.21
391.363	369.69
391.743	369.02
392.122	370.82
392.501	355
392.881	371.73
393.26	373.76
393.639	382.35
394.018	374.21
394.397	378.28
394.776	376.47
395.155	392.29
395.534	398.85
395.913	382.35
396.292	363.82
396.671	372.63
397.05	374.89
397.429	393.42
397.808	396.13
398.186	388.68
398.565	381.22
398.944	371.28
399.323	361.56
399.701	393.42
400.08	392.97
400.458	388.68
400.837	394.78
401.215	411.73
401.594	399.3
401.972	413.31
402.351	406.08
402.729	423.93
403.107	420.77
403.486	402.69
403.864	423.25
404.242	406.75
404.62	421.22
404.999	387.77
405.377	403.82
405.755	402.01
406.133	402.24
406.511	429.13
406.889	420.77
407.267	438.39
407.645	424.38
408.023	446.53
408.401	449.24
408.779	459.18
409.156	435.23
409.534	428.22
409.912	443.59
410.29	452.86
410.667	426.87
411.045	487.88
411.422	442.69
411.8	474.78
412.178	477.94
412.555	444.72
412.933	462.8
413.31	486.07
413.687	481.56
414.065	474.78
414.442	468.67
414.819	475.91
415.197	494.66
415.574	484.04
415.951	487.88
416.328	493.98
416.705	499.86
417.082	500.76
417.46	501.22
417.837	533.53
418.214	494.21
418.591	505.74
418.967	516.13
419.344	500.31
419.721	523.14
420.098	534.66
420.475	523.36
420.852	536.24
421.228	540.76
421.605	534.66
421.982	521.78
422.358	530.82
422.735	544.83
423.111	543.93
423.488	560.88
423.864	536.47
424.241	561.1
424.617	556.58
424.994	585.28
425.37	567.88
425.746	568.11
426.123	577.82
426.499	567.88
426.875	570.82
427.251	592.29
427.627	585.96
428.003	601.78
428.379	587.99
428.756	593.87
429.132	606.07
429.507	608.56
429.883	638.61
430.259	630.93
430.635	647.65
431.011	624.38
431.387	649.01
431.763	645.62
432.138	635.68
432.514	658.5
432.89	665.05
433.265	685.17
433.641	696.46
434.016	683.13
434.392	665.51
434.767	696.92
435.143	682.45
435.518	720.87
435.894	702.79
436.269	726.07
436.644	726.52
437.02	698.05
437.395	707.99
437.77	744.15
438.145	729.46
438.52	723.58
438.895	735.11
439.271	744.6
439.646	774.65
440.021	759.06
440.395	764.26
440.77	752.96
441.145	777.37
441.52	765.84
441.895	784.15
442.27	769.23
442.645	788.89
443.019	788.21
443.394	794.32
443.769	828.21
444.143	823.02
444.518	803.81
444.892	788.44
445.267	823.24
445.641	852.84
446.016	803.13
446.39	862.56
446.764	825.05
447.139	824.82
447.513	840.42
447.887	834.31
448.262	839.74
448.636	851.71
449.01	868.66
449.384	877.93
449.758	880.19
450.132	906.63
450.506	896.23
450.88	900.3
451.254	888.55
451.628	897.36
452.002	899.4
452.376	906.18
452.75	928.78
453.123	937.81
453.497	941.66
453.871	940.3
454.244	956.57
454.618	937.36
454.992	967.87
455.365	978.94
455.739	1003.8
456.112	1013.97
456.486	1024.14
456.859	1020.52
457.232	1031.37
457.606	1048.77
457.979	1045.83
458.352	1028.66
458.725	1087.19
459.099	1085.38
459.472	1078.83
459.845	1105.72
460.218	1110.01
460.591	1113.63
460.964	1133.74
461.337	1154.31
461.71	1186.62
462.083	1168.09
462.456	1180.75
462.829	1172.16
463.201	1223.91
463.574	1215.1
463.947	1227.52
464.32	1260.97
464.692	1233.4
465.065	1272.72
465.438	1292.38
465.81	1341.65
466.183	1321.53
466.555	1330.57
466.928	1366.73
467.3	1343
467.672	1381.64
468.045	1402.89
468.417	1407.18
468.789	1432.26
469.161	1453.96
469.534	1450.34
469.906	1504.81
470.278	1524.01
470.65	1545.48
471.022	1541.64
471.394	1581.19
471.766	1597.23
472.138	1648.08
472.51	1624.8
472.882	1689.66
473.253	1752.71
473.625	1724.91
473.997	1758.81
474.369	1794.74
474.74	1822.99
475.112	1835.64
475.484	1890.33
475.855	1921.29
476.227	1935.75
476.598	1990.44
476.97	2009.42
477.341	2037.9
477.713	2101.85
478.084	2148.86
478.455	2210.55
478.827	2219.36
479.198	2280.83
479.569	2295.74
479.94	2346.82
480.311	2401.96
480.682	2477.43
481.053	2522.18
481.424	2562.4
481.795	2587.71
482.166	2682.85
482.537	2700.48
482.908	2779.57
483.279	2834.71
483.65	2894.6
484.021	2933.02
484.391	2997.2
484.762	3068.15
485.133	3112.22
485.503	3115.38
485.874	3242.16
486.244	3246.23
486.615	3367.58
486.985	3401.93
487.356	3486
487.726	3506.11
488.097	3621.59
488.467	3658.65
488.837	3756.27
489.207	3791.52
489.578	3908.13
489.948	3940.67
490.318	4034.46
490.688	4053.89
491.058	4158.75
491.428	4190.16
491.798	4274.45
492.168	4380.66
492.538	4335.47
492.908	4459.08
493.278	4530.26
493.648	4536.59
494.017	4648
494.387	4645.06
494.757	4722.12
495.126	4786.98
495.496	4836.69
495.866	4890.48
496.235	4951.72
496.605	5011.38
496.974	5057.25
497.344	5095.45
497.713	5132.05
498.082	5206.63
498.452	5307.19
498.821	5290.47
499.19	5382.67
499.559	5426.51
499.928	5499.5
500.298	5507.64
500.667	5540.86
501.036	5555.77
501.405	5653.17
501.774	5678.03
502.143	5750.34
502.512	5772.94
502.88	5822.43
503.249	5832.37
503.618	5885.48
503.987	5964.8
504.356	5984.69
504.724	5963.9
505.093	6037.79
505.462	6061.75
505.83	6154.4
506.199	6179.48
506.567	6234.62
506.936	6320.05
507.304	6357.11
507.672	6326.15
508.041	6369.76
508.409	6456.09
508.777	6465.8
509.145	6551
509.514	6509.65
509.882	6542.41
510.25	6595.74
510.618	6689.98
510.986	6656.31
511.354	6775.17
511.722	6817.89
512.09	6830.09
512.458	6806.13
512.826	6866.02
513.193	6910.76
513.561	6954.61
513.929	6932.46
514.297	7026.47
514.664	7065.34
515.032	7094.71
515.4	7139.69
515.767	7172
516.135	7188.05
516.502	7152.79
516.869	7322.73
517.237	7233.24
517.604	7272.34
517.972	7254.71
518.339	7380.58
518.706	7385.55
519.073	7436.63
519.44	7432.11
519.808	7474.14
520.175	7550.75
520.542	7659.67
520.909	7591.88
521.276	7657.86
521.643	7747.8
522.009	7735.38
522.376	7812.66
522.743	7831.19
523.11	7917.07
523.477	7959.78
523.843	8024.63
524.21	8096.72
524.577	8155.7
524.943	8110.73
525.31	8180.11
525.676	8258.98
526.043	8243.16
526.409	8289.49
526.776	8381.01
527.142	8362.03
527.508	8484.28
527.874	8507.78
528.241	8536.03
528.607	8582.13
528.973	8650.83
529.339	8698.51
529.705	8712.53
530.071	8786.42
530.437	8793.65
530.803	8889.92
531.169	8924.95
531.535	8934.67
531.901	8931.28
532.267	8975.8
532.632	9070.26
532.998	9075.68
533.364	9119.07
533.73	9148.9
534.095	9260.31
534.461	9309.12
534.826	9324.03
535.192	9390.93
535.557	9368.33
535.923	9451.71
536.288	9416.24
536.653	9541.2
537.019	9492.39
537.384	9556.12
537.749	9576.91
538.114	9597.02
538.479	9621.2
538.845	9636.12
539.21	9644.7
539.575	9695.55
539.94	9776.68
540.305	9863.91
540.67	9826.62
541.034	9911.36
541.399	9980.29
541.764	9966.28
542.129	10109.78
542.494	10044.24
542.858	10050.57
543.223	10050.8
543.587	10168.76
543.952	10224.58
544.316	10198.14
544.681	10293.73
545.045	10292.6
545.41	10375.98
545.774	10394.74
546.138	10435.19
546.503	10453.5
546.867	10500.95
547.231	10582.53
547.595	10627.28
547.959	10587.73
548.324	10687.16
548.688	10644.68
549.052	10772.13
549.416	10744.79
549.779	10728.29
550.143	10850.77
550.507	10869.53
550.871	10912.02
551.235	10919.25
551.599	10909.76
551.962	11022.52
552.326	11125.12
552.689	11148.39
553.053	11105.46
553.417	11166.92
553.78	11288.95
554.143	11202.18
554.507	11245.57
554.87	11361.04
555.234	11412.12
555.597	11355.39
555.96	11432.45
556.323	11469.74
556.686	11491.89
557.05	11605.1
557.413	11653.69
557.776	11595.61
558.139	11710.86
558.502	11718.55
558.865	11688.49
559.228	11795.16
559.59	11826.57
559.953	11831.77
560.316	11888.71
560.679	12035.38
561.041	12043.74
561.404	12027.01
561.767	12109.95
562.129	12094.13
562.492	12159.21
562.854	12201.02
563.217	12224.52
563.579	12230.17
563.941	12304.3
564.304	12398.08
564.666	12405.08
565.028	12357.63
565.39	12500.9
565.753	12514.69
566.115	12665.87
566.477	12707.22
566.839	12667.45
567.201	12822.93
567.563	12808.24
567.925	12934.79
568.287	12830.38
568.648	13034.22
569.01	12941.11
569.372	13072.64
569.734	12997.61
570.095	13083.26
570.457	13182.24
570.819	13323.7
571.18	13285.29
571.542	13293.2
571.903	13361.22
572.265	13468.56
572.626	13493.42
572.987	13535.9
573.349	13606.18
573.71	13713.3
574.071	13774.54
574.432	13854.31
574.794	13961.65
575.155	14031.93
575.516	14016.11
575.877	14109.67
576.238	14214.98
576.599	14307.41
576.96	14417.23
577.32	14528.42
577.681	14658.58
578.042	14706.27
578.403	14865.36
578.763	14914.62
579.124	15019.25
579.485	15193.48
579.845	15312.13
580.206	15475.51
580.566	15546.7
580.927	15724.09
581.287	15964.99
581.648	15996.18
582.008	16179.45
582.368	16376.5
582.728	16463.06
583.089	16744.18
583.449	16937.85
583.809	17054.68
584.169	17292.19
584.529	17478.17
584.889	17825.28
585.249	17978.5
585.609	18144.59
585.969	18361.31
586.329	18558.82
586.688	18875.2
587.048	19061.41
587.408	19220.72
587.768	19469.08
588.127	19696.42
588.487	19931.44
588.846	20295.27
589.206	20403.97
589.565	20761.7
589.925	21008.47
590.284	21370.05
590.643	21603.94
591.003	21893.42
591.362	22138.16
591.721	22461.32
592.08	22635.55
592.44	22999.38
592.799	23386.94
593.158	23656.99
593.517	23832.81
593.876	24246.58
594.235	24416.97
594.593	24756.17
594.952	25024.41
595.311	25134.01
595.67	25569.94
596.029	25986.2
596.387	26319.52
596.746	26556.58
597.104	26605.16
597.463	27009.45
597.822	27451.02
598.18	27590.45
598.538	27824.56
598.897	28211.22
599.255	28362.86
599.613	28890.53
599.972	29144.53
600.33	29390.63
600.688	29446.44
601.046	29993.77
601.404	30225.18
601.762	30429.02
602.12	30864.49
602.478	31058.15
602.836	31245.72
603.194	31380.63
603.552	31702.43
603.91	31752.82
604.268	32184
604.625	32336.31
604.983	32600.03
605.341	32597.32
605.698	33001.15
606.056	33361.37
606.413	33550.52
606.771	33856.72
607.128	34204.28
607.485	34149.82
607.843	34260.78
608.2	34723.59
608.557	34999.29
608.914	35062.11
609.272	35392.28
609.629	35655.55
609.986	35913.39
610.343	35981.41
610.7	36309.99
611.057	36432.47
611.414	36489.2
611.771	36685.12
612.127	36975.06
612.484	37085.34
612.841	37332.11
613.198	37530.07
613.554	37430.87
613.911	37882.61
614.267	37946.11
614.624	37947.46
614.98	38222.26
615.337	38433.33
615.693	38518.75
616.05	38627.22
616.406	39070.37
616.762	38930.04
617.118	39173.87
617.475	39172.29
617.831	39381.32
618.187	39509.68
618.543	39608.44
618.899	40010.91
619.255	40022.21
619.611	40064.02
619.967	40252.26
620.323	40482.09
620.678	40375.65
621.034	40342.88
621.39	40541.52
621.746	40558.02
622.101	40962.3
622.457	40651.12
622.812	40958.23
623.168	41085.46
623.523	41213.37
623.879	41259.47
624.234	41152.12
624.589	41361.61
624.945	41427.82
625.3	41369.07
625.655	41433.25
626.01	41579.46
626.365	41527.93
626.72	41616.07
627.075	41806.34
627.43	41657.65
627.785	41656.29
628.14	41882.95
628.495	41836.4
628.85	41858.09
629.205	41694.93
629.559	42249.95
629.914	41982.38
630.269	41985.1
630.623	41962.5
630.978	41911.88
631.332	42181.02
631.687	42292.43
632.041	42103.06
632.396	42207.24
632.75	42019.9
633.104	42130.4
633.459	42018.99
633.813	42117.52
634.167	42089.5
634.521	42152.78
634.875	42170.63
635.229	42204.53
635.583	42124.53
635.937	42152.32
636.291	42064.19
636.645	42116.62
636.999	41984.87
637.352	41982.61
637.706	41874.59
638.06	41996.17
638.413	41989.84
638.767	41794.14
639.121	41983.29
639.474	41692
639.828	41838.43
640.181	41955.49
640.534	42003.85
640.888	41766.35
641.241	41662.39
641.594	41785.55
641.947	41924.99
642.301	41835.72
642.654	41835.04
643.007	41789.85
643.36	41714.37
643.713	41748.72
644.066	41766.8
644.419	41575.16
644.771	41274.61
645.124	40977.67
645.477	40935.18
645.83	40674.62
646.182	40591.01
646.535	40445.93
646.888	40579.48
647.24	40323.45
647.593	40619.48
647.945	40534.74
648.298	40346.5
648.65	40312.82
649.002	40247.74
649.355	40448.19
649.707	40297.68
650.059	40429.43
650.411	40988.51
650.763	40915.97
651.115	41456.75
651.467	41240.03
651.819	41160.03
652.171	41219.24
652.523	41044.78
652.875	41202.52
653.227	40906.93
653.578	41262.86
653.93	41049.53
654.282	40993.48
654.633	40842.98
654.985	40932.24
655.337	40887.05
655.688	40988.29
656.039	41186.25
656.391	40684.34
656.742	40866.26
657.094	40769.54
657.445	40804.56
657.796	40716.2
658.147	40699.71
658.498	40780.83
658.849	40840.49
659.2	40672.14
659.551	40698.12
659.902	40714.62
660.253	40795.3
660.604	40883.88
660.955	40588.75
661.306	40866.48
661.656	40726.82
662.007	40763.89
662.358	40631.23
662.708	40753.94
663.059	40658.58
663.409	40481.41
663.76	40805.69
664.11	40715.07
664.461	40786.71
664.811	40740.16
665.161	40550.78
665.511	40533.16
665.862	40586.72
666.212	40756.2
666.562	40710.33
666.912	40696.32
667.262	40581.52
667.612	40634.17
667.962	40518.02
668.312	40453.61
668.662	40704.23
669.011	40564.12
669.361	40403.67
669.711	40506.72
670.06	40504.46
670.41	40391.24
670.76	40265.14
671.109	40585.36
671.459	40330.45
671.808	40304.46
672.157	40318.7
672.507	40106.05
672.856	40209.32
673.205	40124.13
673.554	40439.83
673.904	40132.04
674.253	40396.21
674.602	40331.35
674.951	39780.41
675.3	39580.64
675.649	40087.29
675.998	40219.04
676.346	40182.88
676.695	40368.19
677.044	40100.85
677.393	40209.1
677.741	40041.87
678.09	40183.56
678.438	39971.14
678.787	39989.44
679.135	40123.45
679.484	39808.2
679.832	40050.46
680.181	39670.13
680.529	39716.68
680.877	39690.92
681.225	39537.7
681.573	39837.13
681.922	39461.1
682.27	39401.44
682.618	39499.96
682.966	39353.75
683.314	39384.26
683.661	39326.18
684.009	39019.3
684.357	38962.8
684.705	39102.91
685.053	39189.01
685.4	38938.62
685.748	38798.06
686.095	38795.12
686.443	38822.02
686.79	38606.43
687.138	38727.33
687.485	38530.05
687.832	38542.25
688.18	38577.28
688.527	38482.82
688.874	38394.91
689.221	38251.41
689.568	38196.72
689.915	38064.3
690.262	37989.04
690.609	38008.25
690.956	37788.37
691.303	37835.15
691.65	37669.96
691.997	37632.67
692.344	37480.13
692.69	37437.42
693.037	37327.14
693.383	37274.26
693.73	37360.13
694.077	37051.67
694.423	37143.42
694.769	36911.56
695.116	36841.5
695.462	36850.99
695.808	36582.98
696.155	36745.91
696.501	36525.13
696.847	36436.09
697.193	36175.76
697.539	36400.16
697.885	35929.21
698.231	35998.59
698.577	36142.99
698.923	35831.13
699.269	35689.67
699.614	35573.51
699.96	35707.3
700.306	35523.8
700.651	35403.35
700.997	35304.59
701.342	35199.06
701.688	35111.15
702.033	34950.71
702.379	35016.24
702.724	34885.4
703.069	35048.56
703.415	34609.25
703.76	34621.22
704.105	34606.08
704.45	34498.51
704.795	34410.15
705.14	34312.08
705.485	34254.23
705.83	34133.78
706.175	34201.12
706.52	34129.26
706.865	33863.28
707.209	33952.54
707.554	33727.46
707.899	33915.48
708.243	33671.64
708.588	33671.42
708.932	33440.69
709.277	33352.56
709.621	33281.82
709.966	33187.14
710.31	33382.84
710.654	33067.36
710.998	33088.61
711.342	33124.76
711.687	32889.52
712.031	32788.28
712.375	32714.61
712.719	32849.52
713.063	32650.65
713.407	32809.74
713.75	32454.5
714.094	32411.11
714.438	32303.09
714.782	32330.44
715.125	32295.18
715.469	32233.04
715.812	32202.75
716.156	31910.56
716.499	32028.3
716.843	32035.75
717.186	31807.96
717.53	32114.85
717.873	31846.38
718.216	31901.29
718.559	31689.1
718.902	31528.2
719.246	31509.89
719.589	31444.81
719.932	31348.09
720.275	31445.71
720.617	31265.83
720.96	31293.4
721.303	31316.22
721.646	31338.82
721.989	31107.87
722.331	31109
722.674	31115.78
723.016	31051.82
723.359	30877.59
723.701	30996.23
724.044	30736.8
724.386	30552.18
724.729	30752.62
725.071	30838.27
725.413	30673.98
725.755	30692.29
726.097	30557.83
726.439	30318.28
726.782	30421.33
727.124	30535
727.465	30205.07
727.807	30423.59
728.149	30247.33
728.491	30192.64
728.833	30224.05
729.175	30146.76
729.516	30021.12
729.858	30022.02
730.199	30058.18
730.541	29928.69
730.882	29920.56
731.224	29975.92
731.565	29746.55
731.906	29643.5
732.248	29707.68
732.589	29556.95
732.93	29476.05
733.271	29556.04
733.612	29495.48
733.953	29440.57
734.294	29359.44
734.635	29394.24
734.976	29358.99
735.317	29198.31
735.658	29116.73
735.999	29230.63
736.339	29080.13
736.68	29188.14
737.021	29105.89
737.361	29027.02
737.702	29117.41
738.042	29138.43
738.383	28946.34
738.723	29027.92
739.063	28873.35
739.404	28959.22
739.744	28785.9
740.084	28750.19
740.424	28706.8
740.764	28684.66
741.104	28765.78
741.444	28469.07
741.784	28533.47
742.124	28592.23
742.464	28465.45
742.804	28413.48
743.143	28209.41
743.483	28434.49
743.823	28295.51
744.162	28385.23
744.502	28305.68
744.841	28195.63
745.181	28257.55
745.52	28115.86
745.86	28219.13
746.199	28068.85
746.538	27994.5
746.877	27937.56
747.216	28022.98
747.556	28003.09
747.895	27954.73
748.234	27822.53
748.573	27786.15
748.911	27682.42
749.25	27718.35
749.589	27488.98
749.928	27629.99
750.267	27656.89
750.605	27466.38
750.944	27519.04
751.283	27413.95
751.621	27547.28
751.96	27328.98
752.298	27360.17
752.636	27289.89
752.975	27224.13
753.313	27038.82
753.651	27219.84
753.989	27005.6
754.327	26953.4
754.666	26842.44
755.004	26845.83
755.342	26743.24
755.679	26806.74
756.017	26723.35
756.355	26717.7
756.693	26616.46
757.031	26666.18
757.368	26472.06
757.706	26533.07
758.044	26515.45
758.381	26300.54
758.719	26392.74
759.056	26388.9
759.394	26155.46
759.731	26082.92
760.068	26016.7
760.405	25912.07
760.743	25955.01
761.08	25854.67
761.417	25731.06
761.754	25564.51
762.091	25686.09
762.428	25548.01
762.765	25402.71
763.102	25595.25
763.438	25416.72
763.775	25212.2
764.112	25198.87
764.449	25178.31
764.785	25084.3
765.122	24958.65
765.458	24790.52
765.795	24815.83
766.131	24741.26
766.467	24708.49
766.804	24556.63
767.14	24489.06
767.476	24513.92
767.812	24321.83
768.148	24322.51
768.485	24212.46
768.821	24047.04
769.157	24113.7
769.492	23932.92
769.828	24006.59
770.164	23816.76
770.5	23745.35
770.836	23663.77
771.171	23663.32
771.507	23449.76
771.842	23318.02
772.178	23314.63
772.513	23346.49
772.849	23154.63
773.184	23129.32
773.519	23057.46
773.855	23011.13
774.19	22909.89
774.525	22883.9
774.86	22847.97
775.195	22735.43
775.53	22597.13
775.865	22537.7
776.2	22284.6
776.535	22297.7
776.87	22186.3
777.205	22170.48
777.539	22078.05
777.874	22096.58
778.209	21835.57
778.543	21779.53
778.878	21681.22
779.212	21700.21
779.547	21572.53
779.881	21573.43
780.215	21420.67
780.55	21452.08
780.884	21313.55
781.218	21313.1
781.552	21250.73
781.886	21207.11
782.22	21091.86
782.554	20991.98
782.888	20670.4
783.222	20701.59
783.556	20616.62
783.889	20639.67
784.223	20490.97
784.557	20281.26
784.89	20398.09
785.224	20347.25
785.557	20265.22
785.891	20191.77
786.224	20008.95
786.558	20102.73
786.891	19934.38
787.224	19861.38
787.557	19774.16
787.891	19745.68
788.224	19762.63
788.557	19676.3
788.89	19661.62
789.223	19536.42
789.556	19316.77
789.888	19368.29
790.221	19247.62
790.554	19192.02
790.887	19203.32
791.219	18984.35
791.552	19020.5
791.884	18889.88
792.217	18868.87
792.549	18853.28
792.882	18734.63
793.214	18602.66
793.546	18652.83
793.879	18494.64
794.211	18415.09
794.543	18487.41
794.875	18477.69
795.207	18448.99
795.539	18262.78
795.871	18268.21
796.203	18022.56
796.535	18100.07
796.867	17990.7
797.198	17885.62
797.53	17924.94
797.862	17769.91
798.193	17919.97
798.525	17729.46
798.856	17816.69
799.188	17605.62
799.519	17508.9
799.85	17518.62
800.182	17432.52
800.513	17460.77
800.844	17340.77
801.175	17318.4
801.506	17400.66
801.837	17189.59
802.168	17190.27
802.499	17185.07
802.83	17036.83
803.161	17008.58
803.491	16951.18
803.822	16962.7
804.153	16792.31
804.483	16714.57
804.814	16635.71
805.145	16701.24
805.475	16617.85
805.805	16581.02
806.136	16530.85
806.466	16616.27
806.796	16475.48
807.126	16393.91
807.457	16410.85
807.787	16336.51
808.117	16252.89
808.447	16159.79
808.777	16296.96
809.107	16117.3
809.436	16080.24
809.766	16074.14
810.096	15980.58
810.426	15901.94
810.755	15912.11
811.085	15831.89
811.414	15913.01
811.744	15753.47
812.073	15689.74
812.403	15600.25
812.732	15596.41
813.061	15591.89
813.39	15548.05
813.719	15515.28
814.049	15538.33
814.378	15433.25
814.707	15368.4
815.036	15406.81
815.365	15289.98
815.693	15122.07
816.022	15122.98
816.351	15095.18
816.68	15083.43
817.008	15050.89
817.337	15030.33
817.665	15016.77
817.994	14987.39
818.322	14931.57
818.651	14860.84
818.979	14809.99
819.307	14868.97
819.636	14808.18
819.964	14743.78
820.292	14709.43
820.62	14789.43
820.948	14706.27
821.276	14727.51
821.604	14655.87
821.932	14668.98
822.259	14692.03
822.587	14692.93
822.915	14659.94
823.243	14737.68
823.57	14711.46
823.898	14586.49
824.225	14576.1
824.553	14601.41
824.88	14626.72
825.207	14584.24
825.535	14581.07
825.862	14604.35
826.189	14624.01
826.516	14648.41
826.843	14603.67
827.17	14631.69
827.497	14683.89
827.824	14642.09
828.151	14594.4
828.478	14595.31
828.805	14626.27
829.131	14559.38
829.458	14530
829.785	14450.68
830.111	14595.31
830.438	14573.16
830.764	14509.43
831.09	14528.64
831.417	14530.9
831.743	14539.49
832.069	14547.4
832.395	14456.55
832.722	14470.11
833.048	14480.28
833.374	14412.26
833.7	14429.44
834.026	14479.83
834.351	14495.88
834.677	14334.75
835.003	14381.98
835.329	14417.91
835.654	14381.08
835.98	14323.23
836.306	14310.8
836.631	14249.78
836.956	14393.05
837.282	14269.22
837.607	14306.28
837.932	14248.65
838.258	14189.67
838.583	14196
838.908	14135.89
839.233	14177.92
839.558	14058.15
839.883	13998.94
840.208	14004.36
840.533	13955.33
840.858	13988.77
841.182	13999.17
841.507	13963.91
841.832	13994.87
842.156	13863.8
842.481	13843.01
842.805	13812.73
843.13	13835.55
843.454	13771.83
843.778	13681.66
844.103	13727.76
844.427	13680.08
844.751	13685.5
845.075	13627.88
845.399	13554.88
845.723	13469.91
846.047	13520.76
846.371	13414.32
846.695	13342.91
847.019	13266.98
847.343	13205.97
847.666	13156.93
847.99	13186.76
848.313	13075.12
848.637	13007.1
848.96	13030.83
849.284	12964.84
849.607	12914.67
849.931	12852.08
850.254	12783.15
850.577	12735.24
850.9	12598.07
851.223	12603.72
851.546	12578.64
851.869	12409.83
852.192	12535.7
852.515	12395.14
852.838	12417.74
853.161	12311.53
853.483	12268.14
853.806	12231.08
854.129	12187.01
854.451	12082.83
854.774	12050.52
855.096	12092.1
855.419	12037.41
855.741	11990.86
856.063	11880.8
856.385	11895.27
856.708	11847.13
857.03	11827.25
857.352	11842.39
857.674	11729.39
857.996	11749.73
858.318	11637.65
858.64	11703.41
858.961	11610.75
859.283	11589.96
859.605	11565.33
859.926	11558.33
860.248	11530.98
860.57	11429.29
860.891	11492.57
861.212	11439.91
861.534	11396.75
861.855	11371.21
862.176	11373.7
862.498	11330.54
862.819	11355.17
863.14	11246.92
863.461	11234.72
863.782	11165.34
864.103	11214.38
864.424	11201.5
864.745	11216.64
865.065	11123.99
865.386	11165.79
865.707	11060.71
866.027	11092.8
866.348	11089.64
866.668	10992.47
866.989	11052.35
867.309	10925.12
867.63	11000.83
867.95	10960.38
868.27	10914.28
868.59	10944.33
868.91	10923.77
869.23	10876.76
869.55	10834.28
869.87	10851
870.19	10826.59
870.51	10804.67
870.83	10845.35
871.15	10787.05
871.469	10745.24
871.789	10841.96
872.109	10748.63
872.428	10693.04
872.748	10678.58
873.067	10712.92
873.386	10638.12
873.706	10615.75
874.025	10607.84
874.344	10519.48
874.663	10603.32
874.982	10620.5
875.301	10507.73
875.62	10532.14
875.939	10467.51
876.258	10475.19
876.577	10537.34
876.896	10467.51
877.214	10383.89
877.533	10412.14
877.852	10389.54
878.17	10376.44
878.489	10446.49
878.807	10372.37
879.125	10316.55
879.444	10338.92
879.762	10343.44
880.08	10254.63
880.398	10244.01
880.716	10246.5
881.034	10226.84
881.352	10244.46
881.67	10198.36
881.988	10258.7
882.306	10166.95
882.624	10146.39
882.941	10071.81
883.259	10078.36
883.577	10056.44
883.894	10034.07
884.212	9977.12
884.529	9954.53
884.846	9925.37
885.164	10010.8
885.481	9892.16
885.798	9874.08
886.115	9805.6
886.432	9838.37
886.75	9771.48
887.067	9828.88
887.383	9724.48
887.7	9761.31
888.017	9722.44
888.334	9747.98
888.651	9671.82
888.967	9632.5
889.284	9594.54
889.6	9561.77
889.917	9501.43
890.233	9539.62
890.55	9453.75
890.866	9475.67
891.182	9448.78
891.498	9405.16
891.815	9306.63
892.131	9356.35
892.447	9293.3
892.763	9207.65
893.079	9317.71
893.395	9315.45
893.71	9282.45
894.026	9155.68
894.342	9182.12
894.657	9122.68
894.973	9049.01
895.289	9063.7
895.604	9068.22
895.92	8997.72
896.235	8950.48
896.55	9030.03
896.865	8885.63
897.181	8923.37
897.496	8893.31
897.811	8891.96
898.126	8811.51
898.441	8789.59
898.756	8756.82
899.071	8703.26
899.386	8735.35
899.7	8704.84
900.015	8637.27
900.33	8547.56
900.644	8545.07
900.959	8572.64
901.273	8576.94
901.588	8471.85
901.902	8452.64
902.216	8407
902.531	8447.9
902.845	8405.41
903.159	8237.74
903.473	8325.87
903.787	8253.33
904.101	8243.38
904.415	8233.22
904.729	8151.64
905.042	8129.26
905.356	8151.41
905.67	8089.26
905.984	8074.12
906.297	8069.83
906.611	7989.83
906.924	8032.77
907.237	8034.8
907.551	7912.32
907.864	7928.36
908.177	7893.11
908.491	7885.43
908.804	7778.54
909.117	7768.82
909.43	7764.3
909.743	7694.47
910.056	7722.04
910.368	7622.38
910.681	7634.36
910.994	7620.8
911.307	7515.27
911.619	7446.57
911.932	7544.42
912.244	7398.66
912.557	7450.64
912.869	7282.51
913.181	7376.29
913.494	7313.69
913.806	7218.1
914.118	7213.13
914.43	7233.92
914.742	7223.75
915.054	7152.57
915.366	7166.13
915.678	7065.79
915.99	7089.52
916.302	7039.8
916.613	6957.54
916.925	7018.78
917.236	6995.06
917.548	6924.1
917.859	6943.08
918.171	6875.29
918.482	6852.46
918.794	6816.98
919.105	6807.04
919.416	6698.57
919.727	6732.24
920.038	6750.77
920.349	6658.34
920.66	6635.52
920.971	6659.7
921.282	6586.71
921.593	6609.3
921.903	6527.72
922.214	6520.49
922.525	6475.52
922.835	6508.06
923.146	6406.37
923.456	6417.67
923.767	6414.51
924.077	6359.14
924.387	6318.46
924.697	6330.89
925.008	6266.94
925.318	6239.6
925.628	6256.54
925.938	6294.51
926.248	6115.31
926.558	6187.62
926.867	6160.05
927.177	6082.09
927.487	6121.41
927.796	5989.21
928.106	6010.9
928.416	5991.69
928.725	6000.73
929.034	5956.67
929.344	5984.91
929.653	5881.64
929.962	5873.5
930.271	5834.86
930.581	5813.17
930.89	5763.68
931.199	5724.36
931.508	5714.64
931.817	5735.43
932.125	5701.3
932.434	5654.3
932.743	5623.79
933.051	5631.02
933.36	5594.64
933.669	5538.6
933.977	5536.34
934.286	5565.72
934.594	5556
934.902	5453.18
935.21	5446.62
935.519	5486.17
935.827	5413.18
936.135	5401.43
936.443	5402.1
936.751	5302.45
937.059	5311.03
937.367	5270.58
937.674	5264.03
937.982	5217.7
938.29	5193.52
938.597	5206.85
938.905	5181.77
939.213	5088.44
939.52	5114.43
939.827	5125.5
940.135	5031.72
940.442	5060.87
940.749	5113.75
941.056	5083.24
941.363	4994.88
941.67	4970.7
941.977	4955.11
942.284	4879.63
942.591	4841.21
942.898	4861.78
943.205	4864.04
943.511	4855.9
943.818	4871.27
944.125	4791.72
944.431	4797.15
944.738	4767.09
945.044	4793.31
945.35	4739.52
945.657	4697.49
945.963	4667.21
946.269	4628.34
946.575	4639.64
946.881	4580.43
947.187	4610.71
947.493	4599.64
947.799	4574.78
948.105	4577.94
948.41	4533.43
948.716	4517.61
949.022	4460.89
949.327	4482.35
949.633	4418.63
949.938	4414.56
950.244	4423.15
950.549	4346.09
950.854	4375.92
951.16	4349.7
951.465	4381.57
951.77	4290.27
952.075	4269.03
952.38	4279.65
952.685	4268.35
952.99	4209.14
953.294	4222.7
953.599	4206.43
953.904	4167.11
954.209	4132.98
954.513	4113.1
954.818	4135.7
955.122	4087.79
955.426	4104.96
955.731	4084.85
956.035	4067.68
956.339	4042.37
956.643	4045.76
956.948	3996.72
957.252	3995.59
957.556	3947.23
957.86	3951.29
958.163	3943.61
958.467	3910.17
958.771	3924.18
959.075	3887.12
959.378	3840.11
959.682	3847.34
959.985	3827.23
960.289	3833.56
960.592	3803.28
960.896	3797.17
961.199	3762.82
961.502	3757.4
961.805	3698.87
962.108	3654.58
962.411	3704.07
962.714	3690.96
963.017	3664.75
963.32	3624.07
963.623	3615.71
963.926	3610.06
964.228	3600.34
964.531	3636.27
964.833	3594.47
965.136	3554.24
965.438	3517.63
965.741	3546.56
966.043	3493.68
966.345	3488.26
966.648	3490.74
966.95	3482.15
967.252	3464.53
967.554	3485.32
967.856	3358.77
968.158	3392.67
968.46	3427.01
968.761	3398.99
969.063	3339.11
969.365	3342.5
969.666	3325.77
969.968	3280.8
970.269	3304.53
970.571	3283.52
970.872	3288.71
971.174	3234.03
971.475	3261.14
971.776	3217.08
972.077	3191.54
972.378	3195.38
972.679	3241.93
972.98	3205.78
973.281	3161.71
973.582	3184.31
973.883	3141.82
974.183	3128.04
974.484	3136.63
974.785	3085.1
975.085	3128.49
975.386	3090.07
975.686	3074.03
975.986	3028.61
976.287	3010.53
976.587	3027.25
976.887	3034.93
977.187	3019.34
977.487	2964.2
977.787	2944.54
978.087	2952.45
978.387	2988.16
978.687	2948.16
978.987	2908.16
979.286	2854.15
979.586	2870.19
979.885	2839.91
980.185	2859.8
980.484	2823.19
980.784	2841.72
981.083	2844.88
981.382	2789.29
981.682	2821.61
981.981	2762.85
982.28	2739.57
982.579	2709.52
982.878	2749.29
983.177	2742.29
983.475	2724.89
983.774	2722.4
984.073	2692.12
984.372	2711.33
984.67	2670.65
984.969	2671.55
985.267	2679.69
985.566	2648.96
985.864	2637.88
986.162	2631.1
986.461	2625
986.759	2609.41
987.057	2572.57
987.355	2598.34
987.653	2508.85
987.951	2532.8
988.249	2514.5
988.547	2529.86
988.844	2548.17
989.142	2521.05
989.44	2489.41
989.737	2472.24
990.035	2454.61
990.332	2477.89
990.63	2463.2
990.927	2439.24
991.224	2376.19
991.521	2387.95
991.819	2377.32
992.116	2405.35
992.413	2401.5
992.71	2367.16
993.006	2364.22
993.303	2366.48
993.6	2337.78
993.897	2342.07
994.193	2314.28
994.49	2325.8
994.787	2284.45
995.083	2286.25
995.379	2257.55
995.676	2237.44
995.972	2218.46
996.268	2219.59
996.565	2209.19
996.861	2171.91
997.157	2207.39
997.453	2203.32
997.749	2172.58
998.044	2166.48
998.34	2159.03
998.636	2134.84
998.932	2142.3
999.227	2143.43
999.523	2102.98
999.818	2099.59
1000.114	2085.35
1000.409	2068.63
1000.704	2109.99
1001	2024.57
1001.295	2045.81
1001.59	2052.36
1001.885	2006.26
1002.18	1985.47
1002.475	2021.18
1002.77	2001.74
1003.065	1995.64
1003.359	1988.63
1003.654	1957
1003.949	1965.13
1004.243	1914.29
1004.538	1910.67
1004.832	1933.04
1005.127	1919.71
1005.421	1918.35
1005.715	1896.21
1006.009	1908.41
1006.304	1872.7
1006.598	1862.76
1006.892	1848.52
1007.186	1829.54
1007.48	1806.72
1007.773	1830.22
1008.067	1808.98
1008.361	1793.16
1008.655	1777.79
1008.948	1751.35
1009.242	1753.61
1009.535	1760.62
1009.829	1750
1010.122	1725.14
1010.415	1716.78
1010.708	1698.25
1011.001	1712.26
1011.295	1692.6
1011.588	1679.94
1011.881	1680.39
1012.173	1646.27
1012.466	1669.55
1012.759	1655.54
1013.052	1650.11
1013.344	1604.69
1013.637	1610.56
1013.93	1602.2
1014.222	1576.22
1014.514	1608.76
1014.807	1605.82
1015.099	1571.92
1015.391	1596.1
1015.683	1559.04
1015.976	1555.65
1016.268	1553.39
1016.56	1540.28
1016.851	1524.92
1017.143	1507.97
1017.435	1486.27
1017.727	1482.66
1018.018	1460.51
1018.31	1470.46
1018.602	1524.69
1018.893	1467.52
1019.185	1459.83
1019.476	1442.89
1019.767	1444.69
1020.058	1440.63
1020.35	1430
1020.641	1432.26
1020.932	1377.58
1021.223	1389.78
1021.514	1380.06
1021.804	1350.46
1022.095	1368.76
1022.386	1359.5
1022.677	1345.26
1022.967	1321.76
1023.258	1336.9
1023.548	1297.8
1023.839	1294.19
1024.129	1302.78
1024.419	1288.54
1024.709	1259.16
1025	1281.31
1025.29	1272.49
1025.58	1265.26
1025.87	1248.31
1026.16	1253.51
1026.449	1244.47
1026.739	1196.56
1027.029	1201.08
1027.319	1208.77
1027.608	1202.67
1027.898	1185.72
1028.187	1176.45
1028.477	1171.25
1028.766	1173.51
1029.055	1143.23
1029.344	1184.14
1029.634	1151.59
1029.923	1154.76
1030.212	1128.09
1030.501	1107.53
1030.79	1099.39
1031.078	1107.53
1031.367	1099.84
1031.656	1100.3
1031.945	1107.53
1032.233	1084.7
1032.522	1074.76
1032.81	1073.4
1033.099	1031.15
1033.387	1060.75
1033.675	1065.72
1033.963	1059.62
1034.251	1016.91
1034.54	1044.25
1034.828	1007.64
1035.116	1011.48
1035.403	1007.19
1035.691	1008.55
1035.979	997.25
1036.267	973.29
1036.554	985.27
1036.842	991.37
1037.129	970.13
1037.417	962.45
1037.704	970.36
1037.992	957.7
1038.279	939.17
1038.566	972.84
1038.853	972.84
1039.14	972.84
