Data from hue_320_FLMS001491_44.txt Node
Date: Mon Feb 06 15:47:15 GMT 2017
User: dcchb
Spectrometer: FLMS00149
Trigger mode: 0
Integration Time (sec): 2.000000E-2
Scans to average: 10
Electric dark correction enabled: true
Nonlinearity correction enabled: false
Boxcar width: 0
XAxis mode: Wavelengths
Number of Pixels in Spectrum: 2048
>>>>>Begin Spectral Data<<<<<
341.393	-25.32
341.776	-25.32
342.16	-25.32
342.543	-56.96
342.927	-69.62
343.31	-73.23
343.693	-65.32
344.077	-57.64
344.46	-66.91
344.843	-60.13
345.226	-33.01
345.61	-23.97
345.993	-7.47
346.376	-15.83
346.759	10.61
347.142	18.97
347.525	56.03
347.908	45.63
348.291	71.62
348.674	93.77
349.057	106.88
349.44	126.76
349.823	132.86
350.206	151.39
350.588	185.97
350.971	213.09
351.354	214.22
351.737	211.96
352.119	246.31
352.502	269.36
352.884	266.87
353.267	268
353.65	276.59
354.032	291.73
354.414	303.25
354.797	281.33
355.179	321.33
355.562	321.33
355.944	324.72
356.326	312.29
356.709	319.98
357.091	312.29
357.473	333.99
357.855	334.21
358.238	342.58
358.62	329.47
359.002	343.25
359.384	331.73
359.766	341.45
360.148	343.48
360.53	341.22
360.912	316.14
361.294	334.89
361.676	325.18
362.057	329.69
362.439	313.42
362.821	323.82
363.203	315.01
363.584	323.14
363.966	302.58
364.348	309.81
364.729	317.04
365.111	313.88
365.493	309.13
365.874	303.48
366.256	314.55
366.637	312.52
367.019	315.68
367.4	302.58
367.781	315.23
368.163	290.15
368.544	291.5
368.925	308.9
369.306	293.54
369.688	277.72
370.069	288.34
370.45	302.12
370.831	305.97
371.212	320.66
371.593	313.2
371.974	282.92
372.355	316.14
372.736	311.84
373.117	306.42
373.498	325.63
373.879	299.64
374.26	305.74
374.641	304.16
375.021	307.32
375.402	311.62
375.783	308.23
376.163	305.74
376.544	310.03
376.925	315.91
377.305	291.73
377.686	319.53
378.066	320.88
378.447	324.5
378.827	311.62
379.208	306.42
379.588	334.89
379.968	311.39
380.349	332.41
380.729	331.05
381.109	325.63
381.489	339.64
381.87	328.79
382.25	326.08
382.63	343.48
383.01	348.45
383.39	347.77
383.77	354.1
384.15	335.57
384.53	330.37
384.91	329.92
385.29	342.8
385.67	355.91
386.049	342.8
386.429	336.47
386.809	339.41
387.189	341.67
387.568	322.92
387.948	331.5
388.328	367.89
388.707	347.55
389.087	348
389.466	355.23
389.846	359.98
390.225	351.84
390.605	325.18
390.984	366.53
391.363	341.22
391.743	359.98
392.122	359.3
392.501	340.77
392.881	361.56
393.26	335.34
393.639	348.68
394.018	355.68
394.397	361.56
394.776	347.77
395.155	370.15
395.534	372.86
395.913	353.2
396.292	378.28
396.671	353.65
397.05	378.28
397.429	371.5
397.808	364.04
398.186	376.93
398.565	375.12
398.944	380.09
399.323	375.12
399.701	409.47
400.08	381.67
400.458	383.93
400.837	373.08
401.215	381.44
401.594	402.91
401.972	382.35
402.351	378.06
402.729	380.31
403.107	402.46
403.486	394.33
403.864	383.48
404.242	399.75
404.62	402.91
404.999	407.21
405.377	399.98
405.755	416.02
406.133	423.25
406.511	400.65
406.889	425.51
407.267	418.05
407.645	445.85
408.023	432.74
408.401	458.28
408.779	442.01
409.156	432.52
409.534	466.87
409.912	465.74
410.29	465.96
410.667	449.69
411.045	449.47
411.422	478.17
411.8	481.56
412.178	483.81
412.555	492.4
412.933	487.43
413.31	488.56
413.687	521.1
414.065	510.03
414.442	517.49
414.819	522.01
415.197	523.14
415.574	527.43
415.951	529.92
416.328	549.8
416.705	542.12
417.082	556.36
417.46	564.49
417.837	564.72
418.214	557.71
418.591	568.78
418.967	569.69
419.344	573.3
419.721	598.61
420.098	587.09
420.475	627.99
420.852	618.73
421.228	634.32
421.605	623.25
421.982	618.27
422.358	639.74
422.735	641.1
423.111	654.66
423.488	646.52
423.864	660.99
424.241	658.5
424.617	687.65
424.994	669.35
425.37	701.44
425.746	689.69
426.123	689.46
426.499	696.69
426.875	717.26
427.251	745.05
427.627	704.6
428.003	713.41
428.379	736.69
428.756	717.48
429.132	748.44
429.507	762
429.883	762.9
430.259	760.87
430.635	776.69
431.011	771.49
431.387	799.51
431.763	816.91
432.138	807.42
432.514	836.12
432.89	829.12
433.265	830.7
433.641	864.82
434.016	859.62
434.392	862.79
434.767	885.84
435.143	859.85
435.518	914.99
435.894	910.7
436.269	907.98
436.644	925.16
437.02	961.77
437.395	926.52
437.77	945.72
438.145	937.81
438.52	970.81
438.895	958.15
439.271	985.04
439.646	994.76
440.021	985.04
440.395	1006.06
440.77	982.33
441.145	995.44
441.52	1009.68
441.895	1029.56
442.27	991.15
442.645	1028.89
443.019	1007.87
443.394	1033.63
443.769	1016.91
444.143	1031.15
444.518	1051.71
444.892	1049.45
445.267	1086.74
445.641	1055.1
446.016	1056.68
446.39	1046.96
446.764	1052.39
447.139	1073.86
447.513	1076.12
447.887	1078.6
448.262	1077.02
448.636	1066.62
449.01	1093.29
449.384	1098.04
449.758	1107.53
450.132	1106.85
450.506	1120.86
450.88	1146.17
451.254	1137.36
451.628	1131.03
452.002	1134.42
452.376	1153.85
452.75	1145.49
453.123	1158.15
453.497	1165.38
453.871	1172.84
454.244	1187.07
454.618	1161.76
454.992	1179.39
455.365	1186.17
455.739	1202.21
456.112	1217.81
456.486	1233.17
456.859	1220.07
457.232	1255.09
457.606	1223
457.979	1239.28
458.352	1276.56
458.725	1295.77
459.099	1283.12
459.472	1284.47
459.845	1287.64
460.218	1313.17
460.591	1324.24
460.964	1288.31
461.337	1331.93
461.71	1348.65
462.083	1346.84
462.456	1347.07
462.829	1384.58
463.201	1394.3
463.574	1400.85
463.947	1388.42
464.32	1412.15
464.692	1426.62
465.065	1443.11
465.438	1442.66
465.81	1476.56
466.183	1479.27
466.555	1487.86
466.928	1496.22
467.3	1482.66
467.672	1519.04
468.045	1545.93
468.417	1521.3
468.789	1548.65
469.161	1555.65
469.534	1575.99
469.906	1575.31
470.278	1618.93
470.65	1601.75
471.022	1642.88
471.394	1649.43
471.766	1673.39
472.138	1676.33
472.51	1698.47
472.882	1728.53
473.253	1721.75
473.625	1762.2
473.997	1749.09
474.369	1763.78
474.74	1766.04
475.112	1802.88
475.484	1852.14
475.855	1841.52
476.227	1872.25
476.598	1896.89
476.97	1938.47
477.341	1937.56
477.713	1982.98
478.084	1962.19
478.455	2007.84
478.827	2008.29
479.198	2035.64
479.569	2064.56
479.94	2089.42
480.311	2109.53
480.682	2140.49
481.053	2167.84
481.424	2213.26
481.795	2212.58
482.166	2265.69
482.537	2220.27
482.908	2290.1
483.279	2312.02
483.65	2342.07
484.021	2364.44
484.391	2402.63
484.762	2418.68
485.133	2379.13
485.503	2438.34
485.874	2458.23
486.244	2488.06
486.615	2536.42
486.985	2525.34
487.356	2605.57
487.726	2549.07
488.097	2623.65
488.467	2661.16
488.837	2688.05
489.207	2705.45
489.578	2728.95
489.948	2752.91
490.318	2764.66
490.688	2783.19
491.058	2853.7
491.428	2849.63
491.798	2864.09
492.168	2927.37
492.538	2910.64
492.908	2969.85
493.278	3006.01
493.648	2955.61
494.017	2983.86
494.387	3039.23
494.757	3034.71
495.126	3030.87
495.496	3046.91
495.866	3117.87
496.235	3115.38
496.605	3111.09
496.974	3127.59
497.344	3149.06
497.713	3146.8
498.082	3194.48
498.452	3198.32
498.821	3169.85
499.19	3192.44
499.559	3288.71
499.928	3270.18
500.298	3299.56
500.667	3281.03
501.036	3290.52
501.405	3380.91
501.774	3343.63
502.143	3365.1
502.512	3368.03
502.88	3375.04
503.249	3354.25
503.618	3361.48
503.987	3393.57
504.356	3418.43
504.724	3436.05
505.093	3372.55
505.462	3459.33
505.83	3429.27
506.199	3490.29
506.567	3516.05
506.936	3459.1
507.304	3553.79
507.672	3497.97
508.041	3537.75
508.409	3553.56
508.777	3577.07
509.145	3554.02
509.514	3583.85
509.882	3620.23
510.25	3605.54
510.618	3615.26
510.986	3598.54
511.354	3614.13
511.722	3631.08
512.09	3726.22
512.458	3659.32
512.826	3736.61
513.193	3701.13
513.561	3682.6
513.929	3675.6
514.297	3721.02
514.664	3754.92
515.032	3725.31
515.4	3777.06
515.767	3725.76
516.135	3738.42
516.502	3775.71
516.869	3810.28
517.237	3780.45
517.604	3796.27
517.972	3843.5
518.339	3840.11
518.706	3828.13
519.073	3825.2
519.44	3844.18
519.808	3872.2
520.175	3819.55
520.542	3910.17
520.909	3911.3
521.276	3864.29
521.643	3890.05
522.009	3927.79
522.376	3908.81
522.743	3973.89
523.11	3997.85
523.477	3996.04
523.843	4060.9
524.21	4034
524.577	4005.53
524.943	4034
525.31	4090.95
525.676	4080.33
526.043	4138.63
526.409	4144.74
526.776	4148.58
527.142	4157.16
527.508	4184.06
527.874	4176.15
528.241	4215.92
528.607	4202.59
528.973	4238.97
529.339	4241
529.705	4327.56
530.071	4339.31
530.437	4317.16
530.803	4327.56
531.169	4348.12
531.535	4388.35
531.901	4432.41
532.267	4416.37
532.632	4385.63
532.998	4415.69
533.364	4479.64
533.73	4458.17
534.095	4480.77
534.461	4524.39
534.826	4519.87
535.192	4561.45
535.557	4571.39
535.923	4602.58
536.288	4625.17
536.653	4614.78
537.019	4624.72
537.384	4709.47
537.749	4672.86
538.114	4722.35
538.479	4680.99
538.845	4706.98
539.21	4693.65
539.575	4741.56
539.94	4749.01
540.305	4799.18
540.67	4788.79
541.034	4826.3
541.399	4854.77
541.764	4888.9
542.129	4931.61
542.494	4927.99
542.858	4949.46
543.223	4930.93
543.587	4985.84
543.952	4965.96
544.316	4962.34
544.681	5005.73
545.045	5055.9
545.41	5090.93
545.774	5086.41
546.138	5075.78
546.503	5167.99
546.867	5146.52
547.231	5153.3
547.595	5198.27
547.959	5148.1
548.324	5179.51
548.688	5215.67
549.052	5229.45
549.416	5213.18
549.779	5294.76
550.143	5317.59
550.507	5388.54
550.871	5332.95
551.235	5352.16
551.599	5370.01
551.962	5380.64
552.326	5400.97
552.689	5421.54
553.053	5440.97
553.417	5466.06
553.78	5484.59
554.143	5488.88
554.507	5498.6
554.87	5485.27
555.234	5578.14
555.597	5543.12
555.96	5561.87
556.323	5568.88
556.686	5593.06
557.05	5588.77
557.413	5620.18
557.776	5637.58
558.139	5613.62
558.502	5680.06
558.865	5716.9
559.228	5682.1
559.59	5729.78
559.953	5755.31
560.316	5798.03
560.679	5783.11
561.041	5769.78
561.404	5790.34
561.767	5839.38
562.129	5855.43
562.492	5908.76
562.854	5851.13
563.217	5891.81
563.579	5877.35
563.941	5949.66
564.304	5938.81
564.666	5978.59
565.028	6001.64
565.39	5991.69
565.753	6048.19
566.115	6037.12
566.477	6058.13
566.839	6043.67
567.201	6082.54
567.563	6118.02
567.925	6148.75
568.287	6191.91
568.648	6181.29
569.01	6178.58
569.372	6278.46
569.734	6244.79
570.095	6236.66
570.457	6343.55
570.819	6309.2
571.18	6390.78
571.542	6355.07
571.903	6404.56
572.265	6458.8
572.626	6507.61
572.987	6543.77
573.349	6528.85
573.71	6635.52
574.071	6732.01
574.432	6705.12
574.794	6790.09
575.155	6809.3
575.516	6847.26
575.877	6907.83
576.238	6968.16
576.599	7025.56
576.96	7059.46
577.32	7141.94
577.681	7187.14
578.042	7240.93
578.403	7332
578.763	7384.65
579.124	7473.91
579.485	7594.36
579.845	7696.28
580.206	7790.52
580.566	7889.95
580.927	8015.37
581.287	8114.35
581.648	8284.29
582.008	8385.75
582.368	8498.97
582.728	8598.86
583.089	8843.82
583.449	8957.94
583.809	9061.89
584.169	9205.62
584.529	9423.92
584.889	9584.82
585.249	9679.73
585.609	9938.26
585.969	10108.65
586.329	10277.68
586.688	10511.57
587.048	10723.77
587.408	10882.86
587.768	11112.46
588.127	11370.53
588.487	11550.64
588.846	11874.25
589.206	12064.75
589.565	12252.77
589.925	12522.59
590.284	12796.26
590.643	13081.45
591.003	13353.76
591.362	13600.53
591.721	13862.22
592.08	14144.25
592.44	14462.66
592.799	14681.41
593.158	14917.79
593.517	15284.78
593.876	15588.95
594.235	15765.22
594.593	16128.83
594.952	16464.86
595.311	16612.66
595.67	16980.78
596.029	17380.09
596.387	17693.53
596.746	18020.3
597.104	18157.93
597.463	18442.89
597.822	18787.29
598.18	19025.93
598.538	19380.72
598.897	19783.65
599.255	19861.61
599.613	20282.39
599.972	20571.87
600.33	20916.5
600.688	20990.17
601.046	21349.48
601.404	21772.75
601.762	21911.95
602.12	22211.61
602.478	22600.52
602.836	22891.36
603.194	22942.89
603.552	23276.89
603.91	23478.01
604.268	23775.18
604.625	23975.63
604.983	24264.43
605.341	24453.35
605.698	24827.58
606.056	25127.01
606.413	25264.63
606.771	25653.1
607.128	25980.09
607.485	25983.71
607.843	26227.32
608.2	26660.3
608.557	26869.56
608.914	27070.91
609.272	27210.57
609.629	27517
609.986	27921.06
610.343	27972.58
610.7	28289.19
611.057	28481.27
611.414	28560.59
611.771	28885.78
612.127	28928.94
612.484	29173.68
612.841	29462.04
613.198	29369.16
613.554	29592.2
613.911	30005.07
614.267	30162.58
614.624	30209.81
614.98	30580.88
615.337	30730.25
615.693	30822.23
616.05	30967.08
616.406	31254.08
616.762	31312.61
617.118	31431.02
617.475	31684.58
617.831	31795.99
618.187	31897.23
618.543	32178.12
618.899	32331.34
619.255	32379.47
619.611	32413.82
619.967	32844.77
620.323	32915.28
620.678	32773.59
621.034	32896.97
621.39	32933.58
621.746	33168.83
622.101	33582.38
622.457	33388.49
622.812	33522.95
623.168	33630.97
623.523	33692.89
623.879	33904.63
624.234	33744.41
624.589	33917.51
624.945	34108.92
625.3	34329.93
625.655	34385.07
626.01	34394.56
626.365	34534.9
626.72	34442.92
627.075	34531.73
627.43	34577.16
627.785	34630.71
628.14	34789.13
628.495	34732.86
628.85	34705.06
629.205	34752.97
629.559	35057.14
629.914	34861.89
630.269	35034.09
630.623	34936.47
630.978	34862.8
631.332	35105.96
631.687	35165.61
632.041	35125.16
632.396	35256.23
632.75	34999.07
633.104	35192.73
633.459	35201.77
633.813	35137.37
634.167	35196.35
634.521	35263.01
634.875	35281.77
635.229	35249.23
635.583	35312.05
635.937	35186.41
636.291	35253.3
636.645	35312.5
636.999	35202.45
637.352	35281.77
637.706	35292.84
638.06	35418.94
638.413	35243.13
638.767	35203.35
639.121	35239.06
639.474	35217.36
639.828	35151.6
640.181	35284.03
640.534	35211.26
640.888	35273.18
641.241	35167.42
641.594	35202.9
641.947	35259.85
642.301	35184.6
642.654	35306.18
643.007	35142.79
643.36	35171.94
643.713	35027.99
644.066	35247.19
644.419	35145.05
644.771	34921.55
645.124	34578.29
645.477	34533.77
645.83	34389.82
646.182	34211.97
646.535	34148.01
646.888	34248.35
647.24	34071.63
647.593	34338.52
647.945	34167.22
648.298	34151.86
648.65	34011.52
649.002	33963.16
649.355	34031.18
649.707	33949.38
650.059	34241.12
650.411	34545.07
650.763	34542.13
651.115	34946.19
651.467	34936.02
651.819	34738.28
652.171	34741.67
652.523	34707.77
652.875	34610.38
653.227	34554.11
653.578	34870.93
653.93	34623.71
654.282	34663.03
654.633	34566.99
654.985	34593.43
655.337	34603.82
655.688	34705.51
656.039	34727.66
656.391	34369.25
656.742	34598.85
657.094	34495.12
657.445	34619.19
657.796	34563.37
658.147	34535.8
658.498	34457.84
658.849	34469.81
659.2	34580.55
659.551	34416.03
659.902	34626.87
660.253	34671.39
660.604	34620.32
660.955	34343.72
661.306	34570.15
661.656	34520.21
662.007	34465.75
662.358	34517.95
662.708	34436.82
663.059	34453.54
663.409	34233.21
663.76	34605.86
664.11	34527.21
664.461	34555.69
664.811	34417.61
665.161	34487.89
665.511	34409.48
665.862	34400.21
666.212	34599.98
666.562	34498.74
666.912	34403.83
667.262	34361.12
667.612	34338.07
667.962	34404.73
668.312	34457.16
668.662	34471.4
669.011	34382.13
669.361	34291.06
669.711	34274.11
670.06	34275.24
670.41	34311.4
670.76	34177.39
671.109	34336.94
671.459	34265.07
671.808	34346.43
672.157	34280.67
672.507	34084.97
672.856	34144.4
673.205	34112.54
673.554	34332.19
673.904	34011.97
674.253	34289.25
674.602	34162.03
674.951	33625.77
675.3	33520.46
675.649	34048.13
675.998	34044.74
676.346	33937.85
676.695	34129.48
677.044	33820.11
677.393	34002.26
677.741	33943.5
678.09	33865.99
678.438	33917.51
678.787	33957.96
679.135	34077.28
679.484	33679.33
679.832	33825.54
680.181	33655.6
680.529	33790.96
680.877	33711.87
681.225	33553.23
681.573	33811.3
681.922	33484.08
682.27	33477.07
682.618	33502.38
682.966	33498.54
683.314	33441.59
683.661	33348.04
684.009	33168.83
684.357	33149.62
684.705	33167.7
685.053	33213.12
685.4	33075.73
685.748	32872.79
686.095	33036.41
686.443	32974.71
686.79	32917.99
687.138	32983.3
687.485	32958.89
687.832	32744.66
688.18	32964.77
688.527	32713.7
688.874	32524.78
689.221	32529.53
689.568	32377.21
689.915	32385.12
690.262	32428.96
690.609	32318.91
690.956	32216.09
691.303	32139.25
691.65	31984.68
691.997	31926.15
692.344	31765.25
692.69	31851.58
693.037	31898.36
693.383	31438.71
693.73	31737.23
694.077	31515.99
694.423	31556.9
694.769	31456.33
695.116	31257.24
695.462	31319.84
695.808	31168.21
696.155	31246.62
696.501	31020.64
696.847	30910.13
697.193	30847.08
697.539	30901.55
697.885	30653.19
698.231	30492.52
698.577	30668.78
698.923	30476.7
699.269	30392.41
699.614	30237.38
699.96	30246.42
700.306	30267.66
700.651	30027.22
700.997	29954.9
701.342	29917.17
701.688	29851.63
702.033	29866.32
702.379	29836.04
702.724	29751.07
703.069	29792.2
703.415	29483.96
703.76	29406.67
704.105	29487.8
704.45	29367.58
704.795	29181.82
705.14	29222.27
705.485	29066.34
705.83	28974.59
706.175	29154.25
706.52	28941.6
706.865	28875.61
707.209	28730.08
707.554	28610.76
707.899	28799.45
708.243	28623.19
708.588	28544.09
708.932	28454.83
709.277	28421.39
709.621	28476.75
709.966	28153.37
710.31	28373.48
710.654	28037.44
710.998	28069.08
711.342	28148.17
711.687	28029.98
712.031	28016.42
712.375	27779.59
712.719	27812.59
713.063	27815.75
713.407	27866.37
713.75	27543.22
714.094	27705.25
714.438	27471.13
714.782	27584.35
715.125	27439.49
715.469	27463.67
715.812	27292.83
716.156	27199.27
716.499	27220.97
716.843	27254.41
717.186	27059.39
717.53	27076.11
717.873	27237.91
718.216	27079.27
718.559	27011.71
718.902	26754.99
719.246	26833.63
719.589	26783.01
719.932	26709.79
720.275	26722.67
720.617	26736.23
720.96	26580.3
721.303	26559.97
721.646	26595.44
721.989	26376.24
722.331	26516.12
722.674	26335.79
723.016	26351.84
723.359	26284.72
723.701	26311.16
724.044	26118.85
724.386	26114.78
724.729	26260.09
725.071	26139.86
725.413	26106.87
725.755	26022.58
726.097	25931.06
726.439	25845.18
726.782	25896.71
727.124	25863.03
727.465	25821
727.807	25616.04
728.149	25663.04
728.491	25639.99
728.833	25663.72
729.175	25532.87
729.516	25553.66
729.858	25485.19
730.199	25594.34
730.541	25466.66
730.882	25456.27
731.224	25550.95
731.565	25373.33
731.906	25278.19
732.248	25294.01
732.589	25249.94
732.93	25132.88
733.271	25132.43
733.612	25277.29
733.953	25207.68
734.294	25043.85
734.635	25030.29
734.976	25004.53
735.317	24989.84
735.658	24888.37
735.999	24932.66
736.339	24884.76
736.68	24808.6
737.021	24851.99
737.361	24761.59
737.702	24741.71
738.042	24625.33
738.383	24684.31
738.723	24751.65
739.063	24642.05
739.404	24687.47
739.744	24530.41
740.084	24464.65
740.424	24349.18
740.764	24318.44
741.104	24423.3
741.444	24338.78
741.784	24242.74
742.124	24319.35
742.464	24245.68
742.804	24252.46
743.143	24156.86
743.483	24139.69
743.823	24069.41
744.162	23989.41
744.502	24134.94
744.841	23931.56
745.181	24086.81
745.52	23913.93
745.86	23990.54
746.199	23922.75
746.538	23875.74
746.877	23882.07
747.216	23848.4
747.556	23809.98
747.895	23824.44
748.234	23702.64
748.573	23687.95
748.911	23595.52
749.25	23546.49
749.589	23486.6
749.928	23475.75
750.267	23608.4
750.605	23421.29
750.944	23397.34
751.283	23308.07
751.621	23385.59
751.96	23261.75
752.298	23181.52
752.636	23155.99
752.975	23092.03
753.313	22944.47
753.651	23113.28
753.989	22912.83
754.327	22885.49
754.666	22857.69
755.004	22788.09
755.342	22738.82
755.679	22708.09
756.017	22577.7
756.355	22746.96
756.693	22484.37
757.031	22606.4
757.368	22466.06
757.706	22399.17
758.044	22348.32
758.381	22384.48
758.719	22309.46
759.056	22293.41
759.394	22181.32
759.731	22080.99
760.068	22032.63
760.405	21949.24
760.743	21867.43
761.08	21901.78
761.417	21816.81
761.754	21708.34
762.091	21783.37
762.428	21628.12
762.765	21484.62
763.102	21613.2
763.438	21449.37
763.775	21323.94
764.112	21312.19
764.449	21366.2
764.785	21187.23
765.122	21126.66
765.458	20994.91
765.795	20943.16
766.131	20947.23
766.467	20948.59
766.804	20723.06
767.14	20714.92
767.476	20693.45
767.812	20630.86
768.148	20590.18
768.485	20413.46
768.821	20403.74
769.157	20362.61
769.492	20324.65
769.828	20220.47
770.164	20053.47
770.5	20105.67
770.836	20098.89
771.171	19914.49
771.507	19794.04
771.842	19760.14
772.178	19677.21
772.513	19625.68
772.849	19617.55
773.184	19537.78
773.519	19499.36
773.855	19395.18
774.19	19283.32
774.525	19309.08
774.86	19145.7
775.195	19168.07
775.53	19104.79
775.865	18973.95
776.2	18840.62
776.535	18771.92
776.87	18816.21
777.205	18714.07
777.539	18579.61
777.874	18578.93
778.209	18525.37
778.543	18441.08
778.878	18338.49
779.212	18316.34
779.547	18212.61
779.881	18253.97
780.215	18099.4
780.55	18014.88
780.884	18131.49
781.218	18011.49
781.552	18014.65
781.886	17888.1
782.22	17756.58
782.554	17622.8
782.888	17629.13
783.222	17522.01
783.556	17382.58
783.889	17437.72
784.223	17288.8
784.557	17258.52
784.89	17320.66
785.224	17190.27
785.557	17109.59
785.891	17058.52
786.224	16906.89
786.558	16897.62
786.891	16777.85
787.224	16695.37
787.557	16792.09
787.891	16678.87
788.224	16660.11
788.557	16648.59
788.89	16559.1
789.223	16518.42
789.556	16360.46
789.888	16334.25
790.221	16305.77
790.554	16146.23
790.887	16108.94
791.219	16121.14
791.552	16045.44
791.884	15993.24
792.217	15811.32
792.549	15903.52
792.882	15756.41
793.214	15680.25
793.546	15761.15
793.879	15625.11
794.211	15574.49
794.543	15616.98
794.875	15523.19
795.207	15500.82
795.539	15455.62
795.871	15449.07
796.203	15311.9
796.535	15244.78
796.867	15176.08
797.198	15195.52
797.53	15087.95
797.862	14969.76
798.193	15044.11
798.525	14952.81
798.856	14960.72
799.188	14818.81
799.519	14805.47
799.85	14734.29
800.182	14704.01
800.513	14746.04
800.844	14581.07
801.175	14594.4
801.506	14548.98
801.837	14515.08
802.168	14447.06
802.499	14431.47
802.83	14407.52
803.161	14287.75
803.491	14319.84
803.822	14330.91
804.153	14280.06
804.483	14078.26
804.814	14045.94
805.145	14065.6
805.475	14070.35
805.805	13996.68
806.136	13956
806.466	13894.31
806.796	13924.37
807.126	13809.57
807.457	13787.87
807.787	13801.66
808.117	13650.93
808.447	13704.03
808.777	13755.78
809.107	13614.77
809.436	13543.36
809.766	13571.38
810.096	13565.5
810.426	13393.08
810.755	13478.73
811.085	13408.9
811.414	13439.41
811.744	13360.54
812.073	13292.29
812.403	13263.82
812.732	13171.62
813.061	13154.22
813.39	13068.57
813.719	13050.04
814.049	13114.9
814.378	13066.99
814.707	13023.37
815.036	12894.11
815.365	12987.44
815.693	12819.54
816.022	12796.03
816.351	12793.1
816.68	12743.61
817.008	12758.75
817.337	12659.77
817.665	12562.82
817.994	12653.44
818.322	12503.61
818.651	12628.81
818.979	12498.19
819.307	12595.13
819.636	12506.78
819.964	12470.39
820.292	12556.94
820.62	12417.96
820.948	12482.14
821.276	12476.27
821.604	12412.31
821.932	12444.63
822.259	12483.73
822.587	12464.06
822.915	12403.05
823.243	12448.7
823.57	12367.34
823.898	12366.44
824.225	12272.21
824.553	12384.52
824.88	12376.38
825.207	12435.14
825.535	12391.52
825.862	12328.02
826.189	12367.12
826.516	12401.02
826.843	12398.08
827.17	12375.25
827.497	12331.87
827.824	12391.07
828.151	12428.81
828.478	12333.22
828.805	12341.36
829.131	12266.56
829.458	12254.13
829.785	12267.23
830.111	12278.31
830.438	12372.99
830.764	12401.24
831.09	12314.01
831.417	12200.34
831.743	12314.92
832.069	12250.29
832.395	12227.91
832.722	12266.78
833.048	12176.16
833.374	12310.17
833.7	12121.48
834.026	12177.52
834.351	12224.07
834.677	12103.4
835.003	12204.86
835.329	12137.97
835.654	12115.6
835.98	12090.29
836.306	12076.28
836.631	12096.16
836.956	12146.79
837.282	12027.47
837.607	12001.25
837.932	12016.85
838.258	12013.91
838.583	12000.8
838.908	11908.15
839.233	11920.35
839.558	11912.22
839.883	11886.68
840.208	11840.8
840.533	11842.16
840.858	11876.74
841.182	11866.11
841.507	11811.65
841.832	11740.02
842.156	11738.43
842.481	11687.81
842.805	11629.28
843.13	11700.92
843.454	11629.06
843.778	11503.64
844.103	11623.41
844.427	11483.3
844.751	11547.03
845.075	11532.34
845.399	11459.8
845.723	11426.8
846.047	11385.45
846.371	11334.15
846.695	11361.27
847.019	11236.75
847.343	11185
847.666	11091.9
847.99	11107.72
848.313	11144.78
848.637	10986.82
848.96	11024.33
849.284	10988.62
849.607	10855.97
849.931	10797.67
850.254	10764.22
850.577	10710.89
850.9	10626.83
851.223	10655.52
851.546	10563.78
851.869	10527.84
852.192	10607.16
852.515	10468.19
852.838	10348.41
853.161	10385.48
853.483	10415.31
853.806	10314.52
854.129	10350.22
854.451	10277.46
854.774	10323.56
855.096	10164.69
855.419	10139.61
855.741	10116.78
856.063	10127.63
856.385	10050.34
856.708	10028.65
857.03	9976.67
857.352	10004.69
857.674	9947.52
857.996	9899.16
858.318	9917.92
858.64	9925.6
858.961	9794.76
859.283	9819.61
859.605	9764.7
859.926	9792.5
860.248	9721.31
860.57	9715.66
860.891	9728.32
861.212	9700.75
861.534	9627.08
861.855	9613.97
862.176	9665.27
862.498	9569.68
862.819	9597.93
863.14	9598.15
863.461	9532.39
863.782	9449.45
864.103	9499.17
864.424	9546.63
864.745	9467.76
865.065	9423.01
865.386	9408.33
865.707	9442.45
866.027	9400.19
866.348	9430.25
866.668	9354.99
866.989	9360.42
867.309	9272.06
867.63	9308.22
867.95	9332.85
868.27	9298.27
868.59	9245.17
868.91	9195.45
869.23	9187.54
869.55	9193.19
869.87	9205.62
870.19	9200.2
870.51	9241.78
870.83	9176.24
871.15	9088.33
871.469	9084.94
871.789	9114.32
872.109	9132.4
872.428	9039.97
872.748	9093.76
873.067	9084.04
873.386	9096.24
873.706	8998.17
874.025	8996.59
874.344	8952.74
874.663	8929.92
874.982	9020.54
875.301	8907.1
875.62	8876.59
875.939	8989.35
876.258	8889.47
876.577	8850.15
876.896	8822.8
877.214	8809.47
877.533	8823.26
877.852	8836.14
878.17	8804.27
878.489	8833.43
878.807	8781
879.125	8795.69
879.444	8680.89
879.762	8802.01
880.08	8711.85
880.398	8660.1
880.716	8698.06
881.034	8662.81
881.352	8625.75
881.67	8641.34
881.988	8600.21
882.306	8550.95
882.624	8549.14
882.941	8523.38
883.259	8511.63
883.577	8452.19
883.894	8505.98
884.212	8448.35
884.529	8503.72
884.846	8436.37
885.164	8403.83
885.481	8418.3
885.798	8380.56
886.115	8277.06
886.432	8397.96
886.75	8281.8
887.067	8350.05
887.383	8244.97
887.7	8321.35
888.017	8230.28
888.334	8228.7
888.651	8275.02
888.967	8188.25
889.284	8117.74
889.6	8143.27
889.917	8103.05
890.233	8034.35
890.55	8089.72
890.866	8101.92
891.182	8043.39
891.498	8023.96
891.815	8028.48
892.131	7942.83
892.447	7893.79
892.763	7915.26
893.079	7892.21
893.395	7856.28
893.71	7848.82
894.026	7823.06
894.342	7800.91
894.657	7705.55
894.973	7782.15
895.289	7728.82
895.604	7678.43
895.92	7713.91
896.235	7599.33
896.55	7699.67
896.865	7553.23
897.181	7565.44
897.496	7537.41
897.811	7507.59
898.126	7460.81
898.441	7440.69
898.756	7406.8
899.071	7412.22
899.386	7431.43
899.7	7352.56
900.015	7340.13
900.33	7258.33
900.644	7242.96
900.959	7272.79
901.273	7227.37
901.588	7210.42
901.902	7196.63
902.216	7164.09
902.531	7160.25
902.845	7121.38
903.159	7056.07
903.473	7032.34
903.787	7028.95
904.101	6946.47
904.415	6936.07
904.729	6980.82
905.042	6875.74
905.356	6862.86
905.67	6853.82
905.984	6821.5
906.297	6890.2
906.611	6793.71
906.924	6726.14
907.237	6718.68
907.551	6711.22
907.864	6702.86
908.177	6648.85
908.491	6645.01
908.804	6644.33
909.117	6592.58
909.43	6535.63
909.743	6493.83
910.056	6514.39
910.368	6468.74
910.681	6492.92
910.994	6426.03
911.307	6384.68
911.619	6395.3
911.932	6336.99
912.244	6298.35
912.557	6287.05
912.869	6260.84
913.181	6254.74
913.494	6207.05
913.806	6169.99
914.118	6167.06
914.43	6085.7
914.742	6134.97
915.054	6081.63
915.366	6026.04
915.678	6111.92
915.99	5998.92
916.302	6004.12
916.613	5939.49
916.925	5938.13
917.236	5917.8
917.548	5930.45
917.859	5895.88
918.171	5835.09
918.482	5841.41
918.794	5793.05
919.105	5797.57
919.416	5813.17
919.727	5733.62
920.038	5753.96
920.349	5656.56
920.66	5605.49
920.971	5671.93
921.282	5668.54
921.593	5644.13
921.903	5547.64
922.214	5544.92
922.525	5458.15
922.835	5518.26
923.146	5428.09
923.456	5445.27
923.767	5420.41
924.077	5391.71
924.387	5380.86
924.697	5415.44
925.008	5381.31
925.318	5347.42
925.628	5366.62
925.938	5261.09
926.248	5303.8
926.558	5238.27
926.867	5198.95
927.177	5183.13
927.487	5152.39
927.796	5101.32
928.106	5104.03
928.416	5141.09
928.725	5101.55
929.034	5063.36
929.344	5098.16
929.653	5059.51
929.962	4997.82
930.271	4982
930.581	4954.88
930.89	4930.93
931.199	4888.9
931.508	4934.32
931.817	4930.25
932.125	4848.9
932.434	4806.87
932.743	4830.37
933.051	4797.15
933.36	4758.5
933.669	4682.8
933.977	4720.09
934.286	4662.24
934.594	4716.47
934.902	4686.64
935.21	4648.68
935.519	4644.84
935.827	4617.94
936.135	4593.99
936.443	4586.31
936.751	4558.28
937.059	4542.01
937.367	4453.65
937.674	4474.22
937.982	4483.71
938.29	4453.2
938.597	4470.38
938.905	4392.19
939.213	4406.42
939.52	4367.55
939.827	4407.55
940.135	4365.29
940.442	4342.47
940.749	4343.83
941.056	4319.65
941.363	4290.95
941.67	4235.13
941.977	4234.68
942.284	4177.05
942.591	4208.91
942.898	4194
943.205	4176.6
943.511	4129.82
943.818	4139.76
944.125	4116.04
944.431	4061.57
944.738	4089.6
945.044	4073.78
945.35	4013.89
945.657	3987.23
945.963	4028.35
946.269	3989.49
946.575	4003.27
946.881	3961.24
947.187	3942.48
947.493	3948.58
947.799	3929.6
948.105	3859.55
948.41	3845.31
948.716	3862.71
949.022	3832.88
949.327	3800.79
949.633	3808.93
949.938	3793.11
950.244	3772.77
950.549	3715.37
950.854	3760.56
951.16	3692.32
951.465	3735.71
951.77	3683.5
952.075	3695.26
952.38	3695.71
952.685	3651.42
952.99	3643.96
953.294	3626.56
953.599	3579.55
953.904	3610.06
954.209	3558.54
954.513	3549.5
954.818	3543.4
955.122	3499.55
955.426	3516.96
955.731	3502.04
956.035	3449.84
956.339	3453.68
956.643	3465.88
956.948	3401.7
957.252	3389.95
957.556	3384.53
957.86	3394.02
958.163	3365.55
958.467	3351.76
958.771	3388.82
959.075	3365.32
959.378	3309.5
959.682	3333.68
959.985	3303.18
960.289	3276.06
960.592	3250.75
960.896	3268.6
961.199	3219.79
961.502	3237.87
961.805	3215.72
962.108	3192.9
962.411	3184.08
962.714	3170.75
963.017	3148.15
963.32	3113.8
963.623	3138.43
963.926	3128.27
964.228	3096.18
964.531	3073.13
964.833	3060.92
965.136	3021.38
965.438	3062.5
965.741	3022.28
966.043	3016.4
966.345	2988.61
966.648	2985.67
966.95	3015.73
967.252	2979.79
967.554	2982.96
967.856	2958.1
968.158	2866.8
968.46	2918.55
968.761	2929.63
969.063	2919.46
969.365	2908.38
969.666	2891.44
969.968	2853.24
970.269	2810.76
970.571	2841.27
970.872	2815.96
971.174	2777.77
971.475	2766.69
971.776	2803.53
972.077	2751.55
972.378	2772.79
972.679	2749.07
972.98	2718.56
973.281	2765.79
973.582	2688.28
973.883	2706.81
974.183	2683.98
974.484	2675.62
974.785	2665.45
975.085	2637.2
975.386	2694.83
975.686	2639.92
975.986	2655.74
976.287	2616.41
976.587	2575.29
976.887	2573.25
977.187	2552.46
977.487	2576.19
977.787	2532.57
978.087	2547.49
978.387	2538.22
978.687	2532.12
978.987	2519.69
979.286	2492.58
979.586	2486.93
979.885	2468.17
980.185	2432.01
980.484	2414.16
980.784	2484.67
981.083	2448.06
981.382	2439.7
981.682	2433.82
981.981	2416.65
982.28	2407.61
982.579	2411.45
982.878	2392.69
983.177	2347.72
983.475	2361.96
983.774	2369.19
984.073	2363.54
984.372	2316.08
984.67	2258.23
984.969	2329.64
985.267	2297.1
985.566	2281.06
985.864	2268.63
986.162	2237.44
986.461	2260.04
986.759	2243.32
987.057	2238.35
987.355	2231.79
987.653	2235.86
987.951	2216.42
988.249	2180.72
988.547	2206.93
988.844	2181.85
989.142	2145.01
989.44	2141.17
989.737	2122.42
990.035	2143.21
990.332	2125.35
990.63	2142.98
990.927	2104.79
991.224	2110.21
991.521	2092.81
991.819	2081.97
992.116	2061.85
992.413	2055.75
992.71	2026.83
993.006	2027.05
993.303	2030.44
993.6	2012.81
993.897	2022.08
994.193	2021.18
994.49	1981.4
994.787	1974.85
995.083	1975.3
995.379	1954.28
995.676	1972.59
995.972	1947.05
996.268	1936.21
996.565	1902.53
996.861	1923.33
997.157	1892.82
997.453	1893.95
997.749	1879.71
998.044	1893.5
998.34	1896.89
998.636	1880.84
998.932	1860.95
999.227	1856.89
999.523	1860.05
999.818	1805.81
1000.114	1790
1000.409	1822.99
1000.704	1778.92
1001	1767.62
1001.295	1769.43
1001.59	1774.4
1001.885	1758.81
1002.18	1746.61
1002.475	1754.06
1002.77	1752.48
1003.065	1723.56
1003.359	1729.66
1003.654	1749.77
1003.949	1690.11
1004.243	1657.8
1004.538	1660.06
1004.832	1687.17
1005.127	1679.49
1005.421	1650.79
1005.715	1648.76
1006.009	1637.68
1006.304	1629.1
1006.598	1650.79
1006.892	1617.34
1007.186	1598.14
1007.48	1611.24
1007.773	1588.64
1008.067	1593.39
1008.361	1565.59
1008.655	1553.39
1008.948	1564.92
1009.242	1530.57
1009.535	1524.24
1009.829	1554.07
1010.122	1531.92
1010.415	1504.81
1010.708	1479.95
1011.001	1495.99
1011.295	1490.12
1011.588	1472.72
1011.881	1458.93
1012.173	1473.17
1012.466	1426.84
1012.759	1427.07
1013.052	1452.6
1013.344	1432.49
1013.637	1422.32
1013.93	1408.76
1014.222	1416.9
1014.514	1410.57
1014.807	1380.97
1015.099	1394.07
1015.391	1371.48
1015.683	1368.54
1015.976	1361.76
1016.268	1343.91
1016.56	1326.73
1016.851	1344.81
1017.143	1363.34
1017.435	1333.28
1017.727	1322.89
1018.018	1328.99
1018.31	1280.63
1018.602	1284.92
1018.893	1284.02
1019.185	1279.5
1019.476	1267.3
1019.767	1258.71
1020.058	1256
1020.35	1216.45
1020.641	1233.4
1020.932	1254.42
1021.223	1198.6
1021.514	1215.32
1021.804	1177.36
1022.095	1202.21
1022.386	1180.07
1022.677	1187.98
1022.967	1180.52
1023.258	1160.63
1023.548	1197.47
1023.839	1180.52
1024.129	1144.81
1024.419	1134.19
1024.709	1109.11
1025	1150.01
1025.29	1144.81
1025.58	1114.08
1025.87	1112.95
1026.16	1097.58
1026.449	1100.3
1026.739	1067.53
1027.029	1061.43
1027.319	1064.82
1027.608	1064.82
1027.898	1048.77
1028.187	1058.04
1028.477	1056.46
1028.766	1029.79
1029.055	1052.61
1029.344	1012.16
1029.634	1013.97
1029.923	1028.43
1030.212	1009.45
1030.501	1020.75
1030.79	1015.78
1031.078	993.18
1031.367	954.54
1031.656	979.85
1031.945	976.91
1032.233	966.97
1032.522	974.42
1032.81	951.83
1033.099	961.32
1033.387	937.59
1033.675	940.07
1033.963	927.65
1034.251	937.59
1034.54	902.34
1034.828	907.98
1035.116	924.93
1035.403	894.65
1035.691	911.37
1035.979	868.44
1036.267	888.55
1036.554	887.87
1036.842	876.57
1037.129	856.23
1037.417	850.36
1037.704	853.75
1037.992	853.3
1038.279	852.17
1038.566	858.72
1038.853	858.72
1039.14	858.72
