Data from hue_120_FLMS001491_00032.txt Node
Date: Tue Feb 07 16:59:16 GMT 2017
User: dcchb
Spectrometer: FLMS00149
Trigger mode: 0
Integration Time (sec): 2.000000E-2
Scans to average: 10
Electric dark correction enabled: true
Nonlinearity correction enabled: false
Boxcar width: 0
XAxis mode: Wavelengths
Number of Pixels in Spectrum: 2048
>>>>>Begin Spectral Data<<<<<
341.393	-8.53
341.776	-8.53
342.16	-8.53
342.543	-49.21
342.927	-74.07
343.31	-72.03
343.693	-93.05
344.077	-68.87
344.46	-49.21
344.843	-70.9
345.226	-29.55
345.61	-30.23
345.993	-9.89
346.376	-12.82
346.759	30.56
347.142	25.14
347.525	27.85
347.908	68.53
348.291	68.76
348.674	97.91
349.057	117.79
349.44	132.03
349.823	123.44
350.206	176.78
350.588	188.53
350.971	192.14
351.354	224.23
351.737	223.55
352.119	243.21
352.502	268.3
352.884	263.78
353.267	274.4
353.65	306.04
354.032	318.24
354.414	302.87
354.797	315.98
355.179	328.86
355.562	327.05
355.944	356.66
356.326	340.39
356.709	337.9
357.091	341.29
357.473	345.36
357.855	331.35
358.238	351.46
358.62	338.8
359.002	318.24
359.384	335.87
359.766	337.22
360.148	355.53
360.53	346.71
360.912	323.89
361.294	348.97
361.676	368.41
362.057	358.24
362.439	344.68
362.821	358.47
363.203	318.24
363.584	313.04
363.966	323.89
364.348	322.76
364.729	322.53
365.111	324.57
365.493	317.34
365.874	316.88
366.256	301.29
366.637	327.96
367.019	319.82
367.4	349.43
367.781	326.15
368.163	314.4
368.544	325.25
368.925	308.3
369.306	321.63
369.688	318.01
370.069	320.5
370.45	308.3
370.831	309.88
371.212	331.8
371.593	329.77
371.974	316.43
372.355	312.14
372.736	318.69
373.117	312.36
373.498	336.54
373.879	320.05
374.26	300.84
374.641	319.37
375.021	317.56
375.402	336.54
375.783	355.98
376.163	346.26
376.544	330.9
376.925	323.44
377.305	323.89
377.686	325.47
378.066	329.99
378.447	341.29
378.827	337.45
379.208	321.86
379.588	327.28
379.968	326.15
380.349	336.54
380.729	337.45
381.109	344.23
381.489	347.62
381.87	331.35
382.25	352.59
382.63	331.12
383.01	353.04
383.39	366.83
383.77	348.52
384.15	342.65
384.53	357.34
384.91	338.8
385.29	352.14
385.67	346.49
386.049	357.11
386.429	355.98
386.809	346.94
387.189	380.39
387.568	382.42
387.948	363.44
388.328	347.62
388.707	363.66
389.087	378.58
389.466	382.87
389.846	378.13
390.225	377.67
390.605	388.07
390.984	374.06
391.363	385.58
391.743	366.37
392.122	391.68
392.501	399.14
392.881	419.48
393.26	369.54
393.639	400.95
394.018	388.29
394.397	395.75
394.776	384
395.155	405.47
395.534	400.27
395.913	373.61
396.292	413.83
396.671	428.75
397.05	403.44
397.429	395.3
397.808	416.32
398.186	393.27
398.565	407.73
398.944	411.57
399.323	413.15
399.701	415.64
400.08	392.36
400.458	409.09
400.837	425.81
401.215	427.84
401.594	416.77
401.972	421.29
402.351	426.71
402.729	431.68
403.107	443.21
403.486	449.31
403.864	429.88
404.242	424.9
404.62	428.75
404.999	423.1
405.377	451.57
405.755	445.24
406.133	440.04
406.511	433.72
406.889	450.44
407.267	450.89
407.645	461.97
408.023	458.12
408.401	454.96
408.779	455.19
409.156	490.67
409.534	475.3
409.912	475.52
410.29	473.72
410.667	472.13
411.045	484.56
411.422	493.83
411.8	493.15
412.178	493.15
412.555	497.44
412.933	490.67
413.31	491.79
413.687	521.62
414.065	489.76
414.442	507.84
414.819	514.17
415.197	513.72
415.574	518.46
415.951	547.61
416.328	551
416.705	527.05
417.082	531.12
417.46	528.4
417.837	544.67
418.214	540.61
418.591	548.52
418.967	588.97
419.344	555.52
419.721	558.46
420.098	559.82
420.475	555.52
420.852	560.49
421.228	573.83
421.605	583.09
421.982	585.13
422.358	593.94
422.735	583.77
423.111	610.89
423.488	615.18
423.864	612.7
424.241	610.21
424.617	614.5
424.994	597.1
425.37	603.2
425.746	611.11
426.123	631.45
426.499	608.85
426.875	637.55
427.251	623.32
427.627	649.98
428.003	647.27
428.379	665.58
428.756	675.29
429.132	672.36
429.507	688.4
429.883	684.78
430.259	694.95
430.635	665.58
431.011	672.81
431.387	683.43
431.763	701.96
432.138	702.86
432.514	724.33
432.89	728.4
433.265	750.09
433.641	733.37
434.016	741.51
434.392	750.77
434.767	761.39
435.143	783.09
435.518	777.89
435.894	804.1
436.269	786.7
436.644	779.92
437.02	802.3
437.395	799.81
437.77	803.43
438.145	840.71
438.52	829.87
438.895	838.68
439.271	833.71
439.646	820.15
440.021	853.59
440.395	871.67
440.77	837.32
441.145	868.51
441.52	901.05
441.895	872.8
442.27	880.49
442.645	891.56
443.019	899.92
443.394	887.26
443.769	915.29
444.143	894.27
444.518	920.26
444.892	902.41
445.267	923.87
445.641	940.6
446.016	926.59
446.39	936.98
446.764	932.24
447.139	919.81
447.513	952.12
447.887	963.42
448.262	974.49
448.636	982.18
449.01	995.28
449.384	989.86
449.758	986.25
450.132	994.15
450.506	1009.97
450.88	1014.27
451.254	1023.76
451.628	1058.56
452.002	1052.01
452.376	1044.77
452.75	1050.88
453.123	1057.88
453.497	1069.63
453.871	1087.49
454.244	1110.31
454.618	1129.07
454.992	1127.94
455.365	1156.64
455.739	1163.19
456.112	1178.78
456.486	1195.96
456.859	1192.57
457.232	1202.51
457.606	1216.3
457.979	1213.58
458.352	1277.09
458.725	1272.57
459.099	1308.5
459.472	1302.85
459.845	1296.97
460.218	1335.39
460.591	1364.77
460.964	1339.68
461.337	1389.4
461.71	1402.05
462.083	1407.93
462.456	1410.64
462.829	1423.97
463.201	1434.82
463.574	1452.9
463.947	1477.31
464.32	1500.36
464.692	1533.58
465.065	1584.2
465.438	1553.69
465.81	1592.33
466.183	1589.85
466.555	1607.7
466.928	1661.26
467.3	1669.62
467.672	1688.6
468.045	1758.65
468.417	1767.02
468.789	1761.37
469.161	1783.74
469.534	1824.42
469.906	1874.58
470.278	1886.56
470.65	1917.75
471.022	1974.92
471.394	2008.82
471.766	2059.89
472.138	2070.51
472.51	2113.9
472.882	2182.37
473.253	2260.56
473.625	2213.33
473.997	2295.14
474.369	2333.78
474.74	2391.63
475.112	2428.24
475.484	2507.79
475.855	2529.26
476.227	2569.25
476.598	2662.81
476.97	2691.96
477.341	2821.9
477.713	2852.41
478.084	2952.52
478.455	3023.48
478.827	3108.45
479.198	3190.93
479.569	3229.12
479.94	3317.71
480.311	3419.4
480.682	3478.16
481.053	3670.02
481.424	3675.21
481.795	3797.92
482.166	3880.41
482.537	3995.43
482.908	4110.91
483.279	4235.2
483.65	4341.64
484.021	4448.08
484.391	4559.03
484.762	4648.07
485.133	4728.97
485.503	4864.56
485.874	5034.73
486.244	5076.76
486.615	5291.67
486.985	5390.42
487.356	5520.59
487.726	5582.28
488.097	5788.83
488.467	5878.09
488.837	6097.98
489.207	6212.1
489.578	6312.21
489.948	6511.75
490.318	6628.81
490.688	6757.62
491.058	6942.02
491.428	7132.52
491.798	7242.35
492.168	7399.18
492.538	7520.54
492.908	7669.46
493.278	7839.62
493.648	7898.61
494.017	8064.25
494.387	8169.56
494.757	8365.49
495.126	8478.03
495.496	8584.69
495.866	8690
496.235	8880.05
496.605	8956.66
496.974	9111.23
497.344	9215.86
497.713	9322.98
498.082	9488.39
498.452	9582.63
498.821	9769.97
499.19	9796.41
499.559	9965.67
499.928	10049.74
500.298	10162.28
500.667	10330.41
501.036	10391.65
501.405	10423.96
501.774	10493.57
502.143	10674.35
502.512	10759.1
502.88	10877.96
503.249	10889.04
503.618	11064.4
503.987	11158.18
504.356	11229.37
504.724	11307.78
505.093	11401.34
505.462	11415.35
505.83	11459.42
506.199	11614.44
506.567	11853.98
506.936	11782.35
507.304	11911.83
507.672	12037.48
508.041	12096.01
508.409	12173.97
508.777	12253.29
509.145	12303.69
509.514	12346.85
509.882	12442.22
510.25	12471.37
510.618	12515.66
510.986	12545.94
511.354	12708.87
511.722	12820.28
512.09	12891.02
512.458	12878.81
512.826	12928.76
513.193	13022.99
513.561	13023.67
513.929	13059.37
514.297	13188.64
514.664	13328.29
515.032	13258.24
515.4	13459.14
515.767	13371.91
516.135	13412.59
516.502	13423.43
516.869	13603.54
517.237	13599.92
517.604	13639.25
517.972	13608.29
518.339	13753.37
518.706	13688.06
519.073	13772.58
519.44	13846.25
519.808	13921.95
520.175	13864.78
520.542	14087.82
520.909	14095.05
521.276	14015.96
521.643	14156.75
522.009	14133.47
522.376	14324.88
522.743	14191.77
523.11	14321.49
523.477	14407.14
523.843	14415.27
524.21	14591.54
524.577	14566.45
524.943	14589.73
525.31	14621.37
525.676	14739.78
526.043	14670.18
526.409	14703.62
526.776	14751.76
527.142	14762.83
527.508	14916.95
527.874	14871.76
528.241	14848.48
528.607	14918.76
528.973	14914.47
529.339	14973.45
529.705	14986.1
530.071	14980.91
530.437	15034.92
530.803	15128.02
531.169	15110.17
531.535	15065.88
531.901	15041.69
532.267	15097.29
532.632	15166.89
532.998	15042.37
533.364	15121.01
533.73	15018.19
534.095	15036.5
534.461	15140.9
534.826	15083.28
535.192	15085.76
535.557	15158.98
535.923	15072.88
536.288	15104.07
536.653	15017.97
537.019	15024.97
537.384	14943.17
537.749	14937.52
538.114	14966.89
538.479	14870.63
538.845	14895.03
539.21	14759.44
539.575	14831.98
539.94	14886.44
540.305	14837.41
540.67	14771.87
541.034	14776.39
541.399	14723.96
541.764	14695.72
542.129	14691.2
542.494	14723.74
542.858	14638.77
543.223	14607.58
543.587	14655.94
543.952	14565.1
544.316	14549.5
544.681	14473.8
545.045	14472.9
545.41	14500.92
545.774	14458.89
546.138	14403.52
546.503	14484.87
546.867	14341.37
547.231	14387.93
547.595	14347.93
547.959	14325.1
548.324	14232.68
548.688	14288.95
549.052	14208.72
549.416	14232
549.779	14136.41
550.143	14151.32
550.507	14239
550.871	14153.36
551.235	14056.18
551.599	14087.82
551.962	14016.86
552.326	14007.15
552.689	14063.87
553.053	13945
553.417	13984.55
553.78	14070.65
554.143	14007.15
554.507	13920.82
554.87	13994.26
555.234	13978.22
555.597	13889.86
555.96	13862.74
556.323	13872.46
556.686	13857.09
557.05	13885.57
557.413	13904.55
557.776	13888.73
558.139	13836.98
558.502	13863.87
558.865	13894.61
559.228	13907.71
559.59	13895.51
559.953	13847.38
560.316	13957.88
560.679	13884.44
561.041	13882.63
561.404	13917.88
561.767	14006.47
562.129	13902.29
562.492	13995.17
562.854	13927.37
563.217	13883.08
563.579	13892.35
563.941	14034.94
564.304	13983.87
564.666	14052.34
565.028	14067.26
565.39	14077.43
565.753	14082.4
566.115	14094.83
566.477	14141.61
566.839	14167.37
567.201	14177.54
567.563	14213.02
567.925	14247.14
568.287	14149.74
568.648	14149.06
569.01	14241.49
569.372	14282.84
569.734	14209.4
570.095	14330.3
570.457	14324.2
570.819	14288.95
571.18	14356.06
571.542	14357.42
571.903	14323.75
572.265	14373.01
572.626	14452.11
572.987	14402.62
573.349	14439.45
573.71	14494.82
574.071	14487.81
574.432	14426.34
574.794	14550.63
575.155	14449.39
575.516	14580.01
575.877	14510.64
576.238	14571.65
576.599	14567.13
576.96	14447.36
577.32	14537.75
577.681	14525.55
578.042	14540.01
578.403	14513.8
578.763	14641.03
579.124	14517.19
579.485	14522.84
579.845	14635.15
580.206	14577.53
580.566	14502.05
580.927	14617.3
581.287	14579.56
581.648	14571.2
582.008	14564.87
582.368	14523.52
582.728	14573.01
583.089	14522.61
583.449	14561.48
583.809	14549.96
584.169	14516.06
584.529	14560.8
584.889	14626.11
585.249	14515.38
585.609	14458.43
585.969	14586.34
586.329	14449.85
586.688	14531.43
587.048	14437.42
587.408	14435.38
587.768	14464.31
588.127	14441.48
588.487	14328.27
588.846	14494.36
589.206	14384.09
589.565	14437.19
589.925	14380.7
590.284	14439
590.643	14446.68
591.003	14407.14
591.362	14513.57
591.721	14385.67
592.08	14401.71
592.44	14375.5
592.799	14389.06
593.158	14368.27
593.517	14378.66
593.876	14386.12
594.235	14346.8
594.593	14356.06
594.952	14339.79
595.311	14315.61
595.67	14305.44
596.029	14377.08
596.387	14315.16
596.746	14319
597.104	14255.95
597.463	14211.21
597.822	14370.53
598.18	14326.23
598.538	14275.39
598.897	14305.9
599.255	14142.06
599.613	14490.07
599.972	14298.44
600.33	14293.69
600.688	14218.67
601.046	14330.53
601.404	14426.34
601.762	14324.43
602.12	14361.49
602.478	14414.59
602.836	14286.91
603.194	14292.56
603.552	14277.65
603.91	14283.75
604.268	14332.34
604.625	14312.45
604.983	14300.25
605.341	14283.97
605.698	14389.73
606.056	14290.53
606.413	14283.97
606.771	14361.26
607.128	14311.77
607.485	14308.83
607.843	14338.89
608.2	14363.75
608.557	14464.53
608.914	14326.01
609.272	14427.47
609.629	14411.88
609.986	14433.8
610.343	14378.44
610.7	14449.39
611.057	14458.66
611.414	14456.17
611.771	14448.94
612.127	14489.17
612.484	14500.92
612.841	14535.95
613.198	14469.28
613.554	14566.45
613.911	14638.54
614.267	14563.74
614.624	14635.15
614.98	14620.69
615.337	14601.25
615.693	14663.85
616.05	14631.99
616.406	14811.19
616.762	14633.12
617.118	14701.59
617.475	14654.81
617.831	14648.48
618.187	14697.3
618.543	14687.13
618.899	14748.14
619.255	14789.72
619.611	14702.04
619.967	14752.89
620.323	14727.35
620.678	14822.94
621.034	14752.66
621.39	14792.44
621.746	14738.2
622.101	14790.63
622.457	14764.87
622.812	14757.41
623.168	14718.77
623.523	14736.62
623.879	14834.47
624.234	14746.11
624.589	14785.2
624.945	14791.08
625.3	14761.7
625.655	14779.78
626.01	14755.6
626.365	14817.97
626.72	14728.93
627.075	14692.33
627.43	14660.91
627.785	14686
628.14	14740.01
628.495	14783.17
628.85	14732.55
629.205	14692.1
629.559	14776.39
629.914	14664.53
630.269	14726
630.623	14636.28
630.978	14626.11
631.332	14710.4
631.687	14642.16
632.041	14641.25
632.396	14690.52
632.75	14601.25
633.104	14625.89
633.459	14636.51
633.813	14552.22
634.167	14477.19
634.521	14499.34
634.875	14509.96
635.229	14555.83
635.583	14406.46
635.937	14366.01
636.291	14341.6
636.645	14384.31
636.999	14386.57
637.352	14381.6
637.706	14309.06
638.06	14281.71
638.413	14379.34
638.767	14377.08
639.121	14343.86
639.474	14264.54
639.828	14192.9
640.181	14236.97
640.534	14258.44
640.888	14214.82
641.241	14185.22
641.594	14253.92
641.947	14283.97
642.301	14169.4
642.654	14236.74
643.007	14114.49
643.36	14191.55
643.713	14119.23
644.066	14222.06
644.419	14090.53
644.771	13971.44
645.124	13843.99
645.477	13904.1
645.83	13807.15
646.182	13751.11
646.535	13683.54
646.888	13697.55
647.24	13606.03
647.593	13701.17
647.945	13660.04
648.298	13598.57
648.65	13597.21
649.002	13596.31
649.355	13583.43
649.707	13563.09
650.059	13655.29
650.411	13805.34
650.763	13844.66
651.115	13985.23
651.467	13924.21
651.819	13993.36
652.171	13934.38
652.523	13945.9
652.875	13899.13
653.227	13766.25
653.578	13964.21
653.93	13985
654.282	13812.57
654.633	13901.84
654.985	13879.47
655.337	13873.59
655.688	14002.85
656.039	13985.45
656.391	13841.5
656.742	13950.42
657.094	13876.08
657.445	14012.57
657.796	13933.93
658.147	13869.52
658.498	13811.22
658.849	13957.66
659.2	13965.34
659.551	13968.95
659.902	13987.26
660.253	13855.06
660.604	13964.66
660.955	13827.94
661.306	13987.26
661.656	13928.28
662.007	13920.82
662.358	13919.69
662.708	13902.29
663.059	13938.67
663.409	13810.54
663.76	13905
664.11	13876.75
664.461	13976.64
664.811	14019.12
665.161	13939.35
665.511	13856.19
665.862	14048.73
666.212	13937.09
666.562	13956.98
666.912	13933.25
667.262	13907.49
667.612	13941.61
667.962	13965.79
668.312	13981.84
668.662	13995.39
669.011	14002.63
669.361	13886.02
669.711	13859.35
670.06	13869.75
670.41	13944.32
670.76	13896.87
671.109	13915.85
671.459	13905.68
671.808	13866.81
672.157	13822.29
672.507	13850.31
672.856	13816.42
673.205	13826.81
673.554	13870.2
673.904	13818.45
674.253	13891.67
674.602	13855.29
674.951	13620.26
675.3	13560.38
675.649	13809.86
675.998	13752.24
676.346	13719.92
676.695	13701.17
677.044	13582.07
677.393	13694.61
677.741	13681.05
678.09	13672.01
678.438	13592.92
678.787	13602.41
679.135	13627.95
679.484	13576.42
679.832	13555.86
680.181	13532.58
680.529	13531.68
680.877	13436.09
681.225	13464.11
681.573	13486.93
681.922	13401.06
682.27	13352.47
682.618	13312.47
682.966	13365.58
683.314	13361.29
683.661	13310.89
684.009	13271.12
684.357	13292.14
684.705	13268.63
685.053	13233.61
685.4	13126.27
685.748	13117.45
686.095	13033.39
686.443	13121.07
686.79	13003.78
687.138	13108.19
687.485	13084.01
687.832	12991.35
688.18	13009.88
688.527	12925.37
688.874	12886.27
689.221	12807.86
689.568	12847.85
689.915	12779.83
690.262	12811.92
690.609	12765.6
690.956	12697.8
691.303	12678.37
691.65	12534.87
691.997	12628.43
692.344	12479.95
692.69	12455.77
693.037	12426.85
693.383	12347.98
693.73	12419.16
694.077	12334.87
694.423	12310.02
694.769	12310.02
695.116	12249.68
695.462	12206.06
695.808	12141.43
696.155	12173.3
696.501	12038.38
696.847	12130.81
697.193	12005.39
697.539	11969.23
697.885	11915.22
698.231	11836.13
698.577	11832.29
698.923	11816.02
699.269	11802.46
699.614	11747.77
699.96	11644.5
700.306	11699.18
700.651	11560.88
700.997	11522.01
701.342	11529.7
701.688	11502.8
702.033	11436.14
702.379	11364.96
702.724	11450.38
703.069	11351.62
703.415	11263.49
703.76	11245.86
704.105	11255.35
704.45	11186.88
704.795	11129.03
705.14	11070.95
705.485	11111.63
705.83	11064.85
706.175	10996.83
706.52	11005.64
706.865	10992.54
707.209	10943.5
707.554	10851.97
707.899	10954.57
708.243	10805.42
708.588	10807
708.932	10705.31
709.277	10697.85
709.621	10749.6
709.966	10659.44
710.31	10703.96
710.654	10558.87
710.998	10584.86
711.342	10631.42
711.687	10536.73
712.031	10470.52
712.375	10461.02
712.719	10490.18
713.063	10439.33
713.407	10515.03
713.75	10475.26
714.094	10377.41
714.438	10332.44
714.782	10361.37
715.125	10259.22
715.469	10249.28
715.812	10272.1
716.156	10265.78
716.499	10226
716.843	10256.96
717.186	10166.12
717.53	10244.08
717.873	10244.98
718.216	10177.87
718.559	10149.39
718.902	10077.31
719.246	10107.36
719.589	10117.76
719.932	10040.02
720.275	10029.17
720.617	10078.89
720.96	9991.88
721.303	10104.2
721.646	10115.95
721.989	9907.14
722.331	10016.06
722.674	9904.2
723.016	9954.15
723.359	10004.09
723.701	9960.25
724.044	9902.39
724.386	9896.52
724.729	9857.65
725.071	9875.5
725.413	9892
725.755	9900.81
726.097	9813.36
726.439	9819.01
726.782	9802.74
727.124	9812.68
727.465	9757.77
727.807	9786.01
728.149	9695.17
728.491	9747.82
728.833	9771.1
729.175	9774.71
729.516	9777.65
729.858	9725.45
730.199	9740.14
730.541	9748.5
730.882	9693.59
731.224	9761.16
731.565	9644.32
731.906	9740.37
732.248	9683.87
732.589	9701.72
732.93	9710.08
733.271	9662.4
733.612	9663.76
733.953	9732
734.294	9684.32
734.635	9671.89
734.976	9726.13
735.317	9576.75
735.658	9688.39
735.999	9714.6
736.339	9654.49
736.68	9700.59
737.021	9739.46
737.361	9683.42
737.702	9706.24
738.042	9691.33
738.383	9618.11
738.723	9694.94
739.063	9689.07
739.404	9716.19
739.744	9652.23
740.084	9720.03
740.424	9673.47
740.764	9699.46
741.104	9710.99
741.444	9725.68
741.784	9781.27
742.124	9827.59
742.464	9771.55
742.804	9789.18
743.143	9782.62
743.483	9862.17
743.823	9855.16
744.162	9857.88
744.502	9934.71
744.841	9922.51
745.181	10001.38
745.52	9958.89
745.86	10056.06
746.199	10077.53
746.538	10095.61
746.877	10218.09
747.216	10250.86
747.556	10207.92
747.895	10314.59
748.234	10258.54
748.573	10343.74
748.911	10432.1
749.25	10455.83
749.589	10507.35
749.928	10611.53
750.267	10680.23
750.605	10756.16
750.944	10745.31
751.283	10869.38
751.621	10945.53
751.96	10950.5
752.298	11071.86
752.636	11168.35
752.975	11260.1
753.313	11334.67
753.651	11478.4
753.989	11590.94
754.327	11630.71
754.666	11681.33
755.004	11922.68
755.342	11992.74
755.679	12155.22
756.017	12181.21
756.355	12363.57
756.693	12479.5
757.031	12665.94
757.368	12722.89
757.706	12883.11
758.044	13029.54
758.381	13217.79
758.719	13307.05
759.056	13519.25
759.394	13644.9
759.731	13747.04
760.068	13941.38
760.405	14073.36
760.743	14178.44
761.08	14368.49
761.417	14522.61
761.754	14648.71
762.091	14881.02
762.428	15027.91
762.765	15073.56
763.102	15297.51
763.438	15439.65
763.775	15546.09
764.112	15823.14
764.449	15910.82
764.785	16047.54
765.122	16183.13
765.458	16296.8
765.795	16431.26
766.131	16518.94
766.467	16715.78
766.804	16844.36
767.14	16959.84
767.476	17097.91
767.812	17119.61
768.148	17501.74
768.485	17432.37
768.821	17607.28
769.157	17692.02
769.492	17786.71
769.828	17887.95
770.164	17863.54
770.5	17920.26
770.836	18203.42
771.171	18224.89
771.507	18269.86
771.842	18318.44
772.178	18471.21
772.513	18557.99
772.849	18677.53
773.184	18646.35
773.519	18744.42
773.855	18799.56
774.19	18842.95
774.525	18883.4
774.86	19044.75
775.195	18999.78
775.53	19206.78
775.865	19125.43
776.2	19102.38
776.535	19043.17
776.87	19128.59
777.205	19185.99
777.539	19186.67
777.874	19340.34
778.209	19190.06
778.543	19283.84
778.878	19241.81
779.212	19379.66
779.547	19246.56
779.881	19339.43
780.215	19375.59
780.55	19362.49
780.884	19327.68
781.218	19318.87
781.552	19431.41
781.886	19385.54
782.22	19363.39
782.554	19293.11
782.888	19261.7
783.222	19249.95
783.556	19230.74
783.889	19217.18
784.223	19123.17
784.557	19142.6
784.89	19146.45
785.224	19086.79
785.557	18994.81
785.891	19093.79
786.224	19018.77
786.558	19031.19
786.891	18914.59
787.224	19052.66
787.557	18895.38
787.891	18937.19
788.224	18852.44
788.557	18902.38
788.89	18876.17
789.223	18898.54
789.556	18752.33
789.888	18861.48
790.221	18651.32
790.554	18597.99
790.887	18706.01
791.219	18628.04
791.552	18622.17
791.884	18588.95
792.217	18503.75
792.549	18496.97
792.882	18327.71
793.214	18347.37
793.546	18404.77
793.879	18253.81
794.211	18183.31
794.543	18230.99
794.875	18234.83
795.207	18216.07
795.539	18203.87
795.871	18264.66
796.203	18068.73
796.535	17989.64
796.867	17958
797.198	17960.49
797.53	17940.83
797.862	17801.4
798.193	17812.47
798.525	17716.88
798.856	17781.06
799.188	17609.99
799.519	17487.51
799.85	17527.28
800.182	17567.96
800.513	17558.46
800.844	17371.35
801.175	17531.12
801.506	17469.43
801.837	17307.4
802.168	17351.92
802.499	17293.39
802.83	17200.96
803.161	17178.81
803.491	17103.34
803.822	17123.67
804.153	17093.17
804.483	16989.67
804.814	16920.29
805.145	16863.57
805.475	16908.31
805.805	16873.06
806.136	16903.57
806.466	16820.41
806.796	16854.08
807.126	16766.4
807.457	16702.89
807.787	16644.14
808.117	16588.09
808.447	16552.16
808.777	16583.58
809.107	16536.8
809.436	16373.19
809.766	16515.55
810.096	16319.85
810.426	16353.52
810.755	16344.26
811.085	16279.4
811.414	16341.55
811.744	16075.79
812.073	16053.42
812.403	16197.6
812.732	16085.51
813.061	16017.49
813.39	16008.45
813.719	16008.45
814.049	16038.05
814.378	15915.8
814.707	15866.76
815.036	15932.07
815.365	15822.24
815.693	15695.69
816.022	15649.81
816.351	15692.98
816.68	15516.03
817.008	15653.66
817.337	15405.75
817.665	15485.07
817.994	15534.11
818.322	15518.97
818.651	15459.76
818.979	15330.73
819.307	15505.64
819.636	15471.97
819.964	15359.43
820.292	15337.28
820.62	15442.59
820.948	15283.04
821.276	15304.29
821.604	15248.02
821.932	15375.25
822.259	15338.64
822.587	15322.59
822.915	15251.41
823.243	15351.29
823.57	15264.29
823.898	15319.65
824.225	15300.67
824.553	15377.05
824.88	15189.04
825.207	15368.92
825.535	15251.41
825.862	15336.6
826.189	15274.23
826.516	15314.23
826.843	15219.09
827.17	15358.97
827.497	15370.27
827.824	15247.11
828.151	15304.96
828.478	15281.91
828.805	15468.35
829.131	15275.14
829.458	15264.29
829.785	15228.58
830.111	15334.79
830.438	15274.68
830.764	15317.17
831.09	15389.93
831.417	15286.89
831.743	15387
832.069	15304.06
832.395	15305.87
832.722	15252.99
833.048	15270.84
833.374	15209.83
833.7	15199.66
834.026	15219.09
834.351	15193.56
834.677	15144.07
835.003	15250.73
835.329	15151.07
835.654	15151.52
835.98	15136.16
836.306	15128.25
836.631	15066.78
836.956	15173.67
837.282	15087.57
837.607	15008.48
837.932	15003.96
838.258	14998.98
838.583	14965.09
838.908	14886.22
839.233	14917.18
839.558	14897.29
839.883	14832.89
840.208	14721.7
840.533	14748.82
840.858	14732.78
841.182	14735.26
841.507	14706.56
841.832	14685.77
842.156	14615.27
842.481	14554.25
842.805	14550.41
843.13	14602.84
843.454	14519.22
843.778	14425.67
844.103	14442.61
844.427	14400.58
844.751	14409.17
845.075	14403.52
845.399	14344.99
845.723	14225.22
846.047	14217.76
846.371	14180.02
846.695	14107.26
847.019	13993.36
847.343	13970.08
847.666	13913.59
847.99	13923.98
848.313	13850.54
848.637	13814.61
848.96	13764.67
849.284	13699.81
849.607	13688.28
849.931	13498.68
850.254	13458.46
850.577	13529.42
850.9	13386.82
851.223	13407.39
851.546	13354.51
851.869	13220.73
852.192	13312.93
852.515	13169.43
852.838	13009.43
853.161	13141.86
853.483	13042.43
853.806	12963.78
854.129	12901.19
854.451	12881.75
854.774	12786.39
855.096	12770.12
855.419	12787.29
855.741	12709.78
856.063	12682.43
856.385	12591.14
856.708	12589.33
857.03	12568.09
857.352	12514.53
857.674	12516.11
857.996	12479.5
858.318	12392.95
858.64	12369
858.961	12409.45
859.283	12252.39
859.605	12167.65
859.926	12244.93
860.248	12154.54
860.57	12149.79
860.891	12161.54
861.212	12164.48
861.534	12051.04
861.855	11899.18
862.176	12008.78
862.498	11978.05
862.819	12003.58
863.14	11887.2
863.461	11933.75
863.782	11895.56
864.103	11854.66
864.424	11921.78
864.745	11889.01
865.065	11826.19
865.386	11746.64
865.707	11737.83
866.027	11791.84
866.348	11724.49
866.668	11760.88
866.989	11752.97
867.309	11562.92
867.63	11674.1
867.95	11597.27
868.27	11581.22
868.59	11601.79
868.91	11559.75
869.23	11591.84
869.55	11442.24
869.87	11603.82
870.19	11542.35
870.51	11521.11
870.83	11555.91
871.15	11473.65
871.469	11426.87
871.789	11469.81
872.109	11391.4
872.428	11256.94
872.748	11395.69
873.067	11361.57
873.386	11361.57
873.706	11324.5
874.025	11226.88
874.344	11236.15
874.663	11281.12
874.982	11255.58
875.301	11198.63
875.62	11148.69
875.939	11131.06
876.258	11243.38
876.577	11108.92
876.896	11128.13
877.214	10977.62
877.533	11039.99
877.852	11044.29
878.17	11015.36
878.489	11027.79
878.807	10979.43
879.125	10993.21
879.444	11031.18
879.762	10950.73
880.08	10985.98
880.398	10898.08
880.716	10915.7
881.034	10839.55
881.352	10914.35
881.67	10779.89
881.988	10830.28
882.306	10769.94
882.624	10768.59
882.941	10649.04
883.259	10594.13
883.577	10625.31
883.894	10653.11
884.212	10691.3
884.529	10723.62
884.846	10575.37
885.164	10511.64
885.481	10482.94
885.798	10558.65
886.115	10416.51
886.432	10458.76
886.75	10452.44
887.067	10411.53
887.383	10390.97
887.7	10396.39
888.017	10365.89
888.334	10368.15
888.651	10341.25
888.967	10245.89
889.284	10220.13
889.6	10185.1
889.917	10143.97
890.233	10192.78
890.55	10115.04
890.866	10061.26
891.182	10119.56
891.498	9999.57
891.815	10002.96
892.131	9966.57
892.447	9909.63
892.763	9907.14
893.079	9906.01
893.395	9805.67
893.71	9865.11
894.026	9847.93
894.342	9664.44
894.657	9710.08
894.973	9767.03
895.289	9658.33
895.604	9640.93
895.92	9578.34
896.235	9586.47
896.55	9572.46
896.865	9533.14
897.181	9461.28
897.496	9446.59
897.811	9443.88
898.126	9452.92
898.441	9309.42
898.756	9334.5
899.071	9242.53
899.386	9244.56
899.7	9202.07
900.015	9176.31
900.33	9119.82
900.644	9067.39
900.959	9066.71
901.273	9084.79
901.588	9025.36
901.902	9021.29
902.216	8941.06
902.531	8883.44
902.845	8885.02
903.159	8802.99
903.473	8797.79
903.787	8762.76
904.101	8764.12
904.415	8650
904.729	8691.13
905.042	8611.58
905.356	8626.5
905.67	8532.71
905.984	8530.23
906.297	8546.95
906.611	8488.87
906.924	8450.23
907.237	8452.26
907.551	8430.12
907.864	8395.54
908.177	8353.96
908.491	8324.36
908.804	8274.42
909.117	8173.4
909.43	8143.57
909.743	8149.22
910.056	8095.44
910.368	8058.83
910.681	8046.17
910.994	8087.98
911.307	7983.58
911.619	7908.78
911.932	7939.06
912.244	7891.83
912.557	7871.26
912.869	7777.48
913.181	7797.82
913.494	7724.6
913.806	7744.03
914.118	7717.59
914.43	7610.25
914.742	7597.6
915.054	7600.08
915.366	7532.97
915.678	7561.89
915.99	7513.76
916.302	7502.68
916.613	7456.58
916.925	7406.19
917.236	7392.18
917.548	7382.46
917.859	7313.99
918.171	7252.97
918.482	7233.76
918.794	7235.8
919.105	7223.82
919.416	7146.54
919.727	7117.38
920.038	7149.25
920.349	7078.51
920.66	7062.92
920.971	7094.79
921.282	6996.03
921.593	6930.5
921.903	6922.81
922.214	6953.09
922.525	6846.88
922.835	6826.54
923.146	6813.89
923.456	6855.92
923.767	6722.14
924.077	6754.91
924.387	6699.54
924.697	6635.81
925.008	6588.36
925.318	6606.44
925.628	6635.36
925.938	6619.32
926.248	6513.33
926.558	6510.62
926.867	6449.15
927.177	6448.02
927.487	6450.28
927.796	6396.95
928.106	6373
928.416	6327.12
928.725	6317.4
929.034	6333.45
929.344	6296.39
929.653	6285.09
929.962	6168.48
930.271	6215.03
930.581	6143.62
930.89	6175.49
931.199	6145.88
931.508	6132.78
931.817	6096.85
932.125	6047.36
932.434	6074.93
932.743	5975.27
933.051	5931.65
933.36	5984.08
933.669	5896.17
933.977	5867.25
934.286	5882.61
934.594	5848.72
934.902	5796.06
935.21	5850.52
935.519	5751.77
935.827	5746.12
936.135	5726.91
936.443	5686.46
936.751	5608.95
937.059	5651.43
937.367	5586.35
937.674	5583.86
937.982	5620.25
938.29	5562.85
938.597	5556.52
938.905	5491.44
939.213	5460.25
939.52	5421.38
939.827	5426.35
940.135	5415.06
940.442	5376.64
940.749	5375.06
941.056	5391.33
941.363	5293.48
941.67	5337.54
941.977	5281.27
942.284	5227.72
942.591	5215.06
942.898	5201.05
943.205	5169.41
943.511	5220.48
943.818	5171.45
944.125	5141.39
944.431	5068.62
944.738	5111.79
945.044	5052.58
945.35	5069.08
945.657	5008.29
945.963	4998.34
946.269	4949.98
946.575	4967.16
946.881	4899.36
947.187	4899.36
947.493	4914.05
947.799	4869.31
948.105	4805.35
948.41	4862.75
948.716	4827.73
949.022	4754.96
949.327	4783.21
949.633	4709.76
949.938	4684.23
950.244	4773.26
950.549	4660.5
950.854	4663.89
951.16	4634.06
951.465	4647.62
951.77	4591.35
952.075	4519.26
952.38	4547.28
952.685	4527.4
952.99	4530.78
953.294	4451.01
953.599	4473.16
953.904	4427.51
954.209	4408.3
954.513	4416.89
954.818	4415.31
955.122	4412.37
955.426	4385.93
955.731	4345.48
956.035	4342.54
956.339	4332.15
956.643	4295.76
956.948	4286.05
957.252	4278.36
957.556	4231.81
957.86	4213.28
958.163	4237.91
958.467	4176.44
958.771	4181.64
959.075	4126.95
959.378	4093.73
959.682	4152.49
959.985	4071.36
960.289	4102.55
960.592	4052.61
960.896	4038.14
961.199	4017.8
961.502	4043.79
961.805	3990.01
962.108	3950.01
962.411	3968.99
962.714	3934.64
963.017	3914.98
963.32	3910.91
963.623	3883.34
963.926	3851.71
964.228	3834.76
964.531	3839.05
964.833	3814.42
965.136	3785.95
965.438	3787.08
965.741	3799.05
966.043	3766.29
966.345	3767.87
966.648	3731.03
966.95	3729.9
967.252	3689
967.554	3654.88
967.856	3607.42
968.158	3617.36
968.46	3621.88
968.761	3630.24
969.063	3554.99
969.365	3578.49
969.666	3545.95
969.968	3559.06
970.269	3558.61
970.571	3543.92
970.872	3473.64
971.174	3457.14
971.475	3495.33
971.776	3454.43
972.077	3456.24
972.378	3438.61
972.679	3430.25
972.98	3415.79
973.281	3370.14
973.582	3357.48
973.883	3360.65
974.183	3340.76
974.484	3358.16
974.785	3329.91
975.085	3319.29
975.386	3265.73
975.686	3248.33
975.986	3268.22
976.287	3298.73
976.587	3202.23
976.887	3174.21
977.187	3241.78
977.487	3195.9
977.787	3171.72
978.087	3165.4
978.387	3156.81
978.687	3142.57
978.987	3079.52
979.286	3098.51
979.586	3105.29
979.885	3111.61
980.185	3053.08
980.484	3041.78
980.784	3017.83
981.083	2995.01
981.382	3006.08
981.682	2996.36
981.981	2995.46
982.28	2944.84
982.579	2964.95
982.878	2961.79
983.177	2915.23
983.475	2939.19
983.774	2907.1
984.073	2869.13
984.372	2858.96
984.67	2886.31
984.969	2808.34
985.267	2855.35
985.566	2814.45
985.864	2776.48
986.162	2815.58
986.461	2754.33
986.759	2748.68
987.057	2741
987.355	2699.87
987.653	2717.95
987.951	2724.05
988.249	2722.47
988.547	2701
988.844	2694
989.142	2711.62
989.44	2649.7
989.737	2630.27
990.035	2644.51
990.332	2610.16
990.63	2608.35
990.927	2618.97
991.224	2546.88
991.521	2570.61
991.819	2558.63
992.116	2552.31
992.413	2521.35
992.71	2548.69
993.006	2518.41
993.303	2494.23
993.6	2489.93
993.897	2462.59
994.193	2449.71
994.49	2452.2
994.787	2415.81
995.083	2397.96
995.379	2425.98
995.676	2421.69
995.972	2420.11
996.268	2389.6
996.565	2350.05
996.861	2364.97
997.157	2368.58
997.453	2327.45
997.749	2305.08
998.044	2294.01
998.34	2274.57
998.636	2296.04
998.932	2281.13
999.227	2258.53
999.523	2265.31
999.818	2283.39
1000.114	2232.77
1000.409	2223.5
1000.704	2202.26
1001	2200
1001.295	2203.16
1001.59	2133.56
1001.885	2165.88
1002.18	2142.37
1002.475	2155.03
1002.77	2167.91
1003.065	2130.85
1003.359	2084.07
1003.654	2097.4
1003.949	2084.52
1004.243	2067.57
1004.538	2040.68
1004.832	2067.35
1005.127	2059.21
1005.421	2001.59
1005.715	2011.08
1006.009	1981.02
1006.304	1956.62
1006.598	1945.32
1006.892	1951.42
1007.186	1940.57
1007.48	1939.67
1007.773	1943.06
1008.067	1950.29
1008.361	1871.42
1008.655	1853.79
1008.948	1878.2
1009.242	1852.44
1009.535	1813.57
1009.829	1866.67
1010.122	1868.48
1010.415	1833.45
1010.708	1814.92
1011.001	1843.4
1011.295	1783.06
1011.588	1799.56
1011.881	1800.01
1012.173	1740.8
1012.466	1756.39
1012.759	1761.59
1013.052	1731.76
1013.344	1742.61
1013.637	1735.38
1013.93	1688.83
1014.222	1702.84
1014.514	1688.83
1014.807	1681.37
1015.099	1660.8
1015.391	1659
1015.683	1659.67
1015.976	1612.67
1016.268	1620.58
1016.56	1615.16
1016.851	1621.26
1017.143	1617.87
1017.435	1575.38
1017.727	1571.31
1018.018	1543.52
1018.31	1536.29
1018.602	1543.29
1018.893	1524.76
1019.185	1511.88
1019.476	1547.13
1019.767	1485.89
1020.058	1491.99
1020.35	1491.09
1020.641	1482.5
1020.932	1485.67
1021.223	1462.39
1021.514	1452.22
1021.804	1437.76
1022.095	1435.95
1022.386	1441.6
1022.677	1400.7
1022.967	1393.24
1023.258	1396.63
1023.548	1392.56
1023.839	1385.33
1024.129	1372.9
1024.419	1382.84
1024.709	1345.33
1025	1347.82
1025.29	1324.54
1025.58	1308.5
1025.87	1311.89
1026.16	1328.84
1026.449	1307.14
1026.739	1294.49
1027.029	1292
1027.319	1286.8
1027.608	1307.37
1027.898	1260.14
1028.187	1227.14
1028.477	1235.96
1028.766	1249.97
1029.055	1209.06
1029.344	1216.52
1029.634	1210.19
1029.923	1190.08
1030.212	1181.72
1030.501	1183.98
1030.79	1191.21
1031.078	1180.82
1031.367	1169.52
1031.656	1155.73
1031.945	1142.4
1032.233	1132
1032.522	1148.27
1032.81	1121.83
1033.099	1117.09
1033.387	1131.1
1033.675	1075.73
1033.963	1107.15
1034.251	1106.69
1034.54	1101.95
1034.828	1059.46
1035.116	1073.7
1035.403	1081.61
1035.691	1054.04
1035.979	1060.82
1036.267	1031.44
1036.554	1058.56
1036.842	1028.28
1037.129	1014.04
1037.417	1006.58
1037.704	1011.56
1037.992	1023.53
1038.279	1012.91
1038.566	981.73
1038.853	981.73
1039.14	981.73
