Data from hue_260_FLMS001491_00077.txt Node
Date: Tue Feb 07 15:59:34 GMT 2017
User: dcchb
Spectrometer: FLMS00149
Trigger mode: 0
Integration Time (sec): 2.000000E-2
Scans to average: 10
Electric dark correction enabled: true
Nonlinearity correction enabled: false
Boxcar width: 0
XAxis mode: Wavelengths
Number of Pixels in Spectrum: 2048
>>>>>Begin Spectral Data<<<<<
341.393	-24.58
341.776	-24.58
342.16	-24.58
342.543	-62.09
342.927	-65.03
343.31	-79.49
343.693	-60.51
344.077	-69.77
344.46	-62.99
344.843	-70.68
345.226	-55.76
345.61	-18.7
345.993	-37
346.376	8.87
346.759	18.59
347.142	38.25
347.525	53.39
347.908	69.43
348.291	79.83
348.674	94.97
349.057	91.58
349.44	142.43
349.823	144.23
350.206	157.34
350.588	180.16
350.971	205.7
351.354	222.88
351.737	221.52
352.119	235.3
352.502	243.89
352.884	267.85
353.267	253.38
353.65	273.95
354.032	293.83
354.414	291.8
354.797	293.38
355.179	292.7
355.562	317.56
355.944	333.38
356.326	314.85
356.709	338.13
357.091	331.8
357.473	341.29
357.855	338.8
358.238	338.58
358.62	335.19
359.002	335.19
359.384	323.66
359.766	329.54
360.148	328.41
360.53	340.16
360.912	324.79
361.294	320.27
361.676	324.12
362.057	311.69
362.439	334.28
362.821	324.12
363.203	314.17
363.584	309.88
363.966	312.82
364.348	304.91
364.729	315.98
365.111	318.01
365.493	321.18
365.874	304
366.256	307.62
366.637	306.94
367.019	299.94
367.4	300.61
367.781	316.43
368.163	294.06
368.544	317.34
368.925	297.68
369.306	301.74
369.688	302.42
370.069	295.87
370.45	303.33
370.831	318.24
371.212	300.61
371.593	315.3
371.974	306.04
372.355	314.17
372.736	295.42
373.117	321.63
373.498	315.75
373.879	306.94
374.26	311.23
374.641	311.46
375.021	298.58
375.402	313.27
375.783	304
376.163	326.83
376.544	331.8
376.925	310.56
377.305	308.97
377.686	334.06
378.066	344.91
378.447	334.06
378.827	323.89
379.208	307.39
379.588	329.77
379.968	331.57
380.349	311.91
380.729	333.16
381.109	339.93
381.489	325.25
381.87	318.92
382.25	339.71
382.63	342.65
383.01	332.48
383.39	360.5
383.77	340.16
384.15	361.85
384.53	346.94
384.91	350.33
385.29	349.2
385.67	325.7
386.049	329.54
386.429	361.18
386.809	342.42
387.189	344.23
387.568	347.17
387.948	331.57
388.328	369.76
388.707	344.45
389.087	359.14
389.466	361.85
389.846	339.26
390.225	348.3
390.605	355.98
390.984	355.53
391.363	365.24
391.743	375.64
392.122	371.8
392.501	373.83
392.881	381.06
393.26	379.03
393.639	366.6
394.018	373.38
394.397	380.16
394.776	358.24
395.155	379.71
395.534	382.19
395.913	387.84
396.292	405.02
396.671	388.52
397.05	390.1
397.429	396.88
397.808	393.49
398.186	399.37
398.565	399.59
398.944	399.59
399.323	412.7
399.701	398.01
400.08	410.67
400.458	414.06
400.837	426.26
401.215	430.33
401.594	413.15
401.972	419.93
402.351	428.97
402.729	434.62
403.107	431.01
403.486	409.09
403.864	431.91
404.242	438.24
404.62	442.98
404.999	426.71
405.377	448.86
405.755	444.79
406.133	451.57
406.511	455.86
406.889	476.43
407.267	473.49
407.645	469.87
408.023	484.79
408.401	484.34
408.779	485.92
409.156	504.68
409.534	489.31
409.912	508.52
410.29	513.04
410.667	508.07
411.045	518.23
411.422	525.01
411.8	529.76
412.178	527.5
412.555	555.52
412.933	585.35
413.31	552.13
413.687	560.72
414.065	593.94
414.442	566.37
414.819	570.21
415.197	578.57
415.574	583.77
415.951	631.9
416.328	615.41
416.705	615.63
417.082	613.6
417.46	649.98
417.837	639.14
418.214	635.07
418.591	642.07
418.967	659.7
419.344	651.56
419.721	689.98
420.098	669.87
420.475	655.63
420.852	687.27
421.228	717.78
421.605	690.43
421.982	730.66
422.358	743.99
422.735	733.37
423.111	747.16
423.488	757.55
423.864	769.08
424.241	777.21
424.617	779.92
424.994	810.2
425.37	821.96
425.746	827.83
426.123	832.58
426.499	818.79
426.875	853.59
427.251	892.91
427.627	877.55
428.003	879.13
428.379	871.67
428.756	903.08
429.132	930.2
429.507	949.64
429.883	937.43
430.259	974.49
430.635	973.14
431.011	971.33
431.387	965.68
431.763	991.22
432.138	995.74
432.514	1031.22
432.89	1025.79
433.265	1066.7
433.641	1064.89
434.016	1063.98
434.392	1085
434.767	1141.27
435.143	1130.87
435.518	1149.18
435.894	1147.14
436.269	1179.46
436.644	1205.9
437.02	1200.25
437.395	1214.04
437.77	1237.76
438.145	1274.15
438.52	1284.54
438.895	1299.46
439.271	1309.4
439.646	1341.26
440.021	1369.06
440.395	1369.96
440.77	1352.34
441.145	1377.87
441.52	1399.79
441.895	1397.76
442.27	1434.82
442.645	1447.02
443.019	1440.47
443.394	1452.22
443.769	1469.4
444.143	1468.49
444.518	1517.08
444.892	1474.14
445.267	1519.79
445.641	1526.57
446.016	1553.69
446.39	1549.17
446.764	1540.35
447.139	1552.33
447.513	1608.6
447.887	1602.05
448.262	1579.68
448.636	1604.99
449.01	1620.13
449.384	1651.31
449.758	1654.25
450.132	1701.03
450.506	1680.92
450.88	1691.54
451.254	1722.72
451.628	1723.18
452.002	1721.82
452.376	1723.85
452.75	1786.45
453.123	1767.92
453.497	1767.02
453.871	1818.77
454.244	1846.79
454.618	1842.72
454.992	1844.75
455.365	1915.03
455.739	1929.27
456.112	1922.04
456.486	1973.11
456.859	1974.69
457.232	1969.72
457.606	1976.73
457.979	2000.46
458.352	2037.97
458.725	2073.9
459.099	2050.85
459.472	2073.67
459.845	2157.51
460.218	2152.77
460.591	2139.89
460.964	2173.11
461.337	2197.51
461.71	2254.69
462.083	2276.38
462.456	2261.01
462.829	2281.35
463.201	2313.44
463.574	2327.68
463.947	2369.03
464.32	2399.09
464.692	2435.92
465.065	2429.15
465.438	2458.07
465.81	2480.44
466.183	2503.04
466.555	2555.47
466.928	2585.3
467.3	2549.37
467.672	2577.62
468.045	2659.42
468.417	2687.22
468.789	2682.25
469.161	2718.86
469.534	2758.85
469.906	2807.67
470.278	2822.36
470.65	2821
471.022	2919.3
471.394	2914.78
471.766	2979.64
472.138	3009.24
472.51	3045.17
472.882	3101.22
473.253	3104.16
473.625	3117.49
473.997	3206.53
474.369	3203.36
474.74	3222.8
475.112	3325.17
475.484	3330.36
475.855	3369.91
476.227	3406.07
476.598	3494.2
476.97	3513.41
477.341	3579.4
477.713	3614.2
478.084	3657.14
478.455	3728.32
478.827	3756.57
479.198	3822.33
479.569	3850.12
479.94	3965.15
480.311	3992.72
480.682	4042.21
481.053	4111.13
481.424	4162.66
481.795	4210.57
482.166	4266.16
482.537	4287.63
482.908	4402.2
483.279	4440.84
483.65	4537.34
484.021	4537.11
484.391	4609.2
484.762	4641.06
485.133	4688.07
485.503	4734.62
485.874	4791.12
486.244	4803.55
486.615	4887.39
486.985	4948.63
487.356	4985.91
487.726	5050.09
488.097	5140.03
488.467	5166.02
488.837	5234.72
489.207	5288.51
489.578	5346.81
489.948	5394.49
490.318	5435.39
490.688	5432.46
491.058	5534.37
491.428	5549.52
491.798	5633.58
492.168	5751.09
492.538	5690.98
492.908	5808.94
493.278	5815.04
493.648	5851.43
494.017	5909.96
494.387	5904.31
494.757	5993.12
495.126	6017.3
495.496	6057.98
495.866	6123.74
496.235	6144.75
496.605	6228.37
496.974	6171.87
497.344	6274.47
497.713	6294.13
498.082	6367.57
498.452	6368.25
498.821	6359.89
499.19	6373.9
499.559	6471.98
499.928	6479.89
500.298	6476.95
500.667	6549.04
501.036	6494.35
501.405	6576.38
501.774	6551.75
502.143	6635.59
502.512	6647.34
502.88	6665.87
503.249	6654.57
503.618	6638.07
503.987	6729.37
504.356	6745.19
504.724	6791.29
505.093	6809.59
505.462	6845.98
505.83	6884.62
506.199	6887.11
506.567	6961.91
506.936	6899.08
507.304	6960.33
507.672	6973.21
508.041	7022.92
508.409	7002.36
508.777	7120.55
509.145	7121.68
509.514	7072.86
509.882	7143.82
510.25	7139.08
510.618	7192.18
510.986	7148.57
511.354	7207.55
511.722	7267.89
512.09	7313.99
512.458	7229.92
512.826	7274.89
513.193	7274.22
513.561	7292.52
513.929	7337.04
514.297	7417.94
514.664	7351.5
515.032	7345.85
515.4	7432.18
515.767	7437.15
516.135	7426.3
516.502	7347.21
516.869	7504.04
517.237	7470.82
517.604	7453.87
517.972	7529.12
518.339	7544.04
518.706	7502.68
519.073	7619.52
519.44	7561.21
519.808	7642.12
520.175	7577.26
520.542	7678.27
520.909	7660.19
521.276	7686.18
521.643	7690.48
522.009	7695.45
522.376	7756.69
522.743	7758.72
523.11	7834.65
523.477	7842.34
523.843	7815.67
524.21	7912.62
524.577	7937.02
524.943	7951.03
525.31	7893.41
525.676	7947.87
526.043	7975.67
526.409	7973.18
526.776	8022.9
527.142	8022.9
527.508	8061.77
527.874	8083.69
528.241	8134.31
528.607	8010.69
528.973	8121.42
529.339	8069.9
529.705	8094.76
530.071	8129.56
530.437	8209.11
530.803	8158.49
531.169	8132.27
531.535	8172.27
531.901	8200.97
532.267	8152.84
532.632	8204.81
532.998	8137.02
533.364	8221.99
533.73	8178.82
534.095	8203.91
534.461	8208.88
534.826	8203.68
535.192	8240.52
535.557	8230.8
535.923	8174.53
536.288	8245.94
536.653	8165.27
537.019	8140.18
537.384	8144.25
537.749	8163.91
538.114	8188.77
538.479	8167.98
538.845	8213.63
539.21	8152.16
539.575	8139.73
539.94	8117.36
540.305	8187.64
540.67	8181.54
541.034	8140.63
541.399	8177.92
541.764	8193.06
542.129	8183.8
542.494	8113.74
542.858	8154.42
543.223	8096.57
543.587	8117.13
543.952	8171.82
544.316	8056.79
544.681	8096.57
545.045	8099.28
545.41	8150.35
545.774	8168.43
546.138	8098.15
546.503	8107.64
546.867	8092.5
547.231	8106.96
547.595	8122.55
547.959	8087.98
548.324	8094.08
548.688	8064.7
549.052	8056.12
549.416	8078.71
549.779	8016.34
550.143	8053.86
550.507	8041.88
550.871	8036.68
551.235	8007.08
551.599	8098.6
551.962	8069.67
552.326	8072.61
552.689	8065.16
553.053	8009.11
553.417	7997.13
553.78	8116.45
554.143	8044.36
554.507	8054.31
554.87	8024.7
555.234	8113.52
555.597	7993.07
555.96	8105.15
556.323	8060.64
556.686	8059.96
557.05	8153.29
557.413	8083.91
557.776	8148.54
558.139	8133.18
558.502	8096.34
558.865	8111.93
559.228	8142.89
559.59	8165.04
559.953	8157.58
560.316	8196.45
560.679	8172.95
561.041	8191.48
561.404	8246.17
561.767	8237.35
562.129	8200.97
562.492	8340.85
562.854	8285.94
563.217	8271.93
563.579	8298.82
563.941	8358.71
564.304	8326.17
564.666	8407.07
565.028	8367.07
565.39	8402.77
565.753	8445.48
566.115	8395.09
566.477	8472.38
566.839	8534.07
567.201	8504.92
567.563	8526.84
567.925	8580.62
568.287	8603.45
568.648	8560.96
569.01	8587.85
569.372	8660.62
569.734	8598.02
570.095	8649.77
570.457	8664.46
570.819	8709.66
571.18	8732.48
571.542	8728.87
571.903	8742.88
572.265	8748.75
572.626	8807.28
572.987	8820.84
573.349	8893.16
573.71	8875.3
574.071	8872.59
574.432	8870.78
574.794	8927.73
575.155	8947.17
575.516	8949.65
575.877	8978.35
576.238	8956.66
576.599	9036.88
576.96	9045.69
577.32	9058.12
577.681	9058.35
578.042	9094.05
578.403	9068.07
578.763	9125.69
579.124	9124.34
579.485	9198.23
579.845	9232.13
580.206	9216.54
580.566	9293.6
580.927	9272.81
581.287	9330.21
581.648	9267.84
582.008	9363.2
582.368	9259.7
582.728	9421.73
583.089	9339.47
583.449	9321.62
583.809	9331.79
584.169	9379.7
584.529	9443.42
584.889	9448.85
585.249	9396.65
585.609	9456.76
585.969	9436.19
586.329	9487.72
586.688	9525.23
587.048	9487.72
587.408	9442.97
587.768	9501.05
588.127	9480.49
588.487	9501.73
588.846	9594.83
589.206	9636.19
589.565	9596.19
589.925	9638.22
590.284	9559.58
590.643	9605.91
591.003	9661.05
591.362	9639.13
591.721	9681.16
592.08	9710.08
592.44	9746.92
592.799	9649.52
593.158	9761.83
593.517	9705.34
593.876	9737.65
594.235	9731.1
594.593	9754.15
594.952	9810.87
595.311	9781.04
595.67	9783.53
596.029	9845.22
596.387	9800.02
596.746	9891.55
597.104	9826.46
597.463	9869.18
597.822	9842.51
598.18	9891.1
598.538	9861.72
598.897	9940.36
599.255	9845.67
599.613	9991.43
599.972	9973.35
600.33	9976.97
600.688	9915.28
601.046	9969.29
601.404	9944.2
601.762	10000.7
602.12	10030.98
602.478	9981.26
602.836	9998.44
603.194	9967.48
603.552	9978.55
603.91	9964.09
604.268	10010.64
604.625	10005.22
604.983	10028.95
605.341	9911.66
605.698	9996.4
606.056	10070.75
606.413	10023.97
606.771	10066.46
607.128	10131.54
607.485	10007.93
607.843	10010.19
608.2	10071.88
608.557	10128.38
608.914	10075.72
609.272	10159.11
609.629	10113.69
609.986	10207.92
610.343	10131.77
610.7	10219.45
611.057	10229.62
611.414	10161.15
611.771	10219.45
612.127	10202.95
612.484	10124.99
612.841	10183.07
613.198	10278.66
613.554	10262.16
613.911	10303.29
614.267	10262.16
614.624	10287.7
614.98	10201.14
615.337	10336.28
615.693	10320.92
616.05	10256.51
616.406	10381.93
616.762	10326.11
617.118	10303.51
617.475	10310.97
617.831	10389.61
618.187	10333.12
618.543	10374.92
618.899	10438.2
619.255	10431.42
619.611	10425.09
619.967	10394.36
620.323	10402.49
620.678	10435.71
621.034	10402.72
621.39	10401.82
621.746	10369.05
622.101	10465.09
622.457	10389.16
622.812	10393.91
623.168	10480.68
623.523	10474.13
623.879	10421.7
624.234	10404.75
624.589	10433.45
624.945	10374.92
625.3	10407.01
625.655	10452.89
626.01	10398.65
626.365	10362.5
626.72	10386.9
627.075	10400.01
627.43	10447.69
627.785	10388.03
628.14	10348.71
628.495	10357.07
628.85	10381.48
629.205	10342.61
629.559	10433.45
629.914	10335.6
630.269	10366.79
630.623	10379.44
630.978	10315.04
631.332	10292.67
631.687	10364.76
632.041	10325.66
632.396	10344.19
632.75	10239.11
633.104	10374.92
633.459	10196.4
633.813	10228.26
634.167	10274.81
634.521	10237.08
634.875	10303.51
635.229	10188.49
635.583	10231.88
635.937	10144.2
636.291	10195.72
636.645	10159.11
636.999	10148.26
637.352	10164.31
637.706	10067.36
638.06	10162.73
638.413	10045.67
638.767	10100.81
639.121	10122.73
639.474	10011.32
639.828	10004.99
640.181	9981.26
640.534	10015.61
640.888	10044.54
641.241	9996.63
641.594	9977.65
641.947	10033.46
642.301	9964.09
642.654	9927.25
643.007	10046.8
643.36	10017.19
643.713	10023.07
644.066	9987.14
644.419	9938.78
644.771	9882.73
645.124	9805.22
645.477	9797.76
645.83	9667.15
646.182	9666.92
646.535	9587.6
646.888	9600.03
647.24	9574.49
647.593	9669.41
647.945	9626.47
648.298	9595.06
648.65	9542.18
649.002	9501.28
649.355	9630.99
649.707	9584.66
650.059	9630.09
650.411	9724.32
650.763	9741.95
651.115	9799.8
651.467	9806.35
651.819	9782.4
652.171	9748.27
652.523	9685
652.875	9736.07
653.227	9813.13
653.578	9787.82
653.93	9799.12
654.282	9708.73
654.633	9718.45
654.985	9771.32
655.337	9801.83
655.688	9819.23
656.039	9814.71
656.391	9734.26
656.742	9800.02
657.094	9750.08
657.445	9850.64
657.796	9864.66
658.147	9802.06
658.498	9803.19
658.849	9823.75
659.2	9821.04
659.551	9799.35
659.902	9813.58
660.253	9790.76
660.604	9845.45
660.955	9733.36
661.306	9791.21
661.656	9851.32
662.007	9807.26
662.358	9824.2
662.708	9792.12
663.059	9768.39
663.409	9736.3
663.76	9858.78
664.11	9801.61
664.461	9773.13
664.811	9837.99
665.161	9811.55
665.511	9714.6
665.862	9810.42
666.212	9822.17
666.562	9854.49
666.912	9820.36
667.262	9808.39
667.612	9835.96
667.962	9742.63
668.312	9705.11
668.662	9858.55
669.011	9748.5
669.361	9723.64
669.711	9838.22
670.06	9726.81
670.41	9722.29
670.76	9736.75
671.109	9724.32
671.459	9769.97
671.808	9699.91
672.157	9740.59
672.507	9627.37
672.856	9662.63
673.205	9644.77
673.554	9743.98
673.904	9679.12
674.253	9650.65
674.602	9670.76
674.951	9551.67
675.3	9499.02
675.649	9644.55
675.998	9702.17
676.346	9641.84
676.695	9645.9
677.044	9585.34
677.393	9636.41
677.741	9595.28
678.09	9550.99
678.438	9549.86
678.787	9546.7
679.135	9570.2
679.484	9486.13
679.832	9536.98
680.181	9462.63
680.529	9554.38
680.877	9500.37
681.225	9495.85
681.573	9510.09
681.922	9411.79
682.27	9382.41
682.618	9452.92
682.966	9392.13
683.314	9452.01
683.661	9340.83
684.009	9400.49
684.357	9287.95
684.705	9310.77
685.053	9302.86
685.4	9243.2
685.748	9169.98
686.095	9233.03
686.443	9189.65
686.79	9084.34
687.138	9132.47
687.485	9182.87
687.832	9163.21
688.18	9090.89
688.527	9092.25
688.874	9036.88
689.221	9059.25
689.568	9009.09
689.915	9006.83
690.262	8984.45
690.609	8947.84
690.956	8880.27
691.303	8901.52
691.65	8888.64
691.997	8866.72
692.344	8746.72
692.69	8742.43
693.037	8787.62
693.383	8708.3
693.73	8703.33
694.077	8633.73
694.423	8674.86
694.769	8645.03
695.116	8619.04
695.462	8602.09
695.808	8527.74
696.155	8570.9
696.501	8532.49
696.847	8478.93
697.193	8400.29
697.539	8393.73
697.885	8368.42
698.231	8395.99
698.577	8326.62
698.923	8256.34
699.269	8219.95
699.614	8177.02
699.96	8178.6
700.306	8190.8
700.651	8153.06
700.997	8111.03
701.342	8125.27
701.688	8088.21
702.033	8019.73
702.379	8083.01
702.724	7948.1
703.069	7984.93
703.415	7883.47
703.76	7878.49
704.105	7870.58
704.45	7927.08
704.795	7815.22
705.14	7818.61
705.485	7835.1
705.83	7800.3
706.175	7768.67
706.52	7738.16
706.865	7707.65
707.209	7672.62
707.554	7630.59
707.899	7656.58
708.243	7621.1
708.588	7629.01
708.932	7535.23
709.277	7536.36
709.621	7527.09
709.966	7470.37
710.31	7587.65
710.654	7450.71
710.998	7430.6
711.342	7422.23
711.687	7400.09
712.031	7418.84
712.375	7372.97
712.719	7322.8
713.063	7351.5
713.407	7370.71
713.75	7313.08
714.094	7301.33
714.438	7324.61
714.782	7326.64
715.125	7250.04
715.469	7315.12
715.812	7251.84
716.156	7251.17
716.499	7235.8
716.843	7256.59
717.186	7200.09
717.53	7190.15
717.873	7153.54
718.216	7173.65
718.559	7108.57
718.902	7119.42
719.246	7070.15
719.589	7099.53
719.932	7095.92
720.275	7062.47
720.617	7084.16
720.96	7099.08
721.303	7064.5
721.646	6990.61
721.989	7071.06
722.331	7047.1
722.674	6993.09
723.016	7043.04
723.359	7033.77
723.701	7017.95
724.044	6983.15
724.386	6935.24
724.729	7001
725.071	6958.52
725.413	6982.92
725.755	6975.92
726.097	6942.92
726.439	6890.5
726.782	6931.85
727.124	6944.05
727.465	6896.15
727.807	6885.75
728.149	6900.21
728.491	6886.2
728.833	6942.02
729.175	6904.28
729.516	6828.8
729.858	6860.22
730.199	6919.87
730.541	6859.99
730.882	6899.99
731.224	6875.36
731.565	6870.16
731.906	6800.78
732.248	6891.85
732.589	6865.64
732.93	6799.65
733.271	6830.39
733.612	6860.67
733.953	6877.84
734.294	6824.06
734.635	6756.71
734.976	6844.4
735.317	6843.27
735.658	6820.22
735.999	6835.13
736.339	6849.37
736.68	6811.63
737.021	6867.22
737.361	6758.3
737.702	6883.27
738.042	6822.02
738.383	6799.88
738.723	6801.91
739.063	6781.12
739.404	6846.66
739.744	6862.47
740.084	6803.04
740.424	6838.52
740.764	6838.75
741.104	6914.22
741.444	6865.86
741.784	6856.83
742.124	6895.69
742.464	6909.71
742.804	6936.6
743.143	6898.63
743.483	6945.18
743.823	6956.03
744.162	6918.29
744.502	6939.99
744.841	6982.7
745.181	7008.91
745.52	7054.79
745.86	7084.16
746.199	7108.57
746.538	7091.17
746.877	7192.86
747.216	7190.38
747.556	7188.34
747.895	7286.19
748.234	7283.25
748.573	7250.49
748.911	7375.46
749.25	7358.96
749.589	7428.11
749.928	7468.33
750.267	7519.63
750.605	7619.07
750.944	7640.76
751.283	7659.52
751.621	7727.54
751.96	7763.69
752.298	7900.41
752.636	7900.64
752.975	7994.87
753.313	8059.28
753.651	8170.01
753.989	8267.18
754.327	8309.22
754.666	8366.39
755.004	8453.62
755.342	8547.4
755.679	8611.13
756.017	8645.48
756.355	8859.26
756.693	8920.73
757.031	9045.69
757.368	9094.28
757.706	9282.3
758.044	9346.03
758.381	9529.07
758.719	9585.12
759.056	9734.94
759.394	9823.53
759.731	9926.12
760.068	10061.26
760.405	10171.77
760.743	10297.86
761.08	10454.47
761.417	10488.14
761.754	10736.05
762.091	10774.69
762.428	10881.35
762.765	10986.89
763.102	11143.94
763.438	11252.42
763.775	11371.96
764.112	11541.9
764.449	11704.38
764.785	11776.47
765.122	11863.25
765.458	11987.31
765.795	12107.31
766.131	12290.81
766.467	12343.01
766.804	12356.57
767.14	12519.28
767.476	12631.14
767.812	12779.61
768.148	12841.98
768.485	12910
768.821	13046.95
769.157	12978.02
769.492	13224.34
769.828	13339.37
770.164	13388.18
770.5	13390.44
770.836	13546.82
771.171	13530.1
771.507	13658.68
771.842	13673.37
772.178	13752.46
772.513	13915.17
772.849	13944.1
773.184	13957.2
773.519	14079.23
773.855	14029.52
774.19	14110.65
774.525	14085.34
774.86	14241.72
775.195	14178.21
775.53	14307.02
775.865	14339.11
776.2	14267.48
776.535	14239.68
776.87	14319
777.205	14415.95
777.539	14339.79
777.874	14394.48
778.209	14392.45
778.543	14475.16
778.878	14408.04
779.212	14476.06
779.547	14466.57
779.881	14521.93
780.215	14514.03
780.55	14527.58
780.884	14589.5
781.218	14494.14
781.552	14505.66
781.886	14478.55
782.22	14486.23
782.554	14566.23
782.888	14419.79
783.222	14383.18
783.556	14437.87
783.889	14429.06
784.223	14354.71
784.557	14473.12
784.89	14452.33
785.224	14431.32
785.557	14380.7
785.891	14407.59
786.224	14342.73
786.558	14395.61
786.891	14360.36
787.224	14233.81
787.557	14270.87
787.891	14224.32
788.224	14269.74
788.557	14289.85
788.89	14229.96
789.223	14306.35
789.556	14233.13
789.888	14198.55
790.221	14077.43
790.554	14102.74
790.887	14035.85
791.219	14026.58
791.552	14043.98
791.884	14062.96
792.217	13990.88
792.549	13958.79
792.882	13895.51
793.214	13903.87
793.546	13950.42
793.879	13817.09
794.211	13809.64
794.543	13939.58
794.875	13775.51
795.207	13838.79
795.539	13805.57
795.871	13770.54
796.203	13655.06
796.535	13561.28
796.867	13475.18
797.198	13527.16
797.53	13585.46
797.862	13488.29
798.193	13578
798.525	13419.59
798.856	13446.93
799.188	13312.25
799.519	13380.5
799.85	13327.39
800.182	13255.98
800.513	13317.45
800.844	13163.78
801.175	13272.7
801.506	13253.27
801.837	13205.13
802.168	13059.15
802.499	13094.63
802.83	13073.39
803.161	12962.43
803.491	12998.36
803.822	13059.83
804.153	12949.09
804.483	12922.2
804.814	12754.3
805.145	12797.91
805.475	12782.32
805.805	12755.43
806.136	12800.85
806.466	12750.46
806.796	12769.21
807.126	12711.36
807.457	12570.8
807.787	12692.83
808.117	12595.88
808.447	12497.81
808.777	12465.72
809.107	12519.73
809.436	12499.39
809.766	12438.6
810.096	12521.99
810.426	12443.57
810.755	12440.41
811.085	12345.49
811.414	12295.55
811.744	12242.22
812.073	12221.2
812.403	12285.16
812.732	12223.24
813.061	12190.24
813.39	12209.23
813.719	12092.17
814.049	12184.37
814.378	12185.05
814.707	12070.02
815.036	12063.92
815.365	12043.36
815.693	11883.81
816.022	11987.76
816.351	11980.08
816.68	11905.51
817.008	11928.33
817.337	11771.05
817.665	11828.67
817.994	11801.33
818.322	11786.64
818.651	11709.81
818.979	11694.89
819.307	11697.83
819.636	11750.26
819.964	11613.31
820.292	11664.61
820.62	11682.01
820.948	11658.96
821.276	11675.68
821.604	11654.21
821.932	11628.68
822.259	11675
822.587	11596.36
822.915	11630.49
823.243	11710.71
823.57	11666.64
823.898	11645.85
824.225	11581.45
824.553	11587.32
824.88	11617.38
825.207	11667.55
825.535	11628.9
825.862	11689.24
826.189	11625.74
826.516	11731.05
826.843	11739.63
827.17	11701.22
827.497	11801.1
827.824	11685.17
828.151	11629.13
828.478	11671.39
828.805	11783.02
829.131	11621.45
829.458	11723.82
829.785	11699.64
830.111	11636.81
830.438	11674.78
830.764	11658.73
831.09	11737.6
831.417	11681.11
831.743	11652.41
832.069	11641.78
832.395	11647.89
832.722	11692.86
833.048	11628.23
833.374	11607.21
833.7	11658.51
834.026	11543.03
834.351	11580.77
834.677	11551.39
835.003	11566.08
835.329	11531.28
835.654	11507.55
835.98	11507.32
836.306	11547.78
836.631	11461.9
836.956	11445.41
837.282	11442.47
837.607	11514.56
837.932	11451.28
838.258	11468.68
838.583	11451.51
838.908	11345.29
839.233	11425.29
839.558	11350.49
839.883	11358.18
840.208	11381
840.533	11278.86
840.858	11297.39
841.182	11302.13
841.507	11312.98
841.832	11179.42
842.156	11195.24
842.481	11179.65
842.805	11197.95
843.13	11079.99
843.454	11083.38
843.778	11048.35
844.103	11095.36
844.427	11055.13
844.751	11025.08
845.075	11007.68
845.399	10881.58
845.723	10803.16
846.047	10918.87
846.371	10778.53
846.695	10804.97
847.019	10762.49
847.343	10711.19
847.666	10559.1
847.99	10539.67
848.313	10613.34
848.637	10527.92
848.96	10474.36
849.284	10432.1
849.607	10342.38
849.931	10390.74
850.254	10309.39
850.577	10257.87
850.9	10197.75
851.223	10124.54
851.546	10142.39
851.869	10076.85
852.192	10103.29
852.515	10040.47
852.838	9972.68
853.161	10072.33
853.483	9957.31
853.806	9861.04
854.129	9909.85
854.451	9857.88
854.774	9800.02
855.096	9806.35
855.419	9784.43
855.741	9774.71
856.063	9723.42
856.385	9692.46
856.708	9656.98
857.03	9623.76
857.352	9588.73
857.674	9563.19
857.996	9532.01
858.318	9468.28
858.64	9514.16
858.961	9421.05
859.283	9400.04
859.605	9331.56
859.926	9435.06
860.248	9374.05
860.57	9384.67
860.891	9394.61
861.212	9237.55
861.534	9340.38
861.855	9221.96
862.176	9220.15
862.498	9141.74
862.819	9226.03
863.14	9187.39
863.461	9219.48
863.782	9180.15
864.103	9129.53
864.424	9128.63
864.745	9113.26
865.065	9054.73
865.386	8995.3
865.707	9024.23
866.027	9099.7
866.348	9006.83
866.668	9002.31
866.989	9039.37
867.309	8881.86
867.63	8975.87
867.95	8965.47
868.27	8887.05
868.59	8878.92
868.91	8845.47
869.23	8833.5
869.55	8876.43
869.87	8852.25
870.19	8833.5
870.51	8912.82
870.83	8838.47
871.15	8751.92
871.469	8826.49
871.789	8821.52
872.109	8753.95
872.428	8740.17
872.748	8696.78
873.067	8725.93
873.386	8767.06
873.706	8729.54
874.025	8699.26
874.344	8556.44
874.663	8636.44
874.982	8615.65
875.301	8628.3
875.62	8581.3
875.939	8598.02
876.258	8613.84
876.577	8559.15
876.896	8565.26
877.214	8506.95
877.533	8577.68
877.852	8560.06
878.17	8535.65
878.489	8494.75
878.807	8515.31
879.125	8463.34
879.444	8439.16
879.762	8461.3
880.08	8386.28
880.398	8362.55
880.716	8445.71
881.034	8399.38
881.352	8412.04
881.67	8337.46
881.988	8358.71
882.306	8257.92
882.624	8266.96
882.941	8287.3
883.259	8189.67
883.577	8203.68
883.894	8197.13
884.212	8166.85
884.529	8181.99
884.846	8220.18
885.164	8114.87
885.481	8113.06
885.798	8138.15
886.115	8079.84
886.432	8077.58
886.75	8031.26
887.067	8056.57
887.383	7999.17
887.7	7956.68
888.017	7877.82
888.334	7944.03
888.651	7934.09
888.967	7868.78
889.284	7885.05
889.6	7917.14
889.917	7808.66
890.233	7786.07
890.55	7766.63
890.866	7791.26
891.182	7805.27
891.498	7708.78
891.815	7713.75
892.131	7647.31
892.447	7645.28
892.763	7618.61
893.079	7568.9
893.395	7552.17
893.71	7593.3
894.026	7534.1
894.342	7513.31
894.657	7461.56
894.973	7403.03
895.289	7497.26
895.604	7433.99
895.92	7366.19
896.235	7300.43
896.55	7346.08
896.865	7282.12
897.181	7261.79
897.496	7302.01
897.811	7235.8
898.126	7202.35
898.441	7263.59
898.756	7169.36
899.071	7140.43
899.386	7122.36
899.7	7095.69
900.015	7036.93
900.33	6981.12
900.644	6968.46
900.959	7028.12
901.273	7001.45
901.588	6943.83
901.902	6928.69
902.216	6866.99
902.531	6848.24
902.845	6821.35
903.159	6754
903.473	6828.13
903.787	6738.86
904.101	6730.95
904.415	6697.51
904.729	6688.47
905.042	6664.51
905.356	6568.02
905.67	6564.4
905.984	6620
906.297	6598.53
906.611	6541.35
906.924	6483.95
907.237	6510.85
907.551	6481.02
907.864	6394.69
908.177	6413.9
908.491	6368.02
908.804	6333
909.117	6335.48
909.43	6260
909.743	6257.29
910.056	6291.42
910.368	6244.19
910.681	6199.89
910.994	6153.12
911.307	6192.89
911.619	6128.03
911.932	6120.12
912.244	6074.25
912.557	6081.48
912.869	6052.55
913.181	5994.7
913.494	5965.1
913.806	5915.38
914.118	5984.98
914.43	5936.85
914.742	5927.36
915.054	5852.33
915.366	5791.54
915.678	5821.15
915.99	5789.51
916.302	5730.98
916.613	5766.46
916.925	5739.34
917.236	5708.83
917.548	5670.42
917.859	5705.22
918.171	5687.82
918.482	5651.43
918.794	5620.7
919.105	5581.6
919.416	5583.19
919.727	5536.86
920.038	5501.83
920.349	5475.39
920.66	5456.41
920.971	5498.89
921.282	5423.87
921.593	5399.01
921.903	5379.58
922.214	5348.84
922.525	5338.22
922.835	5292.12
923.146	5260.03
923.456	5322.4
923.767	5213.03
924.077	5243.76
924.387	5160.37
924.697	5158.11
925.008	5162.63
925.318	5143.42
925.628	5132.12
925.938	5144.33
926.248	5021.39
926.558	5068.17
926.867	5073.6
927.177	5054.61
927.487	4995.18
927.796	4985.01
928.106	4980.26
928.416	4945.01
928.725	4946.37
929.034	4884
929.344	4856.65
929.653	4893.71
929.962	4854.39
930.271	4827.95
930.581	4797.22
930.89	4800.38
931.199	4764.45
931.508	4738.69
931.817	4762.64
932.125	4753.6
932.434	4719.71
932.743	4675.87
933.051	4636.77
933.36	4583.21
933.669	4603.1
933.977	4573.72
934.286	4586.83
934.594	4569.88
934.902	4520.39
935.21	4513.38
935.519	4523.55
935.827	4518.36
936.135	4416.44
936.443	4407.85
936.751	4427.28
937.059	4427.28
937.367	4417.79
937.674	4372.6
937.982	4382.99
938.29	4292.6
938.597	4353.16
938.905	4302.77
939.213	4299.15
939.52	4255.76
939.827	4235.2
940.135	4246.27
940.442	4214.63
940.749	4226.16
941.056	4213.28
941.363	4133.96
941.67	4133.73
941.977	4104.58
942.284	4114.52
942.591	4124.02
942.898	4101.87
943.205	4031.14
943.511	4053.96
943.818	4023.91
944.125	4020.29
944.431	3968.77
944.738	3987.75
945.044	3960.63
945.35	3966.05
945.657	3904.36
945.963	3879.05
946.269	3865.49
946.575	3882.67
946.881	3845.38
947.187	3841.31
947.493	3839.5
947.799	3790.24
948.105	3798.15
948.41	3779.17
948.716	3741.2
949.022	3744.59
949.327	3711.37
949.633	3689.45
949.938	3731.26
950.244	3681.32
950.549	3677.02
950.854	3651.49
951.16	3628.21
951.465	3627.98
951.77	3600.87
952.075	3588.21
952.38	3583.01
952.685	3563.58
952.99	3576.69
953.294	3541.66
953.599	3507.08
953.904	3473.64
954.209	3465.95
954.513	3454.88
954.818	3422.11
955.122	3500.76
955.426	3452.85
955.731	3440.19
956.035	3394.32
956.339	3419.4
956.643	3359.74
956.948	3352.06
957.252	3296.92
957.556	3299.63
957.86	3291.5
958.163	3294.66
958.467	3283.59
958.771	3238.62
959.075	3261.67
959.378	3259.41
959.682	3262.12
959.985	3188
960.289	3235.68
960.592	3196.81
960.896	3169.92
961.199	3215.57
961.502	3161.56
961.805	3124.49
962.108	3111.61
962.411	3116.81
962.714	3066.87
963.017	3072.52
963.32	3059.41
963.623	3046.98
963.926	3064.83
964.228	3062.12
964.531	3065.29
964.833	3014.67
965.136	2985.51
965.438	2988
965.741	2996.14
966.043	2947.55
966.345	2946.42
966.648	2936.93
966.95	2922.69
967.252	2868.46
967.554	2875.46
967.856	2859.87
968.158	2858.29
968.46	2830.94
968.761	2842.02
969.063	2814.45
969.365	2814.67
969.666	2817.38
969.968	2795.01
970.269	2831.62
970.571	2774.67
970.872	2778.29
971.174	2731.51
971.475	2735.8
971.776	2738.29
972.077	2679.76
972.378	2683.38
972.679	2722.7
972.98	2691.06
973.281	2659.42
973.582	2647.67
973.883	2650.16
974.183	2647.22
974.484	2658.52
974.785	2637.05
975.085	2611.29
975.386	2610.38
975.686	2604.73
975.986	2571.74
976.287	2551.63
976.587	2508.01
976.887	2548.46
977.187	2539.88
977.487	2496.26
977.787	2516.37
978.087	2485.87
978.387	2481.57
978.687	2470.73
978.987	2445.64
979.286	2407.45
979.586	2422.59
979.885	2449.26
980.185	2408.58
980.484	2424.17
980.784	2377.4
981.083	2378.75
981.382	2370.62
981.682	2376.27
981.981	2372.2
982.28	2346.44
982.579	2327
982.878	2312.31
983.177	2309.15
983.475	2324.29
983.774	2268.02
984.073	2281.58
984.372	2291.07
984.67	2239.77
984.969	2276.83
985.267	2224.63
985.566	2220.11
985.864	2220.56
986.162	2209.94
986.461	2174.91
986.759	2198.64
987.057	2195.03
987.355	2172.65
987.653	2146.89
987.951	2176.95
988.249	2143.95
988.547	2134.92
988.844	2120.9
989.142	2143.28
989.44	2117.74
989.737	2080.68
990.035	2082.71
990.332	2061.92
990.63	2066.89
990.927	2071.64
991.224	2050.85
991.521	2026.44
991.819	2011.3
992.116	2036.39
992.413	2012.43
992.71	2001.59
993.006	1972.43
993.303	2012.88
993.6	1990.96
993.897	2003.62
994.193	1950.51
994.49	1963.85
994.787	1938.76
995.083	1921.59
995.379	1930.4
995.676	1917.07
995.972	1874.81
996.268	1898.31
996.565	1910.97
996.861	1887.69
997.157	1870.52
997.453	1869.61
997.749	1875.94
998.044	1880.01
998.34	1848.37
998.636	1833.68
998.932	1839.1
999.227	1776.05
999.523	1789.16
999.818	1783.06
1000.114	1803.62
1000.409	1773.57
1000.704	1749.62
1001	1725.66
1001.295	1729.95
1001.59	1734.7
1001.885	1738.77
1002.18	1735.6
1002.475	1716.4
1002.77	1721.14
1003.065	1701.93
1003.359	1687.92
1003.654	1694.25
1003.949	1658.09
1004.243	1663.29
1004.538	1636.17
1004.832	1647.02
1005.127	1626.45
1005.421	1609.28
1005.715	1625.32
1006.009	1624.65
1006.304	1617.64
1006.598	1587.81
1006.892	1572.22
1007.186	1542.61
1007.48	1554.59
1007.773	1564.54
1008.067	1543.07
1008.361	1529.06
1008.655	1541.94
1008.948	1513.91
1009.242	1499.68
1009.535	1484.99
1009.829	1490.19
1010.122	1489.06
1010.415	1482.05
1010.708	1473.24
1011.001	1449.28
1011.295	1432.56
1011.588	1453.8
1011.881	1447.93
1012.173	1437.76
1012.466	1408.83
1012.759	1419.45
1013.052	1416.97
1013.344	1413.35
1013.637	1387.14
1013.93	1364.31
1014.222	1384.43
1014.514	1351.89
1014.807	1373.35
1015.099	1316.18
1015.391	1332.22
1015.683	1358.21
1015.976	1314.37
1016.268	1321.38
1016.56	1293.36
1016.851	1334.94
1017.143	1308.72
1017.435	1307.14
1017.727	1279.34
1018.018	1247.93
1018.31	1270.98
1018.602	1284.77
1018.893	1281.6
1019.185	1261.04
1019.476	1244.32
1019.767	1238.44
1020.058	1210.65
1020.35	1217.88
1020.641	1210.42
1020.932	1181.49
1021.223	1207.71
1021.514	1168.84
1021.804	1154.6
1022.095	1163.19
1022.386	1165.22
1022.677	1139.91
1022.967	1150.53
1023.258	1136.07
1023.548	1115.51
1023.839	1129.29
1024.129	1094.27
1024.419	1107.6
1024.709	1109.18
1025	1112.8
1025.29	1094.04
1025.58	1062.18
1025.87	1067.83
1026.16	1053.81
1026.449	1085.9
1026.739	1040.71
1027.029	1041.84
1027.319	1033.02
1027.608	1055.62
1027.898	1037.32
1028.187	1036.64
1028.477	1029.86
1028.766	1017.88
1029.055	1020.37
1029.344	1023.31
1029.634	1000.93
1029.923	1000.71
1030.212	979.01
1030.501	969.3
1030.79	981.5
1031.078	975.62
1031.367	965.45
1031.656	955.51
1031.945	959.13
1032.233	943.99
1032.522	942.86
1032.81	912.8
1033.099	913.03
1033.387	929.52
1033.675	908.06
1033.963	922.07
1034.251	906.7
1034.54	908.06
1034.828	893.59
1035.116	904.89
1035.403	886.81
1035.691	890.2
1035.979	885.23
1036.267	876.64
1036.554	856.98
1036.842	856.53
1037.129	840.49
1037.417	826.02
1037.704	828.74
1037.992	835.06
1038.279	820.6
1038.566	821.5
1038.853	821.5
1039.14	821.5
