Data from hue_70_FLMS001491_78.txt Node
Date: Mon Feb 06 15:21:25 GMT 2017
User: dcchb
Spectrometer: FLMS00149
Trigger mode: 0
Integration Time (sec): 2.000000E-2
Scans to average: 10
Electric dark correction enabled: true
Nonlinearity correction enabled: false
Boxcar width: 0
XAxis mode: Wavelengths
Number of Pixels in Spectrum: 2048
>>>>>Begin Spectral Data<<<<<
341.393	-14.39
341.776	-14.39
342.16	-14.39
342.543	-31.57
342.927	-33.83
343.31	-86.93
343.693	-63.43
344.077	-70.21
344.46	-60.94
344.843	-50.32
345.226	-50.55
345.61	-30.44
345.993	-20.72
346.376	-1.96
346.759	12.5
347.142	26.06
347.525	40.75
347.908	61.54
348.291	87.53
348.674	86.85
349.057	120.29
349.44	126.17
349.823	159.84
350.206	160.74
350.588	194.64
350.971	202.1
351.354	240.97
351.737	270.8
352.119	254.3
352.502	271.93
352.884	295.88
353.267	297.92
353.65	286.84
354.032	303.11
354.414	315.77
354.797	323.9
355.179	330.46
355.562	328.88
355.944	306.73
356.326	339.72
356.709	358.03
357.091	317.8
357.473	352.6
357.855	346.95
358.238	339.72
358.62	327.52
359.002	360.06
359.384	354.19
359.766	370
360.148	347.41
360.53	355.09
360.912	348.31
361.294	333.4
361.676	323
362.057	339.5
362.439	341.3
362.821	332.04
363.203	345.37
363.584	322.55
363.966	360.29
364.348	327.75
364.729	324.81
365.111	348.31
365.493	335.2
365.874	326.16
366.256	310.34
366.637	328.42
367.019	307.63
367.4	308.76
367.781	325.94
368.163	311.02
368.544	308.76
368.925	316.45
369.306	317.35
369.688	318.71
370.069	314.64
370.45	307.63
370.831	315.32
371.212	320.51
371.593	342.66
371.974	342.43
372.355	309.44
372.736	325.03
373.117	311.02
373.498	328.42
373.879	338.37
374.26	327.29
374.641	330.46
375.021	320.97
375.402	313.28
375.783	322.55
376.163	315.77
376.544	345.15
376.925	343.56
377.305	342.21
377.686	331.36
378.066	330.91
378.447	326.84
378.827	327.97
379.208	331.14
379.588	346.28
379.968	324.36
380.349	336.78
380.729	365.94
381.109	331.81
381.489	338.37
381.87	332.27
382.25	337.46
382.63	357.58
383.01	347.86
383.39	329.33
383.77	351.25
384.15	345.15
384.53	347.86
384.91	339.27
385.29	339.27
385.67	322.55
386.049	365.94
386.429	344.92
386.809	368.87
387.189	360.51
387.568	348.76
387.948	360.29
388.328	359.38
388.707	368.65
389.087	359.16
389.466	374.07
389.846	365.48
390.225	367.74
390.605	376.78
390.984	368.65
391.363	360.97
391.743	366.61
392.122	370.68
392.501	363
392.881	391.02
393.26	363.68
393.639	378.82
394.018	364.81
394.397	371.13
394.776	394.41
395.155	367.74
395.534	363.45
395.913	371.36
396.292	375.65
396.671	383.11
397.05	395.09
397.429	393.05
397.808	367.74
398.186	376.11
398.565	381.08
398.944	405.48
399.323	381.08
399.701	385.15
400.08	365.94
400.458	389.44
400.837	407.07
401.215	403.22
401.594	417.01
401.972	388.31
402.351	382.43
402.729	388.53
403.107	421.08
403.486	409.78
403.864	401.87
404.242	395.99
404.62	394.86
404.999	394.41
405.377	411.59
405.755	416.1
406.133	414.07
406.511	410.91
406.889	410.68
407.267	422.43
407.645	420.4
408.023	426.73
408.401	417.01
408.779	436.9
409.156	435.09
409.534	439.61
409.912	453.39
410.29	433.73
410.667	441.64
411.045	464.24
411.422	446.84
411.8	461.3
412.178	455.43
412.555	470.34
412.933	463.34
413.31	463.56
413.687	453.17
414.065	464.24
414.442	459.04
414.819	451.81
415.197	466.95
415.574	481.19
415.951	465.14
416.328	487.52
416.705	483.67
417.082	482.54
417.46	485.26
417.837	501.3
418.214	491.58
418.591	512.6
418.967	489.32
419.344	489.1
419.721	506.27
420.098	493.84
420.475	495.65
420.852	511.24
421.228	525.48
421.605	493.16
421.982	503.56
422.358	520.73
422.735	514.86
423.111	503.56
423.488	527.06
423.864	536.1
424.241	501.98
424.617	554.86
424.994	552.6
425.37	549.43
425.746	524.8
426.123	549.21
426.499	559.6
426.875	560.73
427.251	557.57
427.627	556.67
428.003	563.22
428.379	559.15
428.756	571.58
429.132	564.58
429.507	576.33
429.883	581.98
430.259	614.29
430.635	583.78
431.011	573.61
431.387	617.46
431.763	623.78
432.138	611.58
432.514	628.08
432.89	625.82
433.265	648.87
433.641	604.35
434.016	640.73
434.392	646.16
434.767	638.92
435.143	638.92
435.518	646.16
435.894	652.93
436.269	663.33
436.644	667.4
437.02	665.82
437.395	680.28
437.77	667.17
438.145	671.69
438.52	709.2
438.895	694.06
439.271	686.83
439.646	717.79
440.021	675.08
440.395	715.98
440.77	694.06
441.145	729.32
441.52	716.66
441.895	731.12
442.27	726.38
442.645	727.28
443.019	727.96
443.394	717.34
443.769	752.14
444.143	739.94
444.518	754.85
444.892	739.03
445.267	751.92
445.641	756.89
446.016	755.53
446.39	753.5
446.764	757.56
447.139	773.61
447.513	781.29
447.887	789.65
448.262	774.29
448.636	786.72
449.01	790.33
449.384	785.13
449.758	811.12
450.132	826.26
450.506	819.26
450.88	839.14
451.254	798.69
451.628	846.15
452.002	833.5
452.376	861.29
452.75	869.65
453.123	858.81
453.497	859.48
453.871	868.07
454.244	885.25
454.618	914.62
454.992	895.64
455.365	902.65
455.739	904.68
456.112	933.83
456.486	931.35
456.859	942.87
457.232	951.68
457.606	961.4
457.979	966.37
458.352	961.63
458.725	982.87
459.099	1003.89
459.472	1004.79
459.845	1021.74
460.218	1028.07
460.591	1041.17
460.964	1040.04
461.337	1061.74
461.71	1085.69
462.083	1072.81
462.456	1099.93
462.829	1098.8
463.201	1114.17
463.574	1129.76
463.947	1126.82
464.32	1181.73
464.692	1193.94
465.065	1174.5
465.438	1211.11
465.81	1223.77
466.183	1252.02
466.555	1247.04
466.928	1281.62
467.3	1272.81
467.672	1282.97
468.045	1331.11
468.417	1313.71
468.789	1350.77
469.161	1387.83
469.534	1380.15
469.906	1417.66
470.278	1439.35
470.65	1458.79
471.022	1513.25
471.394	1526.13
471.766	1557.09
472.138	1604.55
472.51	1630.99
472.882	1630.31
473.253	1670.76
473.625	1689.52
473.997	1778.1
474.369	1790.08
474.74	1821.27
475.112	1855.84
475.484	1914.14
475.855	1939.68
476.227	1990.3
476.598	2005.67
476.97	2071.88
477.341	2155.72
477.713	2195.72
478.084	2213.8
478.455	2293.8
478.827	2369.27
479.198	2480.68
479.569	2484.98
479.94	2585.54
480.311	2606.56
480.682	2714.12
481.053	2771.52
481.424	2870.28
481.795	2942.14
482.166	3021.01
482.537	3081.12
482.908	3230.49
483.279	3299.87
483.65	3375.58
484.021	3513.2
484.391	3571.28
484.762	3649.01
485.133	3733.53
485.503	3830.03
485.874	3950.48
486.244	4055.11
486.615	4213.52
486.985	4246.29
487.356	4432.72
487.726	4489.44
488.097	4649.67
488.467	4729.21
488.837	4935.99
489.207	5014.4
489.578	5196.09
489.948	5300.5
490.318	5417.33
490.688	5545.46
491.058	5645.57
491.428	5795.62
491.798	5946.81
492.168	6146.58
492.538	6203.07
492.908	6376.85
493.278	6477.41
493.648	6614.81
494.017	6747.46
494.387	6890.96
494.757	7048.25
495.126	7187.45
495.496	7246.21
495.866	7364.17
496.235	7545.86
496.605	7709.25
496.974	7841.22
497.344	8004.38
497.713	8068.56
498.082	8229.23
498.452	8378.83
498.821	8500.19
499.19	8647.3
499.559	8746.96
499.928	8882.1
500.298	9021.53
500.667	9121.86
501.036	9225.36
501.405	9442.53
501.774	9478.69
502.143	9596.2
502.512	9812.69
502.88	9860.6
503.249	9952.13
503.618	10117.32
503.987	10220.82
504.356	10341.04
504.724	10400.93
505.093	10623.29
505.462	10646.34
505.83	10840.01
506.199	10931.99
506.567	11143.96
506.936	11077.29
507.304	11249.94
507.672	11353.22
508.041	11450.17
508.409	11583.49
508.777	11768.12
509.145	11785.75
509.514	11864.84
509.882	11952.52
510.25	12049.25
510.618	12166.08
510.986	12326.53
511.354	12467.31
511.722	12572.4
512.09	12763.12
512.458	12696.01
512.826	12875.44
513.193	12918.83
513.561	12969.45
513.929	13075.21
514.297	13267.07
514.664	13296.44
515.032	13385.48
515.4	13561.07
515.767	13615.53
516.135	13754.74
516.502	13699.6
516.869	13952.7
517.237	14096.65
517.604	13966.94
517.972	14095.07
518.339	14253.26
518.706	14294.16
519.073	14346.59
519.44	14593.59
519.808	14641.04
520.175	14589.52
520.542	14745.45
520.909	14813.47
521.276	14904.76
521.643	15054.59
522.009	15150.41
522.376	15221.14
522.743	15305.66
523.11	15439.89
523.477	15551.07
523.843	15636.27
524.21	15789.49
524.577	15819.09
524.943	15957.62
525.31	15945.64
525.676	16257.5
526.043	16222.47
526.409	16369.13
526.776	16361.67
527.142	16491.61
527.508	16619.29
527.874	16631.72
528.241	16746.97
528.607	16685.73
528.973	16928.21
529.339	16866.29
529.705	16971.83
530.071	17180.86
530.437	17207.3
530.803	17307.41
531.169	17358.03
531.535	17302.67
531.901	17325.49
532.267	17494.98
532.632	17491.14
532.998	17550.34
533.364	17584.47
533.73	17707.18
534.095	17804.35
534.461	17764.12
534.826	17899.49
535.192	17879.15
535.557	18053.16
535.923	17981.74
536.288	17984.23
536.653	18032.14
537.019	18021.29
537.384	18010.9
537.749	18146.03
538.114	18148.75
538.479	18177.45
538.845	18191
539.21	18177.67
539.575	18286.14
539.94	18287.05
540.305	18308.29
540.67	18228.74
541.034	18400.26
541.399	18484.1
541.764	18366.59
542.129	18514.39
542.494	18481.17
542.858	18449.53
543.223	18556.19
543.587	18641.61
543.952	18478.23
544.316	18540.37
544.681	18464.9
545.045	18646.13
545.41	18692.46
545.774	18607.94
546.138	18725
546.503	18670.09
546.867	18702.63
547.231	18822.17
547.595	18711.67
547.959	18849.97
548.324	18885.45
548.688	18818.11
549.052	18912.34
549.416	18883.64
549.779	18841.61
550.143	18859.46
550.507	18950.76
550.871	19026.69
551.235	18914.15
551.599	19119.12
551.962	19118.44
552.326	19079.79
552.689	19201.83
553.053	18938.1
553.417	19064.2
553.78	19385.55
554.143	19183.52
554.507	19328.15
554.87	19282.95
555.234	19529.5
555.597	19241.6
555.96	19275.95
556.323	19407.92
556.686	19310.52
557.05	19445.89
557.413	19567.92
557.776	19609.05
558.139	19596.84
558.502	19720
558.865	19702.83
559.228	19779.44
559.59	19861.02
559.953	19802.49
560.316	19989.38
560.679	19978.3
561.041	20077.73
561.404	20153.89
561.767	20206.77
562.129	20143.27
562.492	20265.75
562.854	20291.06
563.217	20254.23
563.579	20286.77
563.941	20511.4
564.304	20599.75
564.666	20572.86
565.028	20624.16
565.39	20653.09
565.753	20764.95
566.115	20766.98
566.477	20789.81
566.839	20891.05
567.201	21016.02
567.563	21037.71
567.925	21196.12
568.287	21049.23
568.648	21075.9
569.01	21279.51
569.372	21444.93
569.734	21269.34
570.095	21451.26
570.457	21511.14
570.819	21512.05
571.18	21456.46
571.542	21578.03
571.903	21635.43
572.265	21771.48
572.626	21685.38
572.987	21769.67
573.349	21788.42
573.71	21871.13
574.071	21853.51
574.432	21987.97
574.794	22155.42
575.155	22004.46
575.516	22012.37
575.877	22020.73
576.238	22107.74
576.599	22114.52
576.96	22144.8
577.32	22252.37
577.681	22281.97
578.042	22329.88
578.403	22396.09
578.763	22361.52
579.124	22406.04
579.485	22384.11
579.845	22594.73
580.206	22437.9
580.566	22491.91
580.927	22486.26
581.287	22513.15
581.648	22547.73
582.008	22549.76
582.368	22514.96
582.728	22493.49
583.089	22528.29
583.449	22605.13
583.809	22564.45
584.169	22545.69
584.529	22521.06
584.889	22680.38
585.249	22507.95
585.609	22465.24
585.969	22640.61
586.329	22455.53
586.688	22590.66
587.048	22546.6
587.408	22417.33
587.768	22573.94
588.127	22561.96
588.487	22467.5
588.846	22623.2
589.206	22447.16
589.565	22488.29
589.925	22672.24
590.284	22475.41
590.643	22582.08
591.003	22645.12
591.362	22678.57
591.721	22648.06
592.08	22575.07
592.44	22646.71
592.799	22691.68
593.158	22516.77
593.517	22598.12
593.876	22668.4
594.235	22544.11
594.593	22636.54
594.952	22582.08
595.311	22535.75
595.67	22605.58
596.029	22745.24
596.387	22725.8
596.746	22774.61
597.104	22670.66
597.463	22607.39
597.822	22732.81
598.18	22606.26
598.538	22653.71
598.897	22774.61
599.255	22511.34
599.613	22922.86
599.972	22822.97
600.33	22745.46
600.688	22661.85
601.046	22789.08
601.404	22810.54
601.762	22815.97
602.12	22989.97
602.478	22908.39
602.836	22871.33
603.194	22754.5
603.552	22813.26
603.91	22756.08
604.268	22875.18
604.625	22799.92
604.983	22930.54
605.341	22836.08
605.698	22890.54
606.056	22970.54
606.413	22969.64
606.771	23047.83
607.128	23127.6
607.485	22881.05
607.843	23034.04
608.2	23172.79
608.557	23202.85
608.914	23093.25
609.272	23132.12
609.629	23229.29
609.986	23311.32
610.343	23139.58
610.7	23449.17
611.057	23324.66
611.414	23281.04
611.771	23291.66
612.127	23547.47
612.484	23420.25
612.841	23510.86
613.198	23507.93
613.554	23431.09
613.911	23582.05
614.267	23570.75
614.624	23615.72
614.98	23600.58
615.337	23767.13
615.693	23703.63
616.05	23712.44
616.406	23791.54
616.762	23774.36
617.118	23788.82
617.475	23866.79
617.831	23921.93
618.187	23795.83
618.543	23902.04
618.899	23991.08
619.255	23950.18
619.611	23928.71
619.967	24102.04
620.323	24063.17
620.678	24002.6
621.034	23857.3
621.39	23869.27
621.746	23983.39
622.101	24302.26
622.457	24098.19
622.812	24074.47
623.168	24211.64
623.523	24172.77
623.879	24244.18
624.234	24087.57
624.589	24244.63
624.945	24212.77
625.3	24237.85
625.655	24244.18
626.01	24297.96
626.365	24270.17
626.72	24210.51
627.075	24241.02
627.43	24165.76
627.785	24152.43
628.14	24137.74
628.495	24245.53
628.85	24177.29
629.205	24043.73
629.559	24078.76
629.914	24130.74
630.269	24254.57
630.623	24094.13
630.978	24060.68
631.332	24093.9
631.687	24280.79
632.041	24135.71
632.396	24130.96
632.75	24049.38
633.104	24134.35
633.459	24048.25
633.813	23864.08
634.167	23940.01
634.521	23990.63
634.875	24030.17
635.229	23900.46
635.583	23772.78
635.937	23750.18
636.291	23807.13
636.645	23798.31
636.999	23786.56
637.352	23841.25
637.706	23651.88
638.06	23896.17
638.413	23660.92
638.767	23560.13
639.121	23710.41
639.474	23628.38
639.828	23677.19
640.181	23686.23
640.534	23609.85
640.888	23663.63
641.241	23420.92
641.594	23575.5
641.947	23509.96
642.301	23433.35
642.654	23520.13
643.007	23537.76
643.36	23519.45
643.713	23429.29
644.066	23616.4
644.419	23398.55
644.771	23244.43
645.124	23042.4
645.477	22986.58
645.83	22935.29
646.182	22734.39
646.535	22723.09
646.888	22692.36
647.24	22643.09
647.593	22884.44
647.945	22717.44
648.298	22670.21
648.65	22577.56
649.002	22554.05
649.355	22554.51
649.707	22540.04
650.059	22562.42
650.411	22900.03
650.763	22993.14
651.115	23234.04
651.467	23076.07
651.819	23119.91
652.171	23114.72
652.523	23068.39
652.875	23131.67
653.227	23015.74
653.578	23194.94
653.93	23151.78
654.282	22974.38
654.633	22967.38
654.985	23018.22
655.337	23060.26
655.688	23035.62
656.039	23083.76
656.391	22894.84
656.742	22993.59
657.094	23042.18
657.445	23164.21
657.796	23031.56
658.147	22997.66
658.498	22896.87
658.849	23081.95
659.2	22976.42
659.551	22912.24
659.902	22926.93
660.253	23089.63
660.604	22996.08
660.955	22860.03
661.306	23018.22
661.656	23016.19
662.007	23012.12
662.358	22962.86
662.708	22940.26
663.059	23089.18
663.409	22795.86
663.76	23172.34
664.11	22935.51
664.461	23020.48
664.811	22964.44
665.161	22955.4
665.511	22998.34
665.862	22942.07
666.212	23007.15
666.562	23088.96
666.912	23039.01
667.262	22957.21
667.612	22974.83
667.962	22894.16
668.312	22997.21
668.662	23058.9
669.011	22970.31
669.361	22943.87
669.711	22900.49
670.06	22852.13
670.41	22803.54
670.76	22867.94
671.109	22873.82
671.459	22933.03
671.808	22778.23
672.157	22902.07
672.507	22750.66
672.856	22799.47
673.205	22843.31
673.554	22861.62
673.904	22835.85
674.253	22867.49
674.602	22735.97
674.951	22523.55
675.3	22412.81
675.649	22812.8
675.998	22670.89
676.346	22677.89
676.695	22749.53
677.044	22544.11
677.393	22664.11
677.741	22698.91
678.09	22563.32
678.438	22545.92
678.787	22579.36
679.135	22561.96
679.484	22456.2
679.832	22572.81
680.181	22345.47
680.529	22471.34
680.877	22380.95
681.225	22319.71
681.573	22498.69
681.922	22221.18
682.27	22154.52
682.618	22140.96
682.966	22187.51
683.314	22224.57
683.661	22204.23
684.009	22087.4
684.357	21990
684.705	21879.5
685.053	21938.25
685.4	21866.16
685.748	21803.11
686.095	21790.01
686.443	21765.15
686.79	21778.03
687.138	21733.51
687.485	21721.31
687.832	21592.72
688.18	21677.47
688.527	21536
688.874	21450.81
689.221	21404.93
689.568	21392.73
689.915	21369.68
690.262	21362.45
690.609	21189.8
690.956	21150.7
691.303	21161.55
691.65	20991.84
691.997	21059.86
692.344	20873.42
692.69	20962.23
693.037	20872.74
693.383	20737.6
693.73	20749.81
694.077	20600.43
694.423	20675.46
694.769	20500.77
695.116	20512.98
695.462	20467.78
695.808	20387.33
696.155	20374.68
696.501	20280.67
696.847	20250.84
697.193	20073.67
697.539	20113.21
697.885	19943.95
698.231	19985.99
698.577	19895.37
698.923	19846.55
699.269	19828.7
699.614	19675.03
699.96	19627.8
700.306	19606.11
700.651	19526.34
700.997	19409.96
701.342	19449.05
701.688	19381.48
702.033	19312.78
702.379	19291.77
702.724	19252.67
703.069	19266.68
703.415	19033.69
703.76	19102.39
704.105	19057.2
704.45	18969.52
704.795	18845.22
705.14	18717.09
705.485	18739.92
705.83	18668.96
706.175	18719.58
706.52	18551.67
706.865	18595.74
707.209	18534.95
707.554	18465.12
707.899	18512.35
708.243	18348.97
708.588	18320.49
708.932	18222.19
709.277	18253.38
709.621	18237.78
709.966	18088.18
710.31	18090.89
710.654	17954.4
710.998	17986.94
711.342	18000.73
711.687	17963.21
712.031	17861.75
712.375	17847.28
712.719	17849.77
713.063	17773.61
713.407	17853.16
713.75	17771.13
714.094	17769.32
714.438	17613.17
714.782	17589.44
715.125	17600.74
715.469	17596.22
715.812	17490.46
716.156	17415.66
716.499	17304.47
716.843	17388.31
717.186	17240.75
717.53	17395.55
717.873	17402.32
718.216	17312.61
718.559	17247.07
718.902	17122.56
719.246	17136.57
719.589	17075.78
719.932	17079.62
720.275	16980.87
720.617	17064.93
720.96	16920.76
721.303	16966.4
721.646	17019.51
721.989	16869.23
722.331	16992.62
722.674	16862.9
723.016	16857.71
723.359	16876.01
723.701	16826.07
724.044	16803.92
724.386	16682.12
724.729	16736.35
725.071	16615.9
725.413	16706.98
725.755	16670.37
726.097	16642.12
726.439	16520.31
726.782	16591.95
727.124	16694.32
727.465	16546.98
727.807	16526.87
728.149	16605.74
728.491	16480.32
728.833	16559.18
729.175	16479.41
729.516	16420.88
729.858	16470.15
730.199	16470.82
730.541	16423.37
730.882	16444.38
731.224	16444.16
731.565	16339.08
731.906	16363.48
732.248	16344.27
732.589	16354.44
732.93	16181.34
733.271	16324.61
733.612	16291.17
733.953	16249.13
734.294	16277.38
734.635	16250.72
734.976	16275.8
735.317	16310.15
735.658	16163.71
735.999	16269.25
736.339	16173.43
736.68	16177.05
737.021	16221.34
737.361	16073.32
737.702	16251.85
738.042	16165.75
738.383	16131.17
738.723	16175.46
739.063	16132.75
739.404	16170.94
739.744	16104.96
740.084	16050.27
740.424	16106.31
740.764	16211.4
741.104	16154.22
741.444	16087.33
741.784	16086.2
742.124	16119.19
742.464	16108.12
742.804	16070.38
743.143	16063.6
743.483	16257.5
743.823	16193.77
744.162	16190.15
744.502	16123.04
744.841	16145.41
745.181	16199.19
745.52	16157.39
745.86	16192.64
746.199	16273.09
746.538	16266.31
746.877	16285.29
747.216	16312.86
747.556	16306.31
747.895	16468.79
748.234	16349.25
748.573	16434.44
748.911	16391.5
749.25	16547.88
749.589	16416.59
749.928	16523.93
750.267	16545.62
750.605	16628.79
750.944	16641.21
751.283	16657.71
751.621	16750.36
751.96	16726.64
752.298	16777.93
752.636	16894.54
752.975	16980.87
753.313	16865.39
753.651	17093.18
753.989	17135.44
754.327	17113.29
754.666	17151.71
755.004	17264.48
755.342	17266.51
755.679	17413.62
756.017	17368.43
756.355	17505.15
756.693	17518.03
757.031	17697.91
757.368	17638.48
757.706	17680.51
758.044	17837.12
758.381	17875.08
758.719	17861.3
759.056	17961.18
759.394	18033.04
759.731	18065.13
760.068	18174.06
760.405	18041.86
760.743	18284.11
761.08	18371.34
761.417	18311
761.754	18331.57
762.091	18419.7
762.428	18478
762.765	18459.7
763.102	18569.3
763.438	18517.1
763.775	18528.4
764.112	18645.91
764.449	18669.41
764.785	18607.94
765.122	18613.14
765.458	18636.87
765.795	18728.84
766.131	18790.09
766.467	18760.03
766.804	18768.62
767.14	18789.18
767.476	18855.17
767.812	18854.04
768.148	18948.05
768.485	18898.33
768.821	18759.13
769.157	18878.67
769.492	18902.17
769.828	18939.46
770.164	18680.48
770.5	18734.49
770.836	18863.08
771.171	18782.4
771.507	18752.35
771.842	18671.67
772.178	18692.46
772.513	18693.14
772.849	18727.71
773.184	18580.6
773.519	18737.43
773.855	18624.44
774.19	18620.6
774.525	18654.04
774.86	18647.49
775.195	18617.89
775.53	18571.11
775.865	18426.03
776.2	18282.53
776.535	18252.47
776.87	18325.69
777.205	18242.3
777.539	18289.53
777.874	18272.58
778.209	18121.18
778.543	18195.07
778.878	18022.87
779.212	18054.06
779.547	17955.3
779.881	18014.51
780.215	17877.11
780.55	17923.44
780.884	17828.75
781.218	17814.07
781.552	17815.42
781.886	17724.12
782.22	17627.63
782.554	17577.01
782.888	17570.91
783.222	17431.93
783.556	17379.05
783.889	17350.12
784.223	17244.81
784.557	17214.08
784.89	17236.68
785.224	17125.27
785.557	17048.66
785.891	17059.96
786.224	17004.14
786.558	16912.39
786.891	16866.75
787.224	16805.73
787.557	16760.08
787.891	16846.41
788.224	16857.03
788.557	16748.78
788.89	16720.99
789.223	16605.96
789.556	16577.94
789.888	16426.08
790.221	16472.86
790.554	16314.22
790.887	16357.15
791.219	16261.56
791.552	16298.85
791.884	16194
792.217	16236.03
792.549	16116.48
792.882	15989.25
793.214	15901.57
793.546	16008.24
793.879	15875.13
794.211	15773.89
794.543	15798.98
794.875	15824.29
795.207	15795.81
795.539	15627.46
795.871	15654.35
796.203	15589.04
796.535	15478.76
796.867	15471.3
797.198	15369.38
797.53	15341.81
797.862	15224.3
798.193	15312.89
798.525	15257.3
798.856	15224.08
799.188	15080.35
799.519	15059.34
799.85	14987.47
800.182	14951.54
800.513	14993.57
800.844	14912.9
801.175	14869.06
801.506	14855.05
801.837	14768.5
802.168	14742.51
802.499	14798.55
802.83	14667.48
803.161	14547.94
803.491	14544.55
803.822	14633.36
804.153	14512.68
804.483	14399.24
804.814	14437.21
805.145	14373.7
805.475	14271.79
805.805	14316.08
806.136	14304.1
806.466	14259.36
806.796	14249.19
807.126	14175.29
807.457	14157.44
807.787	14126.93
808.117	14030.89
808.447	13997.22
808.777	14021.62
809.107	14010.32
809.436	13949.53
809.766	13872.7
810.096	13885.13
810.426	13862.53
810.755	13829.76
811.085	13735.08
811.414	13665.7
811.744	13597.23
812.073	13572.6
812.403	13615.76
812.732	13543.22
813.061	13500.73
813.39	13455.08
813.719	13406.5
814.049	13509.77
814.378	13377.35
814.707	13320.62
815.036	13293.96
815.365	13217.12
815.693	13194.53
816.022	13164.02
816.351	13199.05
816.68	13020.07
817.008	13013.29
817.337	12957.92
817.665	12982.1
817.994	13006.28
818.322	12960.63
818.651	12884.93
818.979	12891.26
819.307	12845.16
819.636	12859.17
819.964	12752.5
820.292	12879.28
820.62	12810.36
820.948	12748.44
821.276	12862.56
821.604	12748.66
821.932	12800.64
822.259	12761.99
822.587	12822.11
822.915	12751.83
823.243	12739.4
823.57	12684.93
823.898	12697.59
824.225	12649.46
824.553	12710.47
824.88	12703.01
825.207	12733.97
825.535	12655.11
825.862	12802.9
826.189	12665.27
826.516	12719.51
826.843	12735.1
827.17	12700.3
827.497	12737.59
827.824	12736.01
828.151	12829.56
828.478	12673.64
828.805	12745.27
829.131	12676.57
829.458	12689.23
829.785	12549.57
830.111	12630.25
830.438	12638.38
830.764	12643.13
831.09	12684.03
831.417	12555.22
831.743	12701.88
832.069	12647.87
832.395	12617.59
832.722	12691.94
833.048	12600.87
833.374	12593.64
833.7	12583.47
834.026	12518.16
834.351	12557.25
834.677	12551.15
835.003	12589.57
835.329	12596.8
835.654	12529.23
835.98	12472.74
836.306	12479.97
836.631	12427.99
836.956	12443.59
837.282	12494.88
837.607	12362.01
837.932	12381.21
838.258	12406.52
838.583	12368.56
838.908	12321.55
839.233	12370.82
839.558	12282.69
839.883	12213.08
840.208	12219.86
840.533	12223.48
840.858	12157.94
841.182	12169.24
841.507	12173.54
841.832	12013.99
842.156	12070.26
842.481	12006.76
842.805	12042.47
843.13	11945.29
843.454	11974.67
843.778	11890.38
844.103	11952.98
844.427	11864.62
844.751	11862.36
845.075	11828.91
845.399	11812.87
845.723	11806.09
846.047	11759.31
846.371	11721.8
846.695	11710.95
847.019	11649.48
847.343	11538.75
847.666	11526.1
847.99	11501.24
848.313	11435.7
848.637	11349.6
848.96	11425.53
849.284	11381.47
849.607	11184.41
849.931	11187.12
850.254	11137.63
850.577	11061.47
850.9	11028.71
851.223	11014.02
851.546	11003.85
851.869	10852.67
852.192	10905.32
852.515	10841.14
852.838	10796.4
853.161	10822.38
853.483	10726.34
853.806	10682.05
854.129	10732.9
854.451	10633.46
854.774	10629.4
855.096	10554.37
855.419	10584.65
855.741	10505.33
856.063	10399.12
856.385	10397.09
856.708	10385.11
857.03	10322.74
857.352	10355.73
857.674	10275.05
857.996	10268.05
858.318	10201.16
858.64	10117.54
858.961	10137.43
859.283	10179.46
859.605	10035.51
859.926	10103.99
860.248	10088.17
860.57	10019.24
860.891	10009.75
861.212	9949.64
861.534	9903.31
861.855	9989.19
862.176	9945.57
862.498	9922.52
862.819	9933.59
863.14	9878.91
863.461	9799.13
863.782	9806.82
864.103	9708.74
864.424	9767.27
864.745	9868.06
865.065	9732.7
865.386	9655.41
865.707	9762.3
866.027	9720.94
866.348	9696.09
866.668	9664.22
866.989	9601.17
867.309	9568.18
867.63	9606.6
867.95	9621.74
868.27	9529.99
868.59	9569.76
868.91	9450.9
869.23	9555.98
869.55	9453.61
869.87	9500.84
870.19	9412.03
870.51	9404.12
870.83	9455.87
871.15	9384.91
871.469	9356.43
871.789	9446.38
872.109	9353.5
872.428	9378.13
872.748	9344.01
873.067	9318.24
873.386	9357.56
873.706	9349.88
874.025	9308.75
874.344	9270.34
874.663	9268.3
874.982	9200.51
875.301	9216.33
875.62	9241.18
875.939	9156.44
876.258	9144.01
876.577	9112.6
876.896	9181.07
877.214	9094.29
877.533	9138.59
877.852	9093.39
878.17	9097.68
878.489	9113.73
878.807	9087.29
879.125	9143.11
879.444	9022.21
879.762	9056.33
880.08	9004.58
880.398	8984.47
880.716	8972.04
881.034	8972.94
881.352	8955.32
881.67	8897.69
881.988	8911.7
882.306	8914.41
882.624	8890.68
882.941	8820.4
883.259	8817.01
883.577	8812.27
883.894	8741.31
884.212	8728.43
884.529	8695.21
884.846	8670.13
885.164	8632.84
885.481	8639.39
885.798	8673.06
886.115	8544.7
886.432	8589.9
886.75	8542.44
887.067	8589.45
887.383	8499.06
887.7	8560.52
888.017	8463.12
888.334	8523.46
888.651	8471.49
888.967	8416.8
889.284	8446.63
889.6	8387.42
889.917	8284.15
890.233	8366.18
890.55	8273.53
890.866	8286.41
891.182	8247.99
891.498	8281.43
891.815	8236.92
892.131	8186.3
892.447	8197.6
892.763	8162.79
893.079	8126.86
893.395	8156.01
893.71	8113.3
894.026	8052.29
894.342	8040.09
894.657	7979.97
894.973	8017.71
895.289	8012.06
895.604	7985.85
895.92	7906.98
896.235	7824.05
896.55	7913.08
896.865	7795.35
897.181	7790.15
897.496	7810.94
897.811	7749.47
898.126	7749.7
898.441	7689.13
898.756	7672.86
899.071	7629.47
899.386	7638.06
899.7	7531.17
900.015	7544.05
900.33	7448.91
900.644	7468.12
900.959	7452.08
901.273	7438.29
901.588	7415.47
901.902	7394
902.216	7335.02
902.531	7353.1
902.845	7294.79
903.159	7268.13
903.473	7257.28
903.787	7200.79
904.101	7171.86
904.415	7226.55
904.729	7104.29
905.042	7087.57
905.356	7116.49
905.67	7065.42
905.984	7067.91
906.297	7028.13
906.611	6993.11
906.924	6980.23
907.237	6993.11
907.551	6936.61
907.864	6914.47
908.177	6891.41
908.491	6851.64
908.804	6822.26
909.117	6784.75
909.43	6740.68
909.743	6695.26
910.056	6677.41
910.368	6662.95
910.681	6657.07
910.994	6686
911.307	6591.08
911.619	6566.45
911.932	6558.32
912.244	6533.46
912.557	6516.96
912.869	6443.07
913.181	6429.05
913.494	6430.64
913.806	6441.03
914.118	6331.88
914.43	6386.34
914.742	6324.2
915.054	6269.28
915.366	6291.43
915.678	6238.55
915.99	6183.86
916.302	6172.79
916.613	6183.41
916.925	6173.24
917.236	6114.71
917.548	6065.22
917.859	6116.07
918.171	6019.35
918.482	6032.23
918.794	5977.09
919.105	5967.15
919.416	5955.39
919.727	5897.32
920.038	5913.14
920.349	5874.27
920.66	5822.52
920.971	5831.33
921.282	5829.07
921.593	5779.13
921.903	5728.51
922.214	5727.83
922.525	5689.64
922.835	5706.14
923.146	5690.54
923.456	5664.1
923.767	5633.14
924.077	5608.28
924.387	5579.81
924.697	5547.27
925.008	5537.55
925.318	5499.59
925.628	5445.13
925.938	5457.78
926.248	5403.77
926.558	5361.06
926.867	5425.24
927.177	5371.91
927.487	5310.89
927.796	5310.21
928.106	5324.68
928.416	5273.15
928.725	5241.29
929.034	5199.48
929.344	5217.56
929.653	5200.61
929.962	5169.88
930.271	5117
930.581	5110.67
930.89	5077
931.199	5054.63
931.508	5058.02
931.817	5042.42
932.125	5006.72
932.434	5008.3
932.743	4963.78
933.051	4963.56
933.36	4914.29
933.669	4900.73
933.977	4853.5
934.286	4874.07
934.594	4876.1
934.902	4814.63
935.21	4768.53
935.519	4785.71
935.827	4766.95
936.135	4760.17
936.443	4700.51
936.751	4687.63
937.059	4656.9
937.367	4643.56
937.674	4651.02
937.982	4634.98
938.29	4557.46
938.597	4573.28
938.905	4572.15
939.213	4590.68
939.52	4523.79
939.827	4529.44
940.135	4463.23
940.442	4437.24
940.749	4477.92
941.056	4512.49
941.363	4445.38
941.67	4419.84
941.977	4376.23
942.284	4357.47
942.591	4321.09
942.898	4326.06
943.205	4314.76
943.511	4290.81
943.818	4273.18
944.125	4230.92
944.431	4203.35
944.738	4221.65
945.044	4232.5
945.35	4172.62
945.657	4104.37
945.963	4161.09
946.269	4090.13
946.575	4087.42
946.881	4108.44
947.187	4114.99
947.493	4059.17
947.799	4016.69
948.105	4012.17
948.41	4005.16
948.716	3997.48
949.022	3996.58
949.327	3955.45
949.633	3915.9
949.938	3919.74
950.244	3907.76
950.549	3898.27
950.854	3857.82
951.16	3897.14
951.465	3852.17
951.77	3864.15
952.075	3830.48
952.38	3823.47
952.685	3770.37
952.99	3808.56
953.294	3723.59
953.599	3723.59
953.904	3740.09
954.209	3691.95
954.513	3674.55
954.818	3653.08
955.122	3660.77
955.426	3616.92
955.731	3611.05
956.035	3572.41
956.339	3575.34
956.643	3579.64
956.948	3547.77
957.252	3501.9
957.556	3520.88
957.86	3493.99
958.163	3510.49
958.467	3492.41
958.771	3435.23
959.075	3434.33
959.378	3468.23
959.682	3436.59
959.985	3425.97
960.289	3429.36
960.592	3343.94
960.896	3369.02
961.199	3343.94
961.502	3347.1
961.805	3305.29
962.108	3312.75
962.411	3289.93
962.714	3243.6
963.017	3243.38
963.32	3259.87
963.623	3237.27
963.926	3215.58
964.228	3166.54
964.531	3186.88
964.833	3137.16
965.136	3151.17
965.438	3156.6
965.741	3133.77
966.043	3136.49
966.345	3106.88
966.648	3096.71
966.95	3058.97
967.252	3068.01
967.554	3075.24
967.856	3035.47
968.158	3053.1
968.46	3009.71
968.761	3012.87
969.063	2985.98
969.365	2975.59
969.666	2996.83
969.968	2955.25
970.269	2925.64
970.571	2927.23
970.872	2926.77
971.174	2919.09
971.475	2911.41
971.776	2932.87
972.077	2867.79
972.378	2869.83
972.679	2836.83
972.98	2822.14
973.281	2809.04
973.582	2830.05
973.883	2799.55
974.183	2779.88
974.484	2790.96
974.785	2734.91
975.085	2747.57
975.386	2739.43
975.686	2721.13
975.986	2708.47
976.287	2681.81
976.587	2674.35
976.887	2702.15
977.187	2673.45
977.487	2668.48
977.787	2606.78
978.087	2624.63
978.387	2637.52
978.687	2650.62
978.987	2596.16
979.286	2576.05
979.586	2580.79
979.885	2588.25
980.185	2541.47
980.484	2541.92
980.784	2540.34
981.083	2517.29
981.382	2491.76
981.682	2519.55
981.981	2461.93
982.28	2502.83
982.579	2445.88
982.878	2467.58
983.177	2449.5
983.475	2452.44
983.774	2408.37
984.073	2413.11
984.372	2403.62
984.67	2396.39
984.969	2393.91
985.267	2378.31
985.566	2355.71
985.864	2334.47
986.162	2352.33
986.461	2334.7
986.759	2336.51
987.057	2310.07
987.355	2285.21
987.653	2303.96
987.951	2271.65
988.249	2294.7
988.547	2252.44
988.844	2247.47
989.142	2235.94
989.44	2214.93
989.737	2187.13
990.035	2211.76
990.332	2188.94
990.63	2168.38
990.927	2198.43
991.224	2189.62
991.521	2153.46
991.819	2161.82
992.116	2148.26
992.413	2139
992.71	2123.18
993.006	2139.45
993.303	2124.99
993.6	2121.37
993.897	2059
994.193	2095.38
994.49	2042.95
994.787	2048.38
995.083	2038.89
995.379	2015.61
995.676	2024.42
995.972	2008.15
996.268	2012.45
996.565	1993.46
996.861	1974.03
997.157	1995.27
997.453	1959.57
997.749	1935.16
998.044	1950.3
998.34	1930.87
998.636	1952.34
998.932	1939.45
999.227	1910.3
999.523	1908.5
999.818	1906.91
1000.114	1874.37
1000.409	1886.12
1000.704	1868.72
1001	1848.38
1001.295	1849.29
1001.59	1812.9
1001.885	1850.64
1002.18	1811.1
1002.475	1818.33
1002.77	1785.79
1003.065	1827.14
1003.359	1766.58
1003.654	1783.07
1003.949	1772.23
1004.243	1772.68
1004.538	1750.76
1004.832	1714.15
1005.127	1721.16
1005.421	1727.03
1005.715	1692.91
1006.009	1704.88
1006.304	1718.44
1006.598	1650.87
1006.892	1688.39
1007.186	1642.74
1007.48	1628.73
1007.773	1651.33
1008.067	1636.41
1008.361	1599.12
1008.655	1630.08
1008.948	1616.75
1009.242	1590.31
1009.535	1612.01
1009.829	1582.63
1010.122	1567.94
1010.415	1547.83
1010.708	1554.61
1011.001	1554.15
1011.295	1537.88
1011.588	1539.92
1011.881	1528.84
1012.173	1509.64
1012.466	1534.49
1012.759	1488.39
1013.052	1498.34
1013.344	1492.69
1013.637	1485.46
1013.93	1463.53
1014.222	1481.61
1014.514	1468.05
1014.807	1441.61
1015.099	1440.94
1015.391	1432.12
1015.683	1404.1
1015.976	1432.35
1016.268	1435.29
1016.56	1402.75
1016.851	1372.69
1017.143	1396.64
1017.435	1372.46
1017.727	1360.94
1018.018	1346.7
1018.31	1347.83
1018.602	1351.22
1018.893	1332.92
1019.185	1322.3
1019.476	1318
1019.767	1318.68
1020.058	1320.94
1020.35	1282.3
1020.641	1293.82
1020.932	1279.81
1021.223	1261.28
1021.514	1282.75
1021.804	1263.09
1022.095	1250.21
1022.386	1247.04
1022.677	1245.69
1022.967	1209.98
1023.258	1200.94
1023.548	1209.76
1023.839	1202.3
1024.129	1196.88
1024.419	1226.03
1024.709	1190.32
1025	1164.56
1025.29	1152.81
1025.58	1157.78
1025.87	1132.92
1026.16	1140.61
1026.449	1144.45
1026.739	1111.91
1027.029	1126.37
1027.319	1117.33
1027.608	1107.16
1027.898	1099.02
1028.187	1085.24
1028.477	1083.66
1028.766	1053.15
1029.055	1050.66
1029.344	1043.21
1029.634	1042.76
1029.923	1019.93
1030.212	1040.5
1030.501	1039.14
1030.79	1027.84
1031.078	1039.82
1031.367	1008.18
1031.656	1003.89
1031.945	999.37
1032.233	999.82
1032.522	1007.95
1032.81	970.67
1033.099	994.17
1033.387	975.19
1033.675	942.42
1033.963	946.71
1034.251	960.72
1034.54	960.95
1034.828	933.83
1035.116	950.33
1035.403	948.07
1035.691	924.11
1035.979	904.91
1036.267	932.02
1036.554	904
1036.842	900.84
1037.129	911.46
1037.417	911.46
1037.704	896.09
1037.992	904
1038.279	897
1038.566	864
1038.853	864
1039.14	864
