Data from hue_350_FLMS001491_66.txt Node
Date: Mon Feb 06 15:38:22 GMT 2017
User: dcchb
Spectrometer: FLMS00149
Trigger mode: 0
Integration Time (sec): 2.000000E-2
Scans to average: 10
Electric dark correction enabled: true
Nonlinearity correction enabled: false
Boxcar width: 0
XAxis mode: Wavelengths
Number of Pixels in Spectrum: 2048
>>>>>Begin Spectral Data<<<<<
341.393	-0.69
341.776	-0.69
342.16	-0.69
342.543	-63.29
342.927	-63.29
343.31	-78.88
343.693	-76.17
344.077	-56.06
344.46	-70.07
344.843	-47.47
345.226	-54.02
345.61	-23.29
345.993	-5.66
346.376	10.16
346.759	-4.31
347.142	14.22
347.525	67.1
347.908	57.39
348.291	84.5
348.674	100.1
349.057	82.47
349.44	121.56
349.823	139.19
350.206	173.31
350.588	192.75
350.971	213.31
351.354	222.58
351.737	253.76
352.119	245.4
352.502	254.22
352.884	264.39
353.267	279.75
353.65	287.89
354.032	313.65
354.414	310.94
354.797	336.93
355.179	313.88
355.562	349.58
355.944	369.47
356.326	330.37
356.709	330.82
357.091	321.11
357.473	330.82
357.855	332.41
358.238	334.89
358.62	336.02
359.002	333.99
359.384	344.16
359.766	326.53
360.148	360.43
360.53	309.81
360.912	336.02
361.294	305.97
361.676	345.51
362.057	325.4
362.439	321.56
362.821	325.18
363.203	297.38
363.584	292.86
363.966	330.37
364.348	322.01
364.729	329.02
365.111	304.61
365.493	342.35
365.874	298.06
366.256	339.41
366.637	315.91
367.019	301.45
367.4	304.61
367.781	297.38
368.163	304.38
368.544	322.69
368.925	303.03
369.306	309.36
369.688	288.79
370.069	322.92
370.45	315.46
370.831	315.46
371.212	310.26
371.593	306.19
371.974	317.27
372.355	304.16
372.736	307.77
373.117	301.67
373.498	314.33
373.879	318.85
374.26	316.36
374.641	316.59
375.021	296.02
375.402	316.81
375.783	319.3
376.163	336.93
376.544	320.43
376.925	340.54
377.305	312.75
377.686	319.75
378.066	334.67
378.447	318.4
378.827	341.67
379.208	324.72
379.588	322.01
379.968	337.15
380.349	332.86
380.729	336.25
381.109	338.51
381.489	319.53
381.87	337.15
382.25	334.89
382.63	333.08
383.01	353.65
383.39	355.23
383.77	329.69
384.15	352.74
384.53	357.94
384.91	332.41
385.29	354.1
385.67	355.23
386.049	357.49
386.429	336.93
386.809	336.7
387.189	352.97
387.568	359.52
387.948	337.83
388.328	359.98
388.707	339.64
389.087	343.03
389.466	363.14
389.846	344.84
390.225	357.26
390.605	352.74
390.984	336.93
391.363	352.97
391.743	340.99
392.122	339.41
392.501	373.08
392.881	373.99
393.26	354.1
393.639	374.89
394.018	377.6
394.397	376.93
394.776	359.98
395.155	366.3
395.534	380.77
395.913	371.73
396.292	373.76
396.671	369.69
397.05	361.78
397.429	370.6
397.808	375.34
398.186	385.96
398.565	387.77
398.944	374.89
399.323	376.47
399.701	391.39
400.08	379.86
400.458	385.06
400.837	399.98
401.215	393.87
401.594	399.52
401.972	405.17
402.351	389.81
402.729	399.52
403.107	392.07
403.486	412.4
403.864	413.99
404.242	389.35
404.62	388.22
404.999	398.17
405.377	410.14
405.755	413.31
406.133	407.21
406.511	421.67
406.889	433.65
407.267	435.91
407.645	404.72
408.023	432.74
408.401	448.11
408.779	406.53
409.156	436.81
409.534	425.51
409.912	421.9
410.29	434.32
410.667	442.69
411.045	418.73
411.422	441.33
411.8	435.45
412.178	439.07
412.555	432.74
412.933	451.5
413.31	454.89
413.687	439.52
414.065	468.22
414.442	465.28
414.819	475.91
415.197	475.23
415.574	485.85
415.951	475
416.328	473.42
416.705	474.78
417.082	469.8
417.46	492.85
417.837	493.76
418.214	507.77
418.591	505.74
418.967	499.18
419.344	506.41
419.721	535.11
420.098	511.38
420.475	513.64
420.852	524.94
421.228	512.51
421.605	507.32
421.982	543.93
422.358	538.05
422.735	541.21
423.111	538.73
423.488	539.63
423.864	545.51
424.241	548.45
424.617	543.93
424.994	560.88
425.37	581.67
425.746	547.09
426.123	582.34
426.499	558.39
426.875	577.6
427.251	565.17
427.627	592.74
428.003	583.7
428.379	592.74
428.756	588.67
429.132	593.42
429.507	595.22
429.883	603.13
430.259	623.02
430.635	597.03
431.011	617.14
431.387	626.86
431.763	619.18
432.138	651.72
432.514	649.91
432.89	645.39
433.265	642.91
433.641	653.53
434.016	645.62
434.392	672.96
434.767	652.62
435.143	685.62
435.518	666.86
435.894	683.58
436.269	689.23
436.644	699.4
437.02	710.7
437.395	691.95
437.77	708.22
438.145	702.57
438.52	694.66
438.895	705.28
439.271	723.81
439.646	733.07
440.021	730.14
440.395	751.15
440.77	726.52
441.145	753.19
441.52	769.23
441.895	752.73
442.27	757.48
442.645	766.97
443.019	770.81
443.394	778.72
443.769	777.82
444.143	769.68
444.518	791.6
444.892	760.42
445.267	786.63
445.641	788.44
446.016	793.19
446.39	805.16
446.764	820.08
447.139	812.17
447.513	762.23
447.887	785.28
448.262	808.78
448.636	820.3
449.01	829.34
449.384	827.31
449.758	833.64
450.132	810.59
450.506	847.87
450.88	837.25
451.254	858.95
451.628	834.54
452.002	874.77
452.376	880.87
452.75	881.32
453.123	873.64
453.497	873.18
453.871	890.58
454.244	898.95
454.618	874.31
454.992	910.92
455.365	920.87
455.739	935.78
456.112	954.31
456.486	926.06
456.859	962.22
457.232	947.31
457.606	947.08
457.979	944.14
458.352	971.26
458.725	988.89
459.099	995.89
459.472	985.5
459.845	1001.09
460.218	1042.9
460.591	1021.43
460.964	1041.31
461.337	1053.07
461.71	1073.63
462.083	1068.88
462.456	1066.85
462.829	1067.08
463.201	1094.42
463.574	1081.09
463.947	1116.57
464.32	1129.22
464.692	1119.05
465.065	1123.12
465.438	1140.75
465.81	1170.12
466.183	1191.59
466.555	1230.91
466.928	1181.88
467.3	1223.46
467.672	1230.24
468.045	1228.65
468.417	1246.28
468.789	1259.61
469.161	1289.22
469.534	1284.47
469.906	1299.39
470.278	1332.15
470.65	1338.26
471.022	1364.02
471.394	1388.88
471.766	1383
472.138	1384.36
472.51	1415.32
472.882	1464.13
473.253	1467.52
473.625	1476.56
473.997	1511.13
474.369	1505.93
474.74	1522.21
475.112	1545.48
475.484	1582.32
475.855	1603.11
476.227	1621.19
476.598	1661.86
476.97	1659.83
477.341	1709.55
477.713	1726.49
478.084	1719.49
478.455	1771.01
478.827	1798.58
479.198	1850.56
479.569	1840.39
479.94	1896.66
480.311	1962.19
480.682	1955.64
481.053	1993.61
481.424	2062.53
481.795	2084.45
482.166	2105.02
482.537	2117.67
482.908	2187.27
483.279	2176.43
483.65	2229.31
484.021	2251.45
484.391	2302.75
484.762	2306.59
485.133	2346.14
485.503	2367.83
485.874	2453.48
486.244	2437.21
486.615	2486.93
486.985	2499.81
487.356	2578.68
487.726	2594.27
488.097	2611.67
488.467	2636.07
488.837	2692.12
489.207	2758.33
489.578	2749.52
489.948	2789.74
490.318	2864.54
490.688	2846.24
491.058	2912.45
491.428	2951.55
491.798	2972.79
492.168	3013.01
492.538	3042.62
492.908	3098.44
493.278	3117.64
493.648	3091.66
494.017	3145.44
494.387	3172.78
494.757	3209.39
495.126	3255.49
495.496	3277.87
495.866	3300.24
496.235	3328.26
496.605	3388.6
496.974	3376.62
497.344	3417.75
497.713	3405.32
498.082	3435.6
498.452	3494.81
498.821	3508.37
499.19	3575.03
499.559	3576.39
499.928	3600.57
500.298	3611.19
500.667	3622.94
501.036	3624.07
501.405	3721.02
501.774	3687.12
502.143	3708.59
502.512	3710.4
502.88	3739.1
503.249	3799.66
503.618	3785.2
503.987	3782.71
504.356	3821.13
504.724	3816.16
505.093	3876.27
505.462	3865.42
505.83	3898.87
506.199	3920.79
506.567	3983.61
506.936	3923.72
507.304	3975.47
507.672	4016.15
508.041	4006.89
508.409	3984.74
508.777	4056.15
509.145	4054.79
509.514	4121.69
509.882	4117.17
510.25	4101.8
510.618	4152.19
510.986	4162.36
511.354	4176.6
511.722	4162.14
512.09	4190.61
512.458	4238.52
512.826	4247.56
513.193	4275.81
513.561	4278.97
513.929	4281.23
514.297	4323.04
514.664	4309.93
515.032	4335.92
515.4	4344.05
515.767	4333.21
516.135	4416.82
516.502	4356.03
516.869	4460.43
517.237	4473.77
517.604	4391.96
517.972	4473.77
518.339	4464.73
518.706	4513.77
519.073	4511.73
519.44	4532.75
519.808	4596.7
520.175	4587.89
520.542	4622.46
520.909	4641.45
521.276	4603.71
521.643	4644.38
522.009	4660.65
522.376	4662.46
522.743	4686.87
523.11	4729.13
523.477	4782.68
523.843	4763.7
524.21	4761.22
524.577	4814.32
524.943	4840.08
525.31	4835.79
525.676	4929.57
526.043	4939.07
526.409	4970.48
526.776	4996.92
527.142	5022.9
527.508	5050.7
527.874	5050.7
528.241	5091.83
528.607	5120.3
528.973	5138.61
529.339	5098.83
529.705	5173.18
530.071	5193.07
530.437	5238.04
530.803	5252.5
531.169	5261.32
531.535	5279.62
531.901	5336.57
532.267	5345.16
532.632	5370.92
532.998	5345.61
533.364	5374.08
533.73	5431.03
534.095	5432.84
534.461	5468.99
534.826	5470.8
535.192	5514.42
535.557	5514.42
535.923	5534.08
536.288	5563.68
536.653	5628.54
537.019	5643.23
537.384	5599.39
537.749	5628.54
538.114	5672.61
538.479	5681.87
538.845	5666.73
539.21	5706.73
539.575	5722.55
539.94	5741.08
540.305	5813.62
540.67	5795.77
541.034	5815.65
541.399	5843.67
541.764	5871.24
542.129	5920.51
542.494	5869.44
542.858	5969.77
543.223	5955.54
543.587	6030.56
543.952	6039.83
544.316	6019.94
544.681	6045.93
545.045	6093.84
545.41	6123.44
545.774	6108.98
546.138	6178.13
546.503	6169.77
546.867	6220.39
547.231	6316.2
547.595	6237.79
547.959	6294.96
548.324	6255.64
548.688	6278.92
549.052	6291.57
549.416	6360.95
549.779	6355.3
550.143	6364.34
550.507	6410.89
550.871	6451.57
551.235	6477.1
551.599	6507.39
551.962	6491.79
552.326	6485.69
552.689	6553.26
553.053	6528.18
553.417	6601.17
553.78	6651.11
554.143	6632.58
554.507	6657.89
554.87	6645.69
555.234	6720.71
555.597	6617.66
555.96	6675.29
556.323	6746.25
556.686	6715.06
557.05	6760.03
557.413	6779.24
557.776	6767.04
558.139	6828.05
558.502	6863.53
558.865	6895.85
559.228	6873.93
559.59	6916.41
559.953	7001.61
560.316	7047.71
560.679	6995.51
561.041	7014.94
561.404	7114.83
561.767	7101.72
562.129	7116.86
562.492	7176.75
562.854	7120.02
563.217	7177.42
563.579	7209.06
563.941	7223.75
564.304	7255.84
564.666	7271.21
565.028	7280.25
565.39	7325.67
565.753	7352.33
566.115	7372.9
566.477	7422.16
566.839	7434.14
567.201	7499.45
567.563	7485.66
567.925	7553.91
568.287	7519.34
568.648	7529.96
569.01	7584.87
569.372	7680.24
569.734	7652.89
570.095	7726.79
570.457	7778.99
570.819	7759.33
571.18	7778.99
571.542	7817.63
571.903	7803.17
572.265	7933.79
572.626	7974.92
572.987	7983.28
573.349	8051.75
573.71	8077.51
574.071	8089.94
574.432	8171.07
574.794	8247.68
575.155	8303.72
575.516	8331.07
575.877	8357.05
576.238	8404.96
576.599	8481.8
576.96	8529.48
577.32	8596.14
577.681	8686.09
578.042	8757.95
578.403	8833.65
578.763	8863.93
579.124	8985.06
579.485	9070.48
579.845	9205.39
580.206	9203.81
580.566	9273.19
580.927	9427.53
581.287	9654.2
581.648	9596.34
582.008	9837.24
582.368	9884.7
582.728	10051.25
583.089	10120.17
583.449	10293.27
583.809	10456.43
584.169	10643.55
584.529	10845.35
584.889	11048.28
585.249	11068.85
585.609	11295.28
585.969	11493.92
586.329	11666.57
586.688	11920.12
587.048	12089.16
587.408	12223.62
587.768	12440.34
588.127	12694.12
588.487	12936.59
588.846	13220.88
589.206	13347.88
589.565	13569.57
589.925	13843.24
590.284	14087.98
590.643	14308.76
591.003	14600.51
591.362	14904.23
591.721	15157.1
592.08	15412.69
592.44	15606.36
592.799	15969.74
593.158	16133.57
593.517	16487.69
593.876	16802.48
594.235	16992.53
594.593	17261
594.952	17651.27
595.311	17835
595.67	18138.04
596.029	18589.78
596.387	18868.64
596.746	19150.44
597.104	19454.84
597.463	19505.01
597.822	20062.96
598.18	20156.29
598.538	20431.09
598.897	20829.27
599.255	20910.85
599.613	21553.54
599.972	21618.17
600.33	22051.38
600.688	22117.6
601.046	22483.69
601.404	22792.83
601.762	23055.2
602.12	23387.85
602.478	23737.44
602.836	23956.19
603.194	24089.97
603.552	24416.52
603.91	24656.96
604.268	25059.89
604.625	25198.65
604.983	25482.48
605.341	25519.99
605.698	26141.9
606.056	26290.59
606.413	26419.86
606.771	26914.08
607.128	27034.3
607.485	27166.28
607.843	27411.24
608.2	27857.33
608.557	28093.48
608.914	28154.5
609.272	28620.7
609.629	28788.38
609.986	29083.51
610.343	29195.83
610.7	29647.57
611.057	29700.9
611.414	29849.14
611.771	29963.49
612.127	30382.69
612.484	30514.89
612.841	30871.49
613.198	30882.11
613.554	30976.12
613.911	31321.87
614.267	31472.83
614.624	31653.39
614.98	31811.58
615.337	32100.84
615.693	32127.73
616.05	32294.5
616.406	32646.36
616.762	32610.2
617.118	32778.11
617.475	32839.35
617.831	33172
618.187	33269.17
618.543	33373.8
618.899	33710.06
619.255	33758.19
619.611	33832.09
619.967	34201.57
620.323	34247.45
620.678	34087.9
621.034	34240.67
621.39	34318.18
621.746	34442.92
622.101	34773.53
622.457	34740.32
622.812	34898.96
623.168	34966.3
623.523	35196.8
623.879	35305.27
624.234	35239.51
624.589	35464.82
624.945	35496.68
625.3	35581.2
625.655	35604.25
626.01	35846.27
626.365	35900.51
626.72	35901.41
627.075	35852.38
627.43	36119.04
627.785	35979.6
628.14	36133.27
628.495	36166.49
628.85	36299.6
629.205	36064.12
629.559	36384.11
629.914	36353.15
630.269	36298.01
630.623	36409.65
630.978	36413.49
631.332	36572.81
631.687	36632.92
632.041	36495.75
632.396	36599.93
632.75	36475.41
633.104	36597.67
633.459	36450.55
633.813	36526.94
634.167	36535.52
634.521	36576.65
634.875	36663.43
635.229	36646.71
635.583	36588.18
635.937	36567.16
636.291	36466.15
636.645	36558.8
636.999	36634.28
637.352	36627.72
637.706	36516.54
638.06	36733.03
638.413	36502.53
638.767	36444.68
639.121	36602.19
639.474	36498.69
639.828	36407.84
640.181	36698.46
640.534	36629.08
640.888	36472.25
641.241	36331.23
641.594	36579.59
641.947	36494.85
642.301	36399.25
642.654	36487.84
643.007	36617.1
643.36	36573.94
643.713	36464.34
644.066	36526.48
644.419	36461.17
644.771	36234.97
645.124	35880.17
645.477	35872.04
645.83	35603.57
646.182	35568.54
646.535	35423.46
646.888	35397.93
647.24	35265.05
647.593	35539.84
647.945	35498.49
648.298	35347.31
648.65	35375.78
649.002	35290.36
649.355	35372.16
649.707	35248.1
650.059	35344.14
650.411	35810.34
650.763	35833.62
651.115	36168.07
651.467	36035.42
651.819	36119.71
652.171	35987.74
652.523	36196.55
652.875	35986.61
653.227	35905.48
653.578	36222.54
653.93	36030.68
654.282	35902.32
654.633	35833.85
654.985	35918.59
655.337	36031.13
655.688	35925.37
656.039	35978.47
656.391	35771.93
656.742	35755.43
657.094	35776.9
657.445	35874.3
657.796	35907.97
658.147	35763.57
658.498	35782.1
658.849	35830.23
659.2	35765.6
659.551	35755.2
659.902	35940.06
660.253	35840.4
660.604	35844.02
660.955	35647.64
661.306	35868.42
661.656	35758.59
662.007	35799.5
662.358	35778.25
662.708	35724.47
663.059	35684.7
663.409	35485.15
663.76	35773.51
664.11	35695.32
664.461	35737.58
664.811	35737.58
665.161	35738.71
665.511	35574.19
665.862	35584.13
666.212	35671.59
666.562	35886.73
666.912	35548.43
667.262	35676.34
667.612	35716.79
667.962	35653.74
668.312	35665.04
668.662	35758.82
669.011	35663.45
669.361	35614.64
669.711	35540.07
670.06	35575.55
670.41	35475.66
670.76	35485.38
671.109	35624.81
671.459	35522.22
671.808	35421.43
672.157	35491.93
672.507	35223.92
672.856	35299.17
673.205	35311.15
673.554	35538.03
673.904	35147.54
674.253	35509.56
674.602	35505.72
674.951	34899.86
675.3	34866.64
675.649	35182.56
675.998	35184.37
676.346	35315.89
676.695	35304.37
677.044	35140.76
677.393	35251.71
677.741	35127.2
678.09	35105.05
678.438	35103.02
678.787	35188.89
679.135	35209.23
679.484	34909.8
679.832	35047.88
680.181	34763.59
680.529	35014.21
680.877	34736.47
681.225	34792.52
681.573	34927.43
681.922	34859.86
682.27	34528.34
682.618	34778.05
682.966	34530.15
683.314	34580.55
683.661	34586.2
684.009	34476.14
684.357	34293.32
684.705	34262.14
685.053	34368.12
685.4	34292.64
685.748	34099.2
686.095	33997.51
686.443	34104.85
686.79	33944.4
687.138	33937.62
687.485	33952.31
687.832	33859.66
688.18	33877.29
688.527	33682.94
688.874	33696.95
689.221	33709.16
689.568	33526.56
689.915	33498.31
690.262	33452.67
690.609	33408.37
690.956	33208.6
691.303	33197.76
691.65	32987.59
691.997	33058.55
692.344	32914.15
692.69	32835.51
693.037	32872.79
693.383	32558.23
693.73	32672.8
694.077	32503.09
694.423	32467.83
694.769	32377.44
695.116	32354.84
695.462	32313.26
695.808	32156.43
696.155	32292.7
696.501	32031.46
696.847	32099.25
697.193	31926.15
697.539	31974.29
697.885	31784.01
698.231	31655.65
698.577	31536.56
698.923	31558.25
699.269	31404.58
699.614	31339.05
699.96	31265.6
700.306	31280.07
700.651	31129.34
700.997	30912.17
701.342	30988.32
701.688	30839.63
702.033	30959.85
702.379	30870.59
702.724	30737.03
703.069	30693.64
703.415	30302.24
703.76	30460.65
704.105	30413.2
704.45	30365.29
704.795	30131.85
705.14	30012.76
705.485	30073.32
705.83	29791.29
706.175	29915.58
706.52	29898.41
706.865	29664.29
707.209	29728.7
707.554	29540.45
707.899	29662.03
708.243	29461.13
708.588	29503.16
708.932	29349.72
709.277	29302.04
709.621	29415.71
709.966	29151.76
710.31	29184.98
710.654	28882.62
710.998	28928.49
711.342	29031.54
711.687	28821.83
712.031	28742.73
712.375	28657.76
712.719	28775.95
713.063	28705.45
713.407	28727.37
713.75	28702.28
714.094	28474.04
714.438	28375.06
714.782	28502.74
715.125	28278.79
715.469	28359.69
715.812	28225.46
716.156	28163.31
716.499	28149.98
716.843	28215.97
717.186	27888.97
717.53	28078.57
717.873	28121.05
718.216	28087.83
718.559	27807.84
718.902	27671.12
719.246	27724.45
719.589	27666.83
719.932	27510
720.275	27531.47
720.617	27530.11
720.96	27393.84
721.303	27434.52
721.646	27401.98
721.989	27234.98
722.331	27386.84
722.674	27287.63
723.016	27286.27
723.359	27197.91
723.701	27209.67
724.044	26954.53
724.386	26856.45
724.729	27094.19
725.071	26931.03
725.413	26985.72
725.755	26865.49
726.097	26780.98
726.439	26670.02
726.782	26661.21
727.124	26834.76
727.465	26556.12
727.807	26603.81
728.149	26534.43
728.491	26342.57
728.833	26534.88
729.175	26402
729.516	26338.73
729.858	26285.4
730.199	26355.23
730.541	26249.24
730.882	26299.18
731.224	26360.87
731.565	26109.36
731.906	26162.01
732.248	26202.23
732.589	25999.98
732.93	25905.07
733.271	25857.61
733.612	25972.86
733.953	25949.13
734.294	25759.99
734.635	25836.82
734.976	25872.98
735.317	25633.89
735.658	25654
735.999	25698.75
736.339	25745.75
736.68	25645.64
737.021	25580.78
737.361	25489.71
737.702	25616.04
738.042	25411.52
738.383	25523.83
738.723	25456.04
739.063	25340.79
739.404	25421.69
739.744	25195.48
740.084	25216.27
740.424	25208.36
740.764	25309.15
741.104	25187.35
741.444	25019.89
741.784	25063.96
742.124	25077.97
742.464	25093.11
742.804	25009.27
743.143	24926.34
743.483	24944.87
743.823	24950.74
744.162	24830.97
744.502	24833.01
744.841	24764.08
745.181	24788.49
745.52	24744.65
745.86	24715.27
746.199	24651.32
746.538	24722.05
746.877	24720.01
747.216	24687.25
747.556	24515.5
747.895	24701.48
748.234	24410.19
748.573	24448.83
748.911	24365.22
749.25	24299.91
749.589	24350.31
749.928	24380.14
750.267	24270.76
750.605	24144.89
750.944	24220.14
751.283	24088.39
751.621	24159.58
751.96	24027.83
752.298	23925.46
752.636	24013.14
752.975	23883.2
753.313	23817.89
753.651	23939.7
753.989	23730.21
754.327	23685.24
754.666	23575.86
755.004	23649.31
755.342	23647.05
755.679	23628.97
756.017	23389.65
756.355	23475.75
756.693	23360.5
757.031	23480.72
757.368	23299.49
757.706	23254.52
758.044	23167.29
758.381	23205.03
758.719	23064.24
759.056	23150.56
759.394	23069.21
759.731	22935.43
760.068	22743.12
760.405	22771.59
760.743	22612.95
761.08	22740.63
761.417	22530.47
761.754	22591.03
762.091	22523.01
762.428	22395.1
762.765	22370.92
763.102	22447.31
763.438	22219.06
763.775	22194.43
764.112	22113.98
764.449	22129.12
764.785	22044.83
765.122	21904.49
765.458	21833.54
765.795	21824.27
766.131	21725.29
766.467	21544.96
766.804	21590.38
767.14	21486.2
767.476	21438.97
767.812	21425.86
768.148	21439.87
768.485	21303.83
768.821	21205.3
769.157	21187.68
769.492	21015.93
769.828	21091.41
770.164	20895.03
770.5	20799.44
770.836	20803.05
771.171	20720.35
771.507	20530.97
771.842	20556.06
772.178	20488.26
772.513	20440.13
772.849	20341.37
773.184	20318.32
773.519	20269.74
773.855	20192
774.19	20139.57
774.525	19986.13
774.86	20083.98
775.195	19974.38
775.53	19892.8
775.865	19771.44
776.2	19668.85
776.535	19536.42
776.87	19586.14
777.205	19517.44
777.539	19406.03
777.874	19464.56
778.209	19211.01
778.543	19279.93
778.878	19122.87
779.212	19001.97
779.547	18980.28
779.881	18990.45
780.215	18862.54
780.55	18917.68
780.884	18703.45
781.218	18696.44
781.552	18765.14
781.886	18515.66
782.22	18409.67
782.554	18398.6
782.888	18193.86
783.222	18235.89
783.556	18159.28
783.889	18080.41
784.223	17919.74
784.557	17922
784.89	17859.86
785.224	17766.07
785.557	17740.76
785.891	17738.5
786.224	17700.09
786.558	17598.17
786.891	17464.61
787.224	17378.29
787.557	17281.34
787.891	17300.32
788.224	17291.51
788.557	17314.78
788.89	17214.9
789.223	17110.95
789.556	17087.9
789.888	17022.59
790.221	16923.61
790.554	16815.81
790.887	16790.05
791.219	16708.93
791.552	16767.91
791.884	16640.23
792.217	16581.47
792.549	16514.13
792.882	16438.65
793.214	16348.03
793.546	16352.78
793.879	16224.19
794.211	16189.16
794.543	16186
794.875	16154.36
795.207	16168.6
795.539	16061.26
795.871	16037.3
796.203	15964.99
796.535	15759.12
796.867	15866.91
797.198	15762.74
797.53	15806.12
797.862	15547.83
798.193	15652.91
798.525	15579.46
798.856	15653.13
799.188	15374.04
799.519	15386.02
799.85	15296.31
800.182	15332.69
800.513	15355.51
800.844	15152.36
801.175	15225.8
801.506	15204.56
801.837	15114.39
802.168	15083.43
802.499	15005.24
802.83	14966.6
803.161	14891.57
803.491	14875.53
803.822	14916.2
804.153	14712.59
804.483	14667.17
804.814	14669.66
805.145	14600.96
805.475	14592.82
805.805	14547.85
806.136	14496.55
806.466	14514.18
806.796	14477.57
807.126	14344.02
807.457	14356.67
807.787	14320.06
808.117	14207.52
808.447	14183.12
808.777	14230.8
809.107	14200.06
809.436	14155.32
809.766	14084.36
810.096	14049.56
810.426	13940.86
810.755	13938.83
811.085	13900.19
811.414	13894.08
811.744	13794.2
812.073	13764.6
812.403	13860.19
812.732	13694.09
813.061	13703.13
813.39	13635.11
813.719	13593.07
814.049	13621.77
814.378	13492.51
814.707	13541.78
815.036	13526.41
815.365	13408.22
815.693	13309.24
816.022	13289.13
816.351	13328.9
816.68	13229.47
817.008	13276.25
817.337	13216.14
817.665	13123.71
817.994	13127.1
818.322	13114.22
818.651	13076.7
818.979	12990.6
819.307	13049.36
819.636	12983.83
819.964	12924.84
820.292	13027.21
820.62	12946.31
820.948	12863.38
821.276	13024.5
821.604	12916.26
821.932	12904.96
822.259	12974.33
822.587	12873.77
822.915	12788.35
823.243	12956.71
823.57	12818.18
823.898	12854.34
824.225	12869.7
824.553	12838.97
824.88	12823.83
825.207	12863.15
825.535	12856.6
825.862	12892.53
826.189	12888.01
826.516	12787.45
826.843	12971.85
827.17	12886.88
827.497	12878.97
827.824	12897.5
828.151	12844.17
828.478	12835.13
828.805	12911.74
829.131	12795.36
829.458	12822.93
829.785	12748.8
830.111	12817.95
830.438	12893.88
830.764	12832.87
831.09	12848.24
831.417	12723.72
831.743	12832.42
832.069	12763.04
832.395	12712.42
832.722	12778.63
833.048	12756.49
833.374	12778.63
833.7	12676.04
834.026	12714.68
834.351	12731.4
834.677	12678.52
835.003	12706.54
835.329	12657.28
835.654	12642.59
835.98	12550.62
836.306	12547.23
836.631	12616.83
836.956	12617.51
837.282	12593.33
837.607	12511.52
837.932	12438.3
838.258	12527.34
838.583	12439.88
838.908	12350.17
839.233	12427.68
839.558	12417.96
839.883	12339.32
840.208	12311.07
840.533	12379.32
840.858	12295.93
841.182	12310.17
841.507	12313.79
841.832	12214.81
842.156	12201.92
842.481	12173.45
842.805	12137.52
843.13	12139.55
843.454	12117.18
843.778	12131.42
844.103	12047.8
844.427	11927.13
844.751	12010.29
845.075	11915.15
845.399	11899.11
845.723	11845.1
846.047	11928.49
846.371	11803.07
846.695	11827.47
847.019	11664.99
847.343	11694.82
847.666	11538.21
847.99	11511.77
848.313	11485.56
848.637	11477.42
848.96	11469.06
849.284	11434.71
849.607	11243.53
849.931	11251.89
850.254	11293.02
850.577	11138.68
850.9	11045.57
851.223	11029.53
851.546	11020.26
851.869	10904.33
852.192	11029.3
852.515	10887.16
852.838	10834.05
853.161	10867.04
853.483	10805.58
853.806	10754.73
854.129	10747.5
854.451	10693.49
854.774	10628.63
855.096	10640.84
855.419	10522.87
855.741	10588.18
856.063	10475.64
856.385	10447.17
856.708	10493.27
857.03	10348.64
857.352	10429.09
857.674	10353.84
857.996	10280.39
858.318	10276.1
858.64	10311.81
858.961	10257.8
859.283	10213.5
859.605	10152.04
859.926	10209.43
860.248	10134.63
860.57	10110.45
860.891	10098.7
861.212	10057.12
861.534	10121.98
861.855	10015.32
862.176	9973.28
862.498	9947.75
862.819	10012.38
863.14	10002.43
863.461	9873.17
863.782	9835.89
864.103	9871.59
864.424	9875.21
864.745	9863.68
865.065	9799.28
865.386	9808.54
865.707	9770.8
866.027	9649.22
866.348	9714.98
866.668	9733.52
866.989	9697.13
867.309	9594.76
867.63	9693.52
867.95	9602.22
868.27	9549.11
868.59	9600.64
868.91	9615.55
869.23	9588.43
869.55	9554.99
869.87	9631.82
870.19	9460.98
870.51	9560.64
870.83	9533.75
871.15	9396.8
871.469	9483.13
871.789	9495.78
872.109	9455.78
872.428	9366.07
872.748	9425.27
873.067	9402.9
873.386	9422.79
873.706	9368.33
874.025	9360.87
874.344	9291.72
874.663	9319.06
874.982	9346.86
875.301	9341.44
875.62	9209.69
875.939	9216.01
876.258	9259.63
876.577	9234.77
876.896	9225.73
877.214	9196.35
877.533	9185.73
877.852	9147.54
878.17	9226.18
878.489	9197.48
878.807	9115.45
879.125	9103.93
879.444	9124.04
879.762	9020.99
880.08	9032.74
880.398	9102.12
880.716	9041.78
881.034	8998.39
881.352	9011.5
881.67	8925.17
881.988	8988
882.306	8923.82
882.624	8883.59
882.941	8893.31
883.259	8808.12
883.577	8841.34
883.894	8826.87
884.212	8804.05
884.529	8785.29
884.846	8748
885.164	8779.64
885.481	8752.52
885.798	8751.62
886.115	8710.27
886.432	8687.22
886.75	8647.22
887.067	8657.39
887.383	8596.82
887.7	8603.83
888.017	8503.94
888.334	8552.53
888.651	8451.97
888.967	8521.12
889.284	8517.5
889.6	8386.88
889.917	8407.9
890.233	8348.92
890.55	8365.42
890.866	8373.33
891.182	8306.89
891.498	8331.29
891.815	8251.52
892.131	8258.53
892.447	8256.04
892.763	8215.14
893.079	8154.35
893.395	8173.78
893.71	8098.98
894.026	8092.65
894.342	8110.73
894.657	8053.79
894.973	8058.08
895.289	7992.32
895.604	7935.37
895.92	7948.93
896.235	7959.55
896.55	7918.2
896.865	7922.04
897.181	7822.83
897.496	7851.53
897.811	7773.34
898.126	7844.98
898.441	7731.76
898.756	7717.3
899.071	7716.62
899.386	7692.89
899.7	7574.02
900.015	7618.32
900.33	7532.67
900.644	7565.21
900.959	7589.84
901.273	7503.52
901.588	7476.63
901.902	7446.57
902.216	7374.03
902.531	7396.18
902.845	7392.33
903.159	7381.03
903.473	7347.36
903.787	7272.11
904.101	7191.21
904.415	7253.58
904.729	7149.85
905.042	7137.2
905.356	7149.85
905.67	7143.07
905.984	7092
906.297	7082.51
906.611	7095.17
906.924	7069.18
907.237	7018.56
907.551	7011.33
907.864	6966.36
908.177	7000.03
908.491	6893.59
908.804	6929.75
909.117	6892.01
909.43	6836.19
909.743	6788.28
910.056	6727.94
910.368	6726.81
910.681	6727.27
910.994	6633.26
911.307	6605.01
911.619	6631.68
911.932	6649.75
912.244	6538.12
912.557	6516.65
912.869	6511.68
913.181	6482.75
913.494	6523.43
913.806	6439.59
914.118	6366.82
914.43	6369.99
914.742	6324.34
915.054	6322.31
915.366	6293.61
915.678	6249.99
915.99	6259.03
916.302	6210.22
916.613	6215.19
916.925	6206.15
917.236	6158.24
917.548	6081.86
917.859	6163.44
918.171	6116.89
918.482	6040.51
918.794	5979.49
919.105	6036.21
919.416	5941.98
919.727	5982.65
920.038	5917.12
920.349	5895.2
920.66	5884.12
920.971	5878.7
921.282	5843
921.593	5770.46
921.903	5817.69
922.214	5769.1
922.525	5748.54
922.835	5692.72
923.146	5694.3
923.456	5707.63
923.767	5624.02
924.077	5658.37
924.387	5643.45
924.697	5619.73
925.008	5555.55
925.318	5523
925.628	5527.75
925.938	5482.33
926.248	5453.63
926.558	5453.18
926.867	5364.82
927.177	5350.35
927.487	5375.89
927.796	5305.84
928.106	5363.91
928.416	5270.36
928.725	5303.58
929.034	5253.18
929.344	5254.54
929.653	5259.06
929.962	5238.72
930.271	5161.43
930.581	5152.62
930.89	5121.21
931.199	5120.53
931.508	5063.36
931.817	5052.96
932.125	5036.24
932.434	5058.84
932.743	5003.92
933.051	4981.55
933.36	4973.19
933.669	4919.86
933.977	4878.05
934.286	4878.73
934.594	4879.86
934.902	4854.77
935.21	4805.28
935.519	4820.88
935.827	4821.33
936.135	4762.12
936.443	4727.55
936.751	4699.75
937.059	4667.66
937.367	4686.42
937.674	4674.89
937.982	4641.22
938.29	4611.84
938.597	4620.2
938.905	4593.76
939.213	4546.98
939.52	4521.9
939.827	4560.54
940.135	4473.99
940.442	4474.22
940.749	4503.14
941.056	4464.28
941.363	4418.4
941.67	4416.14
941.977	4379.98
942.284	4337.95
942.591	4376.59
942.898	4358.74
943.205	4314.9
943.511	4291.62
943.818	4297.5
944.125	4241.91
944.431	4282.59
944.738	4232.19
945.044	4199.42
945.35	4219.31
945.657	4160.1
945.963	4148.58
946.269	4122.36
946.575	4122.82
946.881	4097.96
947.187	4135.47
947.493	4066.55
947.799	4046.43
948.105	4069.48
948.41	3995.36
948.716	4007.56
949.022	3977.06
949.327	3977.73
949.633	3931.41
949.938	3968.02
950.244	3926.89
950.549	3855.7
950.854	3871.52
951.16	3866.32
951.465	3844.86
951.77	3841.92
952.075	3805.31
952.38	3805.08
952.685	3810.06
952.99	3758.08
953.294	3774.8
953.599	3745.65
953.904	3748.81
954.209	3683.5
954.513	3723.5
954.818	3655.71
955.122	3648.25
955.426	3684.63
955.731	3651.87
956.035	3626.33
956.339	3622.49
956.643	3565.32
956.948	3531.64
957.252	3570.51
957.556	3558.31
957.86	3511.08
958.163	3532.77
958.467	3477.86
958.771	3520.57
959.075	3475.37
959.378	3495.94
959.682	3411.42
959.985	3405.77
960.289	3402.83
960.592	3396.96
960.896	3415.26
961.199	3363.29
961.502	3352.44
961.805	3306.79
962.108	3305.44
962.411	3326.45
962.714	3317.86
963.017	3270.41
963.32	3260.92
963.623	3264.98
963.926	3261.6
964.228	3232.9
964.531	3220.24
964.833	3202.16
965.136	3162.16
965.438	3154.93
965.741	3152.67
966.043	3136.4
966.345	3091.88
966.648	3122.39
966.95	3171.65
967.252	3087.14
967.554	3055.95
967.856	3068.83
968.158	3019.57
968.46	3037.87
968.761	3008.95
969.063	3042.17
969.365	2976.18
969.666	2986.57
969.968	2973.24
970.269	2980.92
970.571	2974.82
970.872	2957.42
971.174	2904.09
971.475	2949.06
971.776	2886.69
972.077	2855.05
972.378	2856.86
972.679	2866.13
972.98	2801.72
973.281	2836.75
973.582	2831.32
973.883	2815.73
974.183	2764.43
974.484	2780.03
974.785	2773.25
975.085	2751.33
975.386	2782.29
975.686	2740.93
975.986	2705.9
976.287	2745.68
976.587	2666.58
976.887	2679.69
977.187	2697.99
977.487	2684.89
977.787	2677.66
978.087	2625.68
978.387	2619.58
978.687	2606.02
978.987	2594.49
979.286	2559.01
979.586	2559.69
979.885	2615.06
980.185	2554.72
980.484	2517.21
980.784	2535.29
981.083	2538.22
981.382	2546.59
981.682	2496.42
981.981	2496.87
982.28	2483.99
982.579	2480.37
982.878	2447.15
983.177	2432.01
983.475	2446.25
983.774	2415.29
984.073	2422.97
984.372	2431.56
984.67	2410.54
984.969	2389.98
985.267	2352.47
985.566	2325.12
985.864	2354.5
986.162	2381.84
986.461	2358.34
986.759	2323.99
987.057	2314.28
987.355	2311.34
987.653	2271.11
987.951	2281.73
988.249	2258.23
988.547	2246.25
988.844	2274.28
989.142	2259.36
989.44	2238.35
989.737	2218.01
990.035	2210.55
990.332	2206.48
990.63	2176.88
990.927	2189.31
991.224	2175.3
991.521	2180.49
991.819	2172.81
992.116	2148.86
992.413	2141.4
992.71	2105.47
993.006	2141.4
993.303	2098.46
993.6	2079.93
993.897	2081.51
994.193	2081.51
994.49	2082.42
994.787	2080.84
995.083	2054.4
995.379	2039.71
995.676	2020.27
995.972	2021.63
996.268	2012.59
996.565	1979.82
996.861	2015.75
997.157	1988.41
997.453	2000.16
997.749	1987.96
998.044	1933.72
998.34	1953.38
998.636	1938.47
998.932	1933.49
999.227	1888.07
999.523	1910.44
999.818	1886.26
1000.114	1922.65
1000.409	1902.76
1000.704	1877
1001	1886.49
1001.295	1812.37
1001.59	1818.47
1001.885	1866.15
1002.18	1823.89
1002.475	1841.75
1002.77	1801.75
1003.065	1797.9
1003.359	1782.76
1003.654	1780.28
1003.949	1760.62
1004.243	1755.42
1004.538	1747.96
1004.832	1741.41
1005.127	1744.12
1005.421	1674.07
1005.715	1702.99
1006.009	1689.21
1006.304	1674.97
1006.598	1680.39
1006.892	1667.06
1007.186	1660.06
1007.48	1664.8
1007.773	1639.04
1008.067	1608.98
1008.361	1632.26
1008.655	1617.12
1008.948	1619.83
1009.242	1618.02
1009.535	1614.86
1009.829	1583.67
1010.122	1560.62
1010.415	1578.7
1010.708	1534.86
1011.001	1565.14
1011.295	1550.23
1011.588	1559.94
1011.881	1528.08
1012.173	1522.88
1012.466	1524.01
1012.759	1511.58
1013.052	1470.46
1013.344	1489.89
1013.637	1491.25
1013.93	1487.4
1014.222	1465.48
1014.514	1434.3
1014.807	1451.47
1015.099	1417.35
1015.391	1416.67
1015.683	1424.13
1015.976	1437.91
1016.268	1385.03
1016.56	1411.25
1016.851	1369.67
1017.143	1394.53
1017.435	1397.24
1017.727	1348.42
1018.018	1377.58
1018.31	1368.31
1018.602	1324.24
1018.893	1307.52
1019.185	1316.56
1019.476	1304.58
1019.767	1298.48
1020.058	1296.9
1020.35	1291.25
1020.641	1290.12
1020.932	1273.85
1021.223	1255.55
1021.514	1256
1021.804	1248.09
1022.095	1253.29
1022.386	1255.09
1022.677	1222.33
1022.967	1229.78
1023.258	1191.14
1023.548	1205.15
1023.839	1150.46
1024.129	1211.93
1024.419	1165.15
1024.709	1170.8
1025	1173.29
1025.29	1147.75
1025.58	1178.71
1025.87	1164.7
1026.16	1136.45
1026.449	1140.29
1026.739	1125.83
1027.029	1104.14
1027.319	1118.83
1027.608	1127.87
1027.898	1094.19
1028.187	1075.89
1028.477	1110.69
1028.766	1098.94
1029.055	1053.29
1029.344	1048.32
1029.634	1053.07
1029.923	1052.39
1030.212	1037.7
1030.501	1025.72
1030.79	1044.93
1031.078	1027.08
1031.367	1034.53
1031.656	1007.42
1031.945	976.23
1032.233	983.24
1032.522	1012.61
1032.81	966.51
1033.099	971.03
1033.387	974.42
1033.675	949.57
1033.963	972.62
1034.251	968.77
1034.54	945.27
1034.828	954.76
1035.116	927.42
1035.403	926.74
1035.691	942.56
1035.979	944.14
1036.267	925.84
1036.554	917.48
1036.842	912.05
1037.129	888.1
1037.417	881.32
1037.704	884.03
1037.992	874.77
1038.279	872.73
1038.566	840.19
1038.853	840.19
1039.14	840.19
