Data from hue_24_FLMS001491_00025.txt Node
Date: Tue Feb 07 17:12:02 GMT 2017
User: dcchb
Spectrometer: FLMS00149
Trigger mode: 0
Integration Time (sec): 2.000000E-2
Scans to average: 10
Electric dark correction enabled: true
Nonlinearity correction enabled: false
Boxcar width: 0
XAxis mode: Wavelengths
Number of Pixels in Spectrum: 2048
>>>>>Begin Spectral Data<<<<<
341.393	-6.21
341.776	-6.21
342.16	-6.21
342.543	-60.9
342.927	-74.01
343.31	-75.14
343.693	-64.74
344.077	-50.28
344.46	-59.77
344.843	-48.02
345.226	-41.92
345.61	-34.01
345.993	-26.55
346.376	8.25
346.759	7.57
347.142	17.06
347.525	34.69
347.908	68.81
348.291	67.91
348.674	89.6
349.057	106.55
349.44	130.28
349.823	160.11
350.206	182.26
350.588	192.2
350.971	221.8
351.354	229.94
351.737	253.21
352.119	245.98
352.502	259.09
352.884	292.31
353.267	271.97
353.65	284.85
354.032	302.25
354.414	310.61
354.797	316.71
355.179	314.46
355.562	312.87
355.944	334.12
356.326	342.25
356.709	345.41
357.091	340.89
357.473	354.91
357.855	333.44
358.238	333.89
358.62	357.62
359.002	347
359.384	337.28
359.766	342.7
360.148	356.49
360.53	344.06
360.912	321.91
361.294	321.91
361.676	349.48
362.057	338.41
362.439	335.7
362.821	328.69
363.203	335.47
363.584	345.64
363.966	338.86
364.348	333.21
364.729	335.02
365.111	314
365.493	341.12
365.874	306.77
366.256	311.97
366.637	327.79
367.019	314.91
367.4	352.87
367.781	297.96
368.163	327.11
368.544	328.01
368.925	318.52
369.306	352.87
369.688	327.79
370.069	305.42
370.45	316.04
370.831	293.89
371.212	321.23
371.593	304.29
371.974	326.21
372.355	312.87
372.736	315.36
373.117	315.13
373.498	328.01
373.879	322.36
374.26	317.39
374.641	310.16
375.021	323.72
375.402	299.09
375.783	332.31
376.163	336.15
376.544	340.22
376.925	327.11
377.305	325.98
377.686	330.27
378.066	323.72
378.447	318.52
378.827	331.4
379.208	326.21
379.588	324.4
379.968	342.93
380.349	333.21
380.729	333.66
381.109	347.22
381.489	350.84
381.87	335.02
382.25	335.02
382.63	311.29
383.01	368.92
383.39	340.67
383.77	361.69
384.15	364.17
384.53	354.91
384.91	336.6
385.29	346.32
385.67	385.19
386.049	375.92
386.429	364.4
386.809	361.69
387.189	351.29
387.568	356.71
387.948	379.99
388.328	371.18
388.707	361.69
389.087	357.17
389.466	353.55
389.846	370.05
390.225	376.83
390.605	367.33
390.984	377.5
391.363	364.17
391.743	341.35
392.122	384.28
392.501	373.89
392.881	389.26
393.26	375.24
393.639	374.34
394.018	404.4
394.397	401.68
394.776	392.65
395.155	399.42
395.534	367.11
395.913	406.66
396.292	386.09
396.671	394
397.05	395.36
397.429	423.15
397.808	379.54
398.186	387.9
398.565	394.23
398.944	388.8
399.323	406.88
399.701	399.42
400.08	408.69
400.458	400.78
400.837	406.88
401.215	420.21
401.594	434.68
401.972	418.41
402.351	405.98
402.729	415.02
403.107	404.17
403.486	409.82
403.864	429.93
404.242	419.76
404.62	431.74
404.999	412.31
405.377	451.4
405.755	427.45
406.133	427.9
406.511	413.21
406.889	433.77
407.267	416.37
407.645	429.25
408.023	454.34
408.401	456.82
408.779	454.79
409.156	474.68
409.534	451.17
409.912	443.27
410.29	452.98
410.667	455.69
411.045	439.42
411.422	464.28
411.8	453.89
412.178	483.04
412.555	480.1
412.933	467.9
413.31	488.46
413.687	504.28
414.065	493.66
414.442	496.37
414.819	505.86
415.197	478.52
415.574	490.5
415.951	506.77
416.328	493.21
416.705	514.9
417.082	526.2
417.46	509.25
417.837	512.64
418.214	520.78
418.591	544.51
418.967	525.97
419.344	534.79
419.721	514.22
420.098	544.05
420.475	548.35
420.852	529.14
421.228	550.83
421.605	541.79
421.982	535.69
422.358	553.09
422.735	556.93
423.111	546.09
423.488	547.44
423.864	539.53
424.241	574.79
424.617	569.14
424.994	593.77
425.37	584.28
425.746	561.91
426.123	595.13
426.499	600.1
426.875	570.27
427.251	581.79
427.627	571.17
428.003	612.75
428.379	624.5
428.756	615.46
429.132	615.01
429.507	619.53
429.883	657.27
430.259	623.37
430.635	624.5
431.011	636.93
431.387	678.74
431.763	645.52
432.138	655.91
432.514	678.51
432.89	646.2
433.265	685.97
433.641	689.59
434.016	680.1
434.392	685.97
434.767	720.32
435.143	717.38
435.518	713.31
435.894	704.5
436.269	757.83
436.644	701.56
437.02	730.26
437.395	732.07
437.77	746.53
438.145	727.78
438.52	748.57
438.895	754.22
439.271	767.32
439.646	766.65
440.021	753.54
440.395	774.1
440.77	763.48
441.145	777.49
441.52	806.42
441.895	788.34
442.27	791.73
442.645	756.03
443.019	834.22
443.394	816.36
443.769	839.41
444.143	830.15
444.518	849.36
444.892	840.99
445.267	824.27
445.641	817.94
446.016	840.32
446.39	828.11
446.764	851.16
447.139	859.98
447.513	833.54
447.887	865.4
448.262	897.26
448.636	867.66
449.01	883.48
449.384	897.04
449.758	867.89
450.132	902.46
450.506	915.8
450.88	905.4
451.254	915.8
451.628	906.3
452.002	906.3
452.376	941.78
452.75	958.51
453.123	945.62
453.497	959.86
453.871	969.58
454.244	956.02
454.618	991.27
454.992	986.3
455.365	978.17
455.739	1024.49
456.112	1020.2
456.486	1002.12
456.859	1030.59
457.232	1050.71
457.606	1050.48
457.979	1066.75
458.352	1092.74
458.725	1075.34
459.099	1079.63
459.472	1106.98
459.845	1121.21
460.218	1108.56
460.591	1115.11
460.964	1143.59
461.337	1146.98
461.71	1182.23
462.083	1193.3
462.456	1188.1
462.829	1179.74
463.201	1216.13
463.574	1240.08
463.947	1249.35
464.32	1266.75
464.692	1273.07
465.065	1317.59
465.438	1341.55
465.81	1298.38
466.183	1321.43
466.555	1366.18
466.928	1349
467.3	1374.09
467.672	1351.94
468.045	1421.54
468.417	1419.96
468.789	1441.66
469.161	1450.92
469.534	1465.16
469.906	1505.16
470.278	1509.45
470.65	1543.8
471.022	1546.74
471.394	1593.74
471.766	1593.52
472.138	1608.88
472.51	1662.67
472.882	1658.6
473.253	1710.58
473.625	1727.53
473.997	1750.8
474.369	1773.63
474.74	1770.01
475.112	1822.21
475.484	1822.44
475.855	1891.14
476.227	1925.03
476.598	1960.29
476.97	2007.29
477.341	2033.73
477.713	2065.37
478.084	2095.88
478.455	2121.19
478.827	2177.91
479.198	2257
479.569	2244.12
479.94	2297.68
480.311	2302.88
480.682	2361.63
481.053	2426.04
481.424	2451.35
481.795	2508.97
482.166	2566.6
482.537	2623.32
482.908	2641.17
483.279	2675.52
483.65	2723.88
484.021	2808.85
484.391	2824.45
484.762	2894.27
485.133	2925.01
485.503	2946.93
485.874	3008.4
486.244	3061.95
486.615	3090.2
486.985	3166.36
487.356	3208.62
487.726	3267.6
488.097	3350.31
488.467	3344.66
488.837	3445.22
489.207	3503.98
489.578	3540.36
489.948	3590.3
490.318	3632.33
490.688	3681.37
491.058	3737.87
491.428	3778.32
491.798	3836.85
492.168	3930.63
492.538	3924.53
492.908	3974.02
493.278	4042.72
493.648	4096.95
494.017	4106.22
494.387	4174.24
494.757	4167.01
495.126	4254.92
495.496	4288.36
495.866	4324.52
496.235	4335.14
496.605	4383.05
496.974	4421.47
497.344	4475.25
497.713	4455.36
498.082	4529.49
498.452	4583.72
498.821	4610.39
499.19	4627.79
499.559	4689.03
499.928	4719.31
500.298	4709.59
500.667	4777.39
501.036	4822.59
501.405	4878.4
501.774	4895.35
502.143	4900.32
502.512	4968.34
502.88	4985.97
503.249	5017.61
503.618	5053.09
503.987	5033.2
504.356	5089.7
504.724	5099.19
505.093	5145.74
505.462	5194.33
505.83	5184.84
506.199	5246.75
506.567	5268.45
506.936	5287.88
507.304	5375.79
507.672	5338.96
508.041	5386.86
508.409	5411.27
508.777	5454.88
509.145	5496.01
509.514	5493.3
509.882	5530.59
510.25	5582.57
510.618	5580.31
510.986	5619.85
511.354	5667.31
511.722	5661.43
512.09	5717.48
512.458	5749.11
512.826	5758.83
513.193	5776.91
513.561	5768.1
513.929	5868.43
514.297	5879.73
514.664	5907.08
515.032	5964.02
515.4	5921.77
515.767	6006.06
516.135	5987.98
516.502	5965.61
516.869	6053.74
517.237	6126.51
517.604	6074.08
517.972	6110.69
518.339	6116.56
518.706	6176.67
519.073	6186.17
519.44	6217.35
519.808	6230.01
520.175	6267.74
520.542	6331.02
520.909	6362.43
521.276	6318.14
521.643	6421.87
522.009	6440.62
522.376	6464.12
522.743	6506.61
523.11	6587.51
523.477	6630.22
523.843	6660.95
524.21	6688.98
524.577	6707.96
524.943	6761.52
525.31	6747.51
525.676	6885.58
526.043	6894.62
526.409	6879.25
526.776	6965.13
527.142	6976.43
527.508	7071.34
527.874	7041.06
528.241	7119.47
528.607	7199.47
528.973	7220.49
529.339	7171.45
529.705	7254.39
530.071	7324.89
530.437	7356.08
530.803	7389.3
531.169	7393.14
531.535	7381.61
531.901	7458
532.267	7475.17
532.632	7549.52
532.998	7574.15
533.364	7633.36
533.73	7607.37
534.095	7688.5
534.461	7707.03
534.826	7719.01
535.192	7783.64
535.557	7864.09
535.923	7893.92
536.288	7868.83
536.653	7963.75
537.019	7899.34
537.384	7907.48
537.749	7943.86
538.114	8013.24
538.479	7997.19
538.845	8091.2
539.21	8058.88
539.575	8090.3
539.94	8098.21
540.305	8216.85
540.67	8173.46
541.034	8217.98
541.399	8260.46
541.764	8272.66
542.129	8389.72
542.494	8391.08
542.858	8419.1
543.223	8406.67
543.587	8427.91
543.952	8496.39
544.316	8576.16
544.681	8512.88
545.045	8615.25
545.41	8623.62
545.774	8702.94
546.138	8649.6
546.503	8762.37
546.867	8698.42
547.231	8808.24
547.595	8806.44
547.959	8817.06
548.324	8888.01
548.688	8848.92
549.052	8887.34
549.416	8977.96
549.779	9006.43
550.143	9012.53
550.507	9025.64
550.871	9117.39
551.235	9044.85
551.599	9147.44
551.962	9182.92
552.326	9221.34
552.689	9225.41
553.053	9290.04
553.417	9253.88
553.78	9419.53
554.143	9408.45
554.507	9420.2
554.87	9361.9
555.234	9442.35
555.597	9438.51
555.96	9546.08
556.323	9540.2
556.686	9492.52
557.05	9565.96
557.413	9636.7
557.776	9695.68
558.139	9805.28
558.502	9665.4
558.865	9715.56
559.228	9804.6
559.59	9880.53
559.953	9839.18
560.316	9974.09
560.679	9917.14
561.041	10041.2
561.404	10062
561.767	10102.45
562.129	10067.42
562.492	10179.05
562.854	10103.35
563.217	10199.84
563.579	10179.73
563.941	10283.68
564.304	10292.27
564.666	10340.18
565.028	10359.39
565.39	10380.86
565.753	10453.62
566.115	10520.06
566.477	10544.02
566.839	10562.32
567.201	10622.21
567.563	10626.5
567.925	10695.42
568.287	10799.6
568.648	10717.8
569.01	10845.25
569.372	10905.14
569.734	10826.27
570.095	11001.63
570.457	11024.68
570.819	11078.92
571.18	11009.77
571.542	11118.01
571.903	11106.04
572.265	11204.34
572.626	11251.12
572.987	11306.93
573.349	11371.34
573.71	11423.77
574.071	11440.72
574.432	11507.83
574.794	11538.79
575.155	11604.55
575.516	11651.78
575.877	11770.65
576.238	11878.67
576.599	11869.86
576.96	11943.3
577.32	12020.59
577.681	12174.93
578.042	12281.15
578.403	12313.01
578.763	12447.02
579.124	12546.45
579.485	12600.46
579.845	12760.68
580.206	12757.74
580.566	12961.58
580.927	13053.33
581.287	13298.75
581.648	13284.51
582.008	13490.15
582.368	13704.84
582.728	13676.14
583.089	13911.16
583.449	14021.44
583.809	14177.14
584.169	14392.95
584.529	14487.87
584.889	14726.73
585.249	14940.06
585.609	15021.41
585.969	15315.42
586.329	15427.28
586.688	15619.82
587.048	15802.41
587.408	15990.43
587.768	16269.74
588.127	16485.1
588.487	16717.64
588.846	17139.55
589.206	17241.02
589.565	17600.55
589.925	17764.17
590.284	17998.74
590.643	18293.42
591.003	18644.14
591.362	18918.03
591.721	19199.16
592.08	19430.34
592.44	19683.44
592.799	20041.39
593.158	20233.71
593.517	20536.97
593.876	20943.74
594.235	21172.21
594.593	21544.63
594.952	21791.18
595.311	22072.53
595.67	22420.54
596.029	22815.33
596.387	23163.57
596.746	23484.24
597.104	23614.41
597.463	23968.75
597.822	24455.74
598.18	24654.38
598.538	24933.47
598.897	25313.12
599.255	25401.25
599.613	26174.11
599.972	26123.27
600.33	26626.31
600.688	26750.6
601.046	27216.12
601.404	27515.32
601.762	27722.32
602.12	28203.21
602.478	28466.26
602.836	28612.92
603.194	28835.74
603.552	29219.91
603.91	29418.32
604.268	29877.07
604.625	29970.4
604.983	30384.62
605.341	30546.2
605.698	30845.4
606.056	31071.61
606.413	31466.4
606.771	31762.67
607.128	32116.78
607.485	32035.2
607.843	32368.53
608.2	32587.73
608.557	33093.93
608.914	33104.55
609.272	33630.64
609.629	33701.6
609.986	34063.17
610.343	34175.71
610.7	34601.24
611.057	34703.38
611.414	34941.12
611.771	35307.89
612.127	35534.77
612.484	35648.44
612.841	36003.46
613.198	35932.73
613.554	36225.83
613.911	36590.11
614.267	36690.45
614.624	36868.75
614.98	36870.56
615.337	37328.4
615.693	37452.69
616.05	37560.48
616.406	37911.43
616.762	37926.35
617.118	37922.73
617.475	38177.19
617.831	38339.67
618.187	38523.62
618.543	38697.4
618.899	39006.54
619.255	39231.17
619.611	39248.35
619.967	39428.23
620.323	39620.99
620.678	39524.72
621.034	39694.44
621.39	39744.15
621.746	39858.27
622.101	40272.95
622.457	40155.44
622.812	40299.62
623.168	40550.46
623.523	40481.99
623.879	40789.1
624.234	40689.89
624.589	40900.05
624.945	41064.34
625.3	41114.29
625.655	41121.74
626.01	41308.41
626.365	41207.84
626.72	41259.59
627.075	41438.57
627.43	41389.53
627.785	41387.73
628.14	41667.27
628.495	41673.59
628.85	41621.39
629.205	41622.52
629.559	41937.77
629.914	41822.52
630.269	41844.21
630.623	41825.91
630.978	41889.86
631.332	42046.92
631.687	41994.26
632.041	41968.73
632.396	42154.71
632.75	41976.18
633.104	42291.2
633.459	42010.76
633.813	42053.47
634.167	41963.98
634.521	42057.54
634.875	42156.52
635.229	42221.6
635.583	42060.02
635.937	42102.28
636.291	42063.19
636.645	41943.64
636.999	42067.93
637.352	42182.96
637.706	41926.47
638.06	42310.41
638.413	42103.41
638.767	42039.91
639.121	42102.96
639.474	41978.22
639.828	42006.69
640.181	42044.21
640.534	41928.73
640.888	41942.06
641.241	41781.16
641.594	41987.03
641.947	42093.7
642.301	42111.1
642.654	41931.89
643.007	42091.89
643.36	41940.71
643.713	41980.7
644.066	42014.38
644.419	41810.99
644.771	41764.66
645.124	41351.12
645.477	41279.25
645.83	40935.99
646.182	40899.6
646.535	40791.58
646.888	40774.86
647.24	40677.24
647.593	40935.08
647.945	40849.89
648.298	40628.65
648.65	40706.16
649.002	40602.66
649.355	40801.53
649.707	40692.38
650.059	40889.21
650.411	41461.4
650.763	41332.13
651.115	41743.42
651.467	41495.75
651.819	41557.44
652.171	41463.2
652.523	41304.11
652.875	41333.72
653.227	41340.49
653.578	41720.6
653.93	41519.7
654.282	41337.56
654.633	41279.03
654.985	41396.76
655.337	41415.97
655.688	41458.68
656.039	41489.19
656.391	41207.17
656.742	41283.32
657.094	41285.36
657.445	41373.49
657.796	41355.18
658.147	41233.15
658.498	41275.86
658.849	41161.74
659.2	41180.27
659.551	41271.8
659.902	41284.68
660.253	41063.67
660.604	41328.52
660.955	41101.41
661.306	41272.25
661.656	41098.69
662.007	41311.57
662.358	41192.02
662.708	41247.62
663.059	41246.49
663.409	40998.36
663.76	41290.33
664.11	41182.08
664.461	41271.12
664.811	41193.38
665.161	41079.94
665.511	41215.07
665.862	41185.47
666.212	41235.41
666.562	41232.7
666.912	41126.94
667.262	41103.44
667.612	41142.31
667.962	41184.79
668.312	41092.37
668.662	41334.62
669.011	41128.52
669.361	41085.59
669.711	40972.82
670.06	41081.97
670.41	40955.42
670.76	41016.66
671.109	40911.13
671.459	40937.79
671.808	40892.6
672.157	41034.51
672.507	40667.07
672.856	40746.39
673.205	40818.7
673.554	40943.22
673.904	40902.77
674.253	41017.11
674.602	40901.64
674.951	40347.3
675.3	40151.15
675.649	40788.42
675.998	40798.14
676.346	40749.32
676.695	40795.42
677.044	40437.24
677.393	40704.13
677.741	40737.35
678.09	40532.61
678.438	40522.21
678.787	40619.84
679.135	40601.31
679.484	40381.42
679.832	40535.32
680.181	40373.97
680.529	40328.54
680.877	40290.13
681.225	40216.68
681.573	40549.33
681.922	40272.27
682.27	40180.53
682.618	40002.9
682.966	40035.9
683.314	40064.6
683.661	40006.74
684.009	39760.88
684.357	39694.44
684.705	39672.29
685.053	39892.17
685.4	39526.31
685.748	39445.18
686.095	39491.5
686.443	39332.64
686.79	39170.83
687.138	39398.85
687.485	39263.94
687.832	39138.29
688.18	39267.1
688.527	39082.93
688.874	39070.05
689.221	38971.74
689.568	38987.11
689.915	38802.48
690.262	38877.51
690.609	38603.17
690.956	38454.24
691.303	38645.88
691.65	38217.41
691.997	38339.22
692.344	38136.74
692.69	38189.84
693.037	37990.75
693.383	37750.08
693.73	37855.84
694.077	37652.91
694.423	37676.64
694.769	37594.38
695.116	37432.12
695.462	37630.54
695.808	37445
696.155	37256.53
696.501	37108.97
696.847	37005.69
697.193	36871.69
697.539	37065.58
697.885	36698.81
698.231	36761.18
698.577	36734.06
698.923	36604.8
699.269	36531.58
699.614	36368.87
699.96	36261.31
700.306	36267.86
700.651	36071.25
700.997	36109.45
701.342	35950.58
701.688	35919.62
702.033	35800.75
702.379	35668.33
702.724	35725.73
703.069	35683.92
703.415	35336.58
703.76	35247.55
704.105	35354.89
704.45	35295.23
704.795	35033.77
705.14	34958.06
705.485	34977.05
705.83	34818.18
706.175	34771.18
706.52	34777.28
706.865	34576.6
707.209	34557.17
707.554	34483.05
707.899	34535.25
708.243	34398.3
708.588	34375.48
708.932	34043.29
709.277	34231.98
709.621	34023.85
709.966	33765.55
710.31	33991.76
710.654	33704.09
710.998	33715.61
711.342	33675.84
711.687	33660.47
712.031	33460.48
712.375	33432.68
712.719	33417.31
713.063	33371.66
713.407	33458.44
713.75	33367.37
714.094	33180.03
714.438	33060.49
714.782	33063.2
715.125	33019.13
715.469	33021.62
715.812	32902.3
716.156	32712.7
716.499	32615.75
716.843	32698.24
717.186	32584.79
717.53	32678.12
717.873	32457.11
718.216	32526.72
718.559	32366.27
718.902	32286.95
719.246	32354.06
719.589	32183.22
719.932	32154.07
720.275	32113.39
720.617	31971.7
720.96	31968.31
721.303	31864.13
721.646	31985.03
721.989	31741.2
722.331	31817.81
722.674	31846.28
723.016	31822.33
723.359	31579.62
723.701	31715.21
724.044	31505.05
724.386	31336.24
724.729	31474.77
725.071	31438.16
725.413	31409
725.755	31274.77
726.097	31137.15
726.439	31005.4
726.782	31020.09
727.124	31173.3
727.465	30927.89
727.807	30965.17
728.149	30856.02
728.491	30829.36
728.833	30902.8
729.175	30689.93
729.516	30679.53
729.858	30785.29
730.199	30692.41
730.541	30631.62
730.882	30555.47
731.224	30585.3
731.565	30362.03
731.906	30325.64
732.248	30413.55
732.589	30263.05
732.93	30140.11
733.271	30370.39
733.612	30327.68
733.953	30236.38
734.294	30056.27
734.635	30169.49
734.976	30198.64
735.317	29934.69
735.658	29910.06
735.999	29923.17
736.339	29874.81
736.68	29961.81
737.021	29860.57
737.361	29798.43
737.702	29823.51
738.042	29746.45
738.383	29677.07
738.723	29768.6
739.063	29611.09
739.404	29605.21
739.744	29612.67
740.084	29445.44
740.424	29560.92
740.764	29457.87
741.104	29493.8
741.444	29317.53
741.784	29246.12
742.124	29261.04
742.464	29319.57
742.804	29257.87
743.143	29148.5
743.483	29144.66
743.823	29077.77
744.162	28981.95
744.502	29112.12
744.841	28903.99
745.181	28999.35
745.52	28926.36
745.86	28975.62
746.199	28826.02
746.538	28722.07
746.877	28792.8
747.216	28812.69
747.556	28718.91
747.895	28730.88
748.234	28544.9
748.573	28604.33
748.911	28510.1
749.25	28525.46
749.589	28387.84
749.928	28397.56
750.267	28494.96
750.605	28401.4
750.944	28188.07
751.283	28243.44
751.621	28208.64
751.96	28162.76
752.298	28125.48
752.636	28075.76
752.975	28022.65
753.313	27871.92
753.651	28015.2
753.989	27791.25
754.327	27810
754.666	27699.72
755.004	27705.83
755.342	27784.02
755.679	27686.16
756.017	27566.85
756.355	27583.57
756.693	27552.16
757.031	27518.26
757.368	27350.58
757.706	27456.57
758.044	27242.11
758.381	27258.15
758.719	27070.59
759.056	27208.44
759.394	26985.84
759.731	26832.63
760.068	26735.46
760.405	26758.96
760.743	26759.41
761.08	26754.44
761.417	26509.02
761.754	26614.33
762.091	26480.55
762.428	26452.98
762.765	26229.03
763.102	26402.36
763.438	26101.57
763.775	26149.93
764.112	26246.2
764.449	26064.51
764.785	25975.93
765.122	25784.75
765.458	25748.81
765.795	25654.13
766.131	25707.23
766.467	25533.9
766.804	25524.41
767.14	25340.92
767.476	25340.92
767.812	25224.99
768.148	25135.95
768.485	25050.98
768.821	24812.34
769.157	24882.85
769.492	24850.76
769.828	24850.76
770.164	24575.29
770.5	24454.84
770.836	24562.63
771.171	24272.7
771.507	24345.69
771.842	24100.04
772.178	24251.9
772.513	24133.94
772.849	24037
773.184	23994.74
773.519	23961.52
773.855	23858.02
774.19	23806.27
774.525	23699.38
774.86	23648.08
775.195	23646.04
775.53	23435.88
775.865	23337.35
776.2	23177.13
776.535	23103.91
776.87	23042.44
777.205	22880.19
777.539	22955.44
777.874	22859.4
778.209	22706.86
778.543	22531.5
778.878	22438.39
779.212	22501.67
779.547	22415.57
779.881	22380.09
780.215	22250.38
780.55	22261.9
780.884	22153.65
781.218	21913.89
781.552	22059.42
781.886	21925.64
782.22	21813.78
782.554	21698.07
782.888	21622.37
783.222	21433.22
783.556	21449.94
783.889	21265.09
784.223	21147.58
784.557	21202.95
784.89	21176.05
785.224	21070.97
785.557	20896.74
785.891	20951.2
786.224	20819.9
786.558	20826.91
786.891	20624.66
787.224	20647.48
787.557	20619.01
787.891	20553.92
788.224	20440.03
788.557	20372.01
788.89	20381.72
789.223	20311.9
789.556	20189.41
789.888	20174.95
790.221	20069.42
790.554	19879.14
790.887	19971.79
791.219	19805.24
791.552	19804.56
791.884	19676.88
792.217	19656.77
792.549	19599.6
792.882	19375.42
793.214	19357.34
793.546	19353.28
793.879	19270.11
794.211	19151.7
794.543	19252.04
794.875	19123.9
795.207	19230.34
795.539	18972.04
795.871	19021.53
796.203	18730.69
796.535	18743.12
796.867	18703.12
797.198	18623.8
797.53	18648.21
797.862	18507.65
798.193	18514.88
798.525	18354.43
798.856	18469.01
799.188	18102.24
799.519	18147.88
799.85	18004.61
800.182	18135.46
800.513	18025.85
800.844	17918.06
801.175	17955.12
801.506	17939.3
801.837	17806.42
802.168	17835.58
802.499	17807.33
802.83	17685.98
803.161	17619.99
803.491	17581.57
803.822	17575.24
804.153	17523.72
804.483	17357.4
804.814	17300.22
805.145	17278.75
805.475	17261.35
805.805	17255.48
806.136	17160.79
806.466	17230.17
806.796	17125.31
807.126	17043.73
807.457	16952.44
807.787	16950.4
808.117	16941.59
808.447	16776.4
808.777	16811.42
809.107	16769.16
809.436	16769.39
809.766	16622.27
810.096	16579.56
810.426	16474.03
810.755	16513.13
811.085	16444.65
811.414	16401.72
811.744	16373.69
812.073	16298.89
812.403	16280.14
812.732	16229.74
813.061	16210.08
813.39	16185.68
813.719	16104.32
814.049	16126.02
814.378	16054.15
814.707	16012.8
815.036	15902.29
815.365	15811.45
815.693	15770.09
816.022	15883.99
816.351	15669.31
816.68	15638.12
817.008	15712.69
817.337	15566.71
817.665	15582.53
817.994	15537.78
818.322	15611
818.651	15451.68
818.979	15352.93
819.307	15422.53
819.636	15398.35
819.964	15229.09
820.292	15408.07
820.62	15345.02
820.948	15283.78
821.276	15304.34
821.604	15305.7
821.932	15291.91
822.259	15268.64
822.587	15196.32
822.915	15263.67
823.243	15289.65
823.57	15132.37
823.898	15231.12
824.225	15157.91
824.553	15102.31
824.88	15154.74
825.207	15255.53
825.535	15183.67
825.862	15302.31
826.189	15153.39
826.516	15224.35
826.843	15340.5
827.17	15212.14
827.497	15227.06
827.824	15199.04
828.151	15223.44
828.478	15150.9
828.805	15176.89
829.131	15189.54
829.458	15211.69
829.785	15161.52
830.111	15134.18
830.438	15181.63
830.764	15253.95
831.09	15247.4
831.417	15069.55
831.743	15038.36
832.069	15099.15
832.395	15071.58
832.722	15178.7
833.048	15112.48
833.374	15105.48
833.7	15010.11
834.026	14994.97
834.351	14955.88
834.677	15002.88
835.003	15009.66
835.329	14938.25
835.654	14879.72
835.98	14935.99
836.306	14873.17
836.631	14831.36
836.956	14886.28
837.282	14837.24
837.607	14694.87
837.932	14764.92
838.258	14764.02
838.583	14769.67
838.908	14666.62
839.233	14732.61
839.558	14744.13
839.883	14557.02
840.208	14571.03
840.533	14591.59
840.858	14548.21
841.182	14452.39
841.507	14548.66
841.832	14373.75
842.156	14478.38
842.481	14406.74
842.805	14350.92
843.13	14311.83
843.454	14298.27
843.778	14201.55
844.103	14242.22
844.427	14180.53
844.751	14281.55
845.075	14217.59
845.399	14177.14
845.723	14067.54
846.047	13960.88
846.371	13936.92
846.695	13868.67
847.019	13831.16
847.343	13764.72
847.666	13713.65
847.99	13684.27
848.313	13558.63
848.637	13547.55
848.96	13385.3
849.284	13475.46
849.607	13342.81
849.931	13379.65
850.254	13251.29
850.577	13185.98
850.9	13067.79
851.223	13135.81
851.546	12967.46
851.869	12978.53
852.192	12954.35
852.515	12898.76
852.838	12802.94
853.161	12769.72
853.483	12789.38
853.806	12630.52
854.129	12652.21
854.451	12627.35
854.774	12574.02
855.096	12544.64
855.419	12554.13
855.741	12509.61
856.063	12418.77
856.385	12439.79
856.708	12310.52
857.03	12351.43
857.352	12326.34
857.674	12180.81
857.996	12159.12
858.318	12081.15
858.64	12157.08
858.961	12084.32
859.283	12063.52
859.605	12011.77
859.926	11978.56
860.248	12016.52
860.57	11973.36
860.891	11903.08
861.212	11865.79
861.534	11862.4
861.855	11830.54
862.176	11810.65
862.498	11894.72
862.819	11807.26
863.14	11679.35
863.461	11712.57
863.782	11685.23
864.103	11651.56
864.424	11662.41
864.745	11675.96
865.065	11586.7
865.386	11586.25
865.707	11480.49
866.027	11621.95
866.348	11514.61
866.668	11437.1
866.989	11362.75
867.309	11381.28
867.63	11391.23
867.95	11394.84
868.27	11403.2
868.59	11417.67
868.91	11305.58
869.23	11332.47
869.55	11231.91
869.87	11327.72
870.19	11218.35
870.51	11248.86
870.83	11269.65
871.15	11226.03
871.469	11216.32
871.789	11235.98
872.109	11174.96
872.428	11082.31
872.748	11122.98
873.067	11093.83
873.386	11101.29
873.706	11059.03
874.025	10990.56
874.344	11035.53
874.663	11034.4
874.982	10950.11
875.301	10964.34
875.62	10981.07
875.939	10907.4
876.258	10912.37
876.577	10942.88
876.896	10843.44
877.214	10787.63
877.533	10840.05
877.852	10853.61
878.17	10803.67
878.489	10873.27
878.807	10733.39
879.125	10682.09
879.444	10763.67
879.762	10747.18
880.08	10785.37
880.398	10663.56
880.716	10658.36
881.034	10549.89
881.352	10662.88
881.67	10599.61
881.988	10607.74
882.306	10578.82
882.624	10489.1
882.941	10454.98
883.259	10491.81
883.577	10457.69
883.894	10417.92
884.212	10357.13
884.529	10347.41
884.846	10336.56
885.164	10380.86
885.481	10284.14
885.798	10289.79
886.115	10160.52
886.432	10244.36
886.75	10199.17
887.067	10231.26
887.383	10202.78
887.7	10163.91
888.017	10145.16
888.334	10052.73
888.651	10072.39
888.967	10067.87
889.284	10011.38
889.6	10012.51
889.917	9931.38
890.233	10036.01
890.55	9845.28
890.866	9960.76
891.182	9852.74
891.498	9847.76
891.815	9720.76
892.131	9744.49
892.447	9730.7
892.763	9678.95
893.079	9632.4
893.395	9590.14
893.71	9593.08
894.026	9588.56
894.342	9531.84
894.657	9537.26
894.973	9516.7
895.289	9512.41
895.604	9464.27
895.92	9413.42
896.235	9352.64
896.55	9338.62
896.865	9316.25
897.181	9302.02
897.496	9210.49
897.811	9277.84
898.126	9153.77
898.441	9153.32
898.756	9110.61
899.071	8989.26
899.386	9085.3
899.7	9069.25
900.015	8987.67
900.33	8900.9
900.644	8916.71
900.959	8931.63
901.273	8899.99
901.588	8828.36
901.902	8787
902.216	8808.24
902.531	8773.22
902.845	8761.01
903.159	8633.56
903.473	8646.89
903.787	8500
904.101	8506.78
904.415	8514.69
904.729	8446.67
905.042	8449.83
905.356	8449.61
905.67	8420.91
905.984	8370.74
906.297	8365.99
906.611	8300.91
906.924	8333.91
907.237	8317.41
907.551	8262.04
907.864	8233.34
908.177	8173.23
908.491	8229.5
908.804	8083.29
909.117	7991.99
909.43	8046.23
909.743	7963.29
910.056	7989.06
910.368	7933.01
910.681	7946.12
910.994	7875.61
911.307	7928.04
911.619	7832.45
911.932	7805.78
912.244	7762.39
912.557	7754.26
912.869	7743.41
913.181	7639.91
913.494	7561.95
913.806	7605.34
914.118	7578.67
914.43	7559.91
914.742	7526.69
915.054	7480.82
915.366	7492.12
915.678	7427.49
915.99	7425.68
916.302	7311.11
916.613	7333.71
916.925	7296.64
917.236	7291.67
917.548	7278.34
917.859	7244.44
918.171	7123.32
918.482	7164.22
918.794	7079.25
919.105	7095.97
919.416	7006.71
919.727	7026.59
920.038	7003.09
920.349	6971.23
920.66	6905.69
920.971	6869.99
921.282	6888.52
921.593	6837.67
921.903	6789.09
922.214	6793.38
922.525	6800.39
922.835	6748.64
923.146	6638.13
923.456	6610.11
923.767	6601.07
924.077	6662.76
924.387	6589.77
924.697	6541.86
925.008	6535.53
925.318	6523.33
925.628	6536.44
925.938	6463.22
926.248	6391.81
926.558	6402.2
926.867	6434.75
927.177	6385.93
927.487	6329.89
927.796	6213.73
928.106	6238.37
928.416	6197.46
928.725	6200.4
929.034	6155.43
929.344	6142.78
929.653	6136.9
929.962	6142.32
930.271	6043.12
930.581	6061.87
930.89	5978.26
931.199	5920.64
931.508	5938.26
931.817	5989.11
932.125	5952.27
932.434	5990.69
932.743	5880.86
933.051	5790.02
933.36	5817.14
933.669	5761.09
933.977	5775.55
934.286	5776.91
934.594	5733.52
934.902	5656.91
935.21	5628.67
935.519	5653.75
935.827	5607.2
936.135	5561.77
936.443	5551.61
936.751	5535.11
937.059	5516.8
937.367	5478.16
937.674	5485.84
937.982	5479.06
938.29	5449.46
938.597	5395.9
938.905	5366.98
939.213	5335.34
939.52	5295.79
939.827	5338.96
940.135	5289.69
940.442	5273.87
940.749	5254.89
941.056	5230.03
941.363	5196.13
941.67	5188.68
941.977	5118.4
942.284	5105.06
942.591	5119.3
942.898	5089.02
943.205	5086.31
943.511	5042.24
943.818	5030.49
944.125	5020.55
944.431	4973.32
944.738	4988.46
945.044	4967.67
945.35	4888.35
945.657	4879.76
945.963	4858.29
946.269	4908.46
946.575	4807.44
946.881	4824.62
947.187	4775.58
947.493	4745.98
947.799	4777.61
948.105	4765.86
948.41	4734
948.716	4665.98
949.022	4645.41
949.327	4649.48
949.633	4657.39
949.938	4628.69
950.244	4565.87
950.549	4522.48
950.854	4556.38
951.16	4538.75
951.465	4529.49
951.77	4512.31
952.075	4462.59
952.38	4461.92
952.685	4435.48
952.99	4390.05
953.294	4369.94
953.599	4402.71
953.904	4347.8
954.209	4345.54
954.513	4320.23
954.818	4308.25
955.122	4329.49
955.426	4295.37
955.731	4252.66
956.035	4207.69
956.339	4188.7
956.643	4188.25
956.948	4140.34
957.252	4118.87
957.556	4126.33
957.86	4131.76
958.163	4099.44
958.467	4052.44
958.771	4067.8
959.075	4074.13
959.378	4026
959.682	4028.03
959.985	4005.43
960.289	3983.29
960.592	3968.37
960.896	3936.05
961.199	3894.25
961.502	3920.46
961.805	3903.74
962.108	3847.47
962.411	3833.91
962.714	3841.37
963.017	3831.2
963.32	3803.85
963.623	3795.95
963.926	3818.32
964.228	3734.93
964.531	3736.74
964.833	3749.84
965.136	3677.3
965.438	3682.28
965.741	3666.68
966.043	3633.92
966.345	3643.63
966.648	3644.99
966.95	3604.99
967.252	3599.79
967.554	3555.73
967.856	3550.08
968.158	3531.55
968.46	3508.72
968.761	3482.51
969.063	3529.06
969.365	3506.24
969.666	3495.84
969.968	3453.58
970.269	3441.38
970.571	3445.9
970.872	3427.82
971.174	3420.36
971.475	3379.46
971.776	3354.15
972.077	3338.33
972.378	3355.73
972.679	3362.51
972.98	3351.44
973.281	3308.27
973.582	3271.67
973.883	3267.6
974.183	3258.33
974.484	3261.04
974.785	3226.47
975.085	3224.66
975.386	3190.09
975.686	3222.18
975.986	3164.32
976.287	3135.4
976.587	3153.7
976.887	3109.64
977.187	3115.96
977.487	3092.69
977.787	3060.82
978.087	3070.99
978.387	3047.94
978.687	3061.28
978.987	3016.53
979.286	3004.78
979.586	3016.76
979.885	3010.43
980.185	2934.05
980.484	2933.37
980.784	2941.96
981.083	2927.49
981.382	2954.39
981.682	2920.71
981.981	2917.32
982.28	2901.73
982.579	2887.27
982.878	2888.85
983.177	2856.54
983.475	2866.25
983.774	2815.63
984.073	2848.17
984.372	2811.11
984.67	2764.33
984.969	2807.95
985.267	2724.79
985.566	2730.44
985.864	2728.18
986.162	2711.45
986.461	2725.47
986.759	2674.84
987.057	2656.77
987.355	2673.49
987.653	2669.87
987.951	2652.25
988.249	2655.64
988.547	2641.4
988.844	2642.76
989.142	2581.97
989.44	2625.81
989.737	2566.15
990.035	2546.03
990.332	2524.11
990.63	2533.38
990.927	2511.46
991.224	2504.45
991.521	2466.71
991.819	2473.95
992.116	2507.84
992.413	2475.53
992.71	2447.51
993.006	2439.6
993.303	2452.7
993.6	2426.04
993.897	2434.17
994.193	2416.09
994.49	2391.69
994.787	2412.25
995.083	2351.92
995.379	2376.77
995.676	2344.68
995.972	2350.33
996.268	2353.5
996.565	2341.29
996.861	2275.99
997.157	2282.99
997.453	2299.71
997.749	2272.14
998.044	2258.13
998.34	2251.13
998.636	2227.4
998.932	2226.04
999.227	2188.53
999.523	2227.17
999.818	2213.39
1000.114	2188.08
1000.409	2176.55
1000.704	2153.05
1001	2124.12
1001.295	2147.4
1001.59	2161.64
1001.885	2120.51
1002.18	2099.04
1002.475	2104.01
1002.77	2098.14
1003.065	2078.25
1003.359	2050.23
1003.654	2007.52
1003.949	2047.29
1004.243	2025.82
1004.538	2026.5
1004.832	2013.17
1005.127	1994.86
1005.421	1968.65
1005.715	1940.4
1006.009	1946.73
1006.304	1935.2
1006.598	1950.57
1006.892	1940.63
1007.186	1908.76
1007.48	1919.16
1007.773	1864.92
1008.067	1878.71
1008.361	1864.7
1008.655	1866.96
1008.948	1844.13
1009.242	1807.52
1009.535	1786.96
1009.829	1827.18
1010.122	1793.06
1010.415	1788.99
1010.708	1798.71
1011.001	1752.61
1011.295	1774.98
1011.588	1755.1
1011.881	1755.32
1012.173	1725.94
1012.466	1705.83
1012.759	1725.04
1013.052	1722.55
1013.344	1684.59
1013.637	1719.84
1013.93	1683.68
1014.222	1673.74
1014.514	1661.09
1014.807	1665.61
1015.099	1648.43
1015.391	1643.46
1015.683	1632.61
1015.976	1629.22
1016.268	1581.09
1016.56	1605.27
1016.851	1588.77
1017.143	1582.22
1017.435	1564.82
1017.727	1553.74
1018.018	1546.74
1018.31	1523.91
1018.602	1546.29
1018.893	1506.74
1019.185	1476.91
1019.476	1484.82
1019.767	1501.32
1020.058	1471.26
1020.35	1462
1020.641	1441.21
1020.932	1463.8
1021.223	1457.48
1021.514	1410.92
1021.804	1391.94
1022.095	1407.31
1022.386	1424.26
1022.677	1377.48
1022.967	1403.01
1023.258	1367.76
1023.548	1340.19
1023.839	1355.11
1024.129	1349.23
1024.419	1337.03
1024.709	1335.22
1025	1324.82
1025.29	1284.6
1025.58	1315.11
1025.87	1264.94
1026.16	1296.12
1026.449	1301.77
1026.739	1303.58
1027.029	1272.17
1027.319	1249.35
1027.608	1226.07
1027.898	1231.95
1028.187	1238.27
1028.477	1204.38
1028.766	1208.67
1029.055	1201.66
1029.344	1183.36
1029.634	1196.24
1029.923	1183.81
1030.212	1176.81
1030.501	1185.39
1030.79	1151.95
1031.078	1141.55
1031.367	1152.4
1031.656	1162.79
1031.945	1121.89
1032.233	1107.43
1032.522	1109.24
1032.81	1118.73
1033.099	1101.55
1033.387	1097.26
1033.675	1084.15
1033.963	1044.61
1034.251	1076.92
1034.54	1064.94
1034.828	1071.05
1035.116	1034.66
1035.403	1053.87
1035.691	1041.44
1035.979	1020.65
1036.267	1010.26
1036.554	1018.39
1036.842	1010.03
1037.129	1001.22
1037.417	1002.35
1037.704	1010.48
1037.992	970.26
1038.279	983.14
1038.566	968.68
1038.853	968.68
1039.14	968.68
