Data from hue_190_FLMS001491_00058.txt Node
Date: Tue Feb 07 16:45:29 GMT 2017
User: dcchb
Spectrometer: FLMS00149
Trigger mode: 0
Integration Time (sec): 2.000000E-2
Scans to average: 10
Electric dark correction enabled: true
Nonlinearity correction enabled: false
Boxcar width: 0
XAxis mode: Wavelengths
Number of Pixels in Spectrum: 2048
>>>>>Begin Spectral Data<<<<<
341.393	8.38
341.776	8.38
342.16	8.38
342.543	-54.67
342.927	-52.87
343.31	-81.34
343.693	-80.89
344.077	-73.2
344.46	-41.79
344.843	-46.99
345.226	-51.06
345.61	-16.03
345.993	-15.13
346.376	-23.26
346.759	22.16
347.142	16.96
347.525	43.4
347.908	66.68
348.291	59.22
348.674	102.84
349.057	118.43
349.44	107.58
349.823	151.2
350.206	185.09
350.588	206.11
350.971	217.64
351.354	208.6
351.737	253.11
352.119	247.69
352.502	259.89
352.884	261.93
353.267	278.42
353.65	284.3
354.032	310.51
354.414	312.1
354.797	320.23
355.179	308.93
355.562	312.32
355.944	313.45
356.326	328.37
356.709	339.67
357.091	325.66
357.473	331.98
357.855	347.12
358.238	354.36
358.62	334.24
359.002	323.62
359.384	337.63
359.766	337.63
360.148	335.37
360.53	351.87
360.912	324.75
361.294	339.21
361.676	324.07
362.057	318.65
362.439	312.1
362.821	318.42
363.203	310.74
363.584	323.85
363.966	322.49
364.348	322.27
364.729	327.24
365.111	324.75
365.493	338.08
365.874	315.94
366.256	322.04
366.637	296.28
367.019	305.09
367.4	290.63
367.781	320.46
368.163	330.17
368.544	316.84
368.925	303.51
369.306	309.38
369.688	303.96
370.069	306.67
370.45	322.94
370.831	329.95
371.212	325.66
371.593	289.05
371.974	320.46
372.355	319.1
372.736	303.96
373.117	295.83
373.498	301.93
373.879	331.3
374.26	315.94
374.641	314.58
375.021	306.67
375.402	335.82
375.783	312.1
376.163	293.11
376.544	315.26
376.925	324.53
377.305	345.54
377.686	311.42
378.066	326.11
378.447	323.17
378.827	323.17
379.208	341.47
379.588	340.8
379.968	310.06
380.349	336.73
380.729	334.69
381.109	329.05
381.489	319.33
381.87	330.85
382.25	318.42
382.63	311.64
383.01	337.18
383.39	323.85
383.77	332.21
384.15	346.9
384.53	338.99
384.91	329.27
385.29	333.79
385.67	339.44
386.049	341.02
386.429	342.38
386.809	341.02
387.189	356.61
387.568	353.9
387.948	340.8
388.328	359.33
388.707	331.98
389.087	346.45
389.466	329.95
389.846	364.07
390.225	356.39
390.605	371.3
390.984	360.68
391.363	360.23
391.743	342.6
392.122	376.73
392.501	353.68
392.881	364.98
393.26	363.62
393.639	364.75
394.018	392.32
394.397	384.18
394.776	365.2
395.155	372.66
395.534	384.86
395.913	383.05
396.292	390.29
396.671	385.99
397.05	397.07
397.429	365.43
397.808	369.27
398.186	375.6
398.565	397.74
398.944	400.68
399.323	405.65
399.701	374.47
400.08	392.09
400.458	411.98
400.837	411.08
401.215	420.12
401.594	407.69
401.972	417.4
402.351	412.88
402.729	414.24
403.107	409.49
403.486	422.83
403.864	416.5
404.242	454.92
404.62	447.01
404.999	445.43
405.377	421.7
405.755	442.04
406.133	435.26
406.511	450.85
406.889	453.56
407.267	463.05
407.645	490.62
408.023	461.7
408.401	489.49
408.779	494.01
409.156	486.78
409.534	491.3
409.912	497.85
410.29	511.64
410.667	505.31
411.045	523.62
411.422	533.56
411.8	538.76
412.178	546.44
412.555	566.55
412.933	560.23
413.31	555.93
413.687	582.82
414.065	571.3
414.442	589.6
414.819	581.02
415.197	616.27
415.574	628.92
415.951	625.53
416.328	638.19
416.705	641.58
417.082	656.04
417.46	638.42
417.837	640.9
418.214	679.09
418.591	678.41
418.967	681.58
419.344	693.78
419.721	708.92
420.098	688.81
420.475	715.25
420.852	733.55
421.228	763.16
421.605	746.66
421.982	762.48
422.358	774.46
422.735	782.59
423.111	799.99
423.488	837.73
423.864	836.6
424.241	833.21
424.617	839.09
424.994	857.84
425.37	862.14
425.746	892.42
426.123	890.16
426.499	905.75
426.875	932.19
427.251	928.35
427.627	912.76
428.003	959.76
428.379	988.01
428.756	957.05
429.132	994.56
429.507	1008.58
429.883	1014.45
430.259	1020.1
430.635	1041.34
431.011	1057.39
431.387	1061.23
431.763	1098.29
432.138	1091.74
432.514	1085.86
432.89	1119.53
433.265	1163.83
433.641	1190.04
434.016	1179.19
434.392	1221.9
434.767	1232.3
435.143	1242.92
435.518	1265.29
435.894	1308.23
436.269	1298.06
436.644	1338.74
437.02	1396.59
437.395	1367.21
437.77	1406.3
438.145	1437.26
438.52	1441.56
438.895	1479.98
439.271	1476.13
439.646	1512.29
440.021	1543.02
440.395	1542.12
440.77	1567.66
441.145	1566.53
441.52	1616.02
441.895	1599.75
442.27	1632.97
442.645	1668.44
443.019	1669.35
443.394	1702.57
443.769	1705.28
444.143	1710.25
444.518	1737.82
444.892	1746.63
445.267	1751.15
445.641	1805.16
446.016	1804.94
446.39	1806.52
446.764	1861.43
447.139	1855.33
447.513	1874.32
447.887	1879.06
448.262	1901.66
448.636	1899.17
449.01	1929.68
449.384	1946.18
449.758	1900.76
450.132	1997.7
450.506	1988.21
450.88	2023.46
451.254	2032.5
451.628	2053.29
452.002	2086.96
452.376	2105.04
452.75	2115.66
453.123	2120.41
453.497	2132.16
453.871	2184.82
454.244	2213.74
454.618	2242.89
454.992	2265.04
455.365	2260.07
455.739	2333.51
456.112	2371.93
456.486	2368.54
456.859	2405.83
457.232	2439.72
457.606	2425.49
457.979	2468.88
458.352	2530.34
458.725	2535.54
459.099	2567.86
459.472	2610.11
459.845	2653.05
460.218	2644.69
460.591	2695.76
460.964	2696.89
461.337	2815.31
461.71	2822.99
462.083	2880.84
462.456	2847.62
462.829	2873.16
463.201	2963.78
463.574	2937.56
463.947	2977.34
464.32	3038.8
464.692	3058.01
465.065	3153.83
465.438	3172.81
465.81	3217.1
466.183	3247.61
466.555	3300.94
466.928	3332.13
467.3	3363.54
467.672	3396.31
468.045	3454.84
468.417	3482.41
468.789	3530.54
469.161	3572.35
469.534	3634.49
469.906	3723.98
470.278	3732.35
470.65	3808.5
471.022	3862.06
471.394	3907.03
471.766	3966.46
472.138	4038.1
472.51	4056.86
472.882	4168.27
473.253	4163.75
473.625	4279.9
473.997	4401.71
474.369	4415.49
474.74	4432.67
475.112	4553.34
475.484	4640.12
475.855	4696.39
476.227	4769.38
476.598	4886.67
476.97	4907.91
477.341	5007.34
477.713	5087.56
478.084	5118.07
478.455	5284.39
478.827	5383.38
479.198	5487.55
479.569	5470.38
479.94	5673.31
480.311	5678.28
480.682	5863.59
481.053	6039.86
481.424	6087.99
481.795	6106.29
482.166	6211.6
482.537	6298.61
482.908	6475.78
483.279	6518.94
483.65	6636.68
484.021	6785.15
484.391	6863.56
484.762	6995.31
485.133	6946.27
485.503	7101.07
485.874	7222.2
486.244	7286.6
486.615	7421.29
486.985	7541.74
487.356	7734.73
487.726	7719.81
488.097	7828.73
488.467	7919.81
488.837	8071.67
489.207	8228.5
489.578	8313.69
489.948	8337.87
490.318	8455.84
490.688	8444.09
491.058	8684.31
491.428	8690.86
491.798	8808.37
492.168	9022.83
492.538	9007.91
492.908	9118.19
493.278	9173.33
493.648	9265.99
494.017	9344.85
494.387	9395.47
494.757	9519.09
495.126	9604.28
495.496	9559.31
495.866	9685.86
496.235	9748.01
496.605	9827.33
496.974	9883.37
497.344	9985.06
497.713	9962.01
498.082	10025.97
498.452	10222.12
498.821	10242.23
499.19	10171.72
499.559	10280.87
499.928	10248.33
500.298	10363.13
500.667	10392.74
501.036	10422.11
501.405	10486.97
501.774	10467.08
502.143	10550.47
502.512	10530.13
502.88	10704.82
503.249	10717.47
503.618	10719.96
503.987	10810.13
504.356	10791.59
504.724	10796.11
505.093	10849.45
505.462	10879.95
505.83	10924.92
506.199	10938.26
506.567	11103.68
506.936	10959.27
507.304	11104.13
507.672	11200.17
508.041	11209.89
508.409	11191.81
508.777	11243.33
509.145	11331.02
509.514	11235.88
509.882	11325.59
510.25	11337.12
510.618	11345.93
510.986	11354.74
511.354	11349.55
511.722	11519.71
512.09	11512.48
512.458	11505.25
512.826	11480.62
513.193	11523.33
513.561	11592.25
513.929	11540.05
514.297	11721.97
514.664	11703.66
515.032	11751.57
515.4	11755.64
515.767	11667.73
516.135	11734.62
516.502	11639.48
516.869	11722.87
517.237	11794.96
517.604	11694.4
517.972	11837.89
518.339	11840.38
518.706	11806.94
519.073	11777.56
519.44	11794.28
519.808	11873.37
520.175	11860.04
520.542	11970.09
520.909	11910.44
521.276	11858.23
521.643	11937.55
522.009	11941.17
522.376	11934.39
522.743	11944.33
523.11	12014.16
523.477	12031.56
523.843	12062.3
524.21	12104.33
524.577	12090.09
524.943	12091.45
525.31	12075.4
525.676	12069.98
526.043	12078.11
526.409	12066.82
526.776	12105.46
527.142	12141.39
527.508	12108.62
527.874	12132.12
528.241	12114.27
528.607	12104.55
528.973	12166.47
529.339	11983.88
529.705	12163.76
530.071	12101.39
530.437	12134.61
530.803	12024.1
531.169	12131.9
531.535	11924.22
531.901	11989.76
532.267	11989.98
532.632	11952.47
532.998	11875.63
533.364	11938.68
533.73	11871.57
534.095	11867.5
534.461	11785.01
534.826	11852.58
535.192	11825.24
535.557	11755.86
535.923	11657.11
536.288	11642.19
536.653	11694.17
537.019	11509.77
537.384	11498.69
537.749	11505.25
538.114	11488.07
538.479	11438.58
538.845	11389.09
539.21	11371.24
539.575	11348.64
539.94	11281.98
540.305	11266.61
540.67	11136.22
541.034	11139.83
541.399	11108.65
541.764	10998.14
542.129	11059.61
542.494	10933.96
542.858	10922.21
543.223	10875.89
543.587	10839.28
543.952	10776.45
544.316	10813.74
544.681	10673.41
545.045	10636.12
545.41	10574.43
545.774	10509.57
546.138	10514.54
546.503	10520.42
546.867	10402.9
547.231	10427.99
547.595	10389.8
547.959	10336.47
548.324	10235.9
548.688	10177.83
549.052	10172.63
549.416	10106.64
549.779	10075
550.143	10043.82
550.507	10028.45
550.871	9923.37
551.235	9862.13
551.599	9889.25
551.962	9901
552.326	9744.62
552.689	9765.63
553.053	9673.66
553.417	9587.78
553.78	9688.57
554.143	9550.5
554.507	9529.03
554.87	9578.52
555.234	9538.07
555.597	9491.74
555.96	9457.84
556.323	9437.05
556.686	9442.48
557.05	9408.35
557.413	9369.26
557.776	9330.62
558.139	9292.88
558.502	9262.6
558.865	9200.45
559.228	9280.22
559.59	9225.99
559.953	9197.29
560.316	9230.51
560.679	9196.38
561.041	9177.63
561.404	9145.54
561.767	9161.58
562.129	9071.64
562.492	9228.25
562.854	9136.72
563.217	9077.52
563.579	9079.32
563.941	9085.42
564.304	9065.31
564.666	9151.41
565.028	9077.52
565.39	9037.52
565.753	9062.15
566.115	9104.63
566.477	9064.63
566.839	8992.77
567.201	9069.61
567.563	9063.73
567.925	9028.03
568.287	9055.6
568.648	9047.23
569.01	9041.36
569.372	9044.75
569.734	8976.05
570.095	9007.91
570.457	9127.91
570.819	9064.63
571.18	9009.49
571.542	9041.36
571.903	9005.2
572.265	9069.61
572.626	9075.71
572.987	9036.84
573.349	9030.51
573.71	9063.05
574.071	9010.85
574.432	9002.72
574.794	9143.95
575.155	9070.28
575.516	9030.74
575.877	8972.89
576.238	9043.39
576.599	9011.98
576.96	8966.33
577.32	9020.34
577.681	9029.61
578.042	9045.2
578.403	9033.9
578.763	8978.31
579.124	9009.72
579.485	9037.29
579.845	9033.67
580.206	8982.83
580.566	9020.34
580.927	8934.47
581.287	9042.26
581.648	9004.07
582.008	9013.34
582.368	8972.66
582.728	8948.93
583.089	8956.84
583.449	8935.82
583.809	8931.53
584.169	8913.45
584.529	8810.4
584.889	8962.26
585.249	8873
585.609	8884.3
585.969	8910.29
586.329	8864.41
586.688	8902.6
587.048	8871.87
587.408	8869.61
587.768	8845.66
588.127	8802.27
588.487	8803.17
588.846	8866.45
589.206	8753.91
589.565	8768.6
589.925	8811.31
590.284	8729.73
590.643	8788.48
591.003	8728.82
591.362	8748.94
591.721	8804.53
592.08	8760.46
592.44	8740.8
592.799	8725.66
593.158	8742.16
593.517	8745.77
593.876	8751.42
594.235	8684.08
594.593	8718.2
594.952	8691.31
595.311	8703.74
595.67	8647.02
596.029	8706.68
596.387	8719.33
596.746	8672.33
597.104	8658.77
597.463	8579.9
597.822	8679.56
598.18	8613.35
598.538	8607.7
598.897	8607.47
599.255	8569.05
599.613	8614.25
599.972	8614.48
600.33	8580.13
600.688	8552.78
601.046	8586.23
601.404	8610.41
601.762	8602.73
602.12	8674.36
602.478	8670.52
602.836	8613.12
603.194	8629.62
603.552	8585.33
603.91	8529.06
604.268	8548.26
604.625	8566.57
604.983	8571.09
605.341	8532.9
605.698	8565.66
606.056	8576.74
606.413	8584.87
606.771	8558.66
607.128	8597.75
607.485	8539.22
607.843	8525.67
608.2	8599.34
608.557	8623.52
608.914	8571.77
609.272	8616.28
609.629	8587.58
609.986	8634.36
610.343	8644.76
610.7	8694.93
611.057	8667.36
611.414	8574.48
611.771	8635.27
612.127	8645.66
612.484	8636.85
612.841	8675.04
613.198	8677.3
613.554	8641.14
613.911	8723.17
614.267	8713.46
614.624	8662.16
614.98	8674.81
615.337	8717.98
615.693	8661.48
616.05	8727.69
616.406	8702.84
616.762	8709.84
617.118	8662.16
617.475	8715.94
617.831	8731.76
618.187	8723.85
618.543	8631.88
618.899	8752.33
619.255	8754.36
619.611	8690.86
619.967	8751.42
620.323	8796.62
620.678	8704.42
621.034	8755.49
621.39	8697.86
621.746	8757.52
622.101	8791.2
622.457	8715.04
622.812	8752.78
623.168	8771.76
623.523	8736.73
623.879	8775.38
624.234	8756.17
624.589	8669.16
624.945	8783.96
625.3	8768.15
625.655	8737.19
626.01	8727.24
626.365	8710.75
626.72	8729.95
627.075	8685.66
627.43	8666.68
627.785	8679.56
628.14	8659.45
628.495	8731.99
628.85	8654.7
629.205	8656.28
629.559	8706.9
629.914	8694.02
630.269	8631.2
630.623	8609.28
630.978	8642.05
631.332	8641.59
631.687	8622.61
632.041	8604.31
632.396	8603.4
632.75	8598.66
633.104	8589.84
633.459	8611.54
633.813	8524.76
634.167	8475.72
634.521	8617.64
634.875	8508.26
635.229	8522.05
635.583	8503.07
635.937	8486.57
636.291	8521.6
636.645	8501.03
636.999	8486.57
637.352	8412.22
637.706	8426.46
638.06	8419
638.413	8453.58
638.767	8386.69
639.121	8484.76
639.474	8384.2
639.828	8415.39
640.181	8369.29
640.534	8406.12
640.888	8328.83
641.241	8309.85
641.594	8347.14
641.947	8367.48
642.301	8336.74
642.654	8359.34
643.007	8366.57
643.36	8368.38
643.713	8319.8
644.066	8366.8
644.419	8318.67
644.771	8265.11
645.124	8175.17
645.477	8205.45
645.83	8144.66
646.182	8122.51
646.535	8126.81
646.888	8073.7
647.24	7972.91
647.593	8109.86
647.945	8037.54
648.298	8047.94
648.65	7941.73
649.002	8043.87
649.355	8039.35
649.707	8063.76
650.059	8126.58
650.411	8159.8
650.763	8162.51
651.115	8224.43
651.467	8251.77
651.819	8212.45
652.171	8233.92
652.523	8193.25
652.875	8209.06
653.227	8204.32
653.578	8224.66
653.93	8276.63
654.282	8214.49
654.633	8224.88
654.985	8205.45
655.337	8266.24
655.688	8197.76
656.039	8234.83
656.391	8139.91
656.742	8172.45
657.094	8168.84
657.445	8202.74
657.796	8226.69
658.147	8160.93
658.498	8202.96
658.849	8277.99
659.2	8191.66
659.551	8188.5
659.902	8223.53
660.253	8214.26
660.604	8306.01
660.955	8206.13
661.306	8232.79
661.656	8245
662.007	8265.79
662.358	8243.64
662.708	8235.05
663.059	8250.42
663.409	8266.92
663.76	8296.75
664.11	8339.46
664.461	8298.55
664.811	8302.17
665.161	8295.39
665.511	8225.79
665.862	8309.17
666.212	8299.23
666.562	8346.69
666.912	8317.08
667.262	8280.47
667.612	8281.6
667.962	8310.76
668.312	8280.93
668.662	8324.54
669.011	8285.9
669.361	8335.16
669.711	8227.59
670.06	8247.48
670.41	8287.71
670.76	8267.82
671.109	8234.15
671.459	8291.1
671.808	8214.49
672.157	8253.81
672.507	8218.56
672.856	8227.82
673.205	8215.84
673.554	8204.32
673.904	8191.66
674.253	8165.45
674.602	8168.16
674.951	8141.95
675.3	8070.76
675.649	8167.48
675.998	8147.14
676.346	8096.98
676.695	8185.11
677.044	8083.42
677.393	8089.07
677.741	8176.52
678.09	8133.13
678.438	8067.15
678.787	8097.65
679.135	8067.82
679.484	8065.79
679.832	7998.22
680.181	7937.66
680.529	8063.76
680.877	7974.95
681.225	7923.65
681.573	8054.49
681.922	8027.15
682.27	7862.41
682.618	7934.72
682.966	7961.16
683.314	7965.23
683.661	7913.7
684.009	7834.84
684.357	7800.49
684.705	7838.45
685.053	7849.98
685.4	7849.3
685.748	7699.7
686.095	7757.78
686.443	7725.69
686.79	7763.65
687.138	7753.03
687.485	7737.21
687.832	7657.67
688.18	7631.68
688.527	7608.63
688.874	7589.42
689.221	7553.49
689.568	7642.53
689.915	7591.45
690.262	7482.76
690.609	7483.21
690.956	7440.95
691.303	7473.04
691.65	7442.3
691.997	7427.39
692.344	7418.35
692.69	7423.32
693.037	7325.02
693.383	7257.22
693.73	7345.36
694.077	7285.47
694.423	7256.09
694.769	7247.06
695.116	7174.29
695.462	7161.63
695.808	7169.77
696.155	7171.58
696.501	7063.33
696.847	7095.42
697.193	7061.07
697.539	7010.23
697.885	6993.95
698.231	6949.21
698.577	6913.28
698.923	6933.39
699.269	6888.19
699.614	6899.72
699.96	6796.67
700.306	6897.01
700.651	6759.84
700.997	6754.86
701.342	6755.77
701.688	6705.15
702.033	6704.24
702.379	6718.26
702.724	6699.5
703.069	6729.78
703.415	6622.66
703.76	6621.31
704.105	6597.58
704.45	6563.68
704.795	6537.92
705.14	6513.06
705.485	6525.27
705.83	6497.7
706.175	6437.13
706.52	6431.03
706.865	6411.14
707.209	6322.56
707.554	6364.82
707.899	6402.33
708.243	6332.28
708.588	6286.63
708.932	6262.67
709.277	6255.67
709.621	6232.62
709.966	6220.42
710.31	6264.03
710.654	6189.91
710.998	6181.32
711.342	6189.68
711.687	6177.7
712.031	6133.41
712.375	6159.17
712.719	6126.41
713.063	6097.03
713.407	6093.41
713.75	6067.65
714.094	6068.78
714.438	6106.75
714.782	6053.87
715.125	6039.4
715.469	6033.98
715.812	5991.5
716.156	6010.25
716.499	6012.96
716.843	5940.42
717.186	5965.73
717.53	5977.03
717.873	5966.64
718.216	5926.86
718.559	5935.9
718.902	5921.44
719.246	5940.65
719.589	5907.2
719.932	5889.8
720.275	5877.15
720.617	5909.24
720.96	5873.08
721.303	5912.18
721.646	5861.33
721.989	5824.27
722.331	5893.42
722.674	5838.5
723.016	5868.33
723.359	5882.35
723.701	5859.97
724.044	5860.43
724.386	5778.85
724.729	5916.47
725.071	5821.56
725.413	5862.01
725.755	5807.32
726.097	5816.36
726.439	5771.16
726.782	5744.72
727.124	5764.61
727.465	5777.49
727.807	5773.65
728.149	5803.48
728.491	5736.81
728.833	5778.17
729.175	5782.91
729.516	5810.48
729.858	5726.64
730.199	5752.41
730.541	5767.77
730.882	5796.25
731.224	5816.58
731.565	5746.98
731.906	5725.51
732.248	5747.66
732.589	5763.03
732.93	5813.65
733.271	5774.1
733.612	5804.38
733.953	5782.01
734.294	5745.63
734.635	5812.97
734.976	5762.57
735.317	5781.56
735.658	5751.28
735.999	5735
736.339	5785.62
736.68	5785.4
737.021	5770.71
737.361	5781.11
737.702	5850.48
738.042	5775.46
738.383	5763.93
738.723	5859.75
739.063	5847.09
739.404	5837.83
739.744	5865.85
740.084	5836.02
740.424	5897.26
740.764	5918.28
741.104	5938.62
741.444	5931.16
741.784	5901.33
742.124	5946.07
742.464	5982.23
742.804	5998.73
743.143	5961.21
743.483	6029.23
743.823	6051.83
744.162	6026.3
744.502	6030.14
744.841	6036.92
745.181	6144.49
745.52	6132.96
745.86	6158.04
746.199	6219.74
746.538	6221.55
746.877	6257.25
747.216	6312.84
747.556	6384.25
747.895	6424.03
748.234	6465.83
748.573	6489.34
748.911	6610.01
749.25	6613.85
749.589	6641.42
749.928	6756.45
750.267	6804.13
750.605	6866.95
750.944	6959.83
751.283	6996.21
751.621	7148.3
751.96	7121.63
752.298	7251.35
752.636	7338.35
752.975	7405.7
753.313	7501.74
753.651	7590.1
753.989	7745.35
754.327	7828.28
754.666	7907.15
755.004	8015.17
755.342	8180.59
755.679	8277.08
756.017	8405.89
756.355	8637.75
756.693	8724.53
757.031	8892.66
757.368	8938.08
757.706	9121.58
758.044	9238.64
758.381	9397.28
758.719	9568.58
759.056	9776.71
759.394	9848.79
759.731	9999.98
760.068	10191.16
760.405	10357.03
760.743	10470.7
761.08	10709.34
761.417	10769.67
761.754	10976.67
762.091	11263.22
762.428	11315.42
762.765	11485.14
763.102	11710.21
763.438	11817.33
763.775	12022.97
764.112	12170.09
764.449	12458.44
764.785	12614.6
765.122	12714.93
765.458	12810.75
765.795	13026.56
766.131	13199.22
766.467	13328.25
766.804	13504.29
767.14	13602.14
767.476	13806.66
767.812	13990.83
768.148	14141.34
768.485	14229.02
768.821	14349.02
769.157	14480.31
769.492	14638.05
769.828	14835.1
770.164	14815.44
770.5	14913.97
770.836	15117.58
771.171	15279.16
771.507	15350.34
771.842	15465.14
772.178	15545.37
772.513	15665.82
772.849	15815.42
773.184	15819.94
773.519	16032.81
773.855	16055.64
774.19	16067.39
774.525	16126.82
774.86	16359.13
775.195	16343.31
775.53	16451.11
775.865	16477.55
776.2	16536.75
776.535	16432.12
776.87	16573.14
777.205	16695.39
777.539	16640.25
777.874	16774.94
778.209	16743.53
778.543	16786.92
778.878	16777.2
779.212	16907.59
779.547	16912.11
779.881	17010.64
780.215	16948.72
780.55	17081.37
780.884	16984.43
781.218	17056.97
781.552	17125.21
781.886	17102.84
782.22	17104.88
782.554	17163.18
782.888	16939
783.222	17104.2
783.556	17116.85
783.889	17079.79
784.223	16961.6
784.557	17049.51
784.89	17063.75
785.224	17023.07
785.557	17047.48
785.891	16936.29
786.224	17042.28
786.558	17097.42
786.891	17031.88
787.224	16967.03
787.557	17000.7
787.891	17010.41
788.224	16952.79
788.557	17017.19
788.89	17055.84
789.223	16975.84
789.556	16831.21
789.888	16887.71
790.221	16856.29
790.554	16924.99
790.887	16837.76
791.219	16821.04
791.552	16754.6
791.884	16677.09
792.217	16688.61
792.549	16711.44
792.882	16697.2
793.214	16594.83
793.546	16684.55
793.879	16478.45
794.211	16490.2
794.543	16606.81
794.875	16495.85
795.207	16548.96
795.539	16451.78
795.871	16566.58
796.203	16408.4
796.535	16291.11
796.867	16323.88
797.198	16288.4
797.53	16286.82
797.862	16205.01
798.193	16205.92
798.525	16199.36
798.856	16214.28
799.188	15960.05
799.519	15935.41
799.85	15882.76
800.182	16036.88
800.513	16012.02
800.844	15840.73
801.175	15881.63
801.506	15893.16
801.837	15838.69
802.168	15851.12
802.499	15734.74
802.83	15708.53
803.161	15667.17
803.491	15636.67
803.822	15738.58
804.153	15644.35
804.483	15499.95
804.814	15520.28
805.145	15516.44
805.475	15415.43
805.805	15392.83
806.136	15360.29
806.466	15392.6
806.796	15389.44
807.126	15273.96
807.457	15259.27
807.787	15308.31
808.117	15196.45
808.447	15212.95
808.777	15190.12
809.107	14998.72
809.436	15051.14
809.766	15101.76
810.096	14973.18
810.426	15018.38
810.755	15042.78
811.085	14934.99
811.414	15005.04
811.744	14851.83
812.073	14856.57
812.403	14834.88
812.732	14715.11
813.061	14746.75
813.39	14649.35
813.719	14673.3
814.049	14725.28
814.378	14614.77
814.707	14657.71
815.036	14618.16
815.365	14525.96
815.693	14469.92
816.022	14455.45
816.351	14504.72
816.68	14372.07
817.008	14470.37
817.337	14351.05
817.665	14339.75
817.994	14347.89
818.322	14280.09
818.651	14224.5
818.979	14185.63
819.307	14263.37
819.636	14186.08
819.964	14164.39
820.292	14252.75
820.62	14168.46
820.948	14122.81
821.276	14248
821.604	14128.68
821.932	14201.45
822.259	14175.01
822.587	14113.77
822.915	14149.02
823.243	14249.58
823.57	14132.98
823.898	14180.21
824.225	14042.13
824.553	14033.09
824.88	14060.44
825.207	14109.02
825.535	14072.86
825.862	14176.36
826.189	14137.95
826.516	14193.54
826.843	14254.1
827.17	14205.29
827.497	14167.1
827.824	14159.64
828.151	14195.8
828.478	14135.91
828.805	14231.5
829.131	14157.83
829.458	14133.65
829.785	14058.85
830.111	14142.47
830.438	14269.92
830.764	14114.22
831.09	14236.02
831.417	14049.81
831.743	14211.17
832.069	14155.57
832.395	14114.9
832.722	14185.86
833.048	14112.86
833.374	14161.9
833.7	14039.87
834.026	14144.73
834.351	14101.79
834.677	14047.78
835.003	14090.94
835.329	14064.73
835.654	14056.14
835.98	13949.03
836.306	14056.59
836.631	13927.33
836.956	13893.43
837.282	13953.55
837.607	13968.69
837.932	13881.91
838.258	13869.93
838.583	13911.96
838.908	13907.67
839.233	13813.44
839.558	13792.65
839.883	13705.87
840.208	13650.95
840.533	13712.65
840.858	13759.65
841.182	13666.77
841.507	13741.57
841.832	13601.24
842.156	13596.49
842.481	13502.03
842.805	13527.12
843.13	13456.38
843.454	13501.58
843.778	13434.24
844.103	13432.88
844.427	13416.61
844.751	13391.53
845.075	13377.06
845.399	13252.1
845.723	13261.81
846.047	13273.34
846.371	13129.61
846.695	13081.25
847.019	13122.61
847.343	13011.88
847.666	12949.73
847.99	12867.47
848.313	12871.54
848.637	12782.95
848.96	12796.74
849.284	12719.91
849.607	12679
849.931	12527.59
850.254	12593.58
850.577	12419.12
850.9	12428.84
851.223	12342.29
851.546	12374.38
851.869	12220.48
852.192	12331.67
852.515	12155.17
852.838	12093.26
853.161	12194.27
853.483	12100.94
853.806	12117.44
854.129	12035.18
854.451	12028.4
854.774	11922.41
855.096	11897.33
855.419	11797.44
855.741	11860.49
856.063	11802.87
856.385	11776.2
856.708	11587.51
857.03	11737.78
857.352	11640.16
857.674	11603.78
857.996	11558.35
858.318	11565.81
858.64	11572.59
858.961	11478.13
859.283	11492.82
859.605	11379.15
859.926	11352.26
860.248	11321.75
860.57	11331.69
860.891	11346.83
861.212	11224.13
861.534	11271.36
861.855	11144.35
862.176	11148.2
862.498	11173.96
862.819	11165.82
863.14	11134.18
863.461	11105.26
863.782	11060.06
864.103	10951.59
864.424	11025.26
864.745	11035.2
865.065	11016.22
865.386	10992.95
865.707	10911.37
866.027	10920.63
866.348	10859.16
866.668	11001.76
866.989	10844.25
867.309	10757.47
867.63	10839.5
867.95	10838.15
868.27	10770.35
868.59	10766.51
868.91	10740.07
869.23	10754.99
869.55	10662.11
869.87	10682.45
870.19	10768.09
870.51	10721.54
870.83	10698.49
871.15	10618.04
871.469	10716.12
871.789	10645.61
872.109	10637.02
872.428	10569.45
872.748	10619.4
873.067	10560.41
873.386	10550.25
873.706	10552.51
874.025	10514.09
874.344	10429.57
874.663	10512.28
874.982	10454.65
875.301	10420.76
875.62	10435.67
875.939	10419.18
876.258	10371.72
876.577	10291.27
876.896	10325.84
877.214	10313.87
877.533	10282
877.852	10284.26
878.17	10289.91
878.489	10294.43
878.807	10251.5
879.125	10242.91
879.444	10181.67
879.762	10147.09
880.08	10202.01
880.398	10133.76
880.716	10176.92
881.034	10098.51
881.352	10092.86
881.67	10057.6
881.988	10098.51
882.306	10097.15
882.624	10073.65
882.941	9959.3
883.259	9967.44
883.577	10002.69
883.894	9891.05
884.212	9961.79
884.529	9882.92
884.846	9860.09
885.164	9871.84
885.481	9848.57
885.798	9832.75
886.115	9750.27
886.432	9714.33
886.75	9686.99
887.067	9743.71
887.383	9724.96
887.7	9673.88
888.017	9681.12
888.334	9585.98
888.651	9594.79
888.967	9580.33
889.284	9584.17
889.6	9521.35
889.917	9436.15
890.233	9439.77
890.55	9388.69
890.866	9407.22
891.182	9371.29
891.498	9362.93
891.815	9377.62
892.131	9315.48
892.447	9253.56
892.763	9227.57
893.079	9202.03
893.395	9170.85
893.71	9186.44
894.026	9148.93
894.342	9170.17
894.657	8962.94
894.973	9072.09
895.289	9052.21
895.604	8962.04
895.92	8913.23
896.235	8940.34
896.55	8901.7
896.865	8853.57
897.181	8809.5
897.496	8827.13
897.811	8775.83
898.126	8764.76
898.441	8726.56
898.756	8682.05
899.071	8653.12
899.386	8595.04
899.7	8638.43
900.015	8504.2
900.33	8551.2
900.644	8492.45
900.959	8454.26
901.273	8400.02
901.588	8426.23
901.902	8364.54
902.216	8346.91
902.531	8301.72
902.845	8253.13
903.159	8196.63
903.473	8268.5
903.787	8111.89
904.101	8092.23
904.415	8139.01
904.729	8132.23
905.042	8009.3
905.356	8045.68
905.67	7982.4
905.984	7952.8
906.297	7951.44
906.611	7849.07
906.924	7880.71
907.237	7834.84
907.551	7767.95
907.864	7676.87
908.177	7722.97
908.491	7671.9
908.804	7639.36
909.117	7569.76
909.43	7597.33
909.743	7548.06
910.056	7477.11
910.368	7502.42
910.681	7446.82
910.994	7471.46
911.307	7373.61
911.619	7389.65
911.932	7370.89
912.244	7329.76
912.557	7356.43
912.869	7222.88
913.181	7200.5
913.494	7246.83
913.806	7163.89
914.118	7209.77
914.43	7092.93
914.742	7097.23
915.054	7073.95
915.366	6981.75
915.678	6972.94
915.99	6946.72
916.302	6891.58
916.613	6869.89
916.925	6899.72
917.236	6883
917.548	6826.5
917.859	6789.21
918.171	6789.89
918.482	6816.33
918.794	6680.74
919.105	6704.92
919.416	6695.66
919.727	6635.55
920.038	6651.14
920.349	6574.53
920.66	6609.33
920.971	6579.5
921.282	6549.22
921.593	6448.43
921.903	6441.2
922.214	6421.09
922.525	6438.26
922.835	6384.25
923.146	6350.81
923.456	6392.16
923.767	6280.98
924.077	6257.93
924.387	6279.62
924.697	6234.65
925.008	6187.87
925.318	6160.53
925.628	6157.59
925.938	6157.14
926.248	6089.8
926.558	6083.47
926.867	6083.02
927.177	6050.02
927.487	6037.37
927.796	5998.73
928.106	5972.29
928.416	5936.13
928.725	5900.42
929.034	5849.58
929.344	5845.51
929.653	5865.62
929.962	5801.22
930.271	5803.7
930.581	5774.55
930.89	5699.07
931.199	5711.5
931.508	5713.54
931.817	5679.41
932.125	5651.62
932.434	5657.94
932.743	5582.24
933.051	5606.42
933.36	5572.3
933.669	5523.03
933.977	5532.07
934.286	5489.59
934.594	5497.04
934.902	5464.73
935.21	5383.38
935.519	5382.25
935.827	5395.8
936.135	5351.51
936.443	5319.65
936.751	5269.03
937.059	5315.35
937.367	5266.09
937.674	5265.41
937.982	5235.13
938.29	5236.94
938.597	5182.48
938.905	5143.16
939.213	5116.26
939.52	5095.47
939.827	5107.22
940.135	5128.24
940.442	5028.58
940.749	5008.92
941.056	4998.75
941.363	4921.24
941.67	4978.41
941.977	4954.46
942.284	4908.81
942.591	4884.18
942.898	4872.43
943.205	4902.71
943.511	4823.16
943.818	4809.83
944.125	4784.3
944.431	4788.14
944.738	4810.51
945.044	4753.11
945.35	4725.99
945.657	4705.65
945.963	4661.59
946.269	4659.1
946.575	4639.67
946.881	4589.95
947.187	4573.45
947.493	4576.84
947.799	4546.11
948.105	4521.7
948.41	4529.84
948.716	4507.47
949.022	4432.21
949.327	4451.2
949.633	4431.76
949.938	4442.16
950.244	4437.41
950.549	4419.56
950.854	4345.66
951.16	4382.05
951.465	4312.44
951.77	4289.62
952.075	4325.1
952.38	4244.87
952.685	4238.32
952.99	4255.27
953.294	4256.63
953.599	4180.02
953.904	4176.85
954.209	4129.17
954.513	4137.76
954.818	4131.66
955.122	4166.23
955.426	4127.59
955.731	4088.49
956.035	4099.79
956.339	4106.8
956.643	4064.54
956.948	3993.36
957.252	3961.94
957.556	3972.11
957.86	3917.43
958.163	3971.44
958.467	3923.98
958.771	3890.99
959.075	3902.96
959.378	3885.79
959.682	3876.75
959.985	3845.79
960.289	3806.02
960.592	3800.82
960.896	3794.26
961.199	3800.82
961.502	3747.71
961.805	3741.84
962.108	3721.72
962.411	3727.15
962.714	3708.84
963.017	3683.99
963.32	3692.57
963.623	3632.24
963.926	3661.61
964.228	3639.47
964.531	3598.56
964.833	3639.69
965.136	3589.3
965.438	3537.32
965.741	3527.83
966.043	3540.94
966.345	3505.68
966.648	3482.18
966.95	3495.74
967.252	3458
967.554	3477.44
967.856	3449.64
968.158	3409.87
968.46	3391.56
968.761	3393.37
969.063	3372.35
969.365	3363.54
969.666	3402.18
969.968	3323.54
970.269	3321.73
970.571	3298.68
970.872	3295.52
971.174	3280.15
971.475	3272.92
971.776	3271.79
972.077	3217.33
972.378	3191.57
972.679	3178.69
972.98	3172.81
973.281	3130.78
973.582	3139.37
973.883	3132.36
974.183	3135.98
974.484	3145.24
974.785	3102.53
975.085	3113.15
975.386	3097.56
975.686	3060.72
975.986	3093.72
976.287	3030.67
976.587	3016.43
976.887	2999.03
977.187	3020.95
977.487	2968.98
977.787	2991.57
978.087	2994.74
978.387	2952.03
978.687	2952.7
978.987	2921.52
979.286	2890.79
979.586	2880.16
979.885	2876.55
980.185	2876.77
980.484	2837.68
980.784	2823.67
981.083	2834.74
981.382	2824.8
981.682	2800.17
981.981	2806.04
982.28	2764.01
982.579	2760.62
982.878	2757
983.177	2752.48
983.475	2760.39
983.774	2736.89
984.073	2719.04
984.372	2679.04
984.67	2700.96
984.969	2680.85
985.267	2667.51
985.566	2668.42
985.864	2654.63
986.162	2652.83
986.461	2618.48
986.759	2597.46
987.057	2593.39
987.355	2595.65
987.653	2584.35
987.951	2553.85
988.249	2527.86
988.547	2524.02
988.844	2520.85
989.142	2556.56
989.44	2500.06
989.737	2498.25
990.035	2491.47
990.332	2452.15
990.63	2456.9
990.927	2468.65
991.224	2399.73
991.521	2439.95
991.819	2410.12
992.116	2401.76
992.413	2384.13
992.71	2334.64
993.006	2335.55
993.303	2363.57
993.6	2325.6
993.897	2337.35
994.193	2321.31
994.49	2321.99
994.787	2273.85
995.083	2291.25
995.379	2266.62
995.676	2245.15
995.972	2253.51
996.268	2273.85
996.565	2238.6
996.861	2205.61
997.157	2219.39
997.453	2248.77
997.749	2192.5
998.044	2186.85
998.34	2170.13
998.636	2149.34
998.932	2129.45
999.227	2149.56
999.523	2148.43
999.818	2101.43
1000.114	2122.44
1000.409	2084.03
1000.704	2077.02
1001	2096.68
1001.295	2086.96
1001.59	2045.84
1001.885	2068.43
1002.18	2011.03
1002.475	2018.27
1002.77	1994.54
1003.065	1991.15
1003.359	1950.7
1003.654	1980.75
1003.949	1992.96
1004.243	1964.71
1004.538	1929
1004.832	1948.44
1005.127	1917.93
1005.421	1899.63
1005.715	1868.21
1006.009	1882.45
1006.304	1870.7
1006.598	1872.51
1006.892	1853.3
1007.186	1848.1
1007.48	1859.85
1007.773	1819.4
1008.067	1825.5
1008.361	1793.19
1008.655	1806.52
1008.948	1783.92
1009.242	1754.77
1009.535	1746.86
1009.829	1738.5
1010.122	1724.49
1010.415	1738.73
1010.708	1740.08
1011.001	1686.07
1011.295	1692.4
1011.588	1672.96
1011.881	1666.86
1012.173	1652.63
1012.466	1674.32
1012.759	1644.26
1013.052	1630.93
1013.344	1637.26
1013.637	1602.68
1013.93	1594.55
1014.222	1578.73
1014.514	1612.18
1014.807	1582.12
1015.099	1570.82
1015.391	1572.85
1015.683	1548.9
1015.976	1550.71
1016.268	1545.96
1016.56	1512.74
1016.851	1533.99
1017.143	1524.72
1017.435	1506.87
1017.727	1506.19
1018.018	1504.83
1018.31	1465.51
1018.602	1460.77
1018.893	1481.11
1019.185	1424.16
1019.476	1437.26
1019.767	1431.39
1020.058	1400.2
1020.35	1396.36
1020.641	1400.88
1020.932	1402.92
1021.223	1374.67
1021.514	1385.51
1021.804	1363.14
1022.095	1361.56
1022.386	1345.74
1022.677	1328.11
1022.967	1336.93
1023.258	1328.79
1023.548	1293.54
1023.839	1311.17
1024.129	1272.98
1024.419	1307.55
1024.709	1278.85
1025	1259.42
1025.29	1253.99
1025.58	1262.13
1025.87	1256.48
1026.16	1259.64
1026.449	1229.36
1026.739	1225.97
1027.029	1207.44
1027.319	1217.16
1027.608	1203.6
1027.898	1224.84
1028.187	1192.3
1028.477	1167.89
1028.766	1188.68
1029.055	1176.71
1029.344	1175.35
1029.634	1152.75
1029.923	1160.44
1030.212	1146.2
1030.501	1119.76
1030.79	1128.57
1031.078	1114.34
1031.367	1091.96
1031.656	1098.52
1031.945	1084.73
1032.233	1098.06
1032.522	1064.17
1032.81	1064.17
1033.099	1041.57
1033.387	1066.88
1033.675	1031.85
1033.963	1037.05
1034.251	1039.31
1034.54	1062.59
1034.828	1035.92
1035.116	1023.72
1035.403	1013.55
1035.691	985.52
1035.979	1007.22
1036.267	1003.38
1036.554	1006.32
1036.842	958.63
1037.129	971.51
1037.417	961.57
1037.704	955.7
1037.992	938.97
1038.279	958.86
1038.566	948.46
1038.853	948.46
1039.14	948.46
