Data from hue_28_FLMS001491_00092.txt Node
Date: Tue Feb 07 17:18:03 GMT 2017
User: dcchb
Spectrometer: FLMS00149
Trigger mode: 0
Integration Time (sec): 2.000000E-2
Scans to average: 10
Electric dark correction enabled: true
Nonlinearity correction enabled: false
Boxcar width: 0
XAxis mode: Wavelengths
Number of Pixels in Spectrum: 2048
>>>>>Begin Spectral Data<<<<<
341.393	-21.24
341.776	-21.24
342.16	-21.24
342.543	-56.95
342.927	-67.79
343.31	-61.24
343.693	-68.47
344.077	-71.64
344.46	-67.57
344.843	-37.06
345.226	-49.04
345.61	-31.19
345.993	-20.56
346.376	-5.65
346.759	2.03
347.142	30.96
347.525	51.75
347.908	65.54
348.291	72.31
348.674	89.49
349.057	100.34
349.44	111.41
349.823	124.52
350.206	152.54
350.588	185.98
350.971	200.22
351.354	226.89
351.737	233.21
352.119	245.19
352.502	262.37
352.884	277.96
353.267	270.95
353.65	277.51
354.032	294
354.414	299.43
354.797	294.68
355.179	314.34
355.562	314.57
355.944	317.73
356.326	329.71
356.709	340.1
357.091	330.61
357.473	324.51
357.855	355.92
358.238	338.75
358.62	345.98
359.002	332.19
359.384	333.78
359.766	350.95
360.148	326.09
360.53	331.52
360.912	349.14
361.294	322.25
361.676	329.93
362.057	330.16
362.439	330.16
362.821	322.25
363.203	318.18
363.584	316.38
363.966	338.75
364.348	335.36
364.729	325.87
365.111	318.41
365.493	318.86
365.874	310.73
366.256	317.73
366.637	324.51
367.019	323.83
367.4	314.34
367.781	298.75
368.163	306.88
368.544	310.27
368.925	320.44
369.306	305.53
369.688	339.65
370.069	325.64
370.45	285.19
370.831	322.48
371.212	317.28
371.593	311.18
371.974	304.85
372.355	308.47
372.736	296.49
373.117	293.78
373.498	322.7
373.879	325.64
374.26	320.67
374.641	303.95
375.021	309.37
375.402	305.08
375.783	304.4
376.163	333.55
376.544	336.04
376.925	339.43
377.305	305.98
377.686	315.47
378.066	332.65
378.447	327.45
378.827	307.34
379.208	322.7
379.588	334.68
379.968	319.77
380.349	324.96
380.729	328.35
381.109	355.47
381.489	337.39
381.87	348.24
382.25	339.65
382.63	356.37
383.01	340.56
383.39	340.33
383.77	351.86
384.15	331.29
384.53	339.65
384.91	342.36
385.29	345.53
385.67	332.65
386.049	341.91
386.429	329.03
386.809	348.69
387.189	364.28
387.568	353.89
387.948	360.67
388.328	365.87
388.707	334.91
389.087	346.66
389.466	358.86
389.846	364.96
390.225	362.93
390.605	355.24
390.984	360.67
391.363	360.22
391.743	361.35
392.122	351.63
392.501	380.33
392.881	377.62
393.26	371.52
393.639	382.59
394.018	387.56
394.397	358.86
394.776	355.47
395.155	358.63
395.534	378.07
395.913	374.23
396.292	395.7
396.671	422.36
397.05	395.92
397.429	378.3
397.808	386.2
398.186	394.34
398.565	386.88
398.944	400.89
399.323	370.84
399.701	411.29
400.08	391.63
400.458	392.76
400.837	391.18
401.215	405.87
401.594	391.4
401.972	402.25
402.351	399.54
402.729	404.96
403.107	414.9
403.486	410.84
403.864	390.27
404.242	421.91
404.62	400.89
404.999	398.63
405.377	426.66
405.755	409.71
406.133	426.66
406.511	429.59
406.889	390.5
407.267	425.98
407.645	437.05
408.023	438.41
408.401	426.43
408.779	426.43
409.156	447.22
409.534	445.86
409.912	443.38
410.29	424.17
410.667	453.77
411.045	461.46
411.422	444.28
411.8	444.73
412.178	461.23
412.555	460.33
412.933	495.35
413.31	472.98
413.687	489.7
414.065	475.24
414.442	498.52
414.819	473.43
415.197	485.18
415.574	469.82
415.951	484.73
416.328	482.7
416.705	495.81
417.082	507.78
417.46	482.93
417.837	494.9
418.214	514.56
418.591	496.26
418.967	518.18
419.344	541
419.721	519.99
420.098	521.12
420.475	542.58
420.852	518.18
421.228	534.22
421.605	530.16
421.982	516.14
422.358	542.13
422.735	543.94
423.111	537.39
423.488	529.25
423.864	570.15
424.241	570.83
424.617	560.21
424.994	557.95
425.37	553.66
425.746	557.05
426.123	570.38
426.499	556.82
426.875	557.5
427.251	567.89
427.627	574.22
428.003	590.49
428.379	603.15
428.756	594.11
429.132	594.33
429.507	597.95
429.883	614.45
430.259	618.06
430.635	618.97
431.011	611.74
431.387	645.41
431.763	618.51
432.138	625.97
432.514	652.64
432.89	635.24
433.265	677.04
433.641	666.2
434.016	672.52
434.392	663.26
434.767	682.47
435.143	676.14
435.518	688.12
435.894	682.69
436.269	695.57
436.644	690.6
437.02	700.09
437.395	701.22
437.77	719.76
438.145	723.6
438.52	736.48
438.895	745.07
439.271	730.83
439.646	734.22
440.021	753.43
440.395	737.38
440.77	755.69
441.145	750.71
441.52	764.73
441.895	776.48
442.27	797.04
442.645	776.25
443.019	770.6
443.394	771.96
443.769	788.23
444.143	802.01
444.518	784.61
444.892	820.09
445.267	801.11
445.641	819.19
446.016	804.72
446.39	827.1
446.764	797.27
447.139	827.1
447.513	807.21
447.887	838.85
448.262	847.66
448.636	823.71
449.01	857.6
449.384	846.53
449.758	846.76
450.132	849.24
450.506	850.37
450.88	857.15
451.254	873.2
451.628	864.84
452.002	886.53
452.376	907.77
452.75	918.85
453.123	928.11
453.497	938.28
453.871	933.08
454.244	939.64
454.618	941.22
454.992	948
455.365	951.61
455.739	982.12
456.112	975.79
456.486	985.96
456.859	1015.79
457.232	1035.23
457.606	990.93
457.979	1021.44
458.352	1042.46
458.725	1049.69
459.099	1058.5
459.472	1045.4
459.845	1091.95
460.218	1076.13
460.591	1069.12
460.964	1126.07
461.337	1119.97
461.71	1146.86
462.083	1124.26
462.456	1159.07
462.829	1181.66
463.201	1161.1
463.574	1201.1
463.947	1201.1
464.32	1201.1
464.692	1217.14
465.065	1256.69
465.438	1242.23
465.81	1279.06
466.183	1300.53
466.555	1307.99
466.928	1320.64
467.3	1322.45
467.672	1337.59
468.045	1380.53
468.417	1370.36
468.789	1398.61
469.161	1417.59
469.534	1435.44
469.906	1463.92
470.278	1448.1
470.65	1478.61
471.022	1531.71
471.394	1539.17
471.766	1560.64
472.138	1581.43
472.51	1612.84
472.882	1656.68
473.253	1656.45
473.625	1675.89
473.997	1756.34
474.369	1749.56
474.74	1738.94
475.112	1778.94
475.484	1782.33
475.855	1879.5
476.227	1888.99
476.598	1924.47
476.97	1949.33
477.341	2019.83
477.713	2007.18
478.084	2021.87
478.455	2112.26
478.827	2122.2
479.198	2175.31
479.569	2216.66
479.94	2309.32
480.311	2295.08
480.682	2373.27
481.053	2431.8
481.424	2485.36
481.795	2491.01
482.166	2535.3
482.537	2591.12
482.908	2638.35
483.279	2701.4
483.65	2745.01
484.021	2779.59
484.391	2875.18
484.762	2884.22
485.133	2906.36
485.503	3004.89
485.874	3084.21
486.244	3119.24
486.615	3183.87
486.985	3220.93
487.356	3305.9
487.726	3349.97
488.097	3402.4
488.467	3448.5
488.837	3506.57
489.207	3578.21
489.578	3628.38
489.948	3677.42
490.318	3754.93
490.688	3787.47
491.058	3862.05
491.428	3893.46
491.798	3958.99
492.168	4056.16
492.538	4109.04
492.908	4152.21
493.278	4202.6
493.648	4229.95
494.017	4289.83
494.387	4333.45
494.757	4420.67
495.126	4474.23
495.496	4506.1
495.866	4513.1
496.235	4588.58
496.605	4659.99
496.974	4692.53
497.344	4729.82
497.713	4778.63
498.082	4768.24
498.452	4884.39
498.821	4919.64
499.19	4903.6
499.559	5016.14
499.928	5053.65
500.298	5092.52
500.667	5104.05
501.036	5183.82
501.405	5211.61
501.774	5210.03
502.143	5190.6
502.512	5284.61
502.88	5337.71
503.249	5372.97
503.618	5404.15
503.987	5360.09
504.356	5442.57
504.724	5523.7
505.093	5499.52
505.462	5531.38
505.83	5579.29
506.199	5624.03
506.567	5679.85
506.936	5674.43
507.304	5753.75
507.672	5763.24
508.041	5774.54
508.409	5853.41
508.777	5892.95
509.145	5903.12
509.514	5898.83
509.882	5977.47
510.25	5996.23
510.618	6019.95
510.986	6028.99
511.354	6047.98
511.722	6138.37
512.09	6101.76
512.458	6126.84
512.826	6203
513.193	6244.58
513.561	6250.01
513.929	6323.9
514.297	6321.87
514.664	6381.08
515.032	6347.63
515.4	6401.64
515.767	6409.55
516.135	6492.26
516.502	6444.35
516.869	6558.02
517.237	6593.95
517.604	6561.86
517.972	6590.11
518.339	6626.27
518.706	6618.58
519.073	6677.34
519.44	6734.51
519.808	6773.61
520.175	6744.68
520.542	6852.93
520.909	6871.23
521.276	6873.04
521.643	6906.26
522.009	6961.85
522.376	6996.88
522.743	7004.56
523.11	7064.45
523.477	7111
523.843	7147.83
524.21	7234.61
524.577	7251.56
524.943	7270.54
525.31	7288.85
525.676	7349.86
526.043	7355.29
526.409	7388.51
526.776	7555.28
527.142	7512.57
527.508	7545.79
527.874	7565
528.241	7611.55
528.607	7685.22
528.973	7732.68
529.339	7791.89
529.705	7825.33
530.071	7853.13
530.437	7875.95
530.803	7916.4
531.169	7977.64
531.535	7944.88
531.901	8008.38
532.267	8075.49
532.632	8073.91
532.998	8142.84
533.364	8162.95
533.73	8227.35
534.095	8232.78
534.461	8238.65
534.826	8348.03
535.192	8353.68
535.557	8427.35
535.923	8425.32
536.288	8450.85
536.653	8469.61
537.019	8508.25
537.384	8520.45
537.749	8513.67
538.114	8618.76
538.479	8621.24
538.845	8649.49
539.21	8660.34
539.575	8652.2
539.94	8699.66
540.305	8809.49
540.67	8804.97
541.034	8850.61
541.399	8931.06
541.764	8840.22
542.129	8910.05
542.494	8959.09
542.858	9062.81
543.223	9069.82
543.587	9133.55
543.952	9107.11
544.316	9143.26
544.681	9191.4
545.045	9223.49
545.41	9259.42
545.774	9273.2
546.138	9341.9
546.503	9345.74
546.867	9429.58
547.231	9454.21
547.595	9463.93
547.959	9532.4
548.324	9506.19
548.688	9536.47
549.052	9578.05
549.416	9655.79
549.779	9682.01
550.143	9675
550.507	9804.49
550.871	9727.88
551.235	9791.61
551.599	9843.81
551.962	9879.06
552.326	9891.49
552.689	9949.57
553.053	9930.36
553.417	9938.72
553.78	10005.16
554.143	10037.7
554.507	10053.97
554.87	10065.72
555.234	10132.84
555.597	10162.67
555.96	10170.35
556.323	10216.68
556.686	10193.4
557.05	10287.19
557.413	10307.07
557.776	10340.07
558.139	10466.39
558.502	10376.68
558.865	10367.41
559.228	10489.22
559.59	10456.22
559.953	10547.75
560.316	10670.45
560.679	10646.5
561.041	10746.16
561.404	10732.15
561.767	10800.62
562.129	10772.82
562.492	10882.88
562.854	10833.61
563.217	10920.16
563.579	10882.2
563.941	10938.7
564.304	11028.64
564.666	11085.81
565.028	11059.82
565.39	11133.27
565.753	11202.64
566.115	11193.15
566.477	11292.36
566.839	11258.69
567.201	11395.18
567.563	11281.51
567.925	11470.88
568.287	11427.04
568.648	11494.39
569.01	11602.41
569.372	11677.21
569.734	11606.93
570.095	11725.79
570.457	11809.18
570.819	11771.44
571.18	11775.06
571.542	11919.01
571.903	11940.7
572.265	11929.63
572.626	12016.18
572.987	12034.03
573.349	12191.09
573.71	12195.16
574.071	12256.85
574.432	12291.2
574.794	12425.44
575.155	12496.39
575.516	12475.15
575.877	12584.75
576.238	12700.46
576.599	12801.02
576.96	12829.04
577.32	12878.08
577.681	13100.67
578.042	13083.95
578.403	13141.35
578.763	13348.35
579.124	13534.11
579.485	13597.83
579.845	13702.46
580.206	13866.3
580.566	13966.64
580.927	14051.83
581.287	14283.69
581.648	14345.84
582.008	14641.87
582.368	14616.34
582.728	14844.58
583.089	14977.23
583.449	15119.15
583.809	15362.53
584.169	15558.69
584.529	15666.93
584.889	15976.3
585.249	16057.43
585.609	16228.73
585.969	16525.22
586.329	16731.09
586.688	17063.96
587.048	17166.1
587.408	17451.29
587.768	17606.09
588.127	17856.71
588.487	18082.69
588.846	18522
589.206	18618.49
589.565	18845.15
589.925	19280.62
590.284	19468.87
590.643	19748.41
591.003	20030.66
591.362	20407.82
591.721	20569.85
592.08	20796.97
592.44	21209.84
592.799	21320.12
593.158	21661.13
593.517	22073.54
593.876	22285.29
594.235	22629.69
594.593	22762.34
594.952	23141.99
595.311	23405.71
595.67	23708.08
596.029	24118.24
596.387	24465.8
596.746	24769.29
597.104	24952.34
597.463	25225.55
597.822	25615.82
598.18	25816.95
598.538	26029.37
598.897	26497.61
599.255	26611.5
599.613	27260.53
599.972	27298.94
600.33	27639.73
600.688	27843.79
601.046	28295.3
601.404	28664.11
601.762	28772.35
602.12	29260.7
602.478	29438.77
602.836	29722.38
603.194	29755.15
603.552	30105.2
603.91	30312.42
604.268	30681
604.625	30851.17
604.983	31208.44
605.341	31167.99
605.698	31643.46
606.056	31997.35
606.413	32184.24
606.771	32405.48
607.128	32670.33
607.485	32779.7
607.843	33015.18
608.2	33393.47
608.557	33762.5
608.914	33725.89
609.272	34070.74
609.629	34374.46
609.986	34526.55
610.343	34510.73
610.7	34996.14
611.057	35007.89
611.414	35351.61
611.771	35427.54
612.127	35806.29
612.484	35903.01
612.841	36223.91
613.198	36273.62
613.554	36503.9
613.911	36830.9
614.267	36871.57
614.624	36944.11
614.98	37345.91
615.337	37458.68
615.693	37520.37
616.05	37687.14
616.406	38143.4
616.762	37938.21
617.118	38096.4
617.475	38179.34
617.831	38475.6
618.187	38617.97
618.543	38658.64
618.899	38961.24
619.255	39018.41
619.611	39101.12
619.967	39304.05
620.323	39513.99
620.678	39368.46
621.034	39385.18
621.39	39597.38
621.746	39705.17
622.101	40183.8
622.457	39842.57
622.812	40028.55
623.168	40186.51
623.523	40234.42
623.879	40436
624.234	40221.77
624.589	40580.85
624.945	40624.24
625.3	40751.24
625.655	40754.18
626.01	40955.76
626.365	40934.29
626.72	41068.07
627.075	41122.08
627.43	41126.15
627.785	40995.31
628.14	41240.72
628.495	41209.09
628.85	41377.22
629.205	41221.74
629.559	41527.04
629.914	41425.35
630.269	41434.16
630.623	41434.62
630.978	41427.61
631.332	41575.86
631.687	41710.77
632.041	41685.68
632.396	41715.74
632.75	41575.63
633.104	41695.85
633.459	41647.94
633.813	41679.58
634.167	41659.92
634.521	41628.51
634.875	41719.58
635.229	41664.22
635.583	41542.41
635.937	41612.69
636.291	41735.63
636.645	41774.27
636.999	41697.89
637.352	41741.5
637.706	41499.7
638.06	41773.36
638.413	41567.04
638.767	41510.77
639.121	41727.49
639.474	41444.33
639.828	41543.77
640.181	41439.59
640.534	41719.58
640.888	41530.89
641.241	41486.37
641.594	41550.09
641.947	41631.22
642.301	41545.12
642.654	41503.32
643.007	41566.59
643.36	41557.1
643.713	41464.9
644.066	41678
644.419	41259.03
644.771	41180.61
645.124	40905.14
645.477	40814.07
645.83	40543.11
646.182	40239.85
646.535	40196.23
646.888	40276.23
647.24	40105.39
647.593	40430.58
647.945	40337.02
648.298	40008.44
648.65	40044.82
649.002	40014.54
649.355	40232.61
649.707	40100.19
650.059	40277.36
650.411	40922.54
650.763	40941.3
651.115	41259.25
651.467	41113.95
651.819	41113.72
652.171	41068.98
652.523	41103.55
652.875	41072.37
653.227	40702.43
653.578	41111.01
653.93	40956.21
654.282	40953.5
654.633	40750.79
654.985	40814.07
655.337	40763
655.688	40871.47
656.039	40980.84
656.391	40673.51
656.742	40809.1
657.094	40840.51
657.445	40915.31
657.796	40867.85
658.147	40737.23
658.498	40680.96
658.849	40680.29
659.2	40802.77
659.551	40612.04
659.902	40721.64
660.253	40723.45
660.604	40852.94
660.955	40708.53
661.306	40758.48
661.656	40801.19
662.007	40658.59
662.358	40708.53
662.708	40770.23
663.059	40745.37
663.409	40429.67
663.76	40798.02
664.11	40770.91
664.461	40734.75
664.811	40842.54
665.161	40697.69
665.511	40533.17
665.862	40706.05
666.212	40850.23
666.562	40694.52
666.912	40680.51
667.262	40545.6
667.612	40672.6
667.962	40721.87
668.312	40683.22
668.662	40757.8
669.011	40592.15
669.361	40625.6
669.711	40401.88
670.06	40587.18
670.41	40430.8
670.76	40555.32
671.109	40680.96
671.459	40440.29
671.808	40404.59
672.157	40560.29
672.507	40274.42
672.856	40149
673.205	40473.51
673.554	40539.95
673.904	40321.88
674.253	40496.11
674.602	40343.57
674.951	39952.4
675.3	39552.18
675.649	40264.03
675.998	40204.37
676.346	40232.84
676.695	40410.24
677.044	40032.62
677.393	40277.59
677.741	40207.3
678.09	40157.14
678.438	39915.11
678.787	40035.33
679.135	40235.33
679.484	39867.65
679.832	39993.52
680.181	39803.7
680.529	39941.77
680.877	39872.4
681.225	39833.75
681.573	39963.02
681.922	39659.97
682.27	39652.52
682.618	39597.83
682.966	39528.68
683.314	39789.69
683.661	39589.69
684.009	39341.79
684.357	39348.34
684.705	39274.45
685.053	39164.17
685.4	39170.5
685.748	38963.27
686.095	39075.58
686.443	38862.03
686.79	38809.38
687.138	38809.83
687.485	38908.13
687.832	38634.01
688.18	38695.03
688.527	38517.86
688.874	38643.73
689.221	38484.41
689.568	38485.32
689.915	38382.27
690.262	38304.53
690.609	38192.22
690.956	38140.24
691.303	38094.37
691.65	37766.46
691.997	37761.49
692.344	37536.87
692.69	37695.28
693.037	37701.38
693.383	37272.92
693.73	37497.77
694.077	37291
694.423	37425.23
694.769	37307.04
695.116	37221.17
695.462	37002.42
695.808	36994.73
696.155	36959.25
696.501	36752.71
696.847	36757.45
697.193	36512.94
697.539	36670
697.885	36358.82
698.231	36318.82
698.577	36310.68
698.923	36173.51
699.269	36022.1
699.614	35766.74
699.96	35848.77
700.306	35821.66
700.651	35702.56
700.997	35465.73
701.342	35541.66
701.688	35511.38
702.033	35385.28
702.379	35429.58
702.724	35230.94
703.069	35416.7
703.415	34957.72
703.76	34988.23
704.105	35044.28
704.45	34974.9
704.795	34812.42
705.14	34527.91
705.485	34607
705.83	34402.03
706.175	34489.04
706.52	34284.75
706.865	34271.42
707.209	34132.66
707.554	34237.52
707.899	34214.92
708.243	33947.13
708.588	33998.43
708.932	33688.38
709.277	33728.38
709.621	33654.71
709.966	33448.61
710.31	33489.51
710.654	33217.88
710.998	33219.92
711.342	33318.45
711.687	33294.49
712.031	33002.07
712.375	33084.33
712.719	33041.62
713.063	33050.88
713.407	33181.95
713.75	33059.02
714.094	32898.57
714.438	32635.53
714.782	32808.4
715.125	32626.71
715.469	32636.88
715.812	32588.3
716.156	32471.91
716.499	32391.01
716.843	32495.42
717.186	32195.54
717.53	32365.02
717.873	32265.59
718.216	32215.88
718.559	32179.94
718.902	31824.02
719.246	32080.74
719.589	31851.37
719.932	31814.76
720.275	31661.31
720.617	31649.34
720.96	31736.57
721.303	31626.06
721.646	31584.71
721.989	31473.07
722.331	31572.28
722.674	31353.98
723.016	31558.49
723.359	31421.09
723.701	31407.76
724.044	31261.55
724.386	31141.55
724.729	31273.53
725.071	31318.72
725.413	31162.34
725.755	31018.39
726.097	30920.99
726.439	30695.69
726.782	30822.24
727.124	30953.31
727.465	30695.46
727.807	30752.19
728.149	30606.2
728.491	30695.69
728.833	30553.32
729.175	30581.79
729.516	30435.36
729.858	30416.38
730.199	30405.3
730.541	30375.7
730.882	30286.89
731.224	30332.31
731.565	30057.51
731.906	30113.33
732.248	30185.42
732.589	30048.7
732.93	29902.04
733.271	29914.47
733.612	29936.84
733.953	30000.34
734.294	29874.47
734.635	29895.94
734.976	29816.84
735.317	29652.55
735.658	29645.77
735.999	29617.53
736.339	29553.12
736.68	29714.92
737.021	29467.7
737.361	29443.75
737.702	29567.36
738.042	29537.3
738.383	29430.41
738.723	29391.09
739.063	29352
739.404	29314.94
739.744	29204.2
740.084	29215.73
740.424	29210.76
740.764	29095.96
741.104	29105.9
741.444	29006.02
741.784	28954.94
742.124	29035.85
742.464	28958.33
742.804	28829.07
743.143	28907.94
743.483	28809.19
743.823	28680.38
744.162	28667.27
744.502	28771.9
744.841	28460.72
745.181	28734.84
745.52	28628.85
745.86	28674.73
746.199	28525.35
746.538	28466.14
746.877	28529.65
747.216	28568.06
747.556	28409.87
747.895	28414.85
748.234	28159.03
748.573	28302.08
748.911	28166.94
749.25	28165.59
749.589	28144.34
749.928	28132.82
750.267	28120.16
750.605	27961.75
750.944	27987.06
751.283	27903.9
751.621	27929.89
751.96	27869.32
752.298	27760.17
752.636	27692.61
752.975	27627.07
753.313	27598.6
753.651	27768.08
753.989	27464.59
754.327	27521.99
754.666	27327.42
755.004	27379.85
755.342	27432.5
755.679	27237.25
756.017	27221.66
756.355	27288.55
756.693	27110.47
757.031	27097.59
757.368	27085.16
757.706	27060.76
758.044	26862.12
758.381	26845.62
758.719	26902.57
759.056	26920.65
759.394	26744.83
759.731	26590.94
760.068	26443.15
760.405	26446.31
760.743	26441.56
761.08	26428.23
761.417	26122.48
761.754	26054.23
762.091	26140.33
762.428	26095.81
762.765	25928.81
763.102	26008.58
763.438	25799.1
763.775	25701.25
764.112	25850.39
764.449	25704.86
764.785	25552.77
765.122	25509.84
765.458	25367.92
765.795	25362.95
766.131	25318.2
766.467	25140.36
766.804	25154.14
767.14	25012
767.476	25007.03
767.812	24752.57
768.148	24908.5
768.485	24579.24
768.821	24559.58
769.157	24527.72
769.492	24561.61
769.828	24459.47
770.164	24260.83
770.5	24121.17
770.836	24198.01
771.171	24023.1
771.507	23913.5
771.842	23848.19
772.178	23807.96
772.513	23686.38
772.849	23699.49
773.184	23559.15
773.519	23636.44
773.855	23395.77
774.19	23399.61
774.525	23273.74
774.86	23351.25
775.195	23209.11
775.53	23081.43
775.865	22980.41
776.2	22750.59
776.535	22665.84
776.87	22760.98
777.205	22593.08
777.539	22546.07
777.874	22453.42
778.209	22262.69
778.543	22291.84
778.878	22179.53
779.212	22160.32
779.547	21979.99
779.881	22075.58
780.215	21906.32
780.55	21943.6
780.884	21749.71
781.218	21768.02
781.552	21660.9
781.886	21616.83
782.22	21536.38
782.554	21364.64
782.888	21156.73
783.222	21093.46
783.556	20989.5
783.889	21058.2
784.223	20851.66
784.557	20781.15
784.89	20956.74
785.224	20641.04
785.557	20576.63
785.891	20613.47
786.224	20439.69
786.558	20525.79
786.891	20280.6
787.224	20203.31
787.557	20185.68
787.891	20180.49
788.224	20035.18
788.557	20163.54
788.89	20073.37
789.223	20034.28
789.556	19879.93
789.888	19687.84
790.221	19702.08
790.554	19622.99
790.887	19626.6
791.219	19489.66
791.552	19551.58
791.884	19377.57
792.217	19272.94
792.549	19232.04
792.882	19075.88
793.214	18989.56
793.546	19043.34
793.879	18983.68
794.211	18794.31
794.543	19087.86
794.875	18866.62
795.207	18929.9
795.539	18715.89
795.871	18653.07
796.203	18678.38
796.535	18552.73
796.867	18353.64
797.198	18383.25
797.53	18389.57
797.862	18199.07
798.193	18257.83
798.525	18157.26
798.856	18169.01
799.188	17887.89
799.519	17878.63
799.85	17821.9
800.182	17887.67
800.513	17786.65
800.844	17593.89
801.175	17738.29
801.506	17615.81
801.837	17632.76
802.168	17538.07
802.499	17399.77
802.83	17382.14
803.161	17370.16
803.491	17274.35
803.822	17312.09
804.153	17222.82
804.483	16993.45
804.814	17018.76
805.145	17063.51
805.475	17018.99
805.805	16882.27
806.136	16937.18
806.466	16895.15
806.796	16877.07
807.126	16688.83
807.457	16703.97
807.787	16713.46
808.117	16580.13
808.447	16500.58
808.777	16574.93
809.107	16480.47
809.436	16459.68
809.766	16452.9
810.096	16326.58
810.426	16324.77
810.755	16167.03
811.085	16207.48
811.414	16163.19
811.744	16129.52
812.073	16083.64
812.403	16094.27
812.732	15957.32
813.061	15966.13
813.39	15919.36
813.719	15858.11
814.049	15939.69
814.378	15827.61
814.707	15760.04
815.036	15710.32
815.365	15618.8
815.693	15574.28
816.022	15635.07
816.351	15442.08
816.68	15424
817.008	15451.8
817.337	15307.85
817.665	15167.28
817.994	15357.11
818.322	15289.32
818.651	15212.03
818.979	15164.8
819.307	15212.71
819.636	15170
819.964	15043.22
820.292	15084.8
820.62	15077.57
820.948	15071.47
821.276	15102.2
821.604	14981.75
821.932	15029.21
822.259	15090.9
822.587	15017.46
822.915	14910.79
823.243	14972.49
823.57	14904.92
823.898	14934.97
824.225	14960.28
824.553	14886.84
824.88	14941.53
825.207	14962.54
825.535	14874.64
825.862	14973.62
826.189	14845.94
826.516	14912.83
826.843	14887.74
827.17	14843.45
827.497	14975.88
827.824	15010
828.151	14886.16
828.478	14840.51
828.805	15039.15
829.131	14925.94
829.458	14921.19
829.785	14824.92
830.111	14888.2
830.438	14868.31
830.764	14938.82
831.09	14874.86
831.417	14826.28
831.743	14881.42
832.069	14892.04
832.395	14824.92
832.722	14855.65
833.048	14837.58
833.374	14782.89
833.7	14678.71
834.026	14765.71
834.351	14801.64
834.677	14767.3
835.003	14726.62
835.329	14802.55
835.654	14720.29
835.98	14676.9
836.306	14691.14
836.631	14594.19
836.956	14663.12
837.282	14621.31
837.607	14486.4
837.932	14557.36
838.258	14420.19
838.583	14491.37
838.908	14404.59
839.233	14456.57
839.558	14438.94
839.883	14382.9
840.208	14368.21
840.533	14344.93
840.858	14283.24
841.182	14384.25
841.507	14293.18
841.832	14185.39
842.156	14210.02
842.481	14167.31
842.805	14069.23
843.13	14156.01
843.454	14091.61
843.778	13969.35
844.103	13972.29
844.427	13979.07
844.751	14018.84
845.075	13936.81
845.399	13880.31
845.723	13790.37
846.047	13807.55
846.371	13733.2
846.695	13675.12
847.019	13525.52
847.343	13509.48
847.666	13441.91
847.99	13484.62
848.313	13338.63
848.637	13262.7
848.96	13276.26
849.284	13325.98
849.607	13168.24
849.931	13105.19
850.254	12987.91
850.577	13003.73
850.9	12859.32
851.223	12881.24
851.546	12838.53
851.869	12762.83
852.192	12820.68
852.515	12671.53
852.838	12675.15
853.161	12630.18
853.483	12614.58
853.806	12554.7
854.129	12504.08
854.451	12435.38
854.774	12391.99
855.096	12330.75
855.419	12350.86
855.741	12327.13
856.063	12168.72
856.385	12246.01
856.708	12099.12
857.03	12123.3
857.352	12109.96
857.674	12000.14
857.996	11976.63
858.318	11932.79
858.64	11900.93
858.961	11847.6
859.283	11826.13
859.605	11796.53
859.926	11832.91
860.248	11811.89
860.57	11754.27
860.891	11778
861.212	11670.65
861.534	11656.42
861.855	11655.29
862.176	11585.01
862.498	11540.94
862.819	11572.35
863.14	11531.22
863.461	11573.93
863.782	11520.83
864.103	11536.19
864.424	11455.07
864.745	11538.68
865.065	11449.87
865.386	11401.28
865.707	11328.29
866.027	11375.29
866.348	11256.2
866.668	11316.31
866.989	11283.09
867.309	11210.78
867.63	11206.26
867.95	11181.85
868.27	11186.37
868.59	11139.37
868.91	11194.51
869.23	11158.35
869.55	11030.9
869.87	11173.72
870.19	11112.02
870.51	11088.52
870.83	11083.1
871.15	11024.79
871.469	11049.65
871.789	11075.64
872.109	10921.75
872.428	10957.9
872.748	10948.19
873.067	10921.29
873.386	10961.07
873.706	10904.8
874.025	10819.15
874.344	10808.53
874.663	10912.03
874.982	10809.66
875.301	10792.03
875.62	10727.4
875.939	10685.82
876.258	10764.46
876.577	10678.59
876.896	10758.59
877.214	10690.11
877.533	10734.41
877.852	10665.26
878.17	10673.17
878.489	10669.55
878.807	10558.14
879.125	10551.59
879.444	10667.74
879.762	10549.78
880.08	10473.4
880.398	10486.5
880.716	10488.31
881.034	10495.54
881.352	10456
881.67	10465.71
881.988	10350.01
882.306	10423.91
882.624	10325.83
882.941	10269.56
883.259	10299.84
883.577	10279.5
883.894	10263.23
884.212	10204.25
884.529	10218.26
884.846	10205.16
885.164	10125.61
885.481	10133.29
885.798	10193.63
886.115	10119.96
886.432	10091.49
886.75	10039.28
887.067	10016.46
887.383	10051.71
887.7	10013.75
888.017	9939.17
888.334	9999.51
888.651	9843.36
888.967	9876.8
889.284	9813.98
889.6	9774.43
889.917	9739.4
890.233	9792.51
890.55	9756.35
890.866	9738.5
891.182	9680.88
891.498	9591.39
891.815	9641.1
892.131	9611.95
892.447	9569.47
892.763	9507.77
893.079	9529.92
893.395	9464.84
893.71	9490.6
894.026	9417.61
894.342	9388.23
894.657	9380.32
894.973	9383.26
895.289	9372.18
895.604	9343.94
895.92	9216.03
896.235	9159.31
896.55	9240.66
896.865	9156.37
897.181	9111.85
897.496	9158.18
897.811	9027.56
898.126	9018.52
898.441	9004.96
898.756	9014.23
899.071	8964.51
899.386	8960.89
899.7	8874.79
900.015	8820.33
900.33	8747.57
900.644	8759.09
900.959	8793.67
901.273	8777.4
901.588	8675.93
901.902	8635.71
902.216	8632.77
902.531	8604.75
902.845	8561.13
903.159	8496.5
903.473	8465.99
903.787	8476.16
904.101	8454.92
904.415	8404.52
904.729	8383.06
905.042	8287.92
905.356	8378.08
905.67	8271.19
905.984	8261.7
906.297	8277.07
906.611	8201.59
906.924	8141.71
907.237	8170.18
907.551	8114.59
907.864	8087.47
908.177	8098.32
908.491	8017.42
908.804	7933.58
909.117	7959.56
909.43	7880.7
909.743	7870.53
910.056	7809.29
910.368	7847.48
910.681	7837.53
910.994	7770.64
911.307	7769.29
911.619	7678.44
911.932	7679.12
912.244	7602.74
912.557	7525.9
912.869	7524.32
913.181	7502.4
913.494	7484.1
913.806	7409.3
914.118	7434.61
914.43	7362.74
914.742	7345.34
915.054	7329.07
915.366	7332.24
915.678	7291.33
915.99	7190.77
916.302	7219.47
916.613	7202.3
916.925	7172.92
917.236	7192.35
917.548	7130.66
917.859	7095.18
918.171	7006.37
918.482	6989.65
918.794	6974.96
919.105	6937.9
919.416	6918.91
919.727	6935.18
920.038	6868.52
920.349	6823.55
920.66	6837.11
920.971	6805.7
921.282	6715.98
921.593	6714.63
921.903	6667.17
922.214	6635.08
922.525	6646.38
922.835	6592.37
923.146	6594.85
923.456	6559.38
923.767	6478.7
924.077	6472.15
924.387	6436.21
924.697	6436.44
925.008	6410
925.318	6356.44
925.628	6408.87
925.938	6305.14
926.248	6321.87
926.558	6208.2
926.867	6330.46
927.177	6195.09
927.487	6252.04
927.796	6143.57
928.106	6079.39
928.416	6102.89
928.725	6112.16
929.034	6131.82
929.344	6078.48
929.653	5989.22
929.962	5907.19
930.271	5968.43
930.581	5916
930.89	5937.7
931.199	5869.9
931.508	5886.17
931.817	5855.44
932.125	5860.86
932.434	5774.76
932.743	5714.65
933.051	5761.88
933.36	5681.21
933.669	5652.28
933.977	5646.18
934.286	5609.34
934.594	5654.77
934.902	5601.66
935.21	5572.28
935.519	5572.96
935.827	5550.59
936.135	5482.79
936.443	5476.92
936.751	5466.52
937.059	5412.97
937.367	5404.15
937.674	5417.48
937.982	5349.46
938.29	5333.19
938.597	5302.46
938.905	5318.28
939.213	5237.6
939.52	5225.4
939.827	5257.26
940.135	5198.51
940.442	5138.85
940.749	5128.9
941.056	5171.84
941.363	5106.08
941.67	5093.88
941.977	5005.52
942.284	5023.14
942.591	4980.21
942.898	5016.37
943.205	4996.25
943.511	4949.47
943.818	4938.85
944.125	4911.51
944.431	4887.78
944.738	4899.08
945.044	4883.94
945.35	4825.41
945.657	4817.05
945.963	4803.26
946.269	4786.54
946.575	4780.89
946.881	4717.39
947.187	4750.84
947.493	4709.93
947.799	4675.13
948.105	4629.71
948.41	4624.29
948.716	4620.9
949.022	4563.72
949.327	4526.21
949.633	4562.14
949.938	4549.71
950.244	4502.48
950.549	4467.45
950.854	4469.71
951.16	4457.96
951.465	4423.39
951.77	4365.99
952.075	4405.31
952.38	4377.96
952.685	4328.25
952.99	4340.22
953.294	4331.64
953.599	4311.3
953.904	4250.74
954.209	4272.88
954.513	4256.84
954.818	4210.06
955.122	4231.53
955.426	4223.17
955.731	4189.72
956.035	4141.81
956.339	4103.85
956.643	4152.66
956.948	4114.02
957.252	4100.46
957.556	4070.4
957.86	4051.19
958.163	4020.91
958.467	3995.15
958.771	4031.76
959.075	4021.36
959.378	3956.73
959.682	3973.23
959.985	3908.37
960.289	3894.36
960.592	3890.07
960.896	3888.26
961.199	3826.57
961.502	3839.9
961.805	3842.38
962.108	3786.79
962.411	3816.85
962.714	3753.35
963.017	3746.34
963.32	3743.18
963.623	3710.86
963.926	3700.92
964.228	3727.36
964.531	3697.98
964.833	3688.94
965.136	3626.8
965.438	3648.72
965.741	3583.63
966.043	3608.49
966.345	3572.11
966.648	3565.56
966.95	3564.65
967.252	3514.03
967.554	3549.06
967.856	3469.29
968.158	3472.9
968.46	3436.52
968.761	3450.76
969.063	3447.59
969.365	3415.05
969.666	3394.04
969.968	3394.71
970.269	3396.07
970.571	3346.58
970.872	3317.88
971.174	3355.17
971.475	3325.34
971.776	3310.87
972.077	3306.58
972.378	3328.27
972.679	3255.28
972.98	3250.31
973.281	3229.75
973.582	3235.62
973.883	3225
974.183	3237.65
974.484	3186.36
974.785	3221.61
975.085	3154.72
975.386	3137.09
975.686	3140.71
975.986	3092.12
976.287	3099.35
976.587	3044.44
976.887	3072.91
977.187	3025.01
977.487	3074.27
977.787	3052.8
978.087	3041.73
978.387	2999.92
978.687	2976.87
978.987	2976.87
979.286	2975.29
979.586	2980.94
979.885	2913.37
980.185	2873.37
980.484	2887.61
980.784	2914.5
981.083	2898.91
981.382	2845.35
981.682	2865.69
981.981	2871.79
982.28	2834.28
982.579	2798.8
982.878	2830.43
983.177	2780.49
983.475	2819.13
983.774	2782.53
984.073	2774.62
984.372	2759.02
984.67	2694.62
984.969	2722.87
985.267	2714.05
985.566	2713.37
985.864	2705.24
986.162	2681.06
986.461	2660.95
986.759	2660.95
987.057	2612.13
987.355	2677.67
987.653	2621.63
987.951	2606.71
988.249	2599.25
988.547	2615.52
988.844	2544.34
989.142	2584.34
989.44	2568.29
989.737	2544.57
990.035	2540.05
990.332	2501.63
990.63	2477.67
990.927	2504.79
991.224	2502.31
991.521	2475.64
991.819	2458.01
992.116	2487.39
992.413	2428.86
992.71	2422.54
993.006	2413.5
993.303	2377.79
993.6	2391.58
993.897	2399.03
994.193	2366.04
994.49	2353.38
994.787	2335.08
995.083	2324.68
995.379	2316.32
995.676	2320.39
995.972	2320.62
996.268	2270.45
996.565	2275.19
996.861	2247.85
997.157	2265.7
997.453	2209.66
997.749	2201.75
998.044	2225.25
998.34	2207.17
998.636	2202.88
998.932	2164.24
999.227	2175.08
999.523	2191.81
999.818	2138.7
1000.114	2122.2
1000.409	2135.09
1000.704	2085.37
1001	2138.47
1001.295	2058.48
1001.59	2091.02
1001.885	2085.37
1002.18	2058.02
1002.475	2050.57
1002.77	2079.72
1003.065	2037.91
1003.359	1999.04
1003.654	2056.22
1003.949	1990
1004.243	1988.65
1004.538	1957.24
1004.832	1993.39
1005.127	1971.25
1005.421	1934.41
1005.715	1942.1
1006.009	1945.03
1006.304	1919.72
1006.598	1881.53
1006.892	1906.62
1007.186	1878.82
1007.48	1869.78
1007.773	1875.43
1008.067	1828.43
1008.361	1838.37
1008.655	1809.67
1008.948	1816.22
1009.242	1839.73
1009.535	1831.14
1009.829	1791.59
1010.122	1748.65
1010.415	1779.84
1010.708	1753.63
1011.001	1737.36
1011.295	1746.62
1011.588	1720.41
1011.881	1704.59
1012.173	1680.18
1012.466	1691.71
1012.759	1674.31
1013.052	1691.71
1013.344	1718.37
1013.637	1671.14
1013.93	1672.72
1014.222	1654.19
1014.514	1631.82
1014.807	1648.54
1015.099	1629.56
1015.391	1611.26
1015.683	1618.94
1015.976	1562.22
1016.268	1564.03
1016.56	1560.86
1016.851	1554.99
1017.143	1550.24
1017.435	1519.06
1017.727	1523.35
1018.018	1515.67
1018.31	1506.18
1018.602	1515.44
1018.893	1496.23
1019.185	1499.62
1019.476	1465.95
1019.767	1470.24
1020.058	1455.33
1020.35	1440.87
1020.641	1418.72
1020.932	1417.36
1021.223	1400.87
1021.514	1417.14
1021.804	1392.73
1022.095	1390.02
1022.386	1384.37
1022.677	1374.65
1022.967	1361.55
1023.258	1328.33
1023.548	1333.07
1023.839	1340.3
1024.129	1317.48
1024.419	1326.29
1024.709	1331.26
1025	1299.17
1025.29	1290.81
1025.58	1313.64
1025.87	1267.54
1026.16	1279.29
1026.449	1242.45
1026.739	1252.17
1027.029	1239.29
1027.319	1220.76
1027.608	1223.7
1027.898	1239.06
1028.187	1184.38
1028.477	1185.51
1028.766	1215.56
1029.055	1184.6
1029.344	1197.71
1029.634	1195.45
1029.923	1177.37
1030.212	1180.08
1030.501	1136.69
1030.79	1129.01
1031.078	1165.62
1031.367	1129.24
1031.656	1118.39
1031.945	1083.36
1032.233	1100.54
1032.522	1119.29
1032.81	1114.32
1033.099	1103.25
1033.387	1068.22
1033.675	1059.86
1033.963	1075.68
1034.251	1046.07
1034.54	1028.9
1034.828	1041.55
1035.116	1043.59
1035.403	1006.3
1035.691	1026.87
1035.979	996.36
1036.267	1017.83
1036.554	1003.36
1036.842	995.23
1037.129	994.78
1037.417	961.33
1037.704	978.28
1037.992	966.53
1038.279	947.32
1038.566	959.3
1038.853	959.3
1039.14	959.3
