Data from hue_120_FLMS001491_00021.txt Node
Date: Tue Feb 07 16:59:07 GMT 2017
User: dcchb
Spectrometer: FLMS00149
Trigger mode: 0
Integration Time (sec): 2.000000E-2
Scans to average: 10
Electric dark correction enabled: true
Nonlinearity correction enabled: false
Boxcar width: 0
XAxis mode: Wavelengths
Number of Pixels in Spectrum: 2048
>>>>>Begin Spectral Data<<<<<
341.393	-16.24
341.776	-16.24
342.16	-16.24
342.543	-75.9
342.927	-63.7
343.31	-77.71
343.693	-54.43
344.077	-65.51
344.46	-58.5
344.843	-57.82
345.226	-52.4
345.61	-39.97
345.993	1.38
346.376	7.03
346.759	21.5
347.142	33.7
347.525	35.51
347.908	61.95
348.291	59.24
348.674	75.05
349.057	110.99
349.44	128.61
349.823	129.52
350.206	177.2
350.588	182.4
350.971	197.54
351.354	227.82
351.737	227.37
352.119	250.19
352.502	271.21
352.884	255.61
353.267	283.64
353.65	309.17
354.032	305.1
354.414	288.38
354.797	309.85
355.179	319.12
355.562	312.11
355.944	313.24
356.326	311.66
356.709	327.03
357.091	343.3
357.473	326.12
357.855	345.1
358.238	341.49
358.62	314.82
359.002	320.47
359.384	361.37
359.766	323.64
360.148	340.58
360.53	328.38
360.912	347.59
361.294	327.03
361.676	352.11
362.057	340.36
362.439	324.77
362.821	340.58
363.203	324.77
363.584	297.42
363.966	327.48
364.348	289.96
364.729	327.93
365.111	326.35
365.493	306.23
365.874	319.12
366.256	306.91
366.637	306.91
367.019	309.17
367.4	301.26
367.781	321.83
368.163	318.44
368.544	306.23
368.925	296.52
369.306	322.73
369.688	296.97
370.069	312.11
370.45	299.68
370.831	328.61
371.212	308.95
371.593	312.56
371.974	312.56
372.355	321.38
372.736	324.09
373.117	309.4
373.498	324.77
373.879	314.6
374.26	320.25
374.641	322.28
375.021	318.44
375.402	307.36
375.783	313.47
376.163	309.17
376.544	314.82
376.925	327.25
377.305	346.69
377.686	325.22
378.066	313.01
378.447	314.82
378.827	343.52
379.208	334.93
379.588	335.84
379.968	327.48
380.349	329.29
380.729	317.53
381.109	328.38
381.489	310.53
381.87	346.01
382.25	341.71
382.63	361.6
383.01	346.46
383.39	349.62
383.77	332.45
384.15	362.73
384.53	348.27
384.91	346.91
385.29	322.05
385.67	331.77
386.049	351.21
386.429	341.04
386.809	350.08
387.189	323.86
387.568	359.11
387.948	382.17
388.328	345.56
388.707	342.84
389.087	354.6
389.466	361.6
389.846	363.63
390.225	379.68
390.605	368.61
390.984	371.54
391.363	368.83
391.743	367.25
392.122	388.04
392.501	386.46
392.881	376.97
393.26	367.93
393.639	376.97
394.018	380.81
394.397	388.04
394.776	387.36
395.155	388.49
395.534	373.13
395.913	384.65
396.292	385.1
396.671	401.37
397.05	393.69
397.429	389.62
397.808	391.2
398.186	390.53
398.565	412.9
398.944	395.27
399.323	402.05
399.701	409.06
400.08	412.67
400.458	421.49
400.837	404.99
401.215	414.71
401.594	397.98
401.972	390.07
402.351	404.76
402.729	410.64
403.107	414.48
403.486	444.31
403.864	412.22
404.242	413.58
404.62	440.92
404.999	428.27
405.377	409.96
405.755	434.37
406.133	453.12
406.511	435.27
406.889	436.4
407.267	438.43
407.645	434.14
408.023	453.58
408.401	450.41
408.779	432.56
409.156	440.24
409.534	468.49
409.912	468.26
410.29	460.58
410.667	462.84
411.045	463.29
411.422	469.62
411.8	473.91
412.178	487.93
412.555	486.34
412.933	473.01
413.31	491.54
413.687	513.46
414.065	513.69
414.442	494.48
414.819	493.12
415.197	516.4
415.574	501.48
415.951	508.72
416.328	508.49
416.705	512.78
417.082	502.84
417.46	526.79
417.837	505.33
418.214	538.32
418.591	536.06
418.967	550.3
419.344	541.93
419.721	574.02
420.098	548.49
420.475	538.55
420.852	546.45
421.228	544.65
421.605	562.73
421.982	541.48
422.358	563.63
422.735	569.28
423.111	564.08
423.488	564.99
423.864	580.13
424.241	582.39
424.617	573.35
424.994	587.58
425.37	610.63
425.746	589.17
426.123	598.66
426.499	596.4
426.875	618.54
427.251	623.06
427.627	646.34
428.003	629.62
428.379	617.87
428.756	629.39
429.132	661.25
429.507	611.76
429.883	647.47
430.259	660.8
430.635	656.28
431.011	657.86
431.387	678.88
431.763	684.3
432.138	664.87
432.514	697.19
432.89	683.63
433.265	690.41
433.641	694.93
434.016	720.91
434.392	717.98
434.767	741.93
435.143	719.11
435.518	733.12
435.894	741.48
436.269	737.86
436.644	793.45
437.02	765.43
437.395	773.34
437.77	774.47
438.145	784.19
438.52	794.13
438.895	816.05
439.271	828.48
439.646	821.25
440.021	837.97
440.395	815.15
440.77	812.89
441.145	830.51
441.52	856.28
441.895	840.23
442.27	883.85
442.645	837.97
443.019	862.83
443.394	860.12
443.769	878.88
444.143	855.6
444.518	881.59
444.892	891.98
445.267	895.37
445.641	900.12
446.016	908.93
446.39	915.03
446.764	907.58
447.139	913.9
447.513	943.28
447.887	938.76
448.262	906.45
448.636	929.95
449.01	955.26
449.384	968.36
449.758	945.99
450.132	981.02
450.506	970.85
450.88	992.77
451.254	981.7
451.628	1016.72
452.002	1010.85
452.376	1012.43
452.75	1015.37
453.123	1036.84
453.497	1025.99
453.871	1035.93
454.244	1066.89
454.618	1058.76
454.992	1072.32
455.365	1076.61
455.739	1094.46
456.112	1120
456.486	1131.07
456.859	1134.69
457.232	1188.92
457.606	1182.82
457.979	1143.73
458.352	1206.78
458.725	1235.48
459.099	1212.43
459.472	1230.96
459.845	1283.84
460.218	1265.98
460.591	1297.62
460.964	1266.89
461.337	1341.24
461.71	1333.33
462.083	1368.81
462.456	1373.78
462.829	1391.86
463.201	1400.44
463.574	1425.75
463.947	1420.56
464.32	1480.44
464.692	1474.11
465.065	1491.97
465.438	1522.02
465.81	1546.43
466.183	1547.56
466.555	1559.54
466.928	1627.78
467.3	1614.9
467.672	1632.75
468.045	1684.5
468.417	1695.12
468.789	1705.07
469.161	1755.24
469.534	1790.49
469.906	1795.24
470.278	1830.26
470.65	1886.53
471.022	1891.73
471.394	1962.91
471.766	1938.51
472.138	2008.79
472.51	2034.78
472.882	2084.49
473.253	2136.02
473.625	2185.28
473.997	2234.09
474.369	2255.79
474.74	2289.69
475.112	2362
475.484	2427.54
475.855	2514.76
476.227	2537.14
476.598	2599.96
476.97	2682.9
477.341	2726.51
477.713	2771.93
478.084	2816.45
478.455	2944.13
478.827	2984.13
479.198	3089.89
479.569	3198.81
479.94	3264.12
480.311	3317.91
480.682	3446.27
481.053	3558.8
481.424	3665.69
481.795	3745.47
482.166	3832.24
482.537	3905.46
482.908	4033.37
483.279	4127.83
483.65	4264.77
484.021	4381.38
484.391	4512.23
484.762	4603.97
485.133	4700.02
485.503	4830.64
485.874	4996.73
486.244	5088.03
486.615	5249.38
486.985	5342.94
487.356	5481.47
487.726	5598.75
488.097	5805.75
488.467	5860.89
488.837	6102.69
489.207	6220.43
489.578	6324.16
489.948	6453.64
490.318	6621.78
490.688	6739.96
491.058	6897.02
491.428	7050.69
491.798	7202.1
492.168	7435.76
492.538	7517.8
492.908	7692.71
493.278	7817.68
493.648	7955.3
494.017	8098.8
494.387	8265.35
494.757	8407.72
495.126	8559.8
495.496	8645
495.866	8753.24
496.235	8920.92
496.605	9032.79
496.974	9176.28
497.344	9376.28
497.713	9422.61
498.082	9537.63
498.452	9755.7
498.821	9873.21
499.19	9887.23
499.559	10050.39
499.928	10165.86
500.298	10255.13
500.667	10437.49
501.036	10435.69
501.405	10604.5
501.774	10659.18
502.143	10793.19
502.512	10942.34
502.88	11048.33
503.249	11097.14
503.618	11188.89
503.987	11279.05
504.356	11350.69
504.724	11463.68
505.093	11590.23
505.462	11619.38
505.83	11717.91
506.199	11789.32
506.567	12017.57
506.936	11989.77
507.304	12156.77
507.672	12241.97
508.041	12224.11
508.409	12350.89
508.777	12472.69
509.145	12515.86
509.514	12558.79
509.882	12614.61
510.25	12658.23
510.618	12700.94
510.986	12845.34
511.354	12932.34
511.722	12955.85
512.09	13137.54
512.458	13068.61
512.826	13252.56
513.193	13302.96
513.561	13255.95
513.929	13316.51
514.297	13491.42
514.664	13506.57
515.032	13529.84
515.4	13544.98
515.767	13650.97
516.135	13703.85
516.502	13630.18
516.869	13810.06
517.237	13860.23
517.604	13849.16
517.972	13912.88
518.339	13885.31
518.706	13923.05
519.073	13920.34
519.44	14060.45
519.808	14160.11
520.175	14020.68
520.542	14238.98
520.909	14298.18
521.276	14237.85
521.643	14350.61
522.009	14355.58
522.376	14412.3
522.743	14408.01
523.11	14541.11
523.477	14577.5
523.843	14584.28
524.21	14678.51
524.577	14787.21
524.943	14793.31
525.31	14764.84
525.676	14810.71
526.043	14857.72
526.409	14875.8
526.776	15011.38
527.142	14958.96
527.508	14949.01
527.874	14989.24
528.241	14956.92
528.607	14987.2
528.973	15141.1
529.339	15056.13
529.705	15064.49
530.071	15142.68
530.437	15100.65
530.803	15171.61
531.169	15222
531.535	15187.2
531.901	15226.29
532.267	15186.52
532.632	15171.15
532.998	15209.8
533.364	15214.09
533.73	15247.08
534.095	15267.65
534.461	15170.02
534.826	15248.89
535.192	15111.5
535.557	15176.13
535.923	15159.86
536.288	15067.43
536.653	15112.63
537.019	15002.12
537.384	15043.47
537.749	15092.51
538.114	15044.83
538.479	14976.13
538.845	15038.28
539.21	14848.68
539.575	14887.09
539.94	14938.84
540.305	14895.68
540.67	14840.09
541.034	14818.4
541.399	14833.54
541.764	14749.02
542.129	14751.28
542.494	14664.73
542.858	14705.63
543.223	14638.97
543.587	14656.59
543.952	14594.9
544.316	14660.21
544.681	14491.62
545.045	14472.87
545.41	14450.72
545.774	14467.67
546.138	14454.56
546.503	14354
546.867	14390.16
547.231	14415.47
547.595	14419.08
547.959	14326.43
548.324	14188.13
548.688	14255.02
549.052	14258.86
549.416	14159.43
549.779	14187
550.143	14088.02
550.507	14092.09
550.871	14013.22
551.235	14036.5
551.599	14082.37
551.962	14052.99
552.326	13957.18
552.689	14025.42
553.053	13905.2
553.417	13881.47
553.78	14035.82
554.143	13790.63
554.507	13924.18
554.87	13871.98
555.234	13847.57
555.597	13827.46
555.96	13866.78
556.323	13816.61
556.686	13695.49
557.05	13843.51
557.413	13788.82
557.776	13762.6
558.139	13813
558.502	13760.12
558.865	13774.36
559.228	13871.75
559.59	13794.69
559.953	13794.47
560.316	13871.98
560.679	13759.21
561.041	13827.46
561.404	13754.92
561.767	13869.49
562.129	13759.89
562.492	13956.05
562.854	13865.2
563.217	13849.61
563.579	13833.79
563.941	13844.86
564.304	13872.88
564.666	13917.85
565.028	13852.09
565.39	13852.55
565.753	13911.75
566.115	13845.77
566.477	13965.99
566.839	13874.47
567.201	13964.41
567.563	14003.95
567.925	14069.04
568.287	14077.17
568.648	13952.88
569.01	14063.39
569.372	14066.1
569.734	13982.49
570.095	14162.14
570.457	14178.19
570.819	14106.1
571.18	14097.06
571.542	14205.53
571.903	14175.02
572.265	14193.78
572.626	14231.52
572.987	14193.55
573.349	14096.38
573.71	14277.84
574.071	14216.6
574.432	14283.04
574.794	14377.28
575.155	14292.31
575.516	14297.05
575.877	14342.02
576.238	14359.65
576.599	14392.87
576.96	14245.3
577.32	14320.33
577.681	14284.62
578.042	14326.66
578.403	14360.78
578.763	14344.74
579.124	14338.18
579.485	14384.96
579.845	14457.28
580.206	14381.12
580.566	14413.89
580.927	14452.53
581.287	14476.26
581.648	14389.48
582.008	14335.47
582.368	14390.16
582.728	14366.66
583.089	14306.77
583.449	14377.05
583.809	14402.81
584.169	14316.04
584.529	14297.51
584.889	14397.84
585.249	14207.56
585.609	14191.52
585.969	14350.39
586.329	14265.64
586.688	14309.71
587.048	14151.29
587.408	14243.04
587.768	14251.4
588.127	14137.06
588.487	14140.67
588.846	14330.72
589.206	14214.57
589.565	14218.41
589.925	14211.63
590.284	14120.56
590.643	14102.93
591.003	14222.25
591.362	14151.07
591.721	14151.97
592.08	14083.5
592.44	14183.61
592.799	14136.61
593.158	14078.75
593.517	14074.01
593.876	14171.86
594.235	14062.26
594.593	14083.5
594.952	14055.48
595.311	13994.69
595.67	14071.97
596.029	14180.22
596.387	14137.74
596.746	14130.5
597.104	13953.79
597.463	13980.68
597.822	14058.64
598.18	14005.08
598.538	14027
598.897	14050.96
599.255	13946.55
599.613	14046.44
599.972	14039.43
600.33	14189.49
600.688	13962.15
601.046	14104.29
601.404	14091.64
601.762	14013.67
602.12	14100.67
602.478	14080.11
602.836	14088.47
603.194	14052.31
603.552	14008.47
603.91	13991.98
604.268	14071.3
604.625	13983.62
604.983	14058.42
605.341	13999.89
605.698	14085.08
606.056	14078.08
606.413	14045.99
606.771	14097.28
607.128	14142.71
607.485	14062.94
607.843	14038.3
608.2	14135.48
608.557	14182.93
608.914	14150.84
609.272	14221.8
609.629	14190.84
609.986	14150.16
610.343	14148.58
610.7	14231.29
611.057	14152.88
611.414	14179.32
611.771	14144.06
612.127	14249.15
612.484	14239.65
612.841	14307
613.198	14220.67
613.554	14281.01
613.911	14366.43
614.267	14305.19
614.624	14274.46
614.98	14302.03
615.337	14324.85
615.693	14405.3
616.05	14316.04
616.406	14486.2
616.762	14425.86
617.118	14334.57
617.475	14377.28
617.831	14435.13
618.187	14451.63
618.543	14443.72
618.899	14557.84
619.255	14555.58
619.611	14418.63
619.967	14510.38
620.323	14550.38
620.678	14523.26
621.034	14421.34
621.39	14434.22
621.746	14417.05
622.101	14604.39
622.457	14376.37
622.812	14488.01
623.168	14509.7
623.523	14567.55
623.879	14574.11
624.234	14445.75
624.589	14557.16
624.945	14476.03
625.3	14528.91
625.655	14460.44
626.01	14425.86
626.365	14493.66
626.72	14459.99
627.075	14434.45
627.43	14491.17
627.785	14386.54
628.14	14464.51
628.495	14412.98
628.85	14412.76
629.205	14370.27
629.559	14457.95
629.914	14369.37
630.269	14321.01
630.623	14374.34
630.978	14265.19
631.332	14347.67
631.687	14406.2
632.041	14399.88
632.396	14298.86
632.75	14217.51
633.104	14323.27
633.459	14137.06
633.813	14232.42
634.167	14210.73
634.521	14235.13
634.875	14280.33
635.229	14210.05
635.583	14174.34
635.937	14209.15
636.291	14121.69
636.645	14129.83
636.999	14065.87
637.352	14123.72
637.706	14094.12
638.06	14081.92
638.413	14039.89
638.767	14076.27
639.121	14017.29
639.474	13924.41
639.828	14009.6
640.181	14085.08
640.534	14014.35
640.888	13961.92
641.241	13903.39
641.594	13963.5
641.947	13949.94
642.301	13920.11
642.654	13996.95
643.007	13887.35
643.36	13937.06
643.713	13858.42
644.066	13934.8
644.419	13829.95
644.771	13721.25
645.124	13573.23
645.477	13578.43
645.83	13514.93
646.182	13410.07
646.535	13416.4
646.888	13357.42
647.24	13368.04
647.593	13434.93
647.945	13384.99
648.298	13300.92
648.65	13314.71
649.002	13229.51
649.355	13387.92
649.707	13396.51
650.059	13374.59
650.411	13516.51
650.763	13581.82
651.115	13724.64
651.467	13647.35
651.819	13668.37
652.171	13659.33
652.523	13643.74
652.875	13716.73
653.227	13516.28
653.578	13676.28
653.93	13620.91
654.282	13621.59
654.633	13556.06
654.985	13624.98
655.337	13602.38
655.688	13665.21
656.039	13720.12
656.391	13590.18
656.742	13639.44
657.094	13626.56
657.445	13697.75
657.796	13677.41
658.147	13618.43
658.498	13628.14
658.849	13674.47
659.2	13577.3
659.551	13653.68
659.902	13687.13
660.253	13594.7
660.604	13648.03
660.955	13614.36
661.306	13741.59
661.656	13722.15
662.007	13749.72
662.358	13696.84
662.708	13788.14
663.059	13732.77
663.409	13621.59
663.76	13736.84
664.11	13732.55
664.461	13800.8
664.811	13806.67
665.161	13704.98
665.511	13736.16
665.862	13761.47
666.212	13854.13
666.562	13782.04
666.912	13822.49
667.262	13831.75
667.612	13761.02
667.962	13804.64
668.312	13724.19
668.662	13801.25
669.011	13695.49
669.361	13738.88
669.711	13757.63
670.06	13729.84
670.41	13671.08
670.76	13706.56
671.109	13739.55
671.459	13704.3
671.808	13647.8
672.157	13759.44
672.507	13598.99
672.856	13568.94
673.205	13659.78
673.554	13641.25
673.904	13594.25
674.253	13699.78
674.602	13574.36
674.951	13415.04
675.3	13315.16
675.649	13578.65
675.998	13571.65
676.346	13575.72
676.695	13583.63
677.044	13475.15
677.393	13523.51
677.741	13463.63
678.09	13526
678.438	13399.45
678.787	13457.08
679.135	13423.63
679.484	13267.02
679.832	13427.92
680.181	13276.97
680.529	13253.69
680.877	13313.35
681.225	13260.47
681.573	13332.11
681.922	13220.25
682.27	13185.67
682.618	13170.98
682.966	13121.49
683.314	13174.15
683.661	13120.81
684.009	13092.79
684.357	13084.43
684.705	12943.19
685.053	13018.67
685.4	12987.48
685.748	12955.39
686.095	12938.67
686.443	12830.65
686.79	12923.3
687.138	12861.61
687.485	12932.8
687.832	12812.12
688.18	12872.68
688.527	12735.29
688.874	12769.64
689.221	12707.26
689.568	12641.96
689.915	12625.91
690.262	12641.73
690.609	12487.16
690.956	12494.84
691.303	12461.62
691.65	12445.58
691.997	12316.77
692.344	12308.86
692.69	12244.23
693.037	12187.05
693.383	12177.34
693.73	12130.78
694.077	12041.75
694.423	12128.52
694.769	12030.22
695.116	12026.83
695.462	11967.17
695.808	11910.45
696.155	11904.35
696.501	11872.71
696.847	11855.54
697.193	11745.48
697.539	11780.96
697.885	11623.68
698.231	11670
698.577	11707.29
698.923	11655.99
699.269	11571.7
699.614	11503
699.96	11421.65
700.306	11397.92
700.651	11348.88
700.997	11301.88
701.342	11330.35
701.688	11270.01
702.033	11193.86
702.379	11197.25
702.724	11175.78
703.069	11170.81
703.415	11038.38
703.76	11006.74
704.105	11031.15
704.45	10947.31
704.795	10968.1
705.14	10849.01
705.485	10835.9
705.83	10764.49
706.175	10820.53
706.52	10819.4
706.865	10742.57
707.209	10710.26
707.554	10681.1
707.899	10728.11
708.243	10613.53
708.588	10525.85
708.932	10512.07
709.277	10471.84
709.621	10571.5
709.966	10419.87
710.31	10453.31
710.654	10348.23
710.998	10390.49
711.342	10325.18
711.687	10360.43
712.031	10296.93
712.375	10181.68
712.719	10313.43
713.063	10243.15
713.407	10306.88
713.75	10187.78
714.094	10243.6
714.438	10135.58
714.782	10201.79
715.125	10105.07
715.469	10217.16
715.812	10022.36
716.156	10013.55
716.499	10030.05
716.843	10047
717.186	10042.25
717.53	10052.19
717.873	10051.29
718.216	9987.11
718.559	9944.63
718.902	9869.37
719.246	9878.64
719.589	9931.52
719.932	9856.72
720.275	9853.78
720.617	9845.19
720.96	9818.08
721.303	9806.32
721.646	9749.83
721.989	9745.76
722.331	9806.32
722.674	9713.45
723.016	9775.82
723.359	9732.65
723.701	9765.42
724.044	9679.77
724.386	9689.04
724.729	9743.73
725.071	9771.97
725.413	9679.1
725.755	9739.43
726.097	9701.02
726.439	9626.67
726.782	9577.63
727.124	9691.07
727.465	9620.11
727.807	9627.35
728.149	9703.73
728.491	9624.41
728.833	9564.07
729.175	9577.18
729.516	9632.77
729.858	9637.29
730.199	9564.75
730.541	9620.79
730.882	9608.36
731.224	9630.06
731.565	9531.76
731.906	9585.99
732.248	9549.16
732.589	9503.96
732.93	9465.99
733.271	9563.39
733.612	9558.2
733.953	9605.2
734.294	9457.41
734.635	9541.92
734.976	9538.99
735.317	9525.65
735.658	9453.34
735.999	9511.87
736.339	9463.73
736.68	9613.33
737.021	9482.04
737.361	9510.29
737.702	9574.24
738.042	9544.86
738.383	9629.61
738.723	9615.37
739.063	9548.7
739.404	9559.78
739.744	9593
740.084	9562.94
740.424	9595.93
740.764	9544.86
741.104	9643.16
741.444	9594.35
741.784	9610.4
742.124	9633.22
742.464	9628.93
742.804	9701.47
743.143	9664.41
743.483	9757.06
743.823	9644.07
744.162	9680.68
744.502	9793.22
744.841	9779.21
745.181	9910.05
745.52	9831.18
745.86	9899.43
746.199	9996.6
746.538	9959.77
746.877	10070.5
747.216	10060.55
747.556	10159.99
747.895	10233.88
748.234	10159.54
748.573	10217.84
748.911	10353.43
749.25	10422.35
749.589	10472.07
749.928	10474.56
750.267	10639.52
750.605	10695.34
750.944	10730.37
751.283	10833.64
751.621	10916.35
751.96	10955.22
752.298	11052.39
752.636	11201.32
752.975	11239.05
753.313	11298.71
753.651	11448.09
753.989	11653.28
754.327	11710.23
754.666	11745.03
755.004	11864.12
755.342	12087.17
755.679	12105.47
756.017	12272.25
756.355	12439.7
756.693	12585.69
757.031	12785.91
757.368	12794.72
757.706	13025
758.044	13166.24
758.381	13339.79
758.719	13398.32
759.056	13640.35
759.394	13760.34
759.731	13891.19
760.068	14133.67
760.405	14210.28
760.743	14387.45
761.08	14605.29
761.417	14816.14
761.754	14838.73
762.091	15074.43
762.428	15235.56
762.765	15297.71
763.102	15623.8
763.438	15680.07
763.775	15924.13
764.112	16114.18
764.449	16319.83
764.785	16342.42
765.122	16476.43
765.458	16620.83
765.795	16800.94
766.131	16932.46
766.467	17103.31
766.804	17149.18
767.14	17302.85
767.476	17489.51
767.812	17554.14
768.148	17801.59
768.485	17884.08
768.821	17945.09
769.157	18025.99
769.492	18253.11
769.828	18298.76
770.164	18339.66
770.5	18391.18
770.836	18676.83
771.171	18588.01
771.507	18766.54
771.842	18816.03
772.178	18939.42
772.513	19018.51
772.849	19061.22
773.184	19169.92
773.519	19119.53
773.855	19260.76
774.19	19350.25
774.525	19346.19
774.86	19632.73
775.195	19597.71
775.53	19547.31
775.865	19665.5
776.2	19576.91
776.535	19535.11
776.87	19696.91
777.205	19702.79
777.539	19676.35
777.874	19872.73
778.209	19690.58
778.543	19754.31
778.878	19860.07
779.212	19842.22
779.547	19824.82
779.881	19906.17
780.215	19770.58
780.55	19943.46
780.884	19925.15
781.218	19818.49
781.552	19927.19
781.886	19900.75
782.22	19959.28
782.554	19748.89
782.888	19838.15
783.222	19814.42
783.556	19787.53
783.889	19769.45
784.223	19681.54
784.557	19688.32
784.89	19753.41
785.224	19597.25
785.557	19687.19
785.891	19596.12
786.224	19566.07
786.558	19633.64
786.891	19510.02
787.224	19460.76
787.557	19506.63
787.891	19462.34
788.224	19475.67
788.557	19492.4
788.89	19392.96
789.223	19445.84
789.556	19348.9
789.888	19325.85
790.221	19344.38
790.554	19085.85
790.887	19114.78
791.219	19215.34
791.552	19048.11
791.884	18934.45
792.217	19028
792.549	18907.33
792.882	18868.01
793.214	18814.45
793.546	18952.75
793.879	18826.88
794.211	18737.84
794.543	18714.56
794.875	18696.94
795.207	18766.77
795.539	18680.67
795.871	18804.73
796.203	18492.42
796.535	18466.44
796.867	18543.04
797.198	18485.64
797.53	18459.43
797.862	18394.12
798.193	18348.47
798.525	18173.79
798.856	18362.71
799.188	18175.37
799.519	18020.57
799.85	18022.38
800.182	17996.39
800.513	18087.01
800.844	17926.11
801.175	18021.7
801.506	17900.35
801.837	17774.48
802.168	17814.93
802.499	17690.41
802.83	17621.71
803.161	17694.7
803.491	17619.9
803.822	17689.05
804.153	17593.24
804.483	17498.78
804.814	17390.98
805.145	17372.9
805.475	17329.52
805.805	17347.37
806.136	17278.44
806.466	17276.41
806.796	17244.77
807.126	17214.49
807.457	17134.04
807.787	17155.74
808.117	17136.75
808.447	16958.23
808.777	17021.95
809.107	16859.92
809.436	16948.06
809.766	16892.01
810.096	16774.73
810.426	16779.25
810.755	16819.47
811.085	16825.8
811.414	16718.01
811.744	16637.78
812.073	16545.36
812.403	16626.71
812.732	16435.53
813.061	16517.79
813.39	16391.46
813.719	16350.56
814.049	16377
814.378	16404.79
814.707	16274.85
815.036	16319.6
815.365	16221.97
815.693	16108.98
816.022	16072.37
816.351	16067.63
816.68	16012.49
817.008	16046.84
817.337	15906.73
817.665	15952.38
817.994	15906.28
818.322	15875.32
818.651	15845.26
818.979	15840.06
819.307	15873.28
819.636	15783.57
819.964	15775.66
820.292	15782.21
820.62	15798.26
820.948	15778.14
821.276	15765.26
821.604	15661.76
821.932	15795.55
822.259	15780.86
822.587	15677.13
822.915	15618.15
823.243	15773.62
823.57	15666.73
823.898	15717.36
824.225	15665.38
824.553	15656.57
824.88	15657.47
825.207	15705.83
825.535	15673.97
825.862	15706.73
826.189	15735.89
826.516	15816.79
826.843	15788.31
827.17	15736.34
827.497	15708.32
827.824	15812.27
828.151	15721.87
828.478	15778.37
828.805	15773.62
829.131	15764.81
829.458	15725.94
829.785	15692.27
830.111	15629.22
830.438	15746.51
830.764	15716.68
831.09	15748.99
831.417	15601.2
831.743	15734.08
832.069	15639.17
832.395	15561.43
832.722	15594.87
833.048	15689.56
833.374	15632.39
833.7	15500.64
834.026	15569.11
834.351	15568.43
834.677	15543.57
835.003	15570.24
835.329	15550.81
835.654	15516.91
835.98	15446.63
836.306	15463.12
836.631	15466.29
836.956	15539.51
837.282	15480.3
837.607	15326.86
837.932	15370.92
838.258	15368.66
838.583	15378.38
838.908	15328.21
839.233	15384.03
839.558	15185.62
839.883	15264.71
840.208	15249.57
840.533	15163.02
840.858	15068.33
841.182	15187.65
841.507	15222
841.832	15054.1
842.156	15061.55
842.481	15087.54
842.805	14947.43
843.13	14819.75
843.454	14881.9
843.778	14943.36
844.103	14858.17
844.427	14793.76
844.751	14926.42
845.075	14794.67
845.399	14730.94
845.723	14646.87
846.047	14685.52
846.371	14570.04
846.695	14529.59
847.019	14449.14
847.343	14360.55
847.666	14283.95
847.99	14261.12
848.313	14298.41
848.637	14111.07
848.96	14106.55
849.284	14083.27
849.607	14004.41
849.931	13977.51
850.254	13927.35
850.577	13775.94
850.9	13667.92
851.223	13698.2
851.546	13567.13
851.869	13530.75
852.192	13547.47
852.515	13490.3
852.838	13393.35
853.161	13399.22
853.483	13393.12
853.806	13297.53
854.129	13210.08
854.451	13166.91
854.774	13158.78
855.096	13137.76
855.419	13068.39
855.741	12987.48
856.063	13032.91
856.385	13023.87
856.708	12907.26
857.03	12832.46
857.352	12893.25
857.674	12805.34
857.996	12802.4
858.318	12714.72
858.64	12768.96
858.961	12653.48
859.283	12608.74
859.605	12542.98
859.926	12641.96
860.248	12529.42
860.57	12480.6
860.891	12512.24
861.212	12446.03
861.534	12315.86
861.855	12375.75
862.176	12298.01
862.498	12357.67
862.819	12248.29
863.14	12218.92
863.461	12316.77
863.782	12159.93
864.103	12210.55
864.424	12222.53
864.745	12163.1
865.065	12060.95
865.386	12089.2
865.707	12046.49
866.027	12057.79
866.348	11997.23
866.668	12025.47
866.989	12048.75
867.309	11908.64
867.63	12027.28
867.95	11988.87
868.27	11916.33
868.59	11884.24
868.91	11916.55
869.23	11897.79
869.55	11766.27
869.87	11858.7
870.19	11868.19
870.51	11848.08
870.83	11834.07
871.15	11788.42
871.469	11741.41
871.789	11727.63
872.109	11736.22
872.428	11661.64
872.748	11648.08
873.067	11649.44
873.386	11670.91
873.706	11641.98
874.025	11658.93
874.344	11446.51
874.663	11512.49
874.982	11533.06
875.301	11516.56
875.62	11522.66
875.939	11476.79
876.258	11488.09
876.577	11352.95
876.896	11401.31
877.214	11364.02
877.533	11298.71
877.852	11349.11
878.17	11280.86
878.489	11364.25
878.807	11275.89
879.125	11273.63
879.444	11223.46
879.762	11212.39
880.08	11225.95
880.398	11104.6
880.716	11193.18
881.034	11115.67
881.352	11143.46
881.67	11075.67
881.988	11121.77
882.306	11045.61
882.624	10950.47
882.941	10967.65
883.259	10950.25
883.577	10929.68
883.894	10913.19
884.212	10931.49
884.529	10893.3
884.846	10831.16
885.164	10882
885.481	10830.03
885.798	10804.72
886.115	10696.24
886.432	10759.29
886.75	10777.37
887.067	10700.54
887.383	10680.43
887.7	10712.74
888.017	10624.38
888.334	10612.63
888.651	10592.29
888.967	10548.23
889.284	10456.48
889.6	10486.98
889.917	10440.88
890.233	10428.68
890.55	10387.55
890.866	10400.88
891.182	10332.19
891.498	10276.14
891.815	10249.02
892.131	10214.22
892.447	10181.46
892.763	10125.19
893.079	10123.6
893.395	10116.15
893.71	10044.74
894.026	10010.84
894.342	10004.06
894.657	9895.36
894.973	9955.25
895.289	9946.89
895.604	9916.83
895.92	9818.75
896.235	9758.19
896.55	9760.22
896.865	9711.19
897.181	9628.48
897.496	9688.36
897.811	9696.27
898.126	9638.87
898.441	9618.98
898.756	9546.9
899.071	9508.48
899.386	9400.69
899.7	9382.38
900.015	9405.66
900.33	9263.74
900.644	9335.83
900.959	9355.49
901.273	9262.61
901.588	9237.53
901.902	9196.17
902.216	9134.03
902.531	9195.94
902.845	9094.93
903.159	9063.07
903.473	8950.98
903.787	8979.68
904.101	8910.53
904.415	8972
904.729	8934.03
905.042	8823.3
905.356	8804.54
905.67	8757.09
905.984	8792.79
906.297	8735.17
906.611	8656.52
906.924	8667.14
907.237	8658.33
907.551	8573.36
907.864	8561.16
908.177	8554.61
908.491	8507.6
908.804	8482.29
909.117	8476.42
909.43	8385.34
909.743	8321.17
910.056	8308.51
910.368	8279.58
910.681	8250.66
910.994	8230.55
911.307	8234.16
911.619	8181.51
911.932	8132.24
912.244	8074.17
912.557	8030.78
912.869	7937.22
913.181	7977.45
913.494	7912.36
913.806	7910.78
914.118	7841.18
914.43	7854.74
914.742	7848.18
915.054	7757.34
915.366	7738.36
915.678	7735.19
915.99	7711.92
916.302	7584.24
916.613	7657.45
916.925	7593.73
917.236	7500.85
917.548	7559.6
917.859	7522.32
918.171	7374.98
918.482	7456.1
918.794	7404.35
919.105	7374.75
919.416	7259.72
919.727	7266.05
920.038	7287.97
920.349	7201.19
920.66	7263.34
920.971	7236.22
921.282	7236.22
921.593	7113.29
921.903	7083.46
922.214	7046.4
922.525	7080.07
922.835	6962.78
923.146	6978.83
923.456	6934.99
923.767	6899.96
924.077	6870.58
924.387	6893.63
924.697	6810.7
925.008	6796.91
925.318	6811.15
925.628	6772.28
925.938	6718.27
926.248	6712.85
926.558	6666.07
926.867	6641.66
927.177	6639.18
927.487	6600.08
927.796	6504.04
928.106	6537.48
928.416	6544.04
928.725	6453.19
929.034	6462.68
929.344	6430.37
929.653	6385.4
929.962	6343.14
930.271	6358.73
930.581	6315.34
930.89	6255.46
931.199	6222.46
931.508	6276.7
931.817	6210.49
932.125	6171.84
932.434	6181.56
932.743	6131.84
933.051	6103.6
933.36	6046.87
933.669	6050.26
933.977	6000.77
934.286	5963.71
934.594	5965.75
934.902	5942.92
935.21	5944.28
935.519	5934.56
935.827	5847.33
936.135	5845.98
936.443	5763.04
936.751	5813.89
937.059	5769.59
937.367	5725.98
937.674	5808.69
937.982	5722.59
938.29	5700.44
938.597	5686.43
938.905	5659.99
939.213	5591.52
939.52	5577.73
939.827	5575.93
940.135	5538.87
940.442	5514.69
940.749	5493.44
941.056	5454.8
941.363	5427.68
941.67	5420.45
941.977	5389.72
942.284	5355.82
942.591	5363.28
942.898	5318.53
943.205	5291.41
943.511	5330.96
943.818	5341.81
944.125	5248.25
944.431	5241.7
944.738	5241.02
945.044	5198.31
945.35	5149.95
945.657	5102.49
945.963	5132.1
946.269	5060.01
946.575	5091.87
946.881	5003.51
947.187	4996.28
947.493	4996.73
947.799	5041.25
948.105	4941.14
948.41	4925.32
948.716	4916.06
949.022	4909.73
949.327	4883.74
949.633	4849.84
949.938	4840.35
950.244	4835.83
950.549	4771.2
950.854	4766.23
951.16	4743.63
951.465	4713.12
951.77	4689.85
952.075	4676.97
952.38	4674.03
952.685	4638.78
952.99	4605.56
953.294	4609.4
953.599	4563.3
953.904	4571.21
954.209	4529.4
954.513	4528.95
954.818	4483.53
955.122	4497.54
955.426	4500.7
955.731	4437.65
956.035	4414.83
956.339	4396.52
956.643	4358.56
956.948	4355.62
957.252	4334.38
957.556	4318.11
957.86	4301.84
958.163	4320.59
958.467	4228.62
958.771	4283.08
959.075	4212.12
959.378	4207.83
959.682	4243.53
959.985	4202.86
960.289	4201.05
960.592	4158.56
960.896	4133.25
961.199	4171.22
961.502	4104.33
961.805	4089.64
962.108	4044.89
962.411	4023.2
962.714	3999.02
963.017	4015.06
963.32	4030.66
963.623	3971
963.926	3977.1
964.228	3943.65
964.531	3947.5
964.833	3921.06
965.136	3884.22
965.438	3882.19
965.741	3823.2
966.043	3882.41
966.345	3842.41
966.648	3829.31
966.95	3801.96
967.252	3755.86
967.554	3749.53
967.856	3745.92
968.158	3734.62
968.46	3722.19
968.761	3717.67
969.063	3677.9
969.365	3669.76
969.666	3628.86
969.968	3633.15
970.269	3601.74
970.571	3633.83
970.872	3605.58
971.174	3567.39
971.475	3493.72
971.776	3544.57
972.077	3509.77
972.378	3506.6
972.679	3481.52
972.98	3495.53
973.281	3466.38
973.582	3439.94
973.883	3450.56
974.183	3408.53
974.484	3436.32
974.785	3361.3
975.085	3370.56
975.386	3347.96
975.686	3353.84
975.986	3331.92
976.287	3316.33
976.587	3307.06
976.887	3270.22
977.187	3303.9
977.487	3233.39
977.787	3255.08
978.087	3197.68
978.387	3215.76
978.687	3198.36
978.987	3211.92
979.286	3158.59
979.586	3171.7
979.885	3138.93
980.185	3095.99
980.484	3101.19
980.784	3055.77
981.083	3050.34
981.382	3107.07
981.682	3058.03
981.981	3045.15
982.28	2990.01
982.579	3019.84
982.878	2990.23
983.177	2986.39
983.475	2970.57
983.774	2893.29
984.073	2936
984.372	2952.04
984.67	2900.29
984.969	2906.62
985.267	2916.79
985.566	2891.93
985.864	2852.16
986.162	2873.17
986.461	2807.86
986.759	2811.03
987.057	2776.45
987.355	2795.43
987.653	2778.26
987.951	2800.41
988.249	2744.36
988.547	2773.51
988.844	2753.4
989.142	2732.84
989.44	2737.36
989.737	2692.84
990.035	2683.8
990.332	2673.18
990.63	2627.53
990.927	2616.46
991.224	2649.68
991.521	2625.5
991.819	2630.47
992.116	2604.93
992.413	2617.59
992.71	2590.92
993.006	2561.32
993.303	2533.29
993.6	2525.16
993.897	2505.95
994.193	2522.22
994.49	2512.96
994.787	2465.05
995.083	2458.95
995.379	2455.1
995.676	2458.49
995.972	2434.77
996.268	2437.93
996.565	2406.07
996.861	2382.79
997.157	2405.16
997.453	2398.16
997.749	2363.36
998.044	2339.63
998.34	2329.91
998.636	2324.94
998.932	2341.44
999.227	2284.49
999.523	2301.21
999.818	2279.97
1000.114	2263.25
1000.409	2260.99
1000.704	2212.17
1001	2203.81
1001.295	2183.25
1001.59	2234.09
1001.885	2207.43
1002.18	2189.58
1002.475	2165.17
1002.77	2145.96
1003.065	2131.5
1003.359	2118.39
1003.654	2149.35
1003.949	2107.77
1004.243	2108.45
1004.538	2064.61
1004.832	2097.6
1005.127	2049.69
1005.421	2051.05
1005.715	2045.85
1006.009	2042.69
1006.304	1987.77
1006.598	1982.8
1006.892	2013.99
1007.186	1965.17
1007.48	1973.08
1007.773	1963.37
1008.067	1947.32
1008.361	1937.6
1008.655	1913.2
1008.948	1904.38
1009.242	1891.05
1009.535	1883.14
1009.829	1868.68
1010.122	1828
1010.415	1866.87
1010.708	1858.06
1011.001	1826.19
1011.295	1847.89
1011.588	1816.03
1011.881	1811.96
1012.173	1798.17
1012.466	1795.46
1012.759	1795.24
1013.052	1793.2
1013.344	1749.81
1013.637	1764.5
1013.93	1734.45
1014.222	1712.53
1014.514	1704.16
1014.807	1695.58
1015.099	1710.72
1015.391	1698.06
1015.683	1622.58
1015.976	1660.32
1016.268	1646.99
1016.56	1650.38
1016.851	1656.48
1017.143	1621.91
1017.435	1605.86
1017.727	1603.6
1018.018	1597.27
1018.31	1591.62
1018.602	1550.27
1018.893	1576.71
1019.185	1539.87
1019.476	1564.28
1019.767	1516.37
1020.058	1510.95
1020.35	1496.03
1020.641	1528.35
1020.932	1508.01
1021.223	1522.25
1021.514	1459.88
1021.804	1478.63
1022.095	1468.24
1022.386	1461.91
1022.677	1435.02
1022.967	1431.63
1023.258	1428.47
1023.548	1389.14
1023.839	1438.41
1024.129	1394.34
1024.419	1380.56
1024.709	1370.61
1025	1336.04
1025.29	1348.02
1025.58	1342.14
1025.87	1345.98
1026.16	1325.42
1026.449	1287.23
1026.739	1278.19
1027.029	1312.31
1027.319	1294.23
1027.608	1289.94
1027.898	1246.78
1028.187	1275.47
1028.477	1242.71
1028.766	1263.05
1029.055	1257.17
1029.344	1204.52
1029.634	1218.98
1029.923	1223.27
1030.212	1205.87
1030.501	1192.99
1030.79	1177.4
1031.078	1182.82
1031.367	1169.72
1031.656	1181.92
1031.945	1179.66
1032.233	1148.47
1032.522	1138.98
1032.81	1155.03
1033.099	1151.18
1033.387	1140.34
1033.675	1124.29
1033.963	1101.92
1034.251	1134.46
1034.54	1087.68
1034.828	1102.6
1035.116	1076.16
1035.403	1088.59
1035.691	1070.51
1035.979	1058.31
1036.267	1058.53
1036.554	1035.03
1036.842	1023.96
1037.129	1041.13
1037.417	1008.82
1037.704	1035.26
1037.992	1011.53
1038.279	1007.91
1038.566	1004.3
1038.853	1004.3
1039.14	1004.3
