Data from hue_40_FLMS001491_72.txt Node
Date: Mon Feb 06 15:08:24 GMT 2017
User: dcchb
Spectrometer: FLMS00149
Trigger mode: 0
Integration Time (sec): 2.000000E-2
Scans to average: 10
Electric dark correction enabled: true
Nonlinearity correction enabled: false
Boxcar width: 0
XAxis mode: Wavelengths
Number of Pixels in Spectrum: 2048
>>>>>Begin Spectral Data<<<<<
341.393	-14.77
341.776	-14.77
342.16	-14.77
342.543	-48.9
342.927	-73.53
343.31	-73.76
343.693	-70.14
344.077	-87.99
344.46	-56.13
344.843	-43.47
345.226	-50.03
345.61	-36.47
345.993	-7.32
346.376	-0.76
346.759	16.64
347.142	27.49
347.525	40.82
347.908	74.49
348.291	68.61
348.674	95.28
349.057	102.74
349.44	117.2
349.823	126.47
350.206	172.57
350.588	199.46
350.971	206.69
351.354	229.74
351.737	233.58
352.119	241.72
352.502	249.85
352.884	268.38
353.267	293.69
353.65	300.47
354.032	272.22
354.414	324.43
354.797	313.58
355.179	319.68
355.562	307.7
355.944	300.92
356.326	332.56
356.709	337.99
357.091	321.04
357.473	330.08
357.855	335.95
358.238	337.53
358.62	345.44
359.002	341.15
359.384	319.68
359.766	341.83
360.148	344.54
360.53	341.38
360.912	334.6
361.294	340.25
361.676	347.93
362.057	319.45
362.439	345.89
362.821	314.94
363.203	311.77
363.584	321.26
363.966	311.32
364.348	325.33
364.729	324.2
365.111	285.11
365.493	324.65
365.874	301.6
366.256	313.35
366.637	319.23
367.019	299.12
367.4	333.69
367.781	320.58
368.163	312.68
368.544	306.57
368.925	322.62
369.306	307.25
369.688	300.7
370.069	323.3
370.45	308.38
370.831	310.64
371.212	324.43
371.593	310.87
371.974	294.82
372.355	320.81
372.736	314.48
373.117	310.19
373.498	321.71
373.879	301.15
374.26	323.97
374.641	309.74
375.021	308.16
375.402	316.07
375.783	306.35
376.163	336.63
376.544	307.7
376.925	323.07
377.305	330.98
377.686	330.3
378.066	309.06
378.447	335.05
378.827	328.27
379.208	332.11
379.588	325.1
379.968	314.71
380.349	320.81
380.729	313.13
381.109	333.01
381.489	338.89
381.87	342.05
382.25	328.72
382.63	332.34
383.01	332.34
383.39	330.08
383.77	319.68
384.15	331.88
384.53	347.02
384.91	367.14
385.29	353.35
385.67	341.83
386.049	352
386.429	331.21
386.809	356.97
387.189	332.34
387.568	342.51
387.948	352.9
388.328	346.12
388.707	333.01
389.087	361.71
389.466	346.35
389.846	347.48
390.225	359.68
390.605	375.27
390.984	370.75
391.363	362.17
391.743	377.31
392.122	368.27
392.501	352.9
392.881	356.29
393.26	327.14
393.639	385.67
394.018	364.43
394.397	355.39
394.776	355.61
395.155	378.89
395.534	352.22
395.913	382.28
396.292	369.62
396.671	381.15
397.05	403.07
397.429	401.94
397.808	368.95
398.186	394.48
398.565	391.09
398.944	386.35
399.323	373.01
399.701	386.12
400.08	378.89
400.458	382.05
400.837	400.58
401.215	385.67
401.594	367.36
401.972	395.61
402.351	388.61
402.729	379.79
403.107	386.57
403.486	393.58
403.864	402.16
404.242	389.51
404.62	397.87
404.999	402.62
405.377	408.49
405.755	424.99
406.133	426.12
406.511	416.63
406.889	430.19
407.267	426.34
407.645	424.99
408.023	400.36
408.401	423.63
408.779	413.92
409.156	427.47
409.534	425.21
409.912	440.81
410.29	437.87
410.667	443.52
411.045	451.65
411.422	451.88
411.8	450.07
412.178	452.56
412.555	450.3
412.933	440.81
413.31	445.1
413.687	445.1
414.065	464.54
414.442	466.34
414.819	447.81
415.197	466.12
415.574	491.88
415.951	449.39
416.328	450.52
416.705	455.95
417.082	508.6
417.46	497.98
417.837	466.12
418.214	471.09
418.591	482.61
418.967	521.71
419.344	493.46
419.721	498.43
420.098	512.67
420.475	498.89
420.852	511.77
421.228	489.62
421.605	508.6
421.982	501.82
422.358	527.13
422.735	515.61
423.111	538.21
423.488	532.1
423.864	528.04
424.241	542.95
424.617	542.05
424.994	548.83
425.37	530.52
425.746	561.26
426.123	545.66
426.499	558.54
426.875	559.45
427.251	565.32
427.627	571.88
428.003	557.19
428.379	560.8
428.756	581.14
429.132	588.6
429.507	568.04
429.883	576.85
430.259	578.88
430.635	596.51
431.011	588.6
431.387	583.63
431.763	616.4
432.138	599.45
432.514	613.46
432.89	605.1
433.265	610.97
433.641	625.21
434.016	626.57
434.392	634.47
434.767	637.19
435.143	647.58
435.518	656.4
435.894	677.64
436.269	653.01
436.644	669.28
437.02	660.91
437.395	685.32
437.77	677.86
438.145	680.35
438.52	690.29
438.895	700.01
439.271	710.86
439.646	715.6
440.021	700.01
440.395	719.9
440.77	714.47
441.145	711.76
441.52	690.29
441.895	722.61
442.27	720.12
442.645	726.68
443.019	734.59
443.394	743.17
443.769	751.76
444.143	766.22
444.518	766.9
444.892	735.04
445.267	746.56
445.641	746.34
446.016	763.29
446.39	774.58
446.764	749.73
447.139	774.13
447.513	781.59
447.887	785.43
448.262	769.61
448.636	798.99
449.01	798.31
449.384	803.06
449.758	819.1
450.132	795.37
450.506	805.54
450.88	828.59
451.254	821.81
451.628	851.42
452.002	830.4
452.376	874.92
452.75	865.66
453.123	870.85
453.497	857.52
453.871	856.16
454.244	873.79
454.618	907.46
454.992	899.55
455.365	904.75
455.739	897.74
456.112	921.02
456.486	928.25
456.859	931.19
457.232	952.88
457.606	965.31
457.979	981.81
458.352	980.45
458.725	964.18
459.099	978.87
459.472	995.37
459.845	1022.94
460.218	1029.94
460.591	1020.23
460.964	1034.69
461.337	1054.58
461.71	1041.92
462.083	1063.39
462.456	1078.08
462.829	1083.5
463.201	1101.36
463.574	1095.25
463.947	1135.03
464.32	1184.29
464.692	1160.56
465.065	1177.74
465.438	1184.29
465.81	1198.08
466.183	1176.83
466.555	1213.44
466.928	1272.42
467.3	1252.99
467.672	1252.31
468.045	1277.62
468.417	1318.75
468.789	1323.72
469.161	1348.13
469.534	1391.29
469.906	1356.26
470.278	1407.56
470.65	1425.87
471.022	1458.41
471.394	1528.46
471.766	1517.16
472.138	1533.89
472.51	1536.82
472.882	1606.43
473.253	1623.6
473.625	1650.95
473.997	1663.15
474.369	1708.8
474.74	1734.78
475.112	1782.24
475.484	1803.94
475.855	1821.79
476.227	1889.81
476.598	1940.43
476.97	1935.23
477.341	2002.57
477.713	2087.32
478.084	2113.31
478.455	2150.14
478.827	2190.82
479.198	2330.25
479.569	2311.94
479.94	2379.97
480.311	2385.39
480.682	2488.21
481.053	2529.34
481.424	2636.46
481.795	2652.73
482.166	2724.59
482.537	2799.62
482.908	2916.67
483.279	2952.38
483.65	3057.69
484.021	3142.66
484.391	3199.83
484.762	3240.51
485.133	3321.41
485.503	3388.07
485.874	3478.24
486.244	3594.85
486.615	3677.33
486.985	3797.33
487.356	3849.76
487.726	3942.41
488.097	4063.31
488.467	4120.94
488.837	4190.99
489.207	4342.17
489.578	4434.37
489.948	4497.42
490.318	4617.65
490.688	4703.97
491.058	4794.37
491.428	4919.11
491.798	4971.54
492.168	5131.53
492.538	5202.26
492.908	5314.35
493.278	5407
493.648	5477.51
494.017	5548.7
494.387	5680.67
494.757	5776.03
495.126	5858.74
495.496	5903.49
495.866	6037.5
496.235	6160.43
496.605	6251.5
496.974	6290.82
497.344	6450.37
497.713	6514.32
498.082	6592.74
498.452	6728.55
498.821	6781.88
499.19	6884.25
499.559	6990.92
499.928	7040.63
500.298	7090.8
500.667	7191.36
501.036	7200.4
501.405	7289.44
501.774	7358.37
502.143	7525.82
502.512	7514.07
502.88	7714.29
503.249	7644.01
503.618	7802.65
503.987	7831.8
504.356	7974.17
504.724	8003.32
505.093	8034.28
505.462	8131
505.83	8243.99
506.199	8279.47
506.567	8456.42
506.936	8446.25
507.304	8567.83
507.672	8676.07
508.041	8705.45
508.409	8737.76
508.777	8858.67
509.145	8927.82
509.514	9003.29
509.882	9015.95
510.25	9070.86
510.618	9217.3
510.986	9202.61
511.354	9327.35
511.722	9406.9
512.09	9473.56
512.458	9436.28
512.826	9667.91
513.193	9634.01
513.561	9724.86
513.929	9740
514.297	9806.89
514.664	9971.18
515.032	9956.04
515.4	10079.2
515.767	10093.21
516.135	10136.37
516.502	10069.71
516.869	10261.79
517.237	10382.47
517.604	10408.46
517.972	10478.74
518.339	10547.66
518.706	10552.18
519.073	10640.99
519.44	10692.29
519.808	10806.18
520.175	10828.78
520.542	10928.44
520.909	11019.06
521.276	11022.45
521.643	11143.8
522.009	11200.75
522.376	11252.73
522.743	11321.65
523.11	11465.83
523.477	11589.89
523.843	11586.05
524.21	11704.01
524.577	11765.48
524.943	11800.28
525.31	11912.14
525.676	12000.73
526.043	12093.16
526.409	12141.29
526.776	12241.85
527.142	12249.08
527.508	12376.09
527.874	12484.56
528.241	12530.89
528.607	12567.04
528.973	12677.55
529.339	12721.61
529.705	12820.14
530.071	12885
530.437	12981.49
530.803	13039.8
531.169	13155.5
531.535	13062.62
531.901	13150.3
532.267	13218.55
532.632	13300.58
532.998	13345.55
533.364	13435.27
533.73	13421.71
534.095	13579.22
534.461	13686.79
534.826	13718.2
535.192	13722.04
535.557	13922.49
535.923	13847.23
536.288	13982.15
536.653	14015.14
537.019	13922.26
537.384	14063.27
537.749	14156.83
538.114	14162.71
538.479	14203.38
538.845	14275.25
539.21	14318.86
539.575	14355.92
539.94	14445.41
540.305	14520.89
540.67	14519.53
541.034	14587.1
541.399	14597.27
541.764	14610.15
542.129	14733.99
542.494	14783.03
542.858	14772.86
543.223	14885.85
543.587	14939.41
543.952	14933.99
544.316	15027.99
544.681	15045.4
545.045	15169.69
545.41	15247.65
545.774	15260.3
546.138	15245.62
546.503	15333.75
546.867	15373.97
547.231	15517.47
547.595	15577.58
547.959	15655.32
548.324	15638.37
548.688	15609.9
549.052	15767.41
549.416	15736.45
549.779	15713.17
550.143	15856.22
550.507	15927.18
550.871	16060.51
551.235	16033.39
551.599	16113.84
551.962	16174.63
552.326	16233.39
552.689	16417.79
553.053	16312.03
553.417	16394.06
553.78	16498.69
554.143	16457.34
554.507	16552.47
554.87	16579.59
555.234	16752.7
555.597	16751.79
555.96	16693.49
556.323	16834.05
556.686	16836.76
557.05	16989.75
557.413	17037.66
557.776	16972.8
558.139	17114.27
558.502	17166.02
558.865	17254.83
559.228	17390.19
559.59	17483.3
559.953	17427.03
560.316	17598.32
560.679	17617.31
561.041	17793.8
561.404	17825.21
561.767	17901.82
562.129	17884.87
562.492	18038.99
562.854	17981.36
563.217	18033.11
563.579	18099.78
563.941	18285.54
564.304	18191.08
564.666	18445.98
565.028	18451.63
565.39	18435.36
565.753	18571.18
566.115	18627.45
566.477	18770.95
566.839	18698.18
567.201	18825.41
567.563	18796.26
567.925	18961.68
568.287	18955.58
568.648	19053.2
569.01	19180.65
569.372	19339.07
569.734	19210.94
570.095	19384.04
570.457	19530.25
570.819	19495.9
571.18	19599.85
571.542	19792.62
571.903	19702.9
572.265	19910.13
572.626	19947.41
572.987	20006.85
573.349	20155.54
573.71	20101.53
574.071	20346.05
574.432	20407.74
574.794	20539.04
575.155	20539.04
575.516	20506.49
575.877	20669.65
576.238	20772.25
576.599	20828.97
576.96	20973.15
577.32	20976.76
577.681	21227.38
578.042	21376.08
578.403	21331.78
578.763	21463.53
579.124	21625.79
579.485	21562.51
579.845	21917.53
580.206	22042.05
580.566	22009.05
580.927	22210.18
581.287	22413.34
581.648	22471.64
582.008	22619.21
582.368	22671.86
582.728	23017.62
583.089	23072.3
583.449	23149.36
583.809	23382.8
584.169	23496.25
584.529	23599.52
584.889	23926.29
585.249	23958.83
585.609	24137.36
585.969	24386.39
586.329	24370.57
586.688	24706.84
587.048	24850.11
587.408	24985.7
587.768	25147.5
588.127	25314.5
588.487	25479.47
588.846	25868.39
589.206	25689.41
589.565	26001.27
589.925	26251.88
590.284	26379.33
590.643	26546.11
591.003	26812.54
591.362	27074.68
591.721	27266.54
592.08	27315.81
592.44	27489.36
592.799	27796.02
593.158	27800.54
593.517	28086.41
593.876	28201.21
594.235	28381.09
594.593	28574.53
594.952	28845.71
595.311	28994.86
595.67	29090.68
596.029	29506.26
596.387	29680.26
596.746	29869.41
597.104	29987.15
597.463	30115.06
597.822	30418.32
598.18	30417.87
598.538	30379.91
598.897	30902.83
599.255	30770.41
599.613	31227.57
599.972	31224.18
600.33	31563.15
600.688	31477.73
601.046	31780.1
601.404	32000.88
601.762	32095.12
602.12	32437.71
602.478	32380.53
602.836	32666.63
603.194	32574.88
603.552	32624.14
603.91	32841.31
604.268	33146.39
604.625	33112.72
604.983	33353.16
605.341	33306.16
605.698	33474.06
606.056	33756.32
606.413	33722.87
606.771	34070.43
607.128	34061.84
607.485	34039.02
607.843	34198.79
608.2	34572.11
608.557	34617.08
608.914	34669.74
609.272	34802.39
609.629	35073.34
609.986	35121.7
610.343	35051.65
610.7	35603.72
611.057	35492.09
611.414	35577.74
611.771	35614.57
612.127	35853.21
612.484	35772.99
612.841	36080.55
613.198	36074.67
613.554	36161
613.911	36468.11
614.267	36349.24
614.624	36371.16
614.98	36586.52
615.337	36818.61
615.693	36860.41
616.05	36772.73
616.406	37015.44
616.762	36881.66
617.118	36999.85
617.475	37066.29
617.831	37203
618.187	37450.46
618.543	37299.95
618.899	37638.02
619.255	37666.27
619.611	37650
619.967	37688.87
620.323	37821.29
620.678	37792.82
621.034	37753.5
621.39	37800.73
621.746	37771.35
622.101	38279.81
622.457	37868.3
622.812	38133.15
623.168	38292.92
623.523	38369.75
623.879	38467.15
624.234	38297.44
624.589	38348.29
624.945	38447.49
625.3	38567.26
625.655	38522.29
626.01	38554.83
626.365	38572.46
626.72	38684.32
627.075	38666.7
627.43	38619.24
627.785	38662.18
628.14	38789.86
628.495	38922.73
628.85	38742.4
629.205	38666.24
629.559	38997.08
629.914	38786.92
630.269	38851.55
630.623	38903.07
630.978	38682.74
631.332	38953.24
631.687	38943.98
632.041	38826.46
632.396	38852.45
632.75	38747.15
633.104	38865.79
633.459	38581.05
633.813	38622.4
634.167	38739.46
634.521	38695.17
634.875	38739.91
635.229	38709.18
635.583	38593.7
635.937	38611.1
636.291	38600.71
636.645	38659.01
636.999	38551.9
637.352	38604.32
637.706	38515.74
638.06	38720.25
638.413	38501.95
638.767	38421.28
639.121	38543.99
639.474	38416.76
639.828	38405.69
640.181	38354.61
640.534	38445.68
640.888	38272.36
641.241	38179.02
641.594	38227.16
641.947	38433.48
642.301	38196.2
642.654	38279.13
643.007	38265.12
643.36	38111.68
643.713	38210.89
644.066	38358.23
644.419	38024
644.771	37880.05
645.124	37558.7
645.477	37535.2
645.83	37257.92
646.182	37072.16
646.535	37056.12
646.888	37001.43
647.24	36916.68
647.593	37148.99
647.945	37021.31
648.298	36823.35
648.65	36809.79
649.002	36843.92
649.355	36845.73
649.707	36791.04
650.059	36807.54
650.411	37391.47
650.763	37364.58
651.115	37849.32
651.467	37557.35
651.819	37660.85
652.171	37560.96
652.523	37577.23
652.875	37508.99
653.227	37329.78
653.578	37746.49
653.93	37422.43
654.282	37525.26
654.633	37263.34
654.985	37437.57
655.337	37430.12
655.688	37308.31
656.039	37562.54
656.391	37170.69
656.742	37325.71
657.094	37192.38
657.445	37424.69
657.796	37272.83
658.147	37212.27
658.498	37171.82
658.849	37399.61
659.2	37264.02
659.551	37117.36
659.902	37275.32
660.253	37218.82
660.604	37322.32
660.955	37034.65
661.306	37257.92
661.656	37101.54
662.007	37124.14
662.358	37107.19
662.708	37005.27
663.059	37189.22
663.409	36936.57
663.76	37046.85
664.11	37094.99
664.461	37068.09
664.811	37107.19
665.161	36936.8
665.511	36981.54
665.862	37033.97
666.212	37092.95
666.562	37007.53
666.912	37088.43
667.262	36944.25
667.612	36986.51
667.962	37026.74
668.312	36826.29
668.662	37113.29
669.011	36892.28
669.361	36969.11
669.711	36890.24
670.06	36984.48
670.41	36887.08
670.76	36748.78
671.109	36882.79
671.459	36844.6
671.808	36736.35
672.157	36867.19
672.507	36652.74
672.856	36729.34
673.205	36738.16
673.554	36770.02
673.904	36761.66
674.253	36909.91
674.602	36758.04
674.951	36158.06
675.3	36113.99
675.649	36654.54
675.998	36553.53
676.346	36615.22
676.695	36740.87
677.044	36387.66
677.393	36422.69
677.741	36418.39
678.09	36405.06
678.438	36289.58
678.787	36447.77
679.135	36506.98
679.484	36260.43
679.832	36341.33
680.181	36170.49
680.529	36232.86
680.877	36065.63
681.225	36121.23
681.573	36354.44
681.922	36131.39
682.27	35974.79
682.618	36063.83
682.966	35920.78
683.314	36040.55
683.661	35894.11
684.009	35617.06
684.357	35641.01
684.705	35502.26
685.053	35644.18
685.4	35578.87
685.748	35380
686.095	35375.03
686.443	35208.03
686.79	35221.81
687.138	35386.33
687.485	35176.17
687.832	35102.5
688.18	35215.71
688.527	34882.61
688.874	34992.89
689.221	34916.06
689.568	34832.67
689.915	34705.9
690.262	34596.97
690.609	34649.4
690.956	34439.91
691.303	34445.34
691.65	34398.11
691.997	34169.86
692.344	34066.36
692.69	34083.54
693.037	34079.25
693.383	33827.95
693.73	33914.73
694.077	33652.14
694.423	33797.9
694.769	33571.01
695.116	33534.17
695.462	33511.35
695.808	33379.6
696.155	33441.52
696.501	33200.17
696.847	33218.93
697.193	32955.21
697.539	33121.76
697.885	32821.65
698.231	32853.06
698.577	32796.12
698.923	32853.51
699.269	32732.61
699.614	32563.35
699.96	32391.61
700.306	32477.71
700.651	32420.98
700.997	32236.58
701.342	32201.78
701.688	31959.75
702.033	31983.48
702.379	31968.11
702.724	31811.51
703.069	31865.29
703.415	31527.9
703.76	31485.19
704.105	31559.54
704.45	31372.88
704.795	31277.28
705.14	31129.72
705.485	31182.37
705.83	31035.94
706.175	31092.21
706.52	31014.92
706.865	30856.73
707.209	30900.8
707.554	30726.34
707.899	30801.82
708.243	30626
708.588	30560.47
708.932	30403.41
709.277	30375.39
709.621	30455.61
709.966	30227.82
710.31	30168.61
710.654	30024.66
710.998	30072.8
711.342	30077.77
711.687	29906.7
712.031	29841.84
712.375	29739.7
712.719	29835.97
713.063	29719.59
713.407	29821.5
713.75	29593.71
714.094	29652.24
714.438	29536.99
714.782	29558.69
715.125	29306.94
715.469	29358.01
715.812	29221.75
716.156	29116.44
716.499	29128.87
716.843	29127.51
717.186	29054.52
717.53	29104.46
717.873	28957.12
718.216	28948.98
718.559	28822.66
718.902	28695.66
719.246	28848.42
719.589	28681.65
719.932	28656.79
720.275	28607.75
720.617	28476.23
720.96	28565.49
721.303	28396.46
721.646	28340.86
721.989	28204.6
722.331	28290.92
722.674	28149.23
723.016	28278.04
723.359	28155.33
723.701	28271.04
724.044	27965.73
724.386	27880.09
724.729	27895.23
725.071	27941.78
725.413	27917.83
725.755	27805.06
726.097	27800.99
726.439	27617.95
726.782	27581.34
727.124	27670.15
727.465	27559.42
727.807	27476.03
728.149	27501.79
728.491	27469.93
728.833	27480.55
729.175	27362.59
729.516	27293.89
729.858	27360.33
730.199	27338.86
730.541	27351.74
730.882	27278.75
731.224	27273.55
731.565	27105.19
731.906	27041.01
732.248	27101.35
732.589	26982.71
732.93	26927.79
733.271	26906.55
733.612	26831.07
733.953	26964.4
734.294	26789.72
734.635	26760.12
734.976	26742.49
735.317	26633.34
735.658	26638.99
735.999	26498.2
736.339	26562.83
736.68	26611.64
737.021	26419.33
737.361	26396.51
737.702	26693.22
738.042	26471.08
738.383	26464.98
738.723	26433.34
739.063	26229.96
739.404	26303.86
739.744	26251.43
740.084	26106.8
740.424	26210.53
740.764	26130.3
741.104	26194.25
741.444	26067.93
741.784	25933.92
742.124	26034.48
742.464	25958.1
742.804	25889.86
743.143	25895.73
743.483	25726.47
743.823	25746.58
744.162	25624.33
744.502	25647.83
744.841	25533.71
745.181	25699.8
745.52	25519.92
745.86	25575.51
746.199	25542.29
746.538	25529.87
746.877	25489.64
747.216	25491.9
747.556	25300.27
747.895	25441.73
748.234	25327.61
748.573	25262.75
748.911	25224.79
749.25	25204
749.589	25171.91
749.928	25067.73
750.267	25172.36
750.605	25005.81
750.944	25040.84
751.283	24999.48
751.621	24834.29
751.96	24712.49
752.298	24762.2
752.636	24792.03
752.975	24600.85
753.313	24599.27
753.651	24798.59
753.989	24506.39
754.327	24502.32
754.666	24399.95
755.004	24456.22
755.342	24398.37
755.679	24283.34
756.017	24220.75
756.355	24260.97
756.693	24079.51
757.031	24120.41
757.368	24011.26
757.706	23958.61
758.044	23919.96
758.381	23969.23
758.719	23816.01
759.056	23903.69
759.394	23747.77
759.731	23633.19
760.068	23621.22
760.405	23488.11
760.743	23370.83
761.08	23500.54
761.417	23370.6
761.754	23276.82
762.091	23276.59
762.428	23129.7
762.765	22978.29
763.102	23125.63
763.438	22872.53
763.775	22862.14
764.112	22851.29
764.449	22844.06
764.785	22777.4
765.122	22641.35
765.458	22473.67
765.795	22549.38
766.131	22451.08
766.467	22407.01
766.804	22183.74
767.14	22113.01
767.476	22101.48
767.812	22091.31
768.148	22092.67
768.485	21897.64
768.821	21838.44
769.157	21744.88
769.492	21784.88
769.828	21677.54
770.164	21583.3
770.5	21450.65
770.836	21469.63
771.171	21240.03
771.507	21441.61
771.842	21121.17
772.178	21138.12
772.513	21154.84
772.849	21019.25
773.184	20911.68
773.519	20950.78
773.855	20788.3
774.19	20685.47
774.525	20710.33
774.86	20670.11
775.195	20544.69
775.53	20426.95
775.865	20375.42
776.2	20262.21
776.535	20076.9
776.87	20198.93
777.205	20047.75
777.539	19885.72
777.874	20108.99
778.209	19749.9
778.543	19827.42
778.878	19739.96
779.212	19586.29
779.547	19455.45
779.881	19642.56
780.215	19409.8
780.55	19538.84
780.884	19292.74
781.218	19234.66
781.552	19210.48
781.886	19138.4
782.22	18969.13
782.554	19004.39
782.888	18868.12
783.222	18657.5
783.556	18674.68
783.889	18689.37
784.223	18486.43
784.557	18448.92
784.89	18469.94
785.224	18416.15
785.557	18252.99
785.891	18208.7
786.224	18281.69
786.558	18177.52
786.891	18066.78
787.224	17874.47
787.557	17917.86
787.891	17864.08
788.224	17838.09
788.557	17920.12
788.89	17787.24
789.223	17692.78
789.556	17542.73
789.888	17486.01
790.221	17475.16
790.554	17351.55
790.887	17380.02
791.219	17258.44
791.552	17201.95
791.884	17192.46
792.217	17091.67
792.549	17032.91
792.882	16996.3
793.214	16879.47
793.546	16869.75
793.879	16759.7
794.211	16719.93
794.543	16816.65
794.875	16563.32
795.207	16717.89
795.539	16548.41
795.871	16498.46
796.203	16387.73
796.535	16312.93
796.867	16280.17
797.198	16145.25
797.53	16119.04
797.862	16065.48
798.193	16241.52
798.525	16086.5
798.856	16036.56
799.188	15895.09
799.519	15818.26
799.85	15781.2
800.182	15858.48
800.513	15774.19
800.844	15584.59
801.175	15767.86
801.506	15679.95
801.837	15556.79
802.168	15490.81
802.499	15524.25
802.83	15401.32
803.161	15404.48
803.491	15313.64
803.822	15320.19
804.153	15214.43
804.483	15117.48
804.814	15068.9
805.145	15070.25
805.475	15039.52
805.805	14932.86
806.136	14983.93
806.466	14947.09
806.796	14856.7
807.126	14846.08
807.457	14759.75
807.787	14741.9
808.117	14725.4
808.447	14611.28
808.777	14649.7
809.107	14590.04
809.436	14545.97
809.766	14571.51
810.096	14425.75
810.426	14413.55
810.755	14502.13
811.085	14319.76
811.414	14334.23
811.744	14244.06
812.073	14127.45
812.403	14259.88
812.732	14103.27
813.061	14050.17
813.39	13997.29
813.719	14022.82
814.049	13992.54
814.378	13968.81
814.707	13923.39
815.036	13931.75
815.365	13759.55
815.693	13804.98
816.022	13762.72
816.351	13714.58
816.68	13685.21
817.008	13637.52
817.337	13577.19
817.665	13558.43
817.994	13532.89
818.322	13564.53
818.651	13390.98
818.979	13318.44
819.307	13401.82
819.636	13270.3
819.964	13267.59
820.292	13374.03
820.62	13341.49
820.948	13302.16
821.276	13301.03
821.604	13308.49
821.932	13290.41
822.259	13351.65
822.587	13291.32
822.915	13213.13
823.243	13294.93
823.57	13225.56
823.898	13284.54
824.225	13195.05
824.553	13168.83
824.88	13237.31
825.207	13262.62
825.535	13196.4
825.862	13235.5
826.189	13219.23
826.516	13208.61
826.843	13289.51
827.17	13232.79
827.497	13327.25
827.824	13280.7
828.151	13295.16
828.478	13289.28
828.805	13284.99
829.131	13149.4
829.458	13169.74
829.785	13079.8
830.111	13155.73
830.438	13216.06
830.764	13202.05
831.09	13181.49
831.417	13051.78
831.743	13171.32
832.069	13161.38
832.395	13042.96
832.722	13223.52
833.048	13075.28
833.374	13130.42
833.7	12987.6
834.026	13126.58
834.351	13025.11
834.677	13072.34
835.003	13092.23
835.329	13053.58
835.654	13007.03
835.98	12925
836.306	12997.31
836.631	12829.63
836.956	12940.59
837.282	12898.11
837.607	12896.53
837.932	12829.63
838.258	12866.47
838.583	12799.35
838.908	12723.65
839.233	12830.99
839.558	12701.28
839.883	12654.27
840.208	12746.02
840.533	12678.68
840.858	12657.21
841.182	12653.37
841.507	12632.8
841.832	12549.42
842.156	12618.79
842.481	12546.48
842.805	12517.78
843.13	12465.12
843.454	12526.82
843.778	12346.48
844.103	12449.98
844.427	12349.2
844.751	12357.56
845.075	12347.39
845.399	12279.37
845.723	12194.4
846.047	12191.46
846.371	12098.35
846.695	12138.81
847.019	12008.87
847.343	12014.06
847.666	11904.24
847.99	11869.21
848.313	11837.8
848.637	11735.88
848.96	11724.13
849.284	11699.72
849.607	11611.81
849.931	11636.67
850.254	11532.27
850.577	11410.46
850.9	11472.16
851.223	11377.47
851.546	11286.4
851.869	11254.08
852.192	11343.8
852.515	11179.96
852.838	11229.45
853.161	11178.38
853.483	11102.67
853.806	11058.16
854.129	11049.12
854.451	11049.79
854.774	10961.43
855.096	10854.32
855.419	10904.94
855.741	10831.49
856.063	10805.96
856.385	10761.44
856.708	10708.11
857.03	10728.45
857.352	10604.16
857.674	10624.95
857.996	10611.61
858.318	10582.46
858.64	10495.68
858.961	10498.85
859.283	10424.73
859.605	10470.37
859.926	10500.2
860.248	10410.04
860.57	10313.32
860.891	10408.68
861.212	10340.43
861.534	10356.71
861.855	10351.73
862.176	10306.08
862.498	10262.02
862.819	10299.53
863.14	10176.37
863.461	10162.59
863.782	10144.28
864.103	10142.7
864.424	10107.67
864.745	10143.83
865.065	10105.19
865.386	10044.85
865.707	10029.03
866.027	10044.62
866.348	10012.76
866.668	10010.5
866.989	9978.41
867.309	9905.42
867.63	9970.05
867.95	9958.75
868.27	9865.87
868.59	9904.74
868.91	9806.66
869.23	9864.51
869.55	9812.76
869.87	9824.06
870.19	9782.71
870.51	9774.12
870.83	9765.76
871.15	9676.27
871.469	9764.86
871.789	9767.34
872.109	9748.81
872.428	9712.2
872.748	9694.58
873.067	9704.97
873.386	9686.44
873.706	9620.45
874.025	9609.83
874.344	9598.98
874.663	9603.05
874.982	9616.16
875.301	9541.13
875.62	9545.65
875.939	9523.05
876.258	9523.28
876.577	9464.3
876.896	9476.05
877.214	9453.68
877.533	9421.36
877.852	9417.97
878.17	9418.65
878.489	9436.73
878.807	9397.41
879.125	9340.46
879.444	9370.74
879.762	9337.07
880.08	9362.38
880.398	9243.97
880.716	9361.48
881.034	9223.85
881.352	9201.71
881.67	9231.08
881.988	9272.44
882.306	9253.01
882.624	9181.59
882.941	9171.65
883.259	9134.36
883.577	9000.36
883.894	9096.63
884.212	9127.36
884.529	9017.53
884.846	9066.57
885.164	9032.67
885.481	8939.34
885.798	8988.38
886.115	8881.49
886.432	8954.71
886.75	8872.68
887.067	8898.89
887.383	8811.21
887.7	8849.85
888.017	8802.17
888.334	8786.35
888.651	8781.83
888.967	8748.39
889.284	8699.57
889.6	8667.48
889.917	8654.6
890.233	8641.27
890.55	8566.92
890.866	8553.81
891.182	8543.65
891.498	8515.85
891.815	8513.36
892.131	8495.29
892.447	8482.4
892.763	8391.56
893.079	8367.83
893.395	8357.66
893.71	8333.26
894.026	8366.02
894.342	8371.9
894.657	8252.58
894.973	8289.87
895.289	8275.86
895.604	8248.06
895.92	8114.05
896.235	8133.94
896.55	8166.48
896.865	8065.01
897.181	8067.5
897.496	8116.54
897.811	8005.13
898.126	8024.11
898.441	7930.1
898.756	7947.5
899.071	7874.06
899.386	7868.18
899.7	7836.32
900.015	7827.51
900.33	7771.46
900.644	7795.87
900.959	7779.15
901.273	7750.45
901.588	7732.37
901.902	7688.07
902.216	7655.99
902.531	7662.54
902.845	7609.21
903.159	7506.61
903.473	7488.31
903.787	7408.31
904.101	7430.68
904.415	7408.76
904.729	7407.86
905.042	7347.97
905.356	7327.86
905.67	7343.68
905.984	7347.97
906.297	7253.96
906.611	7201.99
906.924	7225.49
907.237	7182.55
907.551	7145.26
907.864	7169.44
908.177	7098.71
908.491	7043.12
908.804	7049
909.117	6968.77
909.43	7054.87
909.743	6941.43
910.056	6946.85
910.368	6899.85
910.681	6878.15
910.994	6867.53
911.307	6784.82
911.619	6741.43
911.932	6799.74
912.244	6743.69
912.557	6747.31
912.869	6663.24
913.181	6622.79
913.494	6623.7
913.806	6601.32
914.118	6564.26
914.43	6498.05
914.742	6535.34
915.054	6489.46
915.366	6482.46
915.678	6476.36
915.99	6442.46
916.302	6386.64
916.613	6364.95
916.925	6360.65
917.236	6321.56
917.548	6296.25
917.859	6241.33
918.171	6245.4
918.482	6197.49
918.794	6199.07
919.105	6186.87
919.416	6119.53
919.727	6158.85
920.038	6108.91
920.349	6084.05
920.66	6080.66
920.971	6069.59
921.282	5966.31
921.593	5978.06
921.903	5922.25
922.214	5915.92
922.525	5916.37
922.835	5851.96
923.146	5805.86
923.456	5807.45
923.767	5804.06
924.077	5845.19
924.387	5704.62
924.697	5702.82
925.008	5703.04
925.318	5770.38
925.628	5655.59
925.938	5635.25
926.248	5554.35
926.558	5581.24
926.867	5511.41
927.177	5522.26
927.487	5467.34
927.796	5488.58
928.106	5416.95
928.416	5404.07
928.725	5488.13
929.034	5372.2
929.344	5402.94
929.653	5400.68
929.962	5302.6
930.271	5346.67
930.581	5273.45
930.89	5254.47
931.199	5247.46
931.508	5241.81
931.817	5221.7
932.125	5153.45
932.434	5159.33
932.743	5141.93
933.051	5051.99
933.36	5086.56
933.669	5058.31
933.977	5028.03
934.286	5032.1
934.594	4975.38
934.902	4987.35
935.21	4930.86
935.519	4939.9
935.827	4919.56
936.135	4882.72
936.443	4845.66
936.751	4812.9
937.059	4866.91
937.367	4795.95
937.674	4793.69
937.982	4764.31
938.29	4722.5
938.597	4723.63
938.905	4722.95
939.213	4697.87
939.52	4651.77
939.827	4673.92
940.135	4601.38
940.442	4592.79
940.749	4592.79
941.056	4555.05
941.363	4533.36
941.67	4525.9
941.977	4501.04
942.284	4431.66
942.591	4482.06
942.898	4403.64
943.205	4466.01
943.511	4452.23
943.818	4416.97
944.125	4356.86
944.431	4341.72
944.738	4339.24
945.044	4290.2
945.35	4296.3
945.657	4277.54
945.963	4268.5
946.269	4225.79
946.575	4268.96
946.881	4204.78
947.187	4217.43
947.493	4198
947.799	4155.96
948.105	4123.42
948.41	4166.13
948.716	4113.93
949.022	4067.6
949.327	4114.16
949.633	4015.85
949.938	4020.6
950.244	4059.02
950.549	4006.36
950.854	3960.72
951.16	3953.03
951.465	3942.86
951.77	3908.29
952.075	3927.72
952.38	3873.94
952.685	3890.43
952.99	3877.78
953.294	3882.3
953.599	3826.71
953.904	3820.61
954.209	3799.14
954.513	3752.58
954.818	3758.46
955.122	3737.9
955.426	3701.96
955.731	3754.62
956.035	3673.49
956.339	3699.7
956.643	3662.19
956.948	3613.38
957.252	3616.54
957.556	3633.94
957.86	3621.74
958.163	3597.79
958.467	3611.57
958.771	3575.41
959.075	3570.67
959.378	3520.5
959.682	3541.74
959.985	3495.64
960.289	3426.72
960.592	3455.87
960.896	3414.06
961.199	3450.22
961.502	3420.62
961.805	3376.78
962.108	3374.74
962.411	3392.14
962.714	3365.48
963.017	3363.44
963.32	3396.21
963.623	3329.09
963.926	3287.96
964.228	3289.09
964.531	3253.39
964.833	3245.71
965.136	3252.94
965.438	3252.49
965.741	3210.23
966.043	3184.69
966.345	3216.33
966.648	3161.41
966.95	3172.94
967.252	3160.51
967.554	3159.83
967.856	3118.48
968.158	3114.86
968.46	3101.98
968.761	3079.61
969.063	3055.65
969.365	3048.42
969.666	3065.15
969.968	3022.66
970.269	3007.97
970.571	2986.05
970.872	3023.11
971.174	2933.85
971.475	2948.31
971.776	2965.71
972.077	2930.46
972.378	2941.08
972.679	2924.58
972.98	2895.21
973.281	2874.87
973.582	2874.42
973.883	2859.73
974.183	2844.36
974.484	2888.2
974.785	2849.56
975.085	2823.8
975.386	2813.85
975.686	2769.11
975.986	2807.75
976.287	2740.63
976.587	2717.13
976.887	2769.79
977.187	2756.45
977.487	2701.31
977.787	2692.73
978.087	2690.24
978.387	2667.87
978.687	2686.17
978.987	2663.35
979.286	2691.37
979.586	2634.42
979.885	2625.61
980.185	2622.67
980.484	2599.39
980.784	2567.31
981.083	2586.74
981.382	2575.44
981.682	2584.48
981.981	2565.05
982.28	2544.03
982.579	2502.22
982.878	2517.82
983.177	2498.83
983.475	2489.34
983.774	2458.61
984.073	2456.35
984.372	2447.99
984.67	2432.62
984.969	2429.68
985.267	2414.99
985.566	2414.99
985.864	2403.47
986.162	2400.53
986.461	2363.47
986.759	2374.99
987.057	2359.4
987.355	2346.07
987.653	2337.71
987.951	2328.44
988.249	2330.7
988.547	2303.13
988.844	2284.37
989.142	2314.43
989.44	2269.01
989.737	2264.71
990.035	2265.39
990.332	2282.79
990.63	2218.16
990.927	2239.18
991.224	2250.03
991.521	2189.24
991.819	2196.92
992.116	2212.74
992.413	2197.82
992.71	2161.21
993.006	2156.69
993.303	2183.81
993.6	2123.25
993.897	2137.49
994.193	2136.58
994.49	2122.57
994.787	2092.97
995.083	2118.05
995.379	2061.56
995.676	2068.11
995.972	2095.91
996.268	2065.17
996.565	2050.26
996.861	2009.13
997.157	2049.13
997.453	1995.79
997.749	2005.96
998.044	1981.33
998.34	1991.5
998.636	1980.2
998.932	1946.98
999.227	1953.76
999.523	1966.42
999.818	1967.77
1000.114	1947.43
1000.409	1912.41
1000.704	1882.13
1001	1867.21
1001.295	1909.7
1001.59	1878.28
1001.885	1872.41
1002.18	1838.96
1002.475	1846.19
1002.77	1839.41
1003.065	1822.92
1003.359	1839.41
1003.654	1805.74
1003.949	1795.8
1004.243	1758.51
1004.538	1763.94
1004.832	1776.82
1005.127	1771.17
1005.421	1751.73
1005.715	1710.83
1006.009	1728.01
1006.304	1726.42
1006.598	1724.16
1006.892	1730.72
1007.186	1681.9
1007.48	1666.54
1007.773	1687.1
1008.067	1669.7
1008.361	1652.98
1008.655	1627.67
1008.948	1656.37
1009.242	1635.58
1009.535	1626.77
1009.829	1620.66
1010.122	1631.74
1010.415	1621.57
1010.708	1562.36
1011.001	1574.34
1011.295	1577.73
1011.588	1563.26
1011.881	1553.77
1012.173	1559.65
1012.466	1533.66
1012.759	1525.3
1013.052	1525.07
1013.344	1512.19
1013.637	1496.6
1013.93	1473.55
1014.222	1491.18
1014.514	1494.57
1014.807	1475.13
1015.099	1462.7
1015.391	1452.31
1015.683	1442.36
1015.976	1416.83
1016.268	1417.28
1016.56	1419.31
1016.851	1404.4
1017.143	1396.49
1017.435	1396.49
1017.727	1395.13
1018.018	1383.38
1018.31	1364.17
1018.602	1340.9
1018.893	1342.48
1019.185	1324.17
1019.476	1337.51
1019.767	1350.16
1020.058	1320.78
1020.35	1319.2
1020.641	1296.83
1020.932	1273.78
1021.223	1273.78
1021.514	1248.7
1021.804	1267.9
1022.095	1247.57
1022.386	1230.84
1022.677	1243.5
1022.967	1211.63
1023.258	1248.92
1023.548	1245.53
1023.839	1215.02
1024.129	1229.04
1024.419	1212.99
1024.709	1208.7
1025	1179.55
1025.29	1165.31
1025.58	1145.42
1025.87	1177.51
1026.16	1132.99
1026.449	1150.39
1026.739	1155.37
1027.029	1156.95
1027.319	1118.53
1027.608	1108.81
1027.898	1117.85
1028.187	1079.66
1028.477	1126.21
1028.766	1080.79
1029.055	1084.63
1029.344	1066.78
1029.634	1063.39
1029.923	1063.16
1030.212	1069.94
1030.501	1058.42
1030.79	1047.57
1031.078	1052.09
1031.367	1009.38
1031.656	1015.26
1031.945	1023.17
1032.233	1011.19
1032.522	1003.5
1032.81	990.62
1033.099	984.75
1033.387	973
1033.675	964.64
1033.963	987.01
1034.251	973.22
1034.54	960.79
1034.828	969.61
1035.116	940.91
1035.403	940.46
1035.691	937.07
1035.979	970.96
1036.267	916.28
1036.554	908.37
1036.842	944.07
1037.129	876.95
1037.417	909.5
1037.704	872.43
1037.992	891.87
1038.279	887.12
1038.566	895.26
1038.853	895.26
1039.14	895.26
