Data from hue_24_FLMS001491_00002.txt Node
Date: Tue Feb 07 17:11:39 GMT 2017
User: dcchb
Spectrometer: FLMS00149
Trigger mode: 0
Integration Time (sec): 2.000000E-2
Scans to average: 10
Electric dark correction enabled: true
Nonlinearity correction enabled: false
Boxcar width: 0
XAxis mode: Wavelengths
Number of Pixels in Spectrum: 2048
>>>>>Begin Spectral Data<<<<<
341.393	-18.74
341.776	-18.74
342.16	-18.74
342.543	-47.67
342.927	-46.09
343.31	-75.69
343.693	-61.45
344.077	-70.72
344.46	-71.4
344.843	-38.85
345.226	-34.11
345.61	-44.28
345.993	-27.33
346.376	-29.14
346.759	5.66
347.142	25.1
347.525	60.35
347.908	75.72
348.291	82.5
348.674	99.67
349.057	103.97
349.44	151.42
349.823	139.45
350.206	146.22
350.588	179.67
350.971	210.86
351.354	233.23
351.737	243.85
352.119	263.51
352.502	259.44
352.884	277.97
353.267	295.37
353.65	311.64
354.032	304.86
354.414	310.51
354.797	320.23
355.179	333.11
355.562	342.83
355.944	335.6
356.326	332.43
356.709	330.63
357.091	320.68
357.473	356.16
357.855	333.56
358.238	324.75
358.62	331.3
359.002	370.63
359.384	376.28
359.766	344.86
360.148	344.64
360.53	334.02
360.912	326.11
361.294	323.62
361.676	357.07
362.057	346.67
362.439	337.18
362.821	344.41
363.203	327.01
363.584	347.12
363.966	322.72
364.348	335.6
364.729	329.5
365.111	330.17
365.493	311.64
365.874	325.43
366.256	337.63
366.637	317.97
367.019	311.19
367.4	323.85
367.781	313.45
368.163	311.19
368.544	308.25
368.925	327.24
369.306	326.79
369.688	315.49
370.069	299.89
370.45	324.53
370.831	299.44
371.212	305.32
371.593	317.29
371.974	335.6
372.355	299.44
372.736	324.3
373.117	304.41
373.498	325.43
373.879	304.86
374.26	327.46
374.641	315.49
375.021	343.28
375.402	329.5
375.783	305.99
376.163	336.05
376.544	312.1
376.925	334.92
377.305	314.58
377.686	326.33
378.066	327.46
378.447	329.5
378.827	340.57
379.208	341.7
379.588	340.57
379.968	323.4
380.349	331.53
380.729	346.45
381.109	335.37
381.489	342.83
381.87	347.58
382.25	346.9
382.63	355.03
383.01	358.65
383.39	335.15
383.77	332.66
384.15	343.28
384.53	364.52
384.91	332.66
385.29	367.24
385.67	358.87
386.049	369.72
386.429	346.67
386.809	366.33
387.189	349.38
387.568	334.47
387.948	353
388.328	360.46
388.707	360.68
389.087	359.1
389.466	355.26
389.846	385.77
390.225	379.67
390.605	366.11
390.984	363.17
391.363	360.23
391.743	396.16
392.122	378.31
392.501	376.28
392.881	402.04
393.26	366.78
393.639	386.67
394.018	363.39
394.397	396.61
394.776	378.76
395.155	380.12
395.534	390.74
395.913	395.71
396.292	394.58
396.671	381.47
397.05	372.66
397.429	400
397.808	400
398.186	375.6
398.565	368.37
398.944	395.71
399.323	392.55
399.701	412.88
400.08	389.16
400.458	386.9
400.837	386.44
401.215	395.26
401.594	411.3
401.972	402.49
402.351	404.98
402.729	416.95
403.107	429.83
403.486	396.16
403.864	420.57
404.242	432.55
404.62	429.61
404.999	414.01
405.377	425.99
405.755	421.02
406.133	437.29
406.511	416.73
406.889	432.32
407.267	455.6
407.645	421.25
408.023	415.37
408.401	436.61
408.779	436.16
409.156	449.27
409.534	461.02
409.912	457.63
410.29	464.18
410.667	456.95
411.045	465.54
411.422	453.34
411.8	470.51
412.178	485.2
412.555	489.27
412.933	489.72
413.31	474.13
413.687	489.49
414.065	468.93
414.442	476.84
414.819	496.72
415.197	494.24
415.574	515.71
415.951	500.11
416.328	507.57
416.705	510.06
417.082	508.7
417.46	515.93
417.837	513.22
418.214	542.37
418.591	518.64
418.967	516.84
419.344	530.17
419.721	537.18
420.098	528.59
420.475	545.99
420.852	520.68
421.228	541.02
421.605	540.56
421.982	560.9
422.358	542.6
422.735	573.78
423.111	554.35
423.488	534.01
423.864	548.47
424.241	560.9
424.617	561.36
424.994	574.01
425.37	555.25
425.746	590.28
426.123	557.51
426.499	593.44
426.875	595.93
427.251	597.74
427.627	590.96
428.003	608.59
428.379	610.39
428.756	612.2
429.132	603.39
429.507	622.82
429.883	630.28
430.259	626.21
430.635	639.09
431.011	651.3
431.387	650.39
431.763	662.37
432.138	668.25
432.514	641.35
432.89	640.45
433.265	667.12
433.641	691.07
434.016	710.28
434.392	699.66
434.767	707.79
435.143	710.05
435.518	700.79
435.894	717.28
436.269	742.37
436.644	714.8
437.02	731.52
437.395	745.76
437.77	752.08
438.145	761.35
438.52	750.73
438.895	729.26
439.271	749.82
439.646	778.3
440.021	785.08
440.395	750.73
440.77	767.23
441.145	785.08
441.52	808.13
441.895	793.89
442.27	821.69
442.645	794.8
443.019	813.78
443.394	807.22
443.769	813.55
444.143	817.85
444.518	822.14
444.892	816.94
445.267	823.5
445.641	835.25
446.016	851.52
446.39	863.49
446.764	866.21
447.139	863.27
447.513	856.04
447.887	877.05
448.262	868.69
448.636	897.84
449.01	904.4
449.384	887.45
449.758	879.31
450.132	913.21
450.506	902.82
450.88	920.22
451.254	908.69
451.628	914.11
452.002	936.94
452.376	927.67
452.75	955.7
453.123	953.21
453.497	949.59
453.871	943.04
454.244	998.41
454.618	998.41
454.992	968.58
455.365	997.73
455.739	1027.33
456.112	1023.04
456.486	1034.34
456.859	1029.14
457.232	1036.37
457.606	1062.59
457.979	1074.11
458.352	1092.87
458.725	1103.94
459.099	1096.93
459.472	1130.61
459.845	1138.74
460.218	1147.78
460.591	1169.93
460.964	1168.57
461.337	1166.76
461.71	1178.74
462.083	1188.01
462.456	1203.37
462.829	1218.74
463.201	1228
463.574	1237.04
463.947	1286.53
464.32	1275.91
464.692	1271.62
465.065	1312.3
465.438	1308
465.81	1320.66
466.183	1363.14
466.555	1379.64
466.928	1369.92
467.3	1399.3
467.672	1388.9
468.045	1430.26
468.417	1439.52
468.789	1456.47
469.161	1461.9
469.534	1508.45
469.906	1546.19
470.278	1544.61
470.65	1559.07
471.022	1605.4
471.394	1609.92
471.766	1604.49
472.138	1637.26
472.51	1677.03
472.882	1699.4
473.253	1710.03
473.625	1750.7
473.997	1798.84
474.369	1817.37
474.74	1850.81
475.112	1878.16
475.484	1888.55
475.855	1921.32
476.227	1957.02
476.598	1998.38
476.97	2025.72
477.341	2036.34
477.713	2107.53
478.084	2104.37
478.455	2166.96
478.827	2201.76
479.198	2246.96
479.569	2244.47
479.94	2283.8
480.311	2354.3
480.682	2405.37
481.053	2476.56
481.424	2450.35
481.795	2519.5
482.166	2603.56
482.537	2615.09
482.908	2655.31
483.279	2718.13
483.65	2749.77
484.021	2837.23
484.391	2847.85
484.762	2914.51
485.133	2926.26
485.503	2983.44
485.874	3079.71
486.244	3091.68
486.615	3135.52
486.985	3194.51
487.356	3237.9
487.726	3283.09
488.097	3384.78
488.467	3421.39
488.837	3442.86
489.207	3498.68
489.578	3544.78
489.948	3627.94
490.318	3641.73
490.688	3648.28
491.058	3749.52
491.428	3802.85
491.798	3832.91
492.168	3876.07
492.538	3914.26
492.908	3992.23
493.278	4043.52
493.648	4082.39
494.017	4113.8
494.387	4191.77
494.757	4209.17
495.126	4274.93
495.496	4330.3
495.866	4308.6
496.235	4334.59
496.605	4415.04
496.974	4460.01
497.344	4463.85
497.713	4532.1
498.082	4560.8
498.452	4642.6
498.821	4641.02
499.19	4619.33
499.559	4728.48
499.928	4745.65
500.298	4757.18
500.667	4832.43
501.036	4813.9
501.405	4836.05
501.774	4865.2
502.143	4911.3
502.512	5004.4
502.88	5011.41
503.249	4989.26
503.618	5064.74
503.987	5073.55
504.356	5142.25
504.724	5105.42
505.093	5108.35
505.462	5163.95
505.83	5224.96
506.199	5238.07
506.567	5299.31
506.936	5274.23
507.304	5349.03
507.672	5351.96
508.041	5391.06
508.409	5459.53
508.777	5441
509.145	5509.25
509.514	5567.78
509.882	5551.96
510.25	5583.6
510.618	5609.36
510.986	5636.93
511.354	5678.51
511.722	5730.48
512.09	5730.03
512.458	5768
512.826	5800.31
513.193	5789.01
513.561	5839.18
513.929	5880.09
514.297	5909.24
514.664	5885.51
515.032	5897.94
515.4	5976.81
515.767	5980.87
516.135	6038.27
516.502	5947.88
516.869	6068.78
517.237	6106.97
517.604	6116.92
517.972	6107.42
518.339	6206.86
518.706	6229.68
519.073	6175.9
519.44	6235.56
519.808	6273.97
520.175	6296.57
520.542	6374.31
520.909	6329.79
521.276	6418.38
521.643	6445.04
522.009	6463.12
522.376	6499.96
522.743	6561.65
523.11	6572.04
523.477	6628.09
523.843	6631.03
524.21	6718.03
524.577	6741.31
524.943	6815.65
525.31	6830.34
525.676	6849.33
526.043	6860.85
526.409	6921.64
526.776	7025.37
527.142	6976.1
527.508	7026.27
527.874	7087.06
528.241	7139.04
528.607	7101.07
528.973	7136.55
529.339	7178.13
529.705	7259.03
530.071	7320.27
530.437	7337.67
530.803	7357.33
531.169	7412.02
531.535	7430.33
531.901	7408.63
532.267	7478.01
532.632	7540.61
532.998	7541.06
533.364	7563.66
533.73	7619.47
534.095	7615.41
534.461	7721.17
534.826	7710.55
535.192	7825.57
535.557	7785.57
535.923	7775.18
536.288	7867.38
536.653	7898.56
537.019	7852.46
537.384	7898.56
537.749	8007.04
538.114	7973.14
538.479	7989.63
538.845	8018.33
539.21	8080.48
539.575	8145.56
539.94	8128.16
540.305	8166.35
540.67	8158.67
541.034	8222.85
541.399	8315.73
541.764	8286.8
542.129	8364.54
542.494	8355.95
542.858	8409.74
543.223	8434.82
543.587	8477.98
543.952	8487.7
544.316	8473.46
544.681	8552.33
545.045	8594.82
545.41	8592.56
545.774	8588.94
546.138	8665.77
546.503	8697.19
546.867	8659.9
547.231	8768.15
547.595	8801.36
547.959	8839.33
548.324	8847.47
548.688	8863.28
549.052	8851.76
549.416	8931.3
549.779	8983.28
550.143	9021.25
550.507	9004.75
550.871	9072.54
551.235	9118.87
551.599	9135.37
551.962	9137.4
552.326	9236.38
552.689	9251.75
553.053	9266.89
553.417	9232.77
553.78	9322.48
554.143	9303.95
554.507	9330.84
554.87	9423.72
555.234	9460.56
555.597	9403.16
555.96	9425.08
556.323	9535.13
556.686	9560.67
557.05	9636.37
557.413	9596.6
557.776	9626.88
558.139	9659.65
558.502	9663.04
558.865	9706.88
559.228	9802.47
559.59	9810.15
559.953	9889.02
560.316	9865.29
560.679	9960.88
561.041	9949.58
561.404	9943.03
561.767	9991.16
562.129	9984.16
562.492	10124.27
562.854	10148.22
563.217	10129.01
563.579	10202.91
563.941	10203.36
564.304	10278.84
564.666	10326.52
565.028	10325.17
565.39	10360.19
565.753	10397.48
566.115	10427.31
566.477	10508.44
566.839	10511.6
567.201	10580.75
567.563	10570.58
567.925	10723.12
568.287	10616.91
568.648	10744.14
569.01	10754.31
569.372	10814.42
569.734	10823.46
570.095	10888.32
570.457	10870.91
570.819	10926.73
571.18	10899.16
571.542	11056.67
571.903	10995.66
572.265	11149.1
572.626	11157.23
572.987	11197.01
573.349	11293.05
573.71	11310.23
574.071	11355.87
574.432	11422.31
574.794	11563.55
575.155	11560.84
575.516	11659.82
575.877	11632.93
576.238	11747.28
576.599	11807.39
576.96	11964.22
577.32	11993.15
577.681	12105.91
578.042	12223.42
578.403	12274.72
578.763	12373.47
579.124	12544.09
579.485	12613.24
579.845	12695.73
580.206	12788.15
580.566	12910.41
580.927	13069.95
581.287	13216.39
581.648	13355.14
582.008	13498.42
582.368	13588.58
582.728	13747.9
583.089	13888.46
583.449	13963.04
583.809	14243.26
584.169	14383.36
584.529	14464.27
584.889	14786.29
585.249	14948.1
585.609	15078.04
585.969	15384.47
586.329	15501.3
586.688	15693.84
587.048	15906.94
587.408	16130.89
587.768	16405.23
588.127	16648.39
588.487	16849.29
588.846	17156.85
589.206	17363.63
589.565	17751.19
589.925	17944.63
590.284	18201.57
590.643	18439.53
591.003	18754.55
591.362	19225.72
591.721	19328.09
592.08	19610.12
592.44	19845.59
592.799	20266.15
593.158	20552.69
593.517	20720.15
593.876	21068.39
594.235	21256.63
594.593	21653.68
594.952	21977.06
595.311	22292.54
595.67	22527.11
596.029	23037.6
596.387	23287.09
596.746	23598.26
597.104	23801.42
597.463	24140.85
597.822	24579.93
598.18	24624.23
598.538	25059.02
598.897	25440.02
599.255	25546.24
599.613	26278.87
599.972	26454.69
600.33	26824.62
600.688	26897.84
601.046	27248.11
601.404	27751.83
601.762	27851.71
602.12	28296.67
602.478	28601.75
602.836	28870.22
603.194	28974.85
603.552	29381.39
603.91	29609.63
604.268	29895.73
604.625	30122.39
604.983	30495.71
605.341	30581.58
605.698	31066.09
606.056	31356.48
606.413	31605.06
606.771	31801.89
607.128	32294.53
607.485	32209.56
607.843	32499.27
608.2	32969.99
608.557	33242.08
608.914	33366.82
609.272	33718
609.629	34056.07
609.986	34206.35
610.343	34351.2
610.7	34755.71
611.057	34821.25
611.414	35025.31
611.771	35227.79
612.127	35559.76
612.484	35725.18
612.841	36032.96
613.198	36065.05
613.554	36318.83
613.911	36662.55
614.267	36838.82
614.624	36770.8
614.98	37104.12
615.337	37423.21
615.693	37616.88
616.05	37562.87
616.406	37955.63
616.762	38083.53
617.118	38085.11
617.475	38312.91
617.831	38670.18
618.187	38584.99
618.543	38838.99
618.899	39111.3
619.255	39124.86
619.611	39349.94
619.967	39406.66
620.323	39641.91
620.678	39602.59
621.034	39575.24
621.39	39893.2
621.746	39965.74
622.101	40416.8
622.457	40228.33
622.812	40363.02
623.168	40561.89
623.523	40685.72
623.879	40929.33
624.234	40633.3
624.589	40915.1
624.945	40984.7
625.3	41123.45
625.655	41213.62
626.01	41316.22
626.365	41238.03
626.72	41372.26
627.075	41378.81
627.43	41517.11
627.785	41383.78
628.14	41675.98
628.495	41614.06
628.85	41781.74
629.205	41717.56
629.559	41960.04
629.914	41802.08
630.269	41837.56
630.623	41803.43
630.978	41911
631.332	41927.73
631.687	42224.67
632.041	42108.51
632.396	42139.47
632.75	42045.91
633.104	42189.64
633.459	42141.28
633.813	42156.65
634.167	42086.59
634.521	42232.35
634.875	42214.95
635.229	42268.28
635.583	41969.53
635.937	42122.75
636.291	42176.98
636.645	42212.24
636.999	42105.35
637.352	42332.46
637.706	42038
638.06	42189.64
638.413	42280.94
638.767	42109.42
639.121	42301.73
639.474	41974.28
639.828	42047.95
640.181	42111.9
640.534	42047.72
640.888	42063.09
641.241	41851.34
641.594	41954.39
641.947	42155.97
642.301	42006.59
642.654	42076.42
643.007	42186.25
643.36	42046.37
643.713	42065.12
644.066	42227.83
644.419	42063.31
644.771	41796.43
645.124	41367.74
645.477	41395.99
645.83	41067.41
646.182	41171.59
646.535	40869.67
646.888	40993.96
647.24	40684.14
647.593	41007.98
647.945	40833.06
648.298	40718.04
648.65	40571.6
649.002	40556.24
649.355	40756.91
649.707	40805.72
650.059	40853.63
650.411	41293.62
650.763	41388.98
651.115	41859.48
651.467	41634.85
651.819	41712.59
652.171	41626.49
652.523	41504.01
652.875	41576.1
653.227	41299.27
653.578	41675.98
653.93	41609.54
654.282	41381.98
654.633	41363.9
654.985	41443.44
655.337	41358.25
655.688	41393.5
656.039	41619.94
656.391	41324.13
656.742	41424.01
657.094	41489.32
657.445	41541.75
657.796	41429.21
658.147	41303.79
658.498	41334.07
658.849	41461.97
659.2	41265.14
659.551	41293.62
659.902	41417.23
660.253	41256.33
660.604	41444.57
660.955	41214.07
661.306	41420.85
661.656	41252.94
662.007	41335.65
662.358	41283.45
662.708	41303.79
663.059	41136.11
663.409	41051.59
663.76	41310.57
664.11	41207.52
664.461	41234.64
664.811	41198.25
665.161	41203.9
665.511	41264.01
665.862	41238.7
666.212	41345.37
666.562	41273.51
666.912	41244.13
667.262	41259.95
667.612	41123.68
667.962	41272.6
668.312	41217.24
668.662	41272.6
669.011	41218.14
669.361	41135.43
669.711	41195.54
670.06	41186.5
670.41	41019.05
670.76	40940.41
671.109	41079.39
671.459	41048.2
671.808	40837.58
672.157	41027.86
672.507	40880.75
672.856	40896.79
673.205	40937.02
673.554	41099.5
673.904	40917.58
674.253	41125.49
674.602	40959.16
674.951	40447.54
675.3	40304.94
675.649	40960.97
675.998	40850.01
676.346	40816.12
676.695	40881.2
677.044	40579.06
677.393	40734.76
677.741	40850.69
678.09	40687.31
678.438	40567.99
678.787	40659.51
679.135	40679.17
679.484	40456.8
679.832	40510.81
680.181	40342.46
680.529	40472.85
680.877	40297.49
681.225	40172.74
681.573	40454.77
681.922	40090.49
682.27	40142.69
682.618	40134.33
682.966	40187.43
683.314	40052.52
683.661	39940.66
684.009	39834.67
684.357	39912.64
684.705	39701.12
685.053	39866.31
685.4	39725.98
685.748	39652.3
686.095	39543.61
686.443	39432.88
686.79	39404.4
687.138	39462.71
687.485	39454.57
687.832	39282.82
688.18	39243.73
688.527	39060.46
688.874	39136.16
689.221	39138.19
689.568	38871.08
689.915	38892.1
690.262	38840.8
690.609	38658.43
690.956	38507.48
691.303	38564.42
691.65	38395.39
691.997	38457.76
692.344	38242.4
692.69	38290.31
693.037	38195.39
693.383	37958.11
693.73	38109.97
694.077	37695.75
694.423	37737.78
694.769	37719.47
695.116	37677.89
695.462	37577.56
695.808	37527.61
696.155	37439.71
696.501	37171.01
696.847	37242.88
697.193	37037.91
697.539	37148.64
697.885	36850.8
698.231	36852.38
698.577	36743.23
698.923	36693.74
699.269	36606.28
699.614	36370.81
699.96	36363.35
700.306	36351.6
700.651	36236.8
700.997	36132.17
701.342	36092.85
701.688	36000.42
702.033	35865.74
702.379	35884.95
702.724	35759.53
703.069	35838.17
703.415	35443.6
703.76	35466.43
704.105	35383.94
704.45	35330.38
704.795	35082.26
705.14	35063.05
705.485	34947.8
705.83	34906.67
706.175	35013.56
706.52	34897.63
706.865	34795.94
707.209	34797.52
707.554	34575.15
707.899	34586.22
708.243	34602.04
708.588	34440.69
708.932	34233.24
709.277	34259.68
709.621	34193.92
709.966	33981.72
710.31	34120.47
710.654	33760.26
710.998	33862.17
711.342	33759.13
711.687	33744.89
712.031	33555.29
712.375	33436.65
712.719	33578.11
713.063	33515.07
713.407	33682.29
713.75	33392.58
714.094	33300.61
714.438	33229.65
714.782	33186.26
715.125	32971.8
715.469	33131.12
715.812	33051.8
716.156	32771.13
716.499	32774.07
716.843	32971.35
717.186	32681.87
717.53	32869.66
717.873	32690.45
718.216	32588.99
718.559	32567.75
718.902	32242.78
719.246	32481.65
719.589	32239.84
719.932	32198.04
720.275	32169.79
720.617	32218.15
720.96	32132.05
721.303	32033.97
721.646	32150.13
721.989	31810.7
722.331	32023.58
722.674	31914.66
723.016	31833.98
723.359	31880.31
723.701	31855.22
724.044	31612.97
724.386	31468.79
724.729	31729.35
725.071	31636.24
725.413	31596.02
725.755	31541.78
726.097	31251.4
726.439	31160.32
726.782	31201.91
727.124	31213.2
727.465	31076.49
727.807	31070.61
728.149	30980.22
728.491	30994.68
728.833	30970.05
729.175	30835.81
729.516	30890.28
729.858	30842.37
730.199	30746.55
730.541	30680.34
730.882	30706.78
731.224	30685.76
731.565	30368.71
731.906	30609.38
732.248	30574.58
732.589	30415.94
732.93	30324.64
733.271	30317.18
733.612	30303.4
733.953	30382.27
734.294	30319.44
734.635	30248.71
734.976	30253.68
735.317	30028.15
735.658	29968.04
735.999	30097.98
736.339	30000.13
736.68	30122.16
737.021	30028.38
737.361	29724.88
737.702	30034.48
738.042	29944.09
738.383	29751.32
738.723	29827.48
739.063	29718.55
739.404	29745.22
739.744	29619.8
740.084	29547.26
740.424	29507.71
740.764	29549.97
741.104	29508.62
741.444	29459.13
741.784	29453.03
742.124	29322.86
742.464	29357.43
742.804	29267.04
743.143	29146.14
743.483	29177.55
743.823	29147.04
744.162	29053.04
744.502	29153.37
744.841	29154.73
745.181	29162.86
745.52	28966.94
745.86	29079.48
746.199	28951.34
746.538	28942.3
746.877	28890.55
747.216	29059.14
747.556	28843.78
747.895	28823.66
748.234	28671.35
748.573	28734.17
748.911	28646.04
749.25	28654.18
749.589	28514.29
749.928	28569.88
750.267	28565.14
750.605	28394.07
750.944	28341.64
751.283	28285.37
751.621	28401.75
751.96	28184.13
752.298	28193.85
752.636	28164.02
752.975	28131.7
753.313	27953.63
753.651	28220.06
753.989	27895.33
754.327	27944.82
754.666	27808.1
755.004	27870.69
755.342	27819.17
755.679	27769
756.017	27661.66
756.355	27554.32
756.693	27541.66
757.031	27561.78
757.368	27405.4
757.706	27439.07
758.044	27225.74
758.381	27237.94
758.719	27222.58
759.056	27174.67
759.394	26989.13
759.731	26990.49
760.068	26825.3
760.405	26836.14
760.743	26654.68
761.08	26806.77
761.417	26669.82
761.754	26659.2
762.091	26516.83
762.428	26458.08
762.765	26242.71
763.102	26350.06
763.438	26254.69
763.775	26127.91
764.112	26110.29
764.449	26155.94
764.785	26033.23
765.122	25804.76
765.458	25703.75
765.795	25555.5
766.131	25657.42
766.467	25430.98
766.804	25448.84
767.14	25368.39
767.476	25275.96
767.812	25296.07
768.148	25270.99
768.485	24957.78
768.821	24898.57
769.157	24845.24
769.492	24850.89
769.828	24806.59
770.164	24649.76
770.5	24602.98
770.836	24559.14
771.171	24495.87
771.507	24337.91
771.842	24205.48
772.178	24227.17
772.513	24129.32
772.849	24056.78
773.184	23985.6
773.519	23825.6
773.855	23783.34
774.19	23644.82
774.525	23587.19
774.86	23748.77
775.195	23572.05
775.53	23384.26
775.865	23322.56
776.2	23087.77
776.535	23021.1
776.87	23000.09
777.205	22969.81
777.539	22694.11
777.874	22918.28
778.209	22644.39
778.543	22722.58
778.878	22474
779.212	22521.91
779.547	22381.8
779.881	22489.37
780.215	22236.94
780.55	22246.66
780.884	22128.92
781.218	22009.15
781.552	21963.05
781.886	21872.43
782.22	21713.79
782.554	21797.18
782.888	21587.47
783.222	21599.67
783.556	21358.55
783.889	21327.36
784.223	21195.39
784.557	21163.98
784.89	21062.06
785.224	21013.02
785.557	20955.17
785.891	20853.03
786.224	20774.84
786.558	20881.5
786.891	20749.98
787.224	20523.99
787.557	20508.85
787.891	20442.19
788.224	20467.27
788.557	20425.01
788.89	20305.92
789.223	20256.66
789.556	20081.75
789.888	20070.67
790.221	19973.73
790.554	19821.87
790.887	19841.75
791.219	19733.73
791.552	19706.61
791.884	19691.25
792.217	19715.88
792.549	19562.89
792.882	19376
793.214	19300.3
793.546	19409.9
793.879	19204.71
794.211	19169
794.543	19145.95
794.875	19146.63
795.207	19085.39
795.539	19022.34
795.871	19005.16
796.203	18872.74
796.535	18733.76
796.867	18668
797.198	18668
797.53	18589.58
797.862	18509.58
798.193	18529.7
798.525	18444.5
798.856	18382.58
799.188	18243.38
799.519	18164.51
799.85	18017.85
800.182	18175.81
800.513	18070.5
800.844	17871.63
801.175	17980.78
801.506	17951.18
801.837	17822.6
802.168	17800.68
802.499	17686.1
802.83	17682.71
803.161	17582.15
803.491	17600.46
803.822	17571.98
804.153	17469.61
804.483	17408.6
804.814	17307.81
805.145	17317.52
805.475	17301.03
805.805	17205.21
806.136	17148.72
806.466	17193.23
806.796	17070.3
807.126	16913.69
807.457	16919.8
807.787	16935.39
808.117	16864.66
808.447	16800.48
808.777	16849.97
809.107	16673.47
809.436	16670.31
809.766	16742.62
810.096	16666.69
810.426	16548.28
810.755	16555.06
811.085	16505.12
811.414	16416.98
811.744	16381.5
812.073	16175.86
812.403	16288.4
812.732	16163.88
813.061	16192.81
813.39	16049.76
813.719	15989.65
814.049	16091.79
814.378	15951.91
814.707	15911.69
815.036	15873.95
815.365	15829.2
815.693	15730.9
816.022	15703.78
816.351	15647.29
816.68	15634.18
817.008	15741.97
817.337	15574.52
817.665	15419.95
817.994	15516.22
818.322	15435.54
818.651	15393.06
818.979	15370.68
819.307	15425.6
819.636	15389.44
819.964	15295.43
820.292	15323.45
820.62	15303.79
820.948	15224.02
821.276	15323.9
821.604	15205.04
821.932	15325.26
822.259	15230.57
822.587	15241.65
822.915	15131.14
823.243	15246.17
823.57	15158.49
823.898	15194.87
824.225	15080.3
824.553	15105.38
824.88	15226.05
825.207	15202.33
825.535	15188.32
825.862	15234.87
826.189	15125.72
826.516	15193.06
826.843	15259.5
827.17	15189.22
827.497	15223.34
827.824	15220.4
828.151	15188.54
828.478	15199.39
828.805	15237.13
829.131	15160.97
829.458	15074.42
829.785	15033.07
830.111	15126.85
830.438	15158.94
830.764	15157.36
831.09	15156.45
831.417	15000.52
831.743	15118.71
832.069	15146.06
832.395	15067.41
832.722	15166.62
833.048	15084.82
833.374	15064.48
833.7	14980.86
834.026	14959.62
834.351	15041.43
834.677	14986.51
835.003	14928.44
835.329	14960.52
835.654	14952.62
835.98	14852.28
836.306	14918.72
836.631	14845.73
836.956	14860.64
837.282	14798.72
837.607	14744.26
837.932	14751.49
838.258	14769.8
838.583	14720.08
838.908	14655
839.233	14615.45
839.558	14497.94
839.883	14667.88
840.208	14559.63
840.533	14442.12
840.858	14530.93
841.182	14586.07
841.507	14550.37
841.832	14407.77
842.156	14411.61
842.481	14340.65
842.805	14338.85
843.13	14310.6
843.454	14281.67
843.778	14238.74
844.103	14285.29
844.427	14077.84
844.751	14270.83
845.075	14135.69
845.399	14064.96
845.723	13955.81
846.047	14028.12
846.371	13921.91
846.695	13858.18
847.019	13872.19
847.343	13768.69
847.666	13672.87
847.99	13598.53
848.313	13603.27
848.637	13539.55
848.96	13467.23
849.284	13404.18
849.607	13414.58
849.931	13389.04
850.254	13214.13
850.577	13142.72
850.9	13079.44
851.223	13177.29
851.546	13030.41
851.869	12984.76
852.192	12948.6
852.515	12814.59
852.838	12853.24
853.161	12825.21
853.483	12721.04
853.806	12707.25
854.129	12651.21
854.451	12654.82
854.774	12522.85
855.096	12529.4
855.419	12507.03
855.741	12422.06
856.063	12409.18
856.385	12403.76
856.708	12355.4
857.03	12298.22
857.352	12172.35
857.674	12268.17
857.996	12100.71
858.318	12111.33
858.64	12140.26
858.961	12053.93
859.283	12043.77
859.605	11994.73
859.926	11991.34
860.248	11915.41
860.57	11925.8
860.891	11995.4
861.212	11876.54
861.534	11822.08
861.855	11731.46
862.176	11778.24
862.498	11769.42
862.819	11683.1
863.14	11653.27
863.461	11664.79
863.782	11626.38
864.103	11607.39
864.424	11612.14
864.745	11661.85
865.065	11570.11
865.386	11484.23
865.707	11492.37
866.027	11556.32
866.348	11432.93
866.668	11494.18
866.989	11448.75
867.309	11351.35
867.63	11407.62
867.95	11360.85
868.27	11293.5
868.59	11322.2
868.91	11312.94
869.23	11270.68
869.55	11215.99
869.87	11319.72
870.19	11251.24
870.51	11275.65
870.83	11248.53
871.15	11140.06
871.469	11117.46
871.789	11191.58
872.109	11123.34
872.428	11095.99
872.748	11086.5
873.067	11063.68
873.386	11120.17
873.706	11008.76
874.025	11006.5
874.344	10957.47
874.663	11029.78
874.982	10982.78
875.301	10958.14
875.62	10851.48
875.939	10879.05
876.258	10907.75
876.577	10805.83
876.896	10771.93
877.214	10804.48
877.533	10771.03
877.852	10783.01
878.17	10756.57
878.489	10801.31
878.807	10781.43
879.125	10748.88
879.444	10719.73
879.762	10694.87
880.08	10703.69
880.398	10660.52
880.716	10676.12
881.034	10598.61
881.352	10584.37
881.67	10596.35
881.988	10542.11
882.306	10522.22
882.624	10529.45
882.941	10407.88
883.259	10437.71
883.577	10413.98
883.894	10366.52
884.212	10413.3
884.529	10317.71
884.846	10389.8
885.164	10278.84
885.481	10279.29
885.798	10268.22
886.115	10201.55
886.432	10160.65
886.75	10285.85
887.067	10187.09
887.383	10129.24
887.7	10167.88
888.017	10158.84
888.334	10091.95
888.651	10037.72
888.967	9965.63
889.284	9950.03
889.6	9942.58
889.917	9836.37
890.233	9933.99
890.55	9801.34
890.866	9858.74
891.182	9818.29
891.498	9813.32
891.815	9763.83
892.131	9747.55
892.447	9787.1
892.763	9638.86
893.079	9719.76
893.395	9636.82
893.71	9604.51
894.026	9591.85
894.342	9500.33
894.657	9463.95
894.973	9504.85
895.289	9407.68
895.604	9449.94
895.92	9373.78
896.235	9341.01
896.55	9325.42
896.865	9310.73
897.181	9219.66
897.496	9228.25
897.811	9231.86
898.126	9191.86
898.441	9187.12
898.756	9059.44
899.071	9042.49
899.386	9063.96
899.7	9064.18
900.015	8975.15
900.33	8938.99
900.644	8875.94
900.959	8897.18
901.273	8859.67
901.588	8803.62
901.902	8769.95
902.216	8780.12
902.531	8752.1
902.845	8699.22
903.159	8713.91
903.473	8634.82
903.787	8482.5
904.101	8511.43
904.415	8498.1
904.729	8434.59
905.042	8384.43
905.356	8410.87
905.67	8436.4
905.984	8346.91
906.297	8362.73
906.611	8275.5
906.924	8294.71
907.237	8256.52
907.551	8264.66
907.864	8185.56
908.177	8210.42
908.491	8147.82
908.804	8080.71
909.117	8091.33
909.43	8020.37
909.743	8033.7
910.056	7988.96
910.368	7921.16
910.681	7957.32
910.994	7865.34
911.307	7816.76
911.619	7784.44
911.932	7781.28
912.244	7725.23
912.557	7765.91
912.869	7670.09
913.181	7662.64
913.494	7580.15
913.806	7546.93
914.118	7507.39
914.43	7513.71
914.742	7499.93
915.054	7427.84
915.366	7440.27
915.678	7419.25
915.99	7358.01
916.302	7289.99
916.613	7351.46
916.925	7236.89
917.236	7198.02
917.548	7197.79
917.859	7218.36
918.171	7118.7
918.482	7093.16
918.794	7100.62
919.105	7090
919.416	7024.69
919.727	7045.93
920.038	6963.9
920.349	6943.79
920.66	6905.6
920.971	6854.98
921.282	6855.65
921.593	6833.96
921.903	6771.14
922.214	6762.77
922.525	6774.07
922.835	6732.49
923.146	6683.68
923.456	6638.71
923.767	6603
924.077	6559.39
924.387	6519.39
924.697	6556.9
925.008	6517.81
925.318	6479.39
925.628	6418.38
925.938	6494.76
926.248	6366.85
926.558	6411.82
926.867	6316.91
927.177	6278.04
927.487	6258.38
927.796	6222.45
928.106	6249.57
928.416	6205.95
928.725	6186.97
929.034	6134.54
929.344	6202.79
929.653	6172.06
929.962	6067.88
930.271	6091.15
930.581	6020.65
930.89	6017.71
931.199	5999.63
931.508	5960.31
931.817	5939.52
932.125	5876.92
932.434	5912.63
932.743	5849.58
933.051	5838.73
933.36	5836.24
933.669	5769.35
933.977	5749.47
934.286	5751.28
934.594	5735.23
934.902	5620.43
935.21	5663.37
935.519	5671.73
935.827	5608.45
936.135	5592.41
936.443	5535.01
936.751	5545.63
937.059	5517.84
937.367	5511.96
937.674	5481.68
937.982	5459.76
938.29	5431.74
938.597	5418.4
938.905	5366.65
939.213	5288.01
939.52	5316.26
939.827	5326.88
940.135	5233.1
940.442	5270.38
940.749	5240.55
941.056	5241.68
941.363	5195.36
941.67	5151.52
941.977	5143.83
942.284	5099.54
942.591	5074.23
942.898	5027
943.205	5019.54
943.511	5041.01
943.818	5033.78
944.125	4962.82
944.431	4960.79
944.738	4925.08
945.044	4917.85
945.35	4896.83
945.657	4857.06
945.963	4882.82
946.269	4835.82
946.575	4824.07
946.881	4775.48
947.187	4755.6
947.493	4747.23
947.799	4768.93
948.105	4712.88
948.41	4686.22
948.716	4657.97
949.022	4651.42
949.327	4637.41
949.633	4644.86
949.938	4609.38
950.244	4581.59
950.549	4532.55
950.854	4558.09
951.16	4518.77
951.465	4493
951.77	4493.46
952.075	4441.93
952.38	4428.37
952.685	4426.11
952.99	4384.76
953.294	4373.46
953.599	4347.47
953.904	4322.16
954.209	4329.17
954.513	4277.87
954.818	4281.94
955.122	4288.04
955.426	4185.67
955.731	4211.65
956.035	4205.33
956.339	4199.45
956.643	4149.28
956.948	4148.61
957.252	4131.88
957.556	4117.42
957.86	4104.99
958.163	4058.66
958.467	4061.15
958.771	4044.88
959.075	4046.69
959.378	4019.57
959.682	4010.76
959.985	3951.1
960.289	3966.69
960.592	3936.63
960.896	3920.59
961.199	3922.4
961.502	3865.45
961.805	3855.05
962.108	3832.91
962.411	3830.42
962.714	3777.32
963.017	3800.59
963.32	3790.42
963.623	3775.28
963.926	3765.79
964.228	3710.65
964.531	3730.09
964.833	3693.7
965.136	3695.74
965.438	3693.7
965.741	3652.35
966.043	3681.95
966.345	3627.49
966.648	3577.77
966.95	3615.06
967.252	3542.75
967.554	3605.8
967.856	3586.59
968.158	3537.1
968.46	3499.36
968.761	3464.56
969.063	3497.32
969.365	3457.32
969.666	3437.21
969.968	3432.24
970.269	3417.78
970.571	3442.41
970.872	3372.58
971.174	3366.48
971.475	3354.5
971.776	3373.26
972.077	3373.48
972.378	3321.06
972.679	3310.66
972.98	3317.44
973.281	3319.02
973.582	3259.82
973.883	3241.51
974.183	3249.87
974.484	3255.75
974.785	3220.27
975.085	3188.63
975.386	3205.58
975.686	3148.63
975.986	3145.02
976.287	3143.43
976.587	3127.39
976.887	3121.74
977.187	3090.55
977.487	3085.81
977.787	3083.32
978.087	3063.89
978.387	3049.88
978.687	3034.96
978.987	2986.83
979.286	2969.43
979.586	3000.39
979.885	2954.51
980.185	2937.79
980.484	2942.54
980.784	2931.69
981.083	2912.25
981.382	2914.06
981.682	2903.89
981.981	2886.49
982.28	2845.59
982.579	2845.59
982.878	2850.11
983.177	2830.45
983.475	2825.7
983.774	2814.63
984.073	2767.62
984.372	2775.76
984.67	2794.29
984.969	2769.21
985.267	2758.59
985.566	2764.69
985.864	2725.59
986.162	2680.62
986.461	2690.56
986.759	2677.68
987.057	2686.27
987.355	2651.7
987.653	2656.67
987.951	2629.78
988.249	2601.08
988.547	2599.95
988.844	2600.62
989.142	2627.06
989.44	2608.76
989.737	2578.48
990.035	2545.71
990.332	2556.78
990.63	2514.07
990.927	2556.33
991.224	2507.29
991.521	2489.89
991.819	2504.58
992.116	2458.25
992.413	2482.66
992.71	2440.18
993.006	2450.35
993.303	2425.04
993.6	2437.92
993.897	2410.12
994.193	2394.98
994.49	2382.55
994.787	2389.78
995.083	2404.02
995.379	2315.43
995.676	2325.38
995.972	2336.22
996.268	2310.24
996.565	2330.12
996.861	2316.56
997.157	2295.1
997.453	2287.41
997.749	2271.14
998.044	2258.49
998.34	2247.19
998.636	2226.4
998.932	2236.11
999.227	2218.26
999.523	2231.37
999.818	2154.08
1000.114	2172.39
1000.409	2146.62
1000.704	2159.51
1001	2125.16
1001.295	2132.61
1001.59	2107.3
1001.885	2097.59
1002.18	2094.87
1002.475	2105.95
1002.77	2059.62
1003.065	2058.27
1003.359	2012.16
1003.654	2042.45
1003.949	2013.52
1004.243	1978.72
1004.538	1999.28
1004.832	2009.68
1005.127	1981.2
1005.421	1983.24
1005.715	1938.72
1006.009	1970.36
1006.304	1922.68
1006.598	1937.14
1006.892	1936.23
1007.186	1913.41
1007.48	1900.53
1007.773	1927.87
1008.067	1894.2
1008.361	1872.28
1008.655	1858.5
1008.948	1835.67
1009.242	1818.5
1009.535	1822.57
1009.829	1830.47
1010.122	1818.5
1010.415	1773.75
1010.708	1770.59
1011.001	1778.05
1011.295	1748.22
1011.588	1749.12
1011.881	1726.52
1012.173	1729.91
1012.466	1700.08
1012.759	1716.35
1013.052	1692.62
1013.344	1718.84
1013.637	1685.85
1013.93	1679.74
1014.222	1690.37
1014.514	1649.24
1014.807	1642
1015.099	1629.8
1015.391	1643.36
1015.683	1637.71
1015.976	1597.26
1016.268	1599.07
1016.56	1565.85
1016.851	1578.05
1017.143	1562.01
1017.435	1568.79
1017.727	1530.82
1018.018	1518.17
1018.31	1516.58
1018.602	1554.78
1018.893	1527.21
1019.185	1498.73
1019.476	1470.71
1019.767	1468
1020.058	1472.52
1020.35	1427.77
1020.641	1456.92
1020.932	1457.38
1021.223	1425.51
1021.514	1440.65
1021.804	1403.14
1022.095	1383.03
1022.386	1381.9
1022.677	1386.42
1022.967	1404.5
1023.258	1367.66
1023.548	1369.7
1023.839	1349.13
1024.129	1366.31
1024.419	1345.29
1024.709	1329.24
1025	1288.34
1025.29	1295.12
1025.58	1309.81
1025.87	1287.44
1026.16	1269.36
1026.449	1273.43
1026.739	1284.73
1027.029	1269.59
1027.319	1244.73
1027.608	1266.65
1027.898	1248.57
1028.187	1214.22
1028.477	1243.6
1028.766	1210.6
1029.055	1199.3
1029.344	1221.22
1029.634	1202.69
1029.923	1189.36
1030.212	1170.15
1030.501	1197.04
1030.79	1138.29
1031.078	1132.87
1031.367	1132.19
1031.656	1125.18
1031.945	1100.78
1032.233	1115.69
1032.522	1122.92
1032.81	1114.11
1033.099	1082.7
1033.387	1113.66
1033.675	1079.76
1033.963	1071.85
1034.251	1092.87
1034.54	1038.18
1034.828	1049.25
1035.116	1051.06
1035.403	1045.64
1035.691	1042.7
1035.979	1020.55
1036.267	1024.39
1036.554	1012.64
1036.842	985.75
1037.129	1013.09
1037.417	1003.38
1037.704	981.23
1037.992	986.43
1038.279	966.09
1038.566	971.29
1038.853	971.29
1039.14	971.29
