Data from hue_270_FLMS001491_00072.txt Node
Date: Tue Feb 07 15:57:40 GMT 2017
User: dcchb
Spectrometer: FLMS00149
Trigger mode: 0
Integration Time (sec): 2.000000E-2
Scans to average: 10
Electric dark correction enabled: true
Nonlinearity correction enabled: false
Boxcar width: 0
XAxis mode: Wavelengths
Number of Pixels in Spectrum: 2048
>>>>>Begin Spectral Data<<<<<
341.393	2.8
341.776	2.8
342.16	2.8
342.543	-62.06
342.927	-85.34
343.31	-54.6
343.693	-56.18
344.077	-73.36
344.46	-56.41
344.843	-48.05
345.226	-30.65
345.61	-36.07
345.993	-25.68
346.376	-2.4
346.759	3.7
347.142	25.62
347.525	43.47
347.908	60.42
348.291	50.93
348.674	99.97
349.057	99.29
349.44	111.27
349.823	137.71
350.206	141.32
350.588	192.62
350.971	194.88
351.354	233.52
351.737	224.03
352.119	246.63
352.502	258.61
352.884	262.45
353.267	270.59
353.65	286.63
354.032	292.28
354.414	283.92
354.797	324.14
355.179	295.9
355.562	314.2
355.944	313.75
356.326	309.68
356.709	317.14
357.091	309.91
357.473	310.36
357.855	320.53
358.238	339.96
358.62	339.28
359.002	323.01
359.384	321.43
359.766	323.92
360.148	337.25
360.53	336.8
360.912	311.94
361.294	345.61
361.676	323.01
362.057	307.2
362.439	313.52
362.821	313.75
363.203	329.79
363.584	313.97
363.966	319.4
364.348	318.04
364.729	299.29
365.111	317.82
365.493	311.04
365.874	296.57
366.256	297.93
366.637	307.42
367.019	299.51
367.4	309.23
367.781	288.66
368.163	307.2
368.544	307.87
368.925	296.8
369.306	302.9
369.688	311.04
370.069	305.61
370.45	304.71
370.831	303.58
371.212	307.42
371.593	292.28
371.974	327.08
372.355	312.84
372.736	342
373.117	309.23
373.498	312.39
373.879	291.6
374.26	302.22
374.641	306.74
375.021	300.42
375.402	308.78
375.783	322.11
376.163	310.13
376.544	333.86
376.925	313.07
377.305	325.73
377.686	320.53
378.066	327.53
378.447	319.17
378.827	319.4
379.208	320.53
379.588	301.77
379.968	328.21
380.349	323.47
380.729	323.01
381.109	319.85
381.489	339.06
381.87	319.4
382.25	324.6
382.63	326.4
383.01	328.66
383.39	344.03
383.77	346.29
384.15	322.11
384.53	330.92
384.91	350.81
385.29	346.52
385.67	337.25
386.049	326.86
386.429	345.16
386.809	345.84
387.189	344.48
387.568	366.18
387.948	363.47
388.328	351.71
388.707	342.22
389.087	354.2
389.466	344.03
389.846	341.77
390.225	358.27
390.605	385.61
390.984	349.68
391.363	363.92
391.743	380.41
392.122	363.24
392.501	386.97
392.881	376.8
393.26	352.84
393.639	370.02
394.018	368.21
394.397	373.63
394.776	366.4
395.155	374.99
395.534	368.21
395.913	390.58
396.292	383.13
396.671	379.51
397.05	401.66
397.429	389.68
397.808	378.15
398.186	394.42
398.565	416.57
398.944	392.62
399.323	377.02
399.701	414.99
400.08	433.52
400.458	412.05
400.837	421.54
401.215	425.16
401.594	426.51
401.972	419.96
402.351	416.12
402.729	444.59
403.107	431.94
403.486	421.09
403.864	421.99
404.242	425.84
404.62	460.41
404.999	447.3
405.377	444.82
405.755	448.89
406.133	459.51
406.511	471.26
406.889	452.05
407.267	487.98
407.645	473.74
408.023	476.46
408.401	468.32
408.779	476.46
409.156	500.41
409.534	496.34
409.912	494.76
410.29	508.55
410.667	516.91
411.045	480.3
411.422	520.3
411.8	518.26
412.178	536.34
412.555	544.7
412.933	554.87
413.31	565.72
413.687	563.46
414.065	592.16
414.442	592.84
414.819	584.93
415.197	585.15
415.574	585.61
415.951	593.52
416.328	624.48
416.705	627.41
417.082	610.92
417.46	624.02
417.837	641.65
418.214	636
418.591	668.77
418.967	628.77
419.344	654.3
419.721	674.64
420.098	674.19
420.475	691.37
420.852	679.61
421.228	693.17
421.605	721.65
421.982	728.65
422.358	724.13
422.735	750.57
423.111	742.21
423.488	777.01
423.864	767.3
424.241	796.67
424.617	797.58
424.994	819.05
425.37	813.62
425.746	822.89
426.123	832.61
426.499	851.59
426.875	853.17
427.251	866.95
427.627	876.9
428.003	885.26
428.379	885.94
428.756	882.1
429.132	899.27
429.507	908.31
429.883	929.1
430.259	951.02
430.635	931.13
431.011	956.22
431.387	972.94
431.763	999.15
432.138	1002.77
432.514	1040.96
432.89	1023.79
433.265	1019.72
433.641	1080.73
434.016	1056.1
434.392	1097.23
434.767	1120.73
435.143	1137
435.518	1141.52
435.894	1157.34
436.269	1170.45
436.644	1210.67
437.02	1186.04
437.395	1198.02
437.77	1195.99
438.145	1260.39
438.52	1244.35
438.895	1282.76
439.271	1282.99
439.646	1292.71
440.021	1335.19
440.395	1350.78
440.77	1365.92
441.145	1362.31
441.52	1392.14
441.895	1415.41
442.27	1407.96
442.645	1412.93
443.019	1440.5
443.394	1411.35
443.769	1450.22
444.143	1443.89
444.518	1507.62
444.892	1446.6
445.267	1499.71
445.641	1500.84
446.016	1524.56
446.39	1518.69
446.764	1549.42
447.139	1518.91
447.513	1527.95
447.887	1542.87
448.262	1535.19
448.636	1560.04
449.01	1610.66
449.384	1591.68
449.758	1606.82
450.132	1621.74
450.506	1640.49
450.88	1615.64
451.254	1625.8
451.628	1666.93
452.002	1684.56
452.376	1697.22
452.75	1689.31
453.123	1691.57
453.497	1756.87
453.871	1776.99
454.244	1774.5
454.618	1772.47
454.992	1803.88
455.365	1780.38
455.739	1837.78
456.112	1869.87
456.486	1885.01
456.859	1894.95
457.232	1926.59
457.606	1894.95
457.979	1892.01
458.352	1971.11
458.725	1981.73
459.099	1997.77
459.472	2011.56
459.845	2032.12
460.218	2033.03
460.591	2052.69
460.964	2069.18
461.337	2104.89
461.71	2152.57
462.083	2172.91
462.456	2162.29
462.829	2159.58
463.201	2182.17
463.574	2221.27
463.947	2225.11
464.32	2301.27
464.692	2268.95
465.065	2283.87
465.438	2329.52
465.81	2350.98
466.183	2377.88
466.555	2391.89
466.928	2425.11
467.3	2442.28
467.672	2467.82
468.045	2541.49
468.417	2515.5
468.789	2524.54
469.161	2566.57
469.534	2573.8
469.906	2613.58
470.278	2627.36
470.65	2689.51
471.022	2685.66
471.394	2770.63
471.766	2752.55
472.138	2802.04
472.51	2832.55
472.882	2885.88
473.253	2906
473.625	2936.05
473.997	2970.4
474.369	3005.88
474.74	3037.52
475.112	3043.85
475.484	3114.13
475.855	3142.83
476.227	3158.42
476.598	3242.71
476.97	3253.33
477.341	3338.3
477.713	3376.49
478.084	3364.74
478.455	3430.05
478.827	3479.99
479.198	3536.26
479.569	3532.42
479.94	3612.19
480.311	3624.85
480.682	3705.52
481.053	3767.9
481.424	3790.04
481.795	3848.8
482.166	3928.34
482.537	3951.39
482.908	3966.53
483.279	4031.17
483.65	4079.07
484.021	4159.3
484.391	4161.33
484.762	4206.08
485.133	4229.13
485.503	4340.99
485.874	4403.81
486.244	4343.47
486.615	4429.57
486.985	4482
487.356	4581.66
487.726	4583.47
488.097	4640.87
488.467	4643.8
488.837	4694.42
489.207	4779.62
489.578	4785.95
489.948	4865.27
490.318	4924.93
490.688	4924.93
491.058	4983.91
491.428	5072.49
491.798	5071.59
492.168	5146.16
492.538	5139.16
492.908	5203.34
493.278	5260.96
493.648	5271.81
494.017	5329.66
494.387	5382.77
494.757	5410.34
495.126	5419.83
495.496	5448.3
495.866	5520.84
496.235	5519.94
496.605	5540.28
496.974	5592.71
497.344	5607.39
497.713	5631.58
498.082	5660.73
498.452	5694.4
498.821	5733.72
499.19	5759.48
499.559	5751.8
499.928	5747.28
500.298	5754.28
500.667	5816.88
501.036	5866.6
501.405	5873.6
501.774	5909.99
502.143	5900.04
502.512	5957.89
502.88	5957.89
503.249	5980.04
503.618	6040.38
503.987	6042.86
504.356	6037.44
504.724	6073.15
505.093	6095.97
505.462	6046.48
505.83	6108.17
506.199	6186.14
506.567	6226.81
506.936	6176.87
507.304	6250.32
507.672	6300.26
508.041	6326.47
508.409	6279.69
508.777	6303.87
509.145	6355.85
509.514	6367.15
509.882	6379.8
510.25	6386.58
510.618	6416.19
510.986	6427.71
511.354	6394.72
511.722	6512.91
512.09	6553.36
512.458	6493.7
512.826	6528.73
513.193	6552.23
513.561	6546.13
513.929	6577.09
514.297	6612.79
514.664	6665.45
515.032	6702.96
515.4	6683.07
515.767	6675.62
516.135	6705.67
516.502	6702.51
516.869	6746.8
517.237	6708.38
517.604	6712.22
517.972	6773.92
518.339	6791.54
518.706	6743.86
519.073	6754.03
519.44	6795.61
519.808	6822.73
520.175	6864.31
520.542	6892.78
520.909	6939.79
521.276	6882.16
521.643	6925.33
522.009	6942.5
522.376	6907.25
522.743	6962.39
523.11	6958.55
523.477	7027.7
523.843	7082.84
524.21	7111.54
524.577	7087.58
524.943	7158.77
525.31	7164.42
525.676	7170.97
526.043	7226.79
526.409	7241.7
526.776	7268.82
527.142	7262.04
527.508	7259.33
527.874	7268.14
528.241	7321.7
528.607	7341.13
528.973	7375.48
529.339	7385.2
529.705	7421.58
530.071	7440.12
530.437	7443.05
530.803	7501.13
531.169	7526.67
531.535	7397.4
531.901	7460.68
532.267	7489.15
532.632	7532.54
532.998	7564.41
533.364	7615.48
533.73	7600.34
534.095	7627.91
534.461	7550.85
534.826	7613.44
535.192	7652.54
535.557	7732.99
535.923	7607.57
536.288	7648.92
536.653	7653.44
537.019	7625.19
537.384	7720.11
537.749	7705.42
538.114	7714.01
538.479	7743.84
538.845	7684.18
539.21	7721.01
539.575	7700
539.94	7691.18
540.305	7720.33
540.67	7727.11
541.034	7758.98
541.399	7757.62
541.764	7718.98
542.129	7800.56
542.494	7792.65
542.858	7778.19
543.223	7768.47
543.587	7807.11
543.952	7829.71
544.316	7782.7
544.681	7829.26
545.045	7855.92
545.41	7889.14
545.774	7863.61
546.138	7815.92
546.503	7845.3
546.867	7834.68
547.231	7893.21
547.595	7893.89
547.959	7895.47
548.324	7870.16
548.688	7838.75
549.052	7888.92
549.416	7842.14
549.779	7829.71
550.143	7896.15
550.507	7900.89
550.871	7889.37
551.235	7971.17
551.599	7971.63
551.962	7998.74
552.326	7968.69
552.689	8044.39
553.053	7908.35
553.417	7964.62
553.78	8024.96
554.143	7987.67
554.507	8060.21
554.87	8007.78
555.234	8090.04
555.597	8036.48
555.96	8136.82
556.323	8079.19
556.686	8109.02
557.05	8185.63
557.413	8121.23
557.776	8065.64
558.139	8180.89
558.502	8179.98
558.865	8148.35
559.228	8189.02
559.59	8233.99
559.953	8238.29
560.316	8292.75
560.679	8274.9
561.041	8327.78
561.404	8416.81
561.767	8356.7
562.129	8305.86
562.492	8442.8
562.854	8364.84
563.217	8451.84
563.579	8442.35
563.941	8521.89
564.304	8508.11
564.666	8537.26
565.028	8566.87
565.39	8577.26
565.753	8581.33
566.115	8653.42
566.477	8699.74
566.839	8648.67
567.201	8767.09
567.563	8742.45
567.925	8775.22
568.287	8792.17
568.648	8868.1
569.01	8875.56
569.372	8942.22
569.734	8888.66
570.095	8917.36
570.457	9004.59
570.819	8957.36
571.18	9010.24
571.542	9095.21
571.903	9047.08
572.265	9103.57
572.626	9127.3
572.987	9089.11
573.349	9161.2
573.71	9250.46
574.071	9186.28
574.432	9258.37
574.794	9330.69
575.155	9337.69
575.516	9355.32
575.877	9342.89
576.238	9422.66
576.599	9457.69
576.96	9480.74
577.32	9387.63
577.681	9481.42
578.042	9535.2
578.403	9557.12
578.763	9534.52
579.124	9604.8
579.485	9685.25
579.845	9723.22
580.206	9622.88
580.566	9666.05
580.927	9752.82
581.287	9812.26
581.648	9830.33
582.008	9802.99
582.368	9846.38
582.728	9888.19
583.089	9951.69
583.449	9970.9
583.809	9954.4
584.169	9987.84
584.529	10040.95
584.889	10055.64
585.249	10053.61
585.609	10045.47
585.969	10101.51
586.329	10099.48
586.688	10134.51
587.048	10185.35
587.408	10233.49
587.768	10214.96
588.127	10164.11
588.487	10201.4
588.846	10327.04
589.206	10340.83
589.565	10338.34
589.925	10432.13
590.284	10351
590.643	10440.71
591.003	10522.97
591.362	10483.88
591.721	10474.39
592.08	10535.63
592.44	10579.47
592.799	10525.68
593.158	10605
593.517	10633.25
593.876	10645.68
594.235	10613.14
594.593	10649.07
594.952	10727.49
595.311	10671.44
595.67	10680.71
596.029	10807.26
596.387	10794.6
596.746	10790.99
597.104	10842.51
597.463	10819.01
597.822	10837.77
598.18	10854.49
598.538	10798.44
598.897	10919.35
599.255	10781.5
599.613	10947.59
599.972	10972.68
600.33	11027.59
600.688	10957.54
601.046	11000.93
601.404	11078.89
601.762	11041.6
602.12	11035.5
602.478	11077.99
602.836	11077.99
603.194	11019.68
603.552	11082.05
603.91	10999.57
604.268	11072.79
604.625	11027.82
604.983	11093.35
605.341	11045.9
605.698	11081.38
606.056	11191.2
606.413	11148.72
606.771	11182.16
607.128	11105.33
607.485	11108.27
607.843	11142.62
608.2	11191.65
608.557	11229.39
608.914	11155.95
609.272	11236.85
609.629	11291.31
609.986	11292.9
610.343	11202.73
610.7	11301.93
611.057	11356.4
611.414	11315.72
611.771	11342.16
612.127	11365.66
612.484	11374.93
612.841	11347.58
613.198	11415.38
613.554	11366.11
613.911	11416.28
614.267	11441.14
614.624	11493.34
614.98	11354.14
615.337	11470.07
615.693	11467.35
616.05	11482.49
616.406	11551.65
616.762	11464.19
617.118	11436.85
617.475	11468.03
617.831	11592.32
618.187	11606.11
618.543	11561.81
618.899	11618.76
619.255	11699.44
619.611	11554.81
619.967	11626.9
620.323	11652.43
620.678	11570.18
621.034	11646.56
621.39	11582.61
621.746	11576.5
622.101	11756.39
622.457	11630.06
622.812	11553.68
623.168	11611.3
623.523	11623.73
623.879	11643.39
624.234	11566.33
624.589	11560.23
624.945	11679.1
625.3	11684.07
625.655	11634.58
626.01	11583.96
626.365	11649.04
626.72	11673
627.075	11619.67
627.43	11629.16
627.785	11589.61
628.14	11619.44
628.495	11571.53
628.85	11566.79
629.205	11556.39
629.559	11587.8
629.914	11546.67
630.269	11582.38
630.623	11547.8
630.978	11412.89
631.332	11502.38
631.687	11588.03
632.041	11520.69
632.396	11553.68
632.75	11442.27
633.104	11516.62
633.459	11379.22
633.813	11433.46
634.167	11445.66
634.521	11322.05
634.875	11423.29
635.229	11405.21
635.583	11348.03
635.937	11369.28
636.291	11320.47
636.645	11396.4
636.999	11335.83
637.352	11336.51
637.706	11274.82
638.06	11322.72
638.413	11250.86
638.767	11260.58
639.121	11302.61
639.474	11247.47
639.828	11173.12
640.181	11213.8
640.534	11198.89
640.888	11194.59
641.241	11176.97
641.594	11172.67
641.947	11172.45
642.301	11199.34
642.654	11215.16
643.007	11121.6
643.36	11124.76
643.713	11116.18
644.066	11153.69
644.419	11101.49
644.771	11087.48
645.124	11024.43
645.477	10944.66
645.83	10862.4
646.182	10785.79
646.535	10782.17
646.888	10803.42
647.24	10670.99
647.593	10706.7
647.945	10767.26
648.298	10699.92
648.65	10715.74
649.002	10666.47
649.355	10706.92
649.707	10748.05
650.059	10766.36
650.411	10905.79
650.763	10833.25
651.115	11056.29
651.467	11035.05
651.819	10920.7
652.171	10939.91
652.523	10917.76
652.875	10941.94
653.227	10875.51
653.578	11026.46
653.93	10961.83
654.282	10951.21
654.633	10862.62
654.985	10910.31
655.337	10950.98
655.688	10941.04
656.039	10950.08
656.391	10873.25
656.742	10952.79
657.094	10986.46
657.445	10998.67
657.796	10932
658.147	10954.15
658.498	10937.2
658.849	10919.12
659.2	10959.57
659.551	10920.93
659.902	10998.21
660.253	10960.25
660.604	10971.32
660.955	10959.8
661.306	10947.14
661.656	10935.62
662.007	10917.31
662.358	10962.51
662.708	10952.79
663.059	10899.69
663.409	10886.13
663.76	10911.66
664.11	10912.57
664.461	10989.4
664.811	10902.4
665.161	10917.31
665.511	10914.83
665.862	10974.71
666.212	11010.64
666.562	11016.29
666.912	10950.98
667.262	10984.88
667.612	10981.26
667.962	11015.84
668.312	11008.61
668.662	11029.63
669.011	10923.87
669.361	10865.11
669.711	10927.48
670.06	10998.44
670.41	10887.71
670.76	10922.96
671.109	10960.02
671.459	10904.88
671.808	10896.52
672.157	10935.39
672.507	10823.3
672.856	10847.71
673.205	10896.75
673.554	10870.99
673.904	10819.69
674.253	10903.75
674.602	10892.45
674.951	10664.44
675.3	10639.8
675.649	10795.28
675.998	10790.31
676.346	10841.61
676.695	10853.13
677.044	10740.14
677.393	10789.18
677.741	10818.11
678.09	10734.04
678.438	10792.8
678.787	10762.51
679.135	10750.31
679.484	10595.51
679.832	10755.51
680.181	10621.27
680.529	10679.8
680.877	10655.62
681.225	10611.78
681.573	10616.53
681.922	10578.79
682.27	10473.03
682.618	10541.73
682.966	10555.97
683.314	10535.63
683.661	10491.11
684.009	10449.98
684.357	10427.61
684.705	10419.92
685.053	10397.78
685.4	10437.32
685.748	10361.85
686.095	10311.9
686.443	10339.93
686.79	10304.67
687.138	10255.63
687.485	10294.05
687.832	10205.01
688.18	10222.64
688.527	10124.79
688.874	10134.73
689.221	10061.97
689.568	10022.19
689.915	10048.86
690.262	9989.88
690.609	10048.18
690.956	9967.73
691.303	9931.35
691.65	9926.6
691.997	9903.78
692.344	9858.81
692.69	9817.68
693.037	9848.41
693.383	9676.21
693.73	9782.2
694.077	9673.05
694.423	9707.4
694.769	9692.49
695.116	9681.64
695.462	9581.3
695.808	9597.8
696.155	9551.02
696.501	9457.46
696.847	9493.62
697.193	9452.72
697.539	9495.65
697.885	9362.1
698.231	9329.1
698.577	9319.16
698.923	9250.01
699.269	9225.38
699.614	9177.7
699.96	9157.81
700.306	9200.97
700.651	9085.5
700.997	9021.09
701.342	9113.97
701.688	9033.75
702.033	8991.26
702.379	9043.46
702.724	8984.93
703.069	8924.37
703.415	8873.98
703.76	8833.52
704.105	8839.85
704.45	8812.06
704.795	8718.05
705.14	8702.23
705.485	8772.96
705.83	8681.44
706.175	8707.65
706.52	8617.49
706.865	8568.45
707.209	8602.57
707.554	8568.22
707.899	8560.54
708.243	8528
708.588	8484.83
708.932	8440.54
709.277	8459.98
709.621	8414.1
709.966	8379.75
710.31	8425.4
710.654	8283.03
710.998	8332.3
711.342	8291.17
711.687	8323.71
712.031	8271.28
712.375	8239.42
712.719	8243.03
713.063	8215.46
713.407	8236.48
713.75	8175.01
714.094	8238.29
714.438	8181.79
714.782	8156.71
715.125	8156.93
715.469	8118.74
715.812	8115.8
716.156	8004.39
716.499	8099.31
716.843	8171.17
717.186	8038.74
717.53	8041
717.873	8083.04
718.216	8060.21
718.559	8014.56
718.902	7924.17
719.246	7965.75
719.589	7879.43
719.932	7857.05
720.275	7938.41
720.617	7974.56
720.96	7930.27
721.303	7900.89
721.646	7910.39
721.989	7838.3
722.331	7866.54
722.674	7801.24
723.016	7863.38
723.359	7831.29
723.701	7815.02
724.044	7776.38
724.386	7766.21
724.729	7743.84
725.071	7784.06
725.413	7794
725.755	7734.57
726.097	7734.57
726.439	7710.62
726.782	7760.11
727.124	7784.06
727.465	7757.17
727.807	7776.15
728.149	7749.94
728.491	7715.36
728.833	7679.2
729.175	7711.29
729.516	7652.76
729.858	7671.07
730.199	7690.28
730.541	7701.13
730.882	7682.82
731.224	7677.17
731.565	7650.05
731.906	7647.12
732.248	7631.52
732.589	7616.38
732.93	7668.13
733.271	7656.38
733.612	7706.55
733.953	7641.47
734.294	7638.75
734.635	7503.62
734.976	7615.93
735.317	7607.12
735.658	7607.57
735.999	7616.16
736.339	7668.58
736.68	7646.44
737.021	7610.73
737.361	7594.24
737.702	7633.78
738.042	7657.06
738.383	7600.11
738.723	7667.91
739.063	7595.59
739.404	7703.61
739.744	7684.63
740.084	7667.23
740.424	7655.02
740.764	7702.71
741.104	7717.85
741.444	7665.19
741.784	7709.94
742.124	7741.12
742.464	7757.62
742.804	7772.76
743.143	7740.67
743.483	7751.29
743.823	7781.35
744.162	7794.46
744.502	7794.46
744.841	7847.56
745.181	7901.57
745.52	7899.09
745.86	7954.45
746.199	7935.24
746.538	7994.68
746.877	8056.14
747.216	8095.01
747.556	8132.3
747.895	8197.38
748.234	8183.15
748.573	8146.99
748.911	8220.89
749.25	8296.59
749.589	8265.18
749.928	8455.91
750.267	8515.34
750.605	8504.95
750.944	8583.59
751.283	8666.3
751.621	8789.23
751.96	8797.59
752.298	8909.23
752.636	9064.03
752.975	9063.8
753.313	9126.17
753.651	9206.17
753.989	9280.74
754.327	9412.04
754.666	9419.05
755.004	9692.94
755.342	9777.45
755.679	9826.49
756.017	9939.26
756.355	10086.37
756.693	10165.47
757.031	10311.68
757.368	10415.4
757.706	10651.78
758.044	10713.48
758.381	10839.12
758.719	10932.45
759.056	11143.52
759.394	11249.51
759.731	11394.59
760.068	11454.92
760.405	11696.73
760.743	11769.49
761.08	11938.3
761.417	12037.06
761.754	12271.4
762.091	12387.33
762.428	12529.7
762.765	12631.17
763.102	12912.74
763.438	12951.38
763.775	13106.18
764.112	13309.79
764.449	13560.18
764.785	13511.37
765.122	13694.41
765.458	13764.92
765.795	14016.89
766.131	14154.06
766.467	14287.62
766.804	14394.96
767.14	14435.86
767.476	14594.28
767.812	14771.67
768.148	14926.7
768.485	14992.23
768.821	15117.2
769.157	15238.1
769.492	15360.13
769.828	15415.95
770.164	15442.62
770.5	15556.29
770.836	15784.3
771.171	15861.59
771.507	15922.83
771.842	15887.35
772.178	16053
772.513	16184.29
772.849	16292.31
773.184	16374.8
773.519	16469.03
773.855	16520.78
774.19	16550.16
774.525	16519.42
774.86	16760.77
775.195	16782.02
775.53	16808.46
775.865	16885.06
776.2	16763.03
776.535	16837.83
776.87	16911.96
777.205	16903.82
777.539	16946.53
777.874	17087.32
778.209	17013.2
778.543	17137.04
778.878	17059.3
779.212	17111.27
779.547	17089.8
779.881	17209.12
780.215	17187.2
780.55	17302
780.884	17219.74
781.218	17319.86
781.552	17367.99
781.886	17325.28
782.22	17245.06
782.554	17324.6
782.888	17186.53
783.222	17112.63
783.556	17199.41
783.889	17226.52
784.223	17100.65
784.557	17077.15
784.89	17295
785.224	17181.33
785.557	17096.36
785.891	17149.01
786.224	17188.11
786.558	17184.49
786.891	17091.61
787.224	16954.67
787.557	17012.29
787.891	16999.41
788.224	17073.53
788.557	17009.36
788.89	16974.33
789.223	17112.86
789.556	16942.92
789.888	16916.02
790.221	16919.64
790.554	16799.42
790.887	16785.86
791.219	16733.2
791.552	16685.75
791.884	16855.69
792.217	16768.46
792.549	16617.95
792.882	16605.75
793.214	16579.76
793.546	16643.04
793.879	16546.32
794.211	16446.43
794.543	16587.22
794.875	16384.51
795.207	16540.44
795.539	16451.86
795.871	16536.15
796.203	16353.1
796.535	16236.72
796.867	16274.69
797.198	16246.66
797.53	16303.38
797.862	16238.75
798.193	16183.39
798.525	16074.69
798.856	16051.19
799.188	15937.29
799.519	15874.24
799.85	15837.18
800.182	15876.96
800.513	15899.78
800.844	15798.99
801.175	15832.89
801.506	15846.22
801.837	15714.47
802.168	15743.63
802.499	15702.95
802.83	15564.87
803.161	15556.74
803.491	15668.83
803.822	15597.64
804.153	15413.01
804.483	15368.72
804.814	15316.74
805.145	15392.67
805.475	15367.59
805.805	15252.79
806.136	15220.7
806.466	15288.27
806.796	15337.53
807.126	15109.29
807.457	15054.6
807.787	15163.08
808.117	15109.29
808.447	14980.03
808.777	15135.05
809.107	15001.95
809.436	15021.61
809.766	14978
810.096	14903.42
810.426	14866.59
810.755	14872.91
811.085	14834.5
811.414	14851.45
811.744	14717.21
812.073	14776.19
812.403	14710.43
812.732	14699.36
813.061	14711.56
813.39	14586.82
813.719	14543.43
814.049	14669.53
814.378	14497.33
814.707	14503.43
815.036	14514.28
815.365	14401.29
815.693	14308.18
816.022	14409.88
816.351	14343.66
816.68	14273.38
817.008	14331.46
817.337	14167.17
817.665	14104.8
817.994	14113.61
818.322	14228.41
818.651	14114.52
818.979	14067.06
819.307	14182.08
819.636	14051.01
819.964	14036.78
820.292	14060.51
820.62	14081.07
820.948	13947.51
821.276	14037.91
821.604	14022.09
821.932	14032.71
822.259	14046.72
822.587	13951.36
822.915	13965.59
823.243	13994.07
823.57	13916.1
823.898	14053.27
824.225	13916.55
824.553	13912.94
824.88	13891.02
825.207	13977.34
825.535	13915.65
825.862	14046.72
826.189	13978.25
826.516	13973.05
826.843	13985.25
827.17	14028.87
827.497	14006.72
827.824	13966.72
828.151	14066.61
828.478	14047.4
828.805	14081.52
829.131	13994.75
829.458	14022.77
829.785	13914.75
830.111	14023.22
830.438	14113.61
830.764	14005.82
831.09	14002.2
831.417	14003.33
831.743	13999.49
832.069	13973.73
832.395	13926.5
832.722	13868.42
833.048	13914.3
833.374	13978.25
833.7	13903.22
834.026	13828.65
834.351	14022.54
834.677	13880.4
835.003	13898.7
835.329	13932.83
835.654	13883.34
835.98	13856.67
836.306	13828.65
836.631	13799.04
836.956	13884.24
837.282	13848.99
837.607	13726.96
837.932	13729.89
838.258	13720.4
838.583	13648.31
838.908	13617.13
839.233	13677.69
839.558	13672.72
839.883	13605.83
840.208	13552.27
840.533	13525.15
840.858	13496
841.182	13551.82
841.507	13497.81
841.832	13414.87
842.156	13413.29
842.481	13362.9
842.805	13428.43
843.13	13383.01
843.454	13364.71
843.778	13281.09
844.103	13281.77
844.427	13112.73
844.751	13302.79
845.075	13215.1
845.399	13249.45
845.723	13118.61
846.047	13120.19
846.371	13011.27
846.695	12881.78
847.019	12851.95
847.343	12754.1
847.666	12769.92
847.99	12743.48
848.313	12701.45
848.637	12624.39
848.96	12509.13
849.284	12474.33
849.607	12494.22
849.931	12415.35
850.254	12361.57
850.577	12328.12
850.9	12241.8
851.223	12181.23
851.546	12151.63
851.869	12043.38
852.192	12137.17
852.515	12028.7
852.838	11948.7
853.161	11997.74
853.483	11897.85
853.806	11872.09
854.129	11843.84
854.451	11740.57
854.774	11696.05
855.096	11656.95
855.419	11759.78
855.741	11626.22
856.063	11639.1
856.385	11612.89
856.708	11553
857.03	11531.98
857.352	11556.39
857.674	11411.76
857.996	11389.84
858.318	11383.97
858.64	11346.23
858.961	11299
859.283	11301.48
859.605	11239.34
859.926	11211.54
860.248	11218.32
860.57	11138.77
860.891	11259.45
861.212	11132.9
861.534	11105.1
861.855	11040.25
862.176	11074.6
862.498	11025.33
862.819	11061.94
863.14	10943.07
863.461	10944.66
863.782	10927.48
864.103	10979.46
864.424	10941.04
864.745	10901.49
865.065	10901.04
865.386	10776.75
865.707	10823.53
866.027	10819.91
866.348	10771.78
866.668	10737.43
866.989	10756.86
867.309	10685.68
867.63	10735.62
867.95	10648.17
868.27	10608.39
868.59	10640.71
868.91	10590.31
869.23	10662.18
869.55	10539.02
869.87	10602.52
870.19	10605.68
870.51	10559.36
870.83	10521.84
871.15	10468.96
871.469	10494.05
871.789	10514.16
872.109	10467.15
872.428	10457.21
872.748	10466.25
873.067	10488.85
873.386	10462.41
873.706	10387.61
874.025	10340.6
874.344	10322.53
874.663	10253.6
874.982	10363.65
875.301	10306.93
875.62	10284.79
875.939	10178.12
876.258	10219.25
876.577	10253.15
876.896	10212.02
877.214	10135.64
877.533	10258.12
877.852	10181.96
878.17	10185.13
878.489	10135.86
878.807	10117.11
879.125	10046.15
879.444	10117.33
879.762	10054.74
880.08	9995.08
880.398	10007.51
880.716	10113.94
881.034	10032.59
881.352	9983.1
881.67	9937.9
881.988	9975.19
882.306	9895.87
882.624	9888.86
882.941	9825.36
883.259	9766.83
883.577	9768.19
883.894	9804.8
884.212	9710.79
884.529	9733.39
884.846	9720.06
885.164	9670.34
885.481	9685.25
885.798	9663.56
886.115	9649.55
886.432	9636.67
886.75	9550.79
887.067	9602.32
887.383	9504.69
887.7	9513.28
888.017	9492.04
888.334	9460.85
888.651	9483.23
888.967	9442.77
889.284	9392.15
889.6	9360.74
889.917	9324.59
890.233	9339.5
890.55	9339.27
890.866	9367.97
891.182	9185.15
891.498	9220.86
891.815	9175.44
892.131	9113.07
892.447	9152.39
892.763	9088.43
893.079	9064.03
893.395	9060.64
893.71	9057.47
894.026	9013.63
894.342	8904.03
894.657	8921.21
894.973	8886.4
895.289	8862.45
895.604	8886.18
895.92	8766.18
896.235	8772.06
896.55	8751.27
896.865	8722.12
897.181	8718.05
897.496	8732.06
897.811	8625.17
898.126	8635.79
898.441	8617.03
898.756	8588.56
899.071	8495.23
899.386	8465.4
899.7	8361.45
900.015	8389.92
900.33	8366.19
900.644	8414.78
900.959	8339.75
901.273	8282.35
901.588	8255.23
901.902	8206.42
902.216	8218.85
902.531	8225.41
902.845	8118.97
903.159	8067.44
903.473	8068.57
903.787	8082.13
904.101	8017.5
904.415	7947.9
904.729	7919.88
905.042	7885.75
905.356	7884.17
905.67	7935.02
905.984	7903.38
906.297	7849.37
906.611	7727.34
906.924	7764.17
907.237	7735.02
907.551	7736.6
907.864	7645.31
908.177	7618.87
908.491	7603.27
908.804	7565.31
909.117	7514.01
909.43	7469.49
909.743	7431.3
910.056	7445.99
910.368	7427.91
910.681	7352.21
910.994	7358.54
911.307	7300.46
911.619	7211.87
911.932	7256.84
912.244	7166.22
912.557	7198.54
912.869	7151.76
913.181	7155.83
913.494	7066.11
913.806	7083.97
914.118	7084.87
914.43	6994.25
914.742	6949.28
915.054	6978.21
915.366	6947.47
915.678	6898.66
915.99	6915.38
916.302	6854.82
916.613	6828.83
916.925	6770.53
917.236	6715.16
917.548	6718.78
917.859	6742.96
918.171	6720.13
918.482	6610.53
918.794	6599.91
919.105	6590.42
919.416	6483.98
919.727	6521.04
920.038	6534.83
920.349	6492.34
920.66	6465.23
920.971	6423.19
921.282	6449.41
921.593	6358.11
921.903	6358.11
922.214	6309.07
922.525	6337.77
922.835	6265.91
923.146	6302.52
923.456	6241.73
923.767	6224.1
924.077	6220.71
924.387	6168.51
924.697	6152.92
925.008	6102.3
925.318	6026.14
925.628	6048.74
925.938	6065.24
926.248	6016.42
926.558	5941.62
926.867	5958.57
927.177	5972.36
927.487	5926.71
927.796	5858.69
928.106	5829.76
928.416	5822.98
928.725	5816.65
929.034	5809.2
929.344	5787.28
929.653	5737.11
929.962	5675.42
930.271	5695.3
930.581	5689.88
930.89	5639.94
931.199	5653.04
931.508	5589.99
931.817	5582.99
932.125	5593.84
932.434	5557
932.743	5505.7
933.051	5492.82
933.36	5428.87
933.669	5441.07
933.977	5414.18
934.286	5400.85
934.594	5450.11
934.902	5360.85
935.21	5345.48
935.519	5293.73
935.827	5314.3
936.135	5269.78
936.443	5202.89
936.751	5227.29
937.059	5163.79
937.367	5185.49
937.674	5137.58
937.982	5144.81
938.29	5108.43
938.597	5112.49
938.905	5032.04
939.213	5054.19
939.52	5094.41
939.827	5020.07
940.135	4958.6
940.442	4915.89
940.749	4928.99
941.056	4963.34
941.363	4889.22
941.67	4869.34
941.977	4860.52
942.284	4826.85
942.591	4822.33
942.898	4807.19
943.205	4791.15
943.511	4780.98
943.818	4732.62
944.125	4693.75
944.431	4716.8
944.738	4661.88
945.044	4625.95
945.35	4614.65
945.657	4586.18
945.963	4560.19
946.269	4547.54
946.575	4588.44
946.881	4506.63
947.187	4521.77
947.493	4507.99
947.799	4484.94
948.105	4441.78
948.41	4455.33
948.716	4438.39
949.022	4416.01
949.327	4362.68
949.633	4359.52
949.938	4383.02
950.244	4380.99
950.549	4286.75
950.854	4311.84
951.16	4237.94
951.465	4237.26
951.77	4201.33
952.075	4243.81
952.38	4194.32
952.685	4182.57
952.99	4150.94
953.294	4157.04
953.599	4122.91
953.904	4072.52
954.209	4024.61
954.513	4100.54
954.818	4033.65
955.122	4001.79
955.426	3993.88
955.731	3989.36
956.035	3992.07
956.339	3966.99
956.643	4026.42
956.948	3924.5
957.252	3945.97
957.556	3959.75
957.86	3879.76
958.163	3884.73
958.467	3868.46
958.771	3849.7
959.075	3849.25
959.378	3797.05
959.682	3783.04
959.985	3794.34
960.289	3786.43
960.592	3763.15
960.896	3702.81
961.199	3719.31
961.502	3706.88
961.805	3670.5
962.108	3683.83
962.411	3662.59
962.714	3632.53
963.017	3606.77
963.32	3631.85
963.623	3624.4
963.926	3552.08
964.228	3558.86
964.531	3515.7
964.833	3545.3
965.136	3502.59
965.438	3496.94
965.741	3499.2
966.043	3456.94
966.345	3410.62
966.648	3439.09
966.95	3405.64
967.252	3406.77
967.554	3377.17
967.856	3367.68
968.158	3323.39
968.46	3350.51
968.761	3306.21
969.063	3303.73
969.365	3352.54
969.666	3315.25
969.968	3262.6
970.269	3277.96
970.571	3260.34
970.872	3259.21
971.174	3170.62
971.475	3237.29
971.776	3196.84
972.077	3165.65
972.378	3178.98
972.679	3148.7
972.98	3145.99
973.281	3104.86
973.582	3120.45
973.883	3101.02
974.183	3074.58
974.484	3085.43
974.785	3051.3
975.085	3048.82
975.386	3045.2
975.686	3025.09
975.986	2995.71
976.287	2961.59
976.587	2966.11
976.887	2956.17
977.187	2939.22
977.487	2908.48
977.787	2911.65
978.087	2902.38
978.387	2892.44
978.687	2856.73
978.987	2873
979.286	2862.83
979.586	2847.92
979.885	2816.06
980.185	2819.45
980.484	2841.59
980.784	2771.76
981.083	2767.92
981.382	2759.11
981.682	2755.49
981.981	2732.44
982.28	2716.17
982.579	2721.37
982.878	2685.89
983.177	2675.72
983.475	2670.3
983.774	2654.93
984.073	2621.48
984.372	2640.92
984.67	2668.04
984.969	2620.58
985.267	2597.98
985.566	2611.77
985.864	2580.36
986.162	2585.33
986.461	2552.11
986.759	2514.14
987.057	2517.31
987.355	2490.64
987.653	2508.72
987.951	2514.37
988.249	2486.57
988.547	2445.22
988.844	2454.48
989.142	2449.74
989.44	2454.48
989.737	2461.49
990.035	2429.17
990.332	2386.91
990.63	2422.85
990.927	2406.58
991.224	2396.63
991.521	2336.97
991.819	2374.94
992.116	2362.51
992.413	2345.11
992.71	2327.48
993.006	2305.33
993.303	2298.33
993.6	2268.5
993.897	2325.22
994.193	2295.84
994.49	2282.06
994.787	2247.48
995.083	2233.7
995.379	2243.64
995.676	2240.48
995.972	2202.51
996.268	2173.59
996.565	2182.63
996.861	2162.29
997.157	2163.19
997.453	2163.42
997.749	2162.29
998.044	2120.93
998.34	2094.27
998.636	2104.44
998.932	2072.57
999.227	2112.35
999.523	2042.52
999.818	2079.13
1000.114	2028.96
1000.409	2025.57
1000.704	2015.4
1001	2022.86
1001.295	2015.62
1001.59	2007.26
1001.885	2002.07
1002.18	1960.71
1002.475	1971.78
1002.77	1939.24
1003.065	1945.12
1003.359	1914.38
1003.654	1911.67
1003.949	1873.48
1004.243	1886.81
1004.538	1863.09
1004.832	1882.3
1005.127	1890.88
1005.421	1863.76
1005.715	1848.4
1006.009	1871
1006.304	1845.46
1006.598	1806.14
1006.892	1800.26
1007.186	1797.33
1007.48	1802.52
1007.773	1793.26
1008.067	1772.02
1008.361	1766.59
1008.655	1743.77
1008.948	1738.8
1009.242	1736.31
1009.535	1744.67
1009.829	1678.91
1010.122	1699.7
1010.415	1692.7
1010.708	1701.96
1011.001	1689.98
1011.295	1632.58
1011.588	1622.87
1011.881	1659.25
1012.173	1651.79
1012.466	1604.34
1012.759	1602.3
1013.052	1610.44
1013.344	1602.3
1013.637	1558.01
1013.93	1595.3
1014.222	1593.26
1014.514	1552.36
1014.807	1527.73
1015.099	1538.12
1015.391	1518.69
1015.683	1507.16
1015.976	1528.41
1016.268	1493.38
1016.56	1470.55
1016.851	1464.68
1017.143	1461.06
1017.435	1502.42
1017.727	1472.36
1018.018	1474.17
1018.31	1422.65
1018.602	1445.02
1018.893	1414.96
1019.185	1385.59
1019.476	1398.01
1019.767	1399.37
1020.058	1386.94
1020.35	1365.02
1020.641	1377
1020.932	1355.08
1021.223	1343.78
1021.514	1354.4
1021.804	1333.83
1022.095	1320.28
1022.386	1343.78
1022.677	1298.36
1022.967	1300.62
1023.258	1271.69
1023.548	1254.29
1023.839	1263.33
1024.129	1266.27
1024.419	1259.94
1024.709	1227.17
1025	1213.16
1025.29	1236.89
1025.58	1232.82
1025.87	1216.55
1026.16	1202.76
1026.449	1176.78
1026.739	1205.25
1027.029	1177.45
1027.319	1200.05
1027.608	1160.05
1027.898	1143.33
1028.187	1170.9
1028.477	1155.08
1028.766	1132.26
1029.055	1120.51
1029.344	1117.8
1029.634	1101.52
1029.923	1131.35
1030.212	1127.74
1030.501	1101.75
1030.79	1086.16
1031.078	1071.02
1031.367	1062.2
1031.656	1049.32
1031.945	1070.79
1032.233	1091.58
1032.522	1042.77
1032.81	1046.16
1033.099	1043.9
1033.387	1036.67
1033.675	1039.61
1033.963	1031.7
1034.251	1023.79
1034.54	1007.97
1034.828	990.12
1035.116	1014.75
1035.403	969.55
1035.691	984.01
1035.979	964.35
1036.267	976.56
1036.554	952.15
1036.842	959.61
1037.129	968.87
1037.417	928.42
1037.704	946.5
1037.992	960.06
1038.279	925.26
1038.566	922.77
1038.853	922.77
1039.14	922.77
