Data from hue_130_FLMS001491_00055.txt Node
Date: Tue Feb 07 16:57:48 GMT 2017
User: dcchb
Spectrometer: FLMS00149
Trigger mode: 0
Integration Time (sec): 2.000000E-2
Scans to average: 10
Electric dark correction enabled: true
Nonlinearity correction enabled: false
Boxcar width: 0
XAxis mode: Wavelengths
Number of Pixels in Spectrum: 2048
>>>>>Begin Spectral Data<<<<<
341.393	-9.79
341.776	-9.79
342.16	-9.79
342.543	-62.22
342.927	-70.58
343.31	-56.79
343.693	-81.2
344.077	-78.49
344.46	-55.44
344.843	-54.31
345.226	-27.41
345.61	-24.25
345.993	-39.39
346.376	15.97
346.759	14.84
347.142	23.43
347.525	50.55
347.908	58.91
348.291	74.5
348.674	86.48
349.057	92.58
349.44	119.47
349.823	146.59
350.206	162.86
350.588	206.7
350.971	204.44
351.354	224.78
351.737	233.82
352.119	261.84
352.502	281.05
352.884	278.57
353.267	284.67
353.65	283.99
354.032	293.93
354.414	308.85
354.797	320.6
355.179	324.89
355.562	314.27
355.944	325.34
356.326	328.51
356.709	339.58
357.091	347.94
357.473	353.37
357.855	335.74
358.238	356.76
358.62	353.37
359.002	327.83
359.384	343.65
359.766	333.71
360.148	349.52
360.53	340.49
360.912	328.06
361.294	317.89
361.676	309.53
362.057	319.92
362.439	329.64
362.821	324.44
363.203	333.25
363.584	337.1
363.966	323.31
364.348	311.79
364.729	334.16
365.111	318.79
365.493	313.37
365.874	323.76
366.256	310.43
366.637	310.88
367.019	305.68
367.4	307.27
367.781	305.68
368.163	338.9
368.544	306.59
368.925	335.06
369.306	305.01
369.688	321.05
370.069	330.77
370.45	330.54
370.831	294.38
371.212	322.41
371.593	326.7
371.974	324.89
372.355	306.36
372.736	331.22
373.117	319.47
373.498	331.9
373.879	326.7
374.26	327.38
374.641	329.41
375.021	338.45
375.402	324.21
375.783	320.15
376.163	347.49
376.544	319.47
376.925	337.1
377.305	347.72
377.686	330.09
378.066	337.77
378.447	340.26
378.827	335.29
379.208	345.46
379.588	334.84
379.968	328.96
380.349	344.33
380.729	349.3
381.109	334.16
381.489	330.09
381.87	340.71
382.25	334.61
382.63	347.94
383.01	344.78
383.39	340.94
383.77	340.03
384.15	363.76
384.53	375.29
384.91	358.79
385.29	359.69
385.67	370.54
386.049	352.46
386.429	362.86
386.809	355.17
387.189	352.01
387.568	330.09
387.948	352.24
388.328	359.92
388.707	350.65
389.087	362.63
389.466	382.29
389.846	360.6
390.225	386.59
390.605	369.86
390.984	371.45
391.363	378.9
391.743	367.6
392.122	368.73
392.501	395.63
392.881	381.61
393.26	401.73
393.639	388.39
394.018	364.21
394.397	372.57
394.776	401.05
395.155	408.73
395.534	390.65
395.913	399.01
396.292	396.3
396.671	388.17
397.05	396.76
397.429	395.63
397.808	408.96
398.186	390.65
398.565	378.9
398.944	394.04
399.323	402.86
399.701	394.72
400.08	418.68
400.458	396.53
400.837	397.43
401.215	426.36
401.594	429.07
401.972	416.42
402.351	411.22
402.729	405.79
403.107	429.07
403.486	432.01
403.864	427.71
404.242	449.64
404.62	442.86
404.999	433.82
405.377	434.95
405.755	430.65
406.133	439.01
406.511	461.84
406.889	431.33
407.267	427.71
407.645	433.59
408.023	441.27
408.401	455.96
408.779	472.01
409.156	446.7
409.534	442.18
409.912	469.3
410.29	463.42
410.667	460.48
411.045	472.69
411.422	484.21
411.8	486.02
412.178	478.56
412.555	463.19
412.933	500.48
413.31	497.09
413.687	489.41
414.065	523.98
414.442	494.38
414.819	508.39
415.197	499.8
415.574	527.15
415.951	526.47
416.328	517.66
416.705	521.5
417.082	542.51
417.46	523.98
417.837	555.4
418.214	558.78
418.591	508.62
418.967	537.32
419.344	536.41
419.721	543.42
420.098	556.75
420.475	580.93
420.852	566.24
421.228	570.99
421.605	568.28
421.982	570.54
422.358	586.81
422.735	552.91
423.111	561.5
423.488	563.53
423.864	558.56
424.241	597.2
424.617	583.42
424.994	591.55
425.37	595.17
425.746	617.09
426.123	633.36
426.499	581.83
426.875	606.69
427.251	602.17
427.627	642.62
428.003	632
428.379	652.34
428.756	654.38
429.132	632.68
429.507	643.08
429.883	651.44
430.259	637.2
430.635	674.49
431.011	671.78
431.387	680.82
431.763	700.93
432.138	692.79
432.514	726.46
432.89	730.53
433.265	707.48
433.641	718.55
434.016	723.53
434.392	709.52
434.767	737.99
435.143	756.29
435.518	754.94
435.894	747.48
436.269	757.2
436.644	771.66
437.02	787.48
437.395	800.36
437.77	789.51
438.145	802.17
438.52	801.04
438.895	789.06
439.271	820.02
439.646	794.48
440.021	827.93
440.395	832
440.77	822.28
441.145	813.02
441.52	832.45
441.895	853.69
442.27	861.83
442.645	871.32
443.019	888.72
443.394	878.55
443.769	876.29
444.143	864.77
444.518	882.84
444.892	886.91
445.267	896.63
445.641	896.18
446.016	937.76
446.39	930.07
446.764	921.94
447.139	929.4
447.513	931.88
447.887	925.1
448.262	944.31
448.636	950.86
449.01	940.02
449.384	972.33
449.758	974.59
450.132	996.97
450.506	971.43
450.88	1002.16
451.254	973.01
451.628	1017.08
452.002	1009.85
452.376	1019.79
452.75	1022.28
453.123	1018.66
453.497	1020.47
453.871	1076.96
454.244	1062.05
454.618	1069.96
454.992	1097.53
455.365	1123.52
455.739	1147.7
456.112	1142.27
456.486	1122.39
456.859	1159.9
457.232	1171.65
457.606	1173.46
457.979	1205.32
458.352	1220.46
458.725	1252.55
459.099	1219.56
459.472	1264.3
459.845	1258.43
460.218	1267.01
460.591	1290.29
460.964	1318.76
461.337	1321.93
461.71	1331.87
462.083	1362.38
462.456	1384.07
462.829	1373.9
463.201	1402.83
463.574	1400.8
463.947	1437.86
464.32	1463.62
464.692	1457.97
465.065	1512.88
465.438	1513.79
465.81	1540.91
466.183	1564.18
466.555	1608.7
466.928	1604.63
467.3	1609.38
467.672	1669.26
468.045	1698.19
468.417	1712.65
468.789	1703.84
469.161	1730.96
469.534	1782.48
469.906	1798.98
470.278	1821.35
470.65	1857.06
471.022	1903.83
471.394	1949.71
471.766	1977.05
472.138	2007.11
472.51	2035.13
472.882	2107.44
473.253	2154.67
473.625	2179.53
473.997	2203.26
474.369	2258.4
474.74	2296.59
475.112	2348.12
475.484	2412.75
475.855	2461.11
476.227	2497.26
476.598	2597.38
476.97	2666.53
477.341	2708.11
477.713	2773.64
478.084	2834.66
478.455	2930.25
478.827	2983.13
479.198	3104.25
479.569	3142.67
479.94	3215.21
480.311	3336.79
480.682	3418.82
481.053	3510.8
481.424	3603.9
481.795	3711.92
482.166	3807.51
482.537	3871.47
482.908	3985.59
483.279	4092.93
483.65	4236.65
484.021	4365.69
484.391	4452.92
484.762	4495.18
485.133	4611.33
485.503	4745.57
485.874	4944.66
486.244	5026.01
486.615	5129.29
486.985	5312.78
487.356	5409.05
487.726	5554.36
488.097	5655.37
488.467	5765.2
488.837	5962.03
489.207	6100.33
489.578	6208.35
489.948	6332.42
490.318	6579.19
490.688	6613.31
491.058	6776.25
491.428	6915.45
491.798	7084.26
492.168	7240.19
492.538	7348.44
492.908	7522.22
493.278	7663
493.648	7807.18
494.017	7966.27
494.387	8039.04
494.757	8180.28
495.126	8387.96
495.496	8490.55
495.866	8616.2
496.235	8732.13
496.605	8873.14
496.974	9024.55
497.344	9091.67
497.713	9279.69
498.082	9394.48
498.452	9496.63
498.821	9668.15
499.19	9733.23
499.559	9830.86
499.928	9972.32
500.298	10081.02
500.667	10237.17
501.036	10285.99
501.405	10344.97
501.774	10474.46
502.143	10636.03
502.512	10760.55
502.88	10897.72
503.249	10873.54
503.618	11052.07
503.987	11102.01
504.356	11200.54
504.724	11283.7
505.093	11339.74
505.462	11389.91
505.83	11588.78
506.199	11588.78
506.567	11771.6
506.936	11746.97
507.304	11901.99
507.672	12020.4
508.041	12068.99
508.409	12210.68
508.777	12283.67
509.145	12419.72
509.514	12328.42
509.882	12447.29
510.25	12449.32
510.618	12581.75
510.986	12636.89
511.354	12701.52
511.722	12826.48
512.09	12854.51
512.458	12868.74
512.826	13007.5
513.193	13035.74
513.561	13131.56
513.929	13159.13
514.297	13243.2
514.664	13287.72
515.032	13363.42
515.4	13426.24
515.767	13517.31
516.135	13512.34
516.502	13447.03
516.869	13690.87
517.237	13636.41
517.604	13579.23
517.972	13645.45
518.339	13803.86
518.706	13771.77
519.073	13831.88
519.44	13873.69
519.808	13939
520.175	13899.68
520.542	14038.2
520.909	14061.03
521.276	14012.89
521.643	14186.22
522.009	14202.04
522.376	14234.81
522.743	14258.99
523.11	14367.24
523.477	14512.77
523.843	14458.08
524.21	14626.89
524.577	14661.01
524.943	14691.29
525.31	14627.79
525.676	14696.94
526.043	14689.71
526.409	14780.11
526.776	14865.75
527.142	14894.9
527.508	14835.25
527.874	14921.34
528.241	14970.61
528.607	14925.41
528.973	15001.79
529.339	14945.53
529.705	15006.09
530.071	15096.71
530.437	15068.69
530.803	15052.41
531.169	15115.46
531.535	14998.63
531.901	14998.86
532.267	15043.15
532.632	15064.17
532.998	15034.34
533.364	15078.18
533.73	15031.85
534.095	15182.36
534.461	15145.97
534.826	15164.28
535.192	15100.78
535.557	15214.22
535.923	15075.47
536.288	15100.1
536.653	15035.47
537.019	14974.68
537.384	15083.83
537.749	15034.56
538.114	14919.09
538.479	14877.73
538.845	14918.86
539.21	14795.47
539.575	14772.2
539.94	14826.66
540.305	14854.45
540.67	14726.1
541.034	14783.72
541.399	14739.43
541.764	14796.83
542.129	14710.05
542.494	14692.65
542.858	14689.03
543.223	14565.42
543.587	14645.19
543.952	14522.49
544.316	14489.49
544.681	14465.09
545.045	14509.6
545.41	14559.32
545.774	14400.68
546.138	14448.59
546.503	14424.63
546.867	14370.4
547.231	14324.52
547.595	14343.96
547.959	14276.39
548.324	14173.57
548.688	14226.67
549.052	14199.56
549.416	14164.53
549.779	14108.03
550.143	14133.57
550.507	14040.69
550.871	14103.51
551.235	14007.02
551.599	14052.22
551.962	14056.51
552.326	13936.06
552.689	14016.74
553.053	13949.85
553.417	13833.69
553.78	14008.15
554.143	13894.03
554.507	13892.67
554.87	13833.01
555.234	14066.45
555.597	13894.25
555.96	13899
556.323	13855.61
556.686	13756.4
557.05	13827.14
557.413	13858.77
557.776	13814.26
558.139	13899.45
558.502	13794.59
558.865	13856.51
559.228	13844.76
559.59	13810.19
559.953	13764.31
560.316	13950.52
560.679	13793.01
561.041	13878.66
561.404	13927.7
561.767	13962.27
562.129	13851.32
562.492	13987.81
562.854	13835.05
563.217	13794.82
563.579	13839.57
563.941	13904.87
564.304	13943.52
564.666	13974.48
565.028	13932.44
565.39	13990.3
565.753	14012.44
566.115	13987.13
566.477	14037.75
566.839	14139.67
567.201	14156.17
567.563	14056.06
567.925	14209.95
568.287	14139.44
568.648	14141.25
569.01	14125.43
569.372	14285.2
569.734	14165.43
570.095	14189.39
570.457	14217.18
570.819	14270.29
571.18	14221.25
571.542	14273.23
571.903	14202.49
572.265	14371.75
572.626	14312.32
572.987	14272.77
573.349	14383.73
573.71	14334.69
574.071	14420.12
574.432	14350.96
574.794	14415.82
575.155	14408.82
575.516	14372.43
575.877	14440.68
576.238	14500.11
576.599	14401.81
576.96	14440.45
577.32	14490.4
577.681	14516.61
578.042	14453.79
578.403	14494.01
578.763	14511.41
579.124	14572.65
579.485	14515.03
579.845	14555.25
580.206	14532.2
580.566	14496.27
580.927	14482.71
581.287	14506.21
581.648	14505.31
582.008	14593.22
582.368	14480.45
582.728	14458.76
583.089	14439.55
583.449	14488.14
583.809	14508.25
584.169	14565.2
584.529	14470.74
584.889	14565.42
585.249	14447.46
585.609	14430.06
585.969	14504.41
586.329	14427.35
586.688	14461.92
587.048	14424.18
587.408	14389.61
587.768	14379.89
588.127	14341.25
588.487	14339.89
588.846	14529.72
589.206	14277.97
589.565	14345.09
589.925	14455.14
590.284	14290.4
590.643	14267.35
591.003	14356.84
591.362	14447.69
591.721	14362.04
592.08	14327.01
592.44	14315.03
592.799	14299.67
593.158	14239.1
593.517	14303.96
593.876	14254.7
594.235	14254.02
594.593	14241.36
594.952	14264.41
595.311	14266.22
595.67	14233.23
596.029	14341.25
596.387	14211.31
596.746	14280.68
597.104	14192.78
597.463	14085.43
597.822	14192.32
598.18	14184.42
598.538	14182.83
598.897	14230.06
599.255	14099.67
599.613	14290.63
599.972	14308.48
600.33	14211.99
600.688	14246.56
601.046	14217.86
601.404	14255.37
601.762	14200.69
602.12	14284.07
602.478	14241.81
602.836	14264.41
603.194	14181.03
603.552	14272.77
603.91	14142.16
604.268	14282.94
604.625	14184.19
604.983	14276.62
605.341	14228.71
605.698	14200.23
606.056	14345.31
606.413	14334.92
606.771	14387.35
607.128	14308.25
607.485	14293.79
607.843	14302.83
608.2	14307.8
608.557	14362.94
608.914	14320.91
609.272	14324.3
609.629	14329.04
609.986	14411.3
610.343	14327.46
610.7	14447.69
611.057	14387.12
611.414	14318.65
611.771	14299.67
612.127	14422.6
612.484	14427.8
612.841	14484.97
613.198	14363.17
613.554	14428.02
613.911	14467.57
614.267	14507.8
614.624	14488.81
614.98	14498.31
615.337	14550.28
615.693	14520.9
616.05	14509.15
616.406	14595.03
616.762	14648.36
617.118	14561.81
617.475	14526.78
617.831	14711.18
618.187	14672.76
618.543	14686.1
618.899	14710.5
619.255	14652.2
619.611	14676.15
619.967	14656.72
620.323	14838.41
620.678	14697.62
621.034	14668.47
621.39	14692.88
621.746	14646.78
622.101	14831.86
622.457	14701.46
622.812	14688.13
623.168	14693.55
623.523	14712.08
623.879	14792.08
624.234	14653.78
624.589	14666.89
624.945	14761.12
625.3	14680.45
625.655	14702.59
626.01	14641.35
626.365	14742.14
626.72	14628.25
627.075	14637.74
627.43	14718.86
627.785	14650.62
628.14	14646.1
628.495	14679.32
628.85	14651.07
629.205	14615.36
629.559	14674.35
629.914	14604.29
630.269	14642.03
630.623	14522.94
630.978	14623.05
631.332	14605.65
631.687	14632.09
632.041	14606.32
632.396	14607.68
632.75	14541.47
633.104	14557.96
633.459	14503.28
633.813	14522.71
634.167	14475.93
634.521	14472.77
634.875	14545.31
635.229	14499.44
635.583	14354.81
635.937	14353.9
636.291	14320.46
636.645	14394.81
636.999	14350.96
637.352	14463.96
637.706	14265.32
638.06	14361.81
638.413	14291.31
638.767	14295.15
639.121	14273.45
639.474	14181.25
639.828	14157.52
640.181	14276.16
640.534	14252.21
640.888	14224.87
641.241	14102.84
641.594	14153.23
641.947	14195.71
642.301	14127.02
642.654	14146.68
643.007	14119.11
643.36	14164.75
643.713	14073.23
644.066	14102.38
644.419	14098.99
644.771	13864.88
645.124	13792.56
645.477	13899.68
645.83	13772.45
646.182	13693.35
646.535	13581.72
646.888	13671.89
647.24	13558.44
647.593	13654.26
647.945	13588.5
648.298	13585.79
648.65	13534.26
649.002	13494.26
649.355	13589.85
649.707	13607.26
650.059	13509.63
650.411	13776.29
650.763	13795.72
651.115	13925.44
651.467	13890.19
651.819	13875.04
652.171	13873.01
652.523	13865.1
652.875	13799.34
653.227	13781.04
653.578	13964.31
653.93	13854.48
654.282	13879.34
654.633	13889.28
654.985	13840.47
655.337	13775.84
655.688	13899.22
656.039	13903.74
656.391	13839.57
656.742	13845.44
657.094	13831.2
657.445	13856.29
657.796	13870.53
658.147	13828.72
658.498	13941.03
658.849	13965.44
659.2	13870.07
659.551	13906.46
659.902	13864.2
660.253	13797.08
660.604	13932.22
660.955	13918.21
661.306	13923.63
661.656	13853.8
662.007	14001.82
662.358	13953.23
662.708	13953.69
663.059	13926.12
663.409	13739.91
663.76	13991.2
664.11	13938.32
664.461	13963.18
664.811	13988.26
665.161	13954.59
665.511	13865.78
665.862	13918.21
666.212	13955.27
666.562	14008.83
666.912	13934.93
667.262	13869.4
667.612	13877.3
667.962	13927.7
668.312	13961.37
668.662	14022.61
669.011	13962.73
669.361	13931.31
669.711	13929.28
670.06	13803.41
670.41	13893.58
670.76	13821.94
671.109	13934.25
671.459	13879.56
671.808	13819.9
672.157	13943.74
672.507	13760.47
672.856	13755.27
673.205	13885.21
673.554	13837.98
673.904	13753.24
674.253	13837.76
674.602	13726.8
674.951	13623.3
675.3	13527.03
675.649	13731.77
675.998	13687.25
676.346	13644.32
676.695	13795.72
677.044	13656.52
677.393	13592.34
677.741	13676.41
678.09	13553.92
678.438	13642.96
678.787	13631.66
679.135	13655.84
679.484	13535.84
679.832	13561.38
680.181	13445
680.529	13488.61
680.877	13490.65
681.225	13556.64
681.573	13484.77
681.922	13406.36
682.27	13386.47
682.618	13452.68
682.966	13387.15
683.314	13419.01
683.661	13309.41
684.009	13266.93
684.357	13230.32
684.705	13205.68
685.053	13240.03
685.4	13159.58
685.748	13184.89
686.095	13073.71
686.443	13074.61
686.79	13045.01
687.138	13066.03
687.485	13029.64
687.832	12938.8
688.18	12996.65
688.527	12878.23
688.874	12938.57
689.221	12921.17
689.568	12815.86
689.915	12717.79
690.262	12817.9
690.609	12710.1
690.956	12740.61
691.303	12747.84
691.65	12647.51
691.997	12635.98
692.344	12489.09
692.69	12445.25
693.037	12429.89
693.383	12418.36
693.73	12374.07
694.077	12353.73
694.423	12278.93
694.769	12308.98
695.116	12214.75
695.462	12280.96
695.808	12184.92
696.155	12127.75
696.501	12056.56
696.847	12078.03
697.193	11962.33
697.539	12005.94
697.885	11898.37
698.231	11805.49
698.577	11861.76
698.923	11809.11
699.269	11794.42
699.614	11695.44
699.96	11704.48
700.306	11629.91
700.651	11642.34
700.997	11545.39
701.342	11550.81
701.688	11503.36
702.033	11452.74
702.379	11420.87
702.724	11392.17
703.069	11413.87
703.415	11233.98
703.76	11280.99
704.105	11172.97
704.45	11164.83
704.795	11128.45
705.14	11135.23
705.485	11075.8
705.83	11022.69
706.175	11024.05
706.52	10988.12
706.865	10996.7
707.209	10943.6
707.554	10895.46
707.899	10826.09
708.243	10920.32
708.588	10787.67
708.932	10734.79
709.277	10721.91
709.621	10779.08
709.966	10675.35
710.31	10703.15
710.654	10619.54
710.998	10644.17
711.342	10585.64
711.687	10563.49
712.031	10510.61
712.375	10485.98
712.719	10505.87
713.063	10516.04
713.407	10459.99
713.75	10451.41
714.094	10331.64
714.438	10409.15
714.782	10346.1
715.125	10375.48
715.469	10314.23
715.812	10325.08
716.156	10213.45
716.499	10246.21
716.843	10272.43
717.186	10161.24
717.53	10258.64
717.873	10215.25
718.216	10197.85
718.559	10183.39
718.902	10076.27
719.246	10176.61
719.589	10091.42
719.932	10043.96
720.275	10098.65
720.617	10114.24
720.96	10021.36
721.303	10029.95
721.646	9994.47
721.989	9909.27
722.331	10038.76
722.674	10005.32
723.016	9994.92
723.359	9896.62
723.701	9919.67
724.044	9899.78
724.386	9878.99
724.729	9930.52
725.071	9875.83
725.413	9885.32
725.755	9861.14
726.097	9824.3
726.439	9775.04
726.782	9762.61
727.124	9886.68
727.465	9784.98
727.807	9754.25
728.149	9822.5
728.491	9738.66
728.833	9754.02
729.175	9785.21
729.516	9783.85
729.858	9768.71
730.199	9713.8
730.541	9741.59
730.882	9754.25
731.224	9781.82
731.565	9697.75
731.906	9730.52
732.248	9698.88
732.589	9696.17
732.93	9648.26
733.271	9698.66
733.612	9722.39
733.953	9706.11
734.294	9685.32
734.635	9677.19
734.976	9669.51
735.317	9707.7
735.658	9738.2
735.999	9741.14
736.339	9711.76
736.68	9744.31
737.021	9690.75
737.361	9750.63
737.702	9806.9
738.042	9698.66
738.383	9702.5
738.723	9742.95
739.063	9690.75
739.404	9772.78
739.744	9753.8
740.084	9686.91
740.424	9776.62
740.764	9808.94
741.104	9857.07
741.444	9837.18
741.784	9883.96
742.124	9928.48
742.464	9884.64
742.804	9876.73
743.143	9918.99
743.483	9924.19
743.823	9871.99
744.162	9978.42
744.502	9960.35
744.841	9974.58
745.181	10019.1
745.52	10128.93
745.86	10169.15
746.199	10129.83
746.538	10173.22
746.877	10191.3
747.216	10215.93
747.556	10252.77
747.895	10322.82
748.234	10420.67
748.573	10427.68
748.911	10408.02
749.25	10543.61
749.589	10606.88
749.928	10686.43
750.267	10737.95
750.605	10758.74
750.944	10878.74
751.283	10972.75
751.621	11025.63
751.96	11098.17
752.298	11172.29
752.636	11284.38
752.975	11348.11
753.313	11423.81
753.651	11627.87
753.989	11679.4
754.327	11756.68
754.666	11805.27
755.004	11997.58
755.342	12140.4
755.679	12266.95
756.017	12287.74
756.355	12571.8
756.693	12650.67
757.031	12822.64
757.368	12835.98
757.706	13083.65
758.044	13155.06
758.381	13357.77
758.719	13431.44
759.056	13721.6
759.394	13874.82
759.731	13919.56
760.068	14123.85
760.405	14181.03
760.743	14362.49
761.08	14557.51
761.417	14678.19
761.754	14828.47
762.091	15066.2
762.428	15168.57
762.765	15333.54
763.102	15529.01
763.438	15646.3
763.775	15724.26
764.112	16000.19
764.449	16169
764.785	16305.49
765.122	16307.98
765.458	16557.23
765.795	16629.1
766.131	16871.35
766.467	16978.01
766.804	17157.67
767.14	17167.61
767.476	17388.62
767.812	17495.06
768.148	17664.78
768.485	17668.62
768.821	17777.77
769.157	17865.45
769.492	18093.46
769.828	18105.89
770.164	18202.39
770.5	18313.35
770.836	18375.27
771.171	18501.59
771.507	18662.49
771.842	18645.77
772.178	18752.66
772.513	18817.29
772.849	18948.81
773.184	18933.89
773.519	19058.86
773.855	19081.69
774.19	19229.25
774.525	19272.19
774.86	19426.76
775.195	19357.16
775.53	19413.43
775.865	19333.66
776.2	19363.94
776.535	19339.31
776.87	19403.04
777.205	19527.78
777.539	19527.1
777.874	19653.2
778.209	19455.91
778.543	19472.64
778.878	19537.95
779.212	19617.94
779.547	19457.95
779.881	19613.42
780.215	19517.16
780.55	19707.66
780.884	19634.22
781.218	19597.83
781.552	19658.17
781.886	19591.96
782.22	19644.16
782.554	19582.47
782.888	19558.29
783.222	19539.08
783.556	19492.52
783.889	19439.64
784.223	19336.37
784.557	19430.38
784.89	19453.88
785.224	19497.72
785.557	19244.4
785.891	19381.11
786.224	19309.93
786.558	19343.6
786.891	19347.67
787.224	19346.99
787.557	19146.32
787.891	19090.05
788.224	19186.54
788.557	19156.94
788.89	19062.93
789.223	19220.67
789.556	19075.13
789.888	18993.33
790.221	18953.56
790.554	18944.52
790.887	18912.2
791.219	18887.57
791.552	18839.66
791.884	18783.62
792.217	18831.52
792.549	18717.86
792.882	18618.2
793.214	18655.94
793.546	18660.68
793.879	18558.54
794.211	18486.9
794.543	18533.45
794.875	18362.38
795.207	18548.37
795.539	18429.5
795.871	18435.6
796.203	18288.04
796.535	18253.01
796.867	18220.69
797.198	18139.79
797.53	18097.31
797.862	18069.74
798.193	18100.24
798.525	17916.07
798.856	18058.44
799.188	17901.83
799.519	17687.37
799.85	17758.56
800.182	17779.57
800.513	17864.77
800.844	17648.73
801.175	17767.82
801.506	17670.65
801.837	17551.56
802.168	17645.34
802.499	17543.65
802.83	17401.73
803.161	17395.86
803.491	17404.9
803.822	17387.95
804.153	17344.56
804.483	17107.05
804.814	17184.56
805.145	17165.35
805.475	17189.53
805.805	16985.92
806.136	17054.17
806.466	17107.5
806.796	17034.28
807.126	16838.36
807.457	16847.85
807.787	16816.21
808.117	16860.28
808.447	16737.34
808.777	16788.19
809.107	16672.71
809.436	16736.89
809.766	16656.89
810.096	16557.23
810.426	16507.74
810.755	16604.01
811.085	16518.82
811.414	16412.15
811.744	16389.33
812.073	16331.93
812.403	16258.03
812.732	16187.53
813.061	16292.38
813.39	16198.6
813.719	16154.08
814.049	16173.29
814.378	16041.09
814.707	16092.16
815.036	16079.96
815.365	16000.41
815.693	15889.68
816.022	15975.78
816.351	15876.8
816.68	15733.08
817.008	15908.66
817.337	15727.43
817.665	15691.04
817.994	15725.84
818.322	15670.25
818.651	15595.45
818.979	15569.92
819.307	15632.06
819.636	15603.36
819.964	15467.55
820.292	15590.93
820.62	15551.16
820.948	15444.27
821.276	15514.55
821.604	15470.26
821.932	15487.21
822.259	15510.93
822.587	15433.42
822.915	15434.33
823.243	15560.2
823.57	15386.64
823.898	15481.56
824.225	15406.98
824.553	15386.64
824.88	15445.62
825.207	15512.29
825.535	15513.19
825.862	15526.75
826.189	15456.47
826.516	15568.79
826.843	15507.77
827.17	15579.63
827.497	15541.89
827.824	15593.19
828.151	15566.53
828.478	15536.92
828.805	15563.59
829.131	15578.5
829.458	15447.88
829.785	15416.47
830.111	15494.44
830.438	15481.33
830.764	15516.81
831.09	15469.35
831.417	15381.45
831.743	15490.37
832.069	15498.73
832.395	15406.76
832.722	15429.35
833.048	15318.4
833.374	15441.33
833.7	15363.82
834.026	15341.22
834.351	15371.28
834.677	15367.21
835.003	15323.59
835.329	15275.69
835.654	15381.9
835.98	15311.62
836.306	15301.22
836.631	15280.21
836.956	15341.45
837.282	15238.62
837.607	15201.11
837.932	15259.42
838.258	15144.84
838.583	15060.55
838.908	15055.8
839.233	15080.44
839.558	14999.53
839.883	15034.79
840.208	15028.91
840.533	14940.55
840.858	15021.68
841.182	15021.91
841.507	14980.1
841.832	14853.78
842.156	14811.97
842.481	14865.53
842.805	14825.3
843.13	14752.54
843.454	14721.8
843.778	14665.08
844.103	14675.93
844.427	14627.79
844.751	14568.36
845.075	14594.35
845.399	14494.46
845.723	14463.05
846.047	14408.59
846.371	14337.18
846.695	14365.43
847.019	14255.83
847.343	14293.11
847.666	14158.2
847.99	14045.44
848.313	14023.97
848.637	13951.65
848.96	13898.77
849.284	13893.35
849.607	13832.79
849.931	13776.97
850.254	13708.04
850.577	13629.18
850.9	13637.99
851.223	13551.21
851.546	13414.04
851.869	13309.18
852.192	13372.23
852.515	13239.58
852.838	13295.62
853.161	13276.19
853.483	13177.66
853.806	13125.69
854.129	13149.19
854.451	13017.89
854.774	12976.31
855.096	12911.23
855.419	12910.78
855.741	12886.6
856.063	12796.88
856.385	12754.17
856.708	12754.62
857.03	12696.09
857.352	12683.66
857.674	12685.7
857.996	12544.68
858.318	12579.26
858.64	12633.95
858.961	12565.93
859.283	12494.74
859.605	12400.73
859.926	12411.13
860.248	12327.29
860.57	12384.46
860.891	12384.91
861.212	12241.64
861.534	12261.75
861.855	12112.61
862.176	12186.73
862.498	12222.21
862.819	12175.43
863.14	12076.22
863.461	12065.6
863.782	12034.19
864.103	12029.22
864.424	12016.56
864.745	12073.28
865.065	11937.92
865.386	11898.6
865.707	11920.07
866.027	11978.15
866.348	11959.61
866.668	11896.79
866.989	11840.97
867.309	11803.91
867.63	11779.28
867.95	11745.38
868.27	11717.14
868.59	11653.41
868.91	11707.64
869.23	11652.96
869.55	11593.75
869.87	11692.5
870.19	11612.73
870.51	11635.78
870.83	11657.02
871.15	11556.46
871.469	11582.45
871.789	11619.96
872.109	11528.44
872.428	11495.9
872.748	11564.15
873.067	11530.25
873.386	11448.89
873.706	11464.49
874.025	11413.41
874.344	11308.11
874.663	11460.64
874.982	11395.34
875.301	11345.85
875.62	11339.74
875.939	11313.53
876.258	11253.64
876.577	11269.46
876.896	11266.98
877.214	11255.45
877.533	11185.4
877.852	11218.17
878.17	11237.15
878.489	11234.21
878.807	11197.6
879.125	11159.64
879.444	11168.45
879.762	11056.81
880.08	11130.26
880.398	11065.18
880.716	11132.29
881.034	11014.33
881.352	10961
881.67	11007.1
881.988	10960.77
882.306	10913.09
882.624	10869.7
882.941	10876.25
883.259	10765.97
883.577	10772.98
883.894	10772.75
884.212	10751.06
884.529	10769.14
884.846	10772.75
885.164	10763.49
885.481	10700.89
885.798	10712.42
886.115	10562.36
886.432	10587.67
886.75	10600.33
887.067	10585.19
887.383	10475.59
887.7	10547.22
888.017	10421.35
888.334	10492.76
888.651	10460.9
888.967	10390.62
889.284	10362.37
889.6	10403.05
889.917	10216.38
890.233	10278.08
890.55	10166.67
890.866	10203.28
891.182	10176.16
891.498	10170.06
891.815	10208.7
892.131	10067.91
892.447	10022.49
892.763	9993.79
893.079	9947.01
893.395	9981.14
893.71	9974.13
894.026	9912.89
894.342	9854.36
894.657	9823.4
894.973	9827.92
895.289	9768.49
895.604	9757.64
895.92	9725.55
896.235	9646.68
896.55	9647.36
896.865	9638.55
897.181	9544.09
897.496	9603.52
897.811	9526.23
898.126	9512.45
898.441	9449.62
898.756	9419.57
899.071	9430.64
899.386	9383.19
899.7	9327.59
900.015	9268.39
900.33	9241.27
900.644	9240.82
900.959	9189.29
901.273	9174.83
901.588	9064.1
901.902	9027.71
902.216	9019.13
902.531	8941.62
902.845	8975.51
903.159	8918.11
903.473	8912.92
903.787	8808.29
904.101	8813.93
904.415	8808.96
904.729	8786.14
905.042	8709.08
905.356	8723.77
905.67	8680.15
905.984	8640.38
906.297	8609.65
906.611	8575.98
906.924	8507.5
907.237	8557.22
907.551	8481.29
907.864	8509.76
908.177	8474.51
908.491	8445.58
908.804	8351.35
909.117	8302.99
909.43	8252.14
909.743	8302.54
910.056	8227.06
910.368	8234.29
910.681	8188.41
910.994	8088.3
911.307	8074.07
911.619	8015.31
911.932	8040.62
912.244	7968.08
912.557	7955.43
912.869	7880.63
913.181	7836.11
913.494	7900.74
913.806	7815.54
914.118	7786.17
914.43	7778.71
914.742	7777.58
915.054	7677.69
915.366	7701.2
915.678	7587.53
915.99	7577.58
916.302	7519.51
916.613	7508.21
916.925	7541.2
917.236	7510.24
917.548	7403.12
917.859	7403.35
918.171	7405.84
918.482	7347.31
918.794	7320.41
919.105	7288.33
919.416	7201.1
919.727	7261.43
920.038	7278.16
920.349	7180.53
920.66	7133.08
920.971	7117.48
921.282	7100.99
921.593	7053.08
921.903	6987.54
922.214	6948
922.525	6940.76
922.835	6896.02
923.146	6994.32
923.456	6978.28
923.767	6805.63
924.077	6850.37
924.387	6751.39
924.697	6760.66
925.008	6741.22
925.318	6720.2
925.628	6720.2
925.938	6642.69
926.248	6606.31
926.558	6575.12
926.867	6581.45
927.177	6524.5
927.487	6532.86
927.796	6445.41
928.106	6448.8
928.416	6430.27
928.725	6407.9
929.034	6346.88
929.344	6382.13
929.653	6342.36
929.962	6317.96
930.271	6235.92
930.581	6242.7
930.89	6200.44
931.199	6211.52
931.508	6177.39
931.817	6151.63
932.125	6125.19
932.434	6164.74
932.743	6073.22
933.051	6029.83
933.36	5999.09
933.669	5933.33
933.977	5985.99
934.286	5945.99
934.594	5968.81
934.902	5887.68
935.21	5848.59
935.519	5844.07
935.827	5778.76
936.135	5769.72
936.443	5740.57
936.751	5770.85
937.059	5769.27
937.367	5640.91
937.674	5702.6
937.982	5660.57
938.29	5637.75
938.597	5618.99
938.905	5609.5
939.213	5575.15
939.52	5536.51
939.827	5542.61
940.135	5496.73
940.442	5459.67
940.749	5442.27
941.056	5444.76
941.363	5377.87
941.67	5381.93
941.977	5315.5
942.284	5305.33
942.591	5335.16
942.898	5283.86
943.205	5236.63
943.511	5227.81
943.818	5203.63
944.125	5222.39
944.431	5191.43
944.738	5125.22
945.044	5128.61
945.35	5119.57
945.657	5047.25
945.963	5012.68
946.269	5034.83
946.575	4973.58
946.881	4974.71
947.187	4993.47
947.493	4985.79
947.799	4917.09
948.105	4889.97
948.41	4863.08
948.716	4863.76
949.022	4822.85
949.327	4825.11
949.633	4762.52
949.938	4812.68
950.244	4782.63
950.549	4741.95
950.854	4735.62
951.16	4720.71
951.465	4688.17
951.77	4636.19
952.075	4663.54
952.38	4658.79
952.685	4629.41
952.99	4555.74
953.294	4561.84
953.599	4523.88
953.904	4504.67
954.209	4532.01
954.513	4492.01
954.818	4453.82
955.122	4480.26
955.426	4454.28
955.731	4390.32
956.035	4353.49
956.339	4394.62
956.643	4324.34
956.948	4288.4
957.252	4337.89
957.556	4337.89
957.86	4264.45
958.163	4298.35
958.467	4225.58
958.771	4193.27
959.075	4206.6
959.378	4162.76
959.682	4150.33
959.985	4172.02
960.289	4122.31
960.592	4100.84
960.896	4113.49
961.199	4071.23
961.502	4015.64
961.805	4034.17
962.108	3960.05
962.411	4034.63
962.714	3953.72
963.017	3979.71
963.32	3988.3
963.623	3927.74
963.926	3928.87
964.228	3903.33
964.531	3839.15
964.833	3841.18
965.136	3866.04
965.438	3815.87
965.741	3795.31
966.043	3837.34
966.345	3789.89
966.648	3765.25
966.95	3749.44
967.252	3702.88
967.554	3678.93
967.856	3714.86
968.158	3701.53
968.46	3654.97
968.761	3673.28
969.063	3662.43
969.365	3624.47
969.666	3604.35
969.968	3562.32
970.269	3599.38
970.571	3566.39
970.872	3556.67
971.174	3557.12
971.475	3521.87
971.776	3539.72
972.077	3474.19
972.378	3466.96
972.679	3452.49
972.98	3410.91
973.281	3421.76
973.582	3420.86
973.883	3374.3
974.183	3372.72
974.484	3378.82
974.785	3311.25
975.085	3339.28
975.386	3367.3
975.686	3328.66
975.986	3292.05
976.287	3297.02
976.587	3252.27
976.887	3269
977.187	3266.06
977.487	3229.67
977.787	3213.86
978.087	3179.51
978.387	3150.13
978.687	3176.8
978.987	3130.24
979.286	3155.33
979.586	3123.24
979.885	3083.46
980.185	3081.2
980.484	3065.84
980.784	3061.54
981.083	2997.59
981.382	3040.3
981.682	3036.91
981.981	2999.17
982.28	3008.66
982.579	2980.19
982.878	2953.07
983.177	2938.38
983.475	2984.03
983.774	2925.05
984.073	2932.06
984.372	2904.94
984.67	2883.92
984.969	2897.25
985.267	2869.68
985.566	2885.96
985.864	2848.22
986.162	2837.82
986.461	2821.1
986.759	2768.44
987.057	2788.33
987.355	2770.48
987.653	2772.06
987.951	2754.21
988.249	2739.74
988.547	2760.08
988.844	2710.14
989.142	2695
989.44	2681.67
989.737	2667.43
990.035	2668.33
990.332	2641.89
990.63	2636.92
990.927	2636.47
991.224	2636.02
991.521	2597.15
991.819	2622.91
992.116	2568.9
992.413	2530.48
992.71	2548.56
993.006	2525.51
993.303	2511.95
993.6	2521.9
993.897	2486.42
994.193	2517.6
994.49	2528.22
994.787	2485.51
995.083	2425.18
995.379	2443.71
995.676	2428.57
995.972	2408
996.268	2395.8
996.565	2422.24
996.861	2398.74
997.157	2387.66
997.453	2407.55
997.749	2321.9
998.044	2313.77
998.34	2343.6
998.636	2305.41
998.932	2290.49
999.227	2308.57
999.523	2291.17
999.818	2262.24
1000.114	2266.31
1000.409	2224.05
1000.704	2212.75
1001	2195.35
1001.295	2175.47
1001.59	2182.02
1001.885	2231.96
1002.18	2190.38
1002.475	2168.69
1002.77	2115.35
1003.065	2114.45
1003.359	2123.72
1003.654	2103.15
1003.949	2087.56
1004.243	2089.59
1004.538	2031.51
1004.832	2042.81
1005.127	2055.02
1005.421	2040.1
1005.715	2025.19
1006.009	2034.23
1006.304	1994.91
1006.598	1999.42
1006.892	1981.8
1007.186	1956.04
1007.48	1996.94
1007.773	1915.36
1008.067	1963.04
1008.361	1943.61
1008.655	1917.85
1008.948	1915.36
1009.242	1897.51
1009.535	1880.33
1009.829	1871.52
1010.122	1856.38
1010.415	1838.53
1010.708	1870.16
1011.001	1838.98
1011.295	1817.06
1011.588	1809.6
1011.881	1817.96
1012.173	1807.57
1012.466	1765.53
1012.759	1771.41
1013.052	1746.55
1013.344	1766.44
1013.637	1741.58
1013.93	1750.39
1014.222	1718.08
1014.514	1683.95
1014.807	1695.93
1015.099	1685.31
1015.391	1699.77
1015.683	1662.48
1015.976	1622.26
1016.268	1642.15
1016.56	1624.07
1016.851	1600.34
1017.143	1629.04
1017.435	1600.34
1017.727	1589.49
1018.018	1582.49
1018.31	1552.43
1018.602	1594.24
1018.893	1554.69
1019.185	1542.71
1019.476	1521.47
1019.767	1520.57
1020.058	1528.25
1020.35	1506.33
1020.641	1508.82
1020.932	1500
1021.223	1473.79
1021.514	1475.6
1021.804	1435.6
1022.095	1454.58
1022.386	1452.09
1022.677	1446.67
1022.967	1408.03
1023.258	1405.09
1023.548	1377.75
1023.839	1417.75
1024.129	1383.17
1024.419	1361.48
1024.709	1348.37
1025	1377.97
1025.29	1339.56
1025.58	1311.99
1025.87	1344.3
1026.16	1341.82
1026.449	1329.39
1026.739	1297.07
1027.029	1273.79
1027.319	1287.58
1027.608	1262.04
1027.898	1273.12
1028.187	1274.47
1028.477	1258.65
1028.766	1222.27
1029.055	1220.69
1029.344	1237.64
1029.634	1242.61
1029.923	1220.69
1030.212	1189.95
1030.501	1193.12
1030.79	1165.77
1031.078	1170.52
1031.367	1172.33
1031.656	1162.38
1031.945	1157.87
1032.233	1163.74
1032.522	1117.41
1032.81	1142.5
1033.099	1122.16
1033.387	1105.89
1033.675	1100.47
1033.963	1107.24
1034.251	1119.45
1034.54	1109.73
1034.828	1071.54
1035.116	1062.05
1035.403	1068.15
1035.691	1069.28
1035.979	1061.82
1036.267	1061.82
1036.554	1055.72
1036.842	1043.97
1037.129	1017.76
1037.417	988.15
1037.704	1027.92
1037.992	1019.11
1038.279	1012.11
1038.566	986.34
1038.853	986.34
1039.14	986.34
