Data from hue_40_FLMS001491_23.txt Node
Date: Mon Feb 06 15:07:39 GMT 2017
User: dcchb
Spectrometer: FLMS00149
Trigger mode: 0
Integration Time (sec): 2.000000E-2
Scans to average: 10
Electric dark correction enabled: true
Nonlinearity correction enabled: false
Boxcar width: 0
XAxis mode: Wavelengths
Number of Pixels in Spectrum: 2048
>>>>>Begin Spectral Data<<<<<
341.393	-27.09
341.776	-27.09
342.16	-27.09
342.543	-63.47
342.927	-53.3
343.31	-80.2
343.693	-83.13
344.077	-42
344.46	-61.67
344.843	-51.72
345.226	-43.81
345.61	-38.16
345.993	-11.95
346.376	0.71
346.759	4.55
347.142	30.99
347.525	53.81
347.908	60.14
348.291	68.05
348.674	77.09
349.057	117.31
349.44	137.65
349.823	138.78
350.206	169.97
350.588	192.11
350.971	207.71
351.354	215.39
351.737	245.9
352.119	266.46
352.502	259.91
352.884	272.11
353.267	266.46
353.65	305.1
354.032	297.87
354.414	316.86
354.797	303.52
355.179	322.05
355.562	323.18
355.944	344.2
356.326	331.32
356.709	341.71
357.091	341.94
357.473	345.1
357.855	334.48
358.238	335.16
358.62	333.8
359.002	346.01
359.384	347.82
359.766	320.7
360.148	355.73
360.53	358.44
360.912	340.13
361.294	344.88
361.676	336.29
362.057	348.95
362.439	353.01
362.821	324.77
363.203	319.34
363.584	315.27
363.966	345.78
364.348	344.43
364.729	365.44
365.111	324.54
365.493	343.07
365.874	351.43
366.256	335.39
366.637	328.61
367.019	332.22
367.4	328.38
367.781	325.9
368.163	324.09
368.544	310.75
368.925	323.41
369.306	319.57
369.688	301.49
370.069	322.28
370.45	319.34
370.831	324.09
371.212	317.99
371.593	330.19
371.974	316.18
372.355	313.47
372.736	327.48
373.117	333.58
373.498	346.23
373.879	316.86
374.26	323.64
374.641	315.95
375.021	327.25
375.402	318.89
375.783	333.8
376.163	327.7
376.544	328.16
376.925	328.61
377.305	333.35
377.686	334.48
378.066	327.03
378.447	341.94
378.827	326.12
379.208	353.01
379.588	341.04
379.968	330.42
380.349	357.31
380.729	335.84
381.109	323.64
381.489	362.28
381.87	364.54
382.25	349.17
382.63	327.7
383.01	349.85
383.39	326.35
383.77	332
384.15	360.92
384.53	384.65
384.91	347.36
385.29	341.04
385.67	357.31
386.049	345.78
386.429	363.18
386.809	372
387.189	368.15
387.568	362.28
387.948	361.15
388.328	373.13
388.707	363.63
389.087	351.43
389.466	354.37
389.846	342.17
390.225	407.93
390.605	372.22
390.984	369.96
391.363	364.09
391.743	356.86
392.122	376.29
392.501	380.36
392.881	397.76
393.26	381.94
393.639	388.27
394.018	392.56
394.397	369.51
394.776	360.24
395.155	381.26
395.534	421.03
395.913	385.55
396.292	393.69
396.671	382.39
397.05	405.44
397.429	414.25
397.808	391.2
398.186	383.97
398.565	390.07
398.944	415.61
399.323	402.96
399.701	415.38
400.08	400.02
400.458	386.91
400.837	396.4
401.215	384.88
401.594	404.76
401.972	398.44
402.351	407.48
402.729	436.85
403.107	428.04
403.486	424.42
403.864	415.84
404.242	403.18
404.62	409.73
404.999	411.09
405.377	416.74
405.755	426.91
406.133	418.32
406.511	432.33
406.889	440.92
407.267	445.67
407.645	450.19
408.023	455.61
408.401	452.22
408.779	453.58
409.156	461.49
409.534	442.73
409.912	455.38
410.29	447.25
410.667	466.91
411.045	479.11
411.422	472.11
411.8	497.42
412.178	479.79
412.555	471.88
412.933	470.3
413.31	488.38
413.687	493.57
414.065	498.09
414.442	485.44
414.819	502.84
415.197	511.65
415.574	516.85
415.951	515.49
416.328	504.65
416.705	517.75
417.082	506.46
417.46	514.37
417.837	536.51
418.214	526.12
418.591	520.01
418.967	510.98
419.344	536.74
419.721	564.99
420.098	545.32
420.475	525.44
420.852	547.58
421.228	546.45
421.605	541.03
421.982	543.74
422.358	553.01
422.735	556.17
423.111	556.17
423.488	579.45
423.864	579.67
424.241	585.78
424.617	547.13
424.994	579.9
425.37	586.23
425.746	580.58
426.123	588.26
426.499	594.59
426.875	602.27
427.251	577.41
427.627	612.22
428.003	611.76
428.379	643.18
428.756	610.18
429.132	615.38
429.507	622.16
429.883	629.39
430.259	661.93
430.635	652.89
431.011	647.47
431.387	655.6
431.763	666
432.138	663.06
432.514	672.33
432.89	695.38
433.265	680.01
433.641	665.77
434.016	681.14
434.392	711.65
434.767	724.3
435.143	705.09
435.518	711.87
435.894	721.37
436.269	738.09
436.644	739.22
437.02	727.01
437.395	743.06
437.77	759.1
438.145	769.05
438.52	767.92
438.895	764.75
439.271	771.99
439.646	773.34
440.021	760.69
440.395	799.33
440.77	780.12
441.145	792.32
441.52	798.88
441.895	809.72
442.27	801.14
442.645	810.85
443.019	831.87
443.394	823.51
443.769	830.06
444.143	835.94
444.518	823.06
444.892	838.2
445.267	851.31
445.641	865.09
446.016	850.63
446.39	871.42
446.764	867.35
447.139	883.85
447.513	874.36
447.887	871.42
448.262	903.51
448.636	874.81
449.01	896.73
449.384	894.02
449.758	906.67
450.132	937.63
450.506	924.07
450.88	942.6
451.254	925.65
451.628	912.77
452.002	955.71
452.376	960
452.75	954.58
453.123	944.64
453.497	965.88
453.871	969.49
454.244	977.86
454.618	1013.11
454.992	1004.3
455.365	1017.63
455.739	1026.67
456.112	1052.2
456.486	1049.27
456.859	1082.03
457.232	1080.68
457.606	1093.33
457.979	1073.67
458.352	1094.46
458.725	1110.73
459.099	1128.81
459.472	1118.42
459.845	1167
460.218	1155.25
460.591	1174.23
460.964	1206.1
461.337	1193.9
461.71	1231.63
462.083	1232.09
462.456	1238.19
462.829	1233.67
463.201	1301.24
463.574	1285.87
463.947	1290.84
464.32	1323.38
464.692	1304.85
465.065	1318.19
465.438	1357.28
465.81	1352.99
466.183	1408.13
466.555	1444.28
466.928	1439.76
467.3	1429.14
467.672	1481.12
468.045	1492.64
468.417	1488.58
468.789	1527.45
469.161	1547.78
469.534	1572.64
469.906	1610.38
470.278	1613.32
470.65	1655.58
471.022	1687.44
471.394	1724.73
471.766	1712.75
472.138	1791.85
472.51	1802.47
472.882	1873.88
473.253	1875.01
473.625	1890.15
473.997	1966.3
474.369	1984.16
474.74	2006.98
475.112	2046.08
475.484	2100.54
475.855	2147.09
476.227	2156.36
476.598	2267.77
476.97	2245.17
477.341	2320.42
477.713	2371.49
478.084	2437.25
478.455	2502.11
478.827	2546.63
479.198	2639.73
479.569	2629.79
479.94	2778.94
480.311	2803.57
480.682	2884.92
481.053	2980.51
481.424	3035.88
481.795	3085.6
482.166	3205.59
482.537	3269.32
482.908	3361.97
483.279	3416.66
483.65	3516.09
484.021	3621.63
484.391	3684
484.762	3746.37
485.133	3886.03
485.503	3941.17
485.874	4029.98
486.244	4112.91
486.615	4237.2
486.985	4322.85
487.356	4474.03
487.726	4514.94
488.097	4672.45
488.467	4702.96
488.837	4895.04
489.207	4926
489.578	5058.88
489.948	5211.64
490.318	5293.45
490.688	5362.83
491.058	5503.39
491.428	5608.47
491.798	5707.45
492.168	5871.74
492.538	5933.21
492.908	6095.01
493.278	6187.44
493.648	6260.2
494.017	6373.42
494.387	6481.67
494.757	6598.72
495.126	6733.86
495.496	6808.89
495.866	6869.23
496.235	6998.49
496.605	7126.85
496.974	7250.91
497.344	7353.06
497.713	7403.9
498.082	7552.6
498.452	7722.31
498.821	7702.2
499.19	7783.55
499.559	7918.92
499.928	8050.21
500.298	8084.79
500.667	8219.7
501.036	8318.23
501.405	8426.25
501.774	8469.18
502.143	8567.03
502.512	8672.34
502.88	8761.38
503.249	8812.68
503.618	8967.02
503.987	8991.2
504.356	9023.75
504.724	9214.93
505.093	9245.21
505.462	9260.12
505.83	9397.75
506.199	9488.37
506.567	9630.96
506.936	9608.36
507.304	9800.9
507.672	9899.88
508.041	9930.61
508.409	10072.76
508.777	10100.33
509.145	10190.04
509.514	10203.83
509.882	10312.53
510.25	10411.73
510.618	10444.27
510.986	10491.28
511.354	10617.83
511.722	10705.28
512.09	10778.28
512.458	10860.31
512.826	10914.77
513.193	11014.43
513.561	11073.64
513.929	11180.53
514.297	11277.47
514.664	11345.49
515.032	11413.97
515.4	11540.74
515.767	11512.95
516.135	11667.97
516.502	11708.87
516.869	11838.14
517.237	11859.6
517.604	11831.58
517.972	11924.01
518.339	12055.53
518.706	12116.32
519.073	12107.05
519.44	12202.65
519.808	12372.81
520.175	12359.48
520.542	12455.52
520.909	12589.3
521.276	12541.85
521.643	12775.29
522.009	12782.97
522.376	12925.34
522.743	12913.36
523.11	13071.1
523.477	13199
523.843	13205.33
524.21	13368.26
524.577	13399.45
524.943	13537.07
525.31	13570.74
525.676	13698.43
526.043	13845.99
526.409	13862.04
526.776	14148.81
527.142	14076.04
527.508	14104.74
527.874	14153.1
528.241	14347
528.607	14377.73
528.973	14448.01
529.339	14518.29
529.705	14560.78
530.071	14779.98
530.437	14802.12
530.803	14865.4
531.169	14974.78
531.535	14947.21
531.901	15099.29
532.267	15081.89
532.632	15239.18
532.998	15330.7
533.364	15358.27
533.73	15428.1
534.095	15574.99
534.461	15586.29
534.826	15764.36
535.192	15801.19
535.557	15799.39
535.923	15838.48
536.288	15894.07
536.653	16000.51
537.019	15917.12
537.384	16105.82
537.749	16157.34
538.114	16216.33
538.479	16266.27
538.845	16360.28
539.21	16336.77
539.575	16500.84
539.94	16443.21
540.305	16679.36
540.67	16506.26
541.034	16645.92
541.399	16748.74
541.764	16783.32
542.129	16926.81
542.494	16925.91
542.858	16892.24
543.223	17018.11
543.587	17127.49
543.952	17092.46
544.316	17273.92
544.681	17241.16
545.045	17320.25
545.41	17440.7
545.774	17418.33
546.138	17544.43
546.503	17632.56
546.867	17545.78
547.231	17802.27
547.595	17870.29
547.959	17889.5
548.324	17837.75
548.688	17876.62
549.052	18007.92
549.416	18062.15
549.779	18167.23
550.143	18131.3
550.507	18317.74
550.871	18277.51
551.235	18227.8
551.599	18400.45
551.962	18517.06
552.326	18538.75
552.689	18609.93
553.053	18620.56
553.417	18647.22
553.78	18891.73
554.143	18880.89
554.507	18906.42
554.87	18973.54
555.234	19172.63
555.597	19083.37
555.96	19165.85
556.323	19217.38
556.686	19322.46
557.05	19439.52
557.413	19456.92
557.776	19520.87
558.139	19690.81
558.502	19702.79
558.865	19747.31
559.228	19863.69
559.59	19895.1
559.953	19954.31
560.316	20128.31
560.679	20038.6
561.041	20235.43
561.404	20284.69
561.767	20410.57
562.129	20315.88
562.492	20543.44
562.854	20549.09
563.217	20574.18
563.579	20692.14
563.941	20799.71
564.304	20808.52
564.666	20976.2
565.028	21028.4
565.39	21126.7
565.753	21207.15
566.115	21231.11
566.477	21233.37
566.839	21442.18
567.201	21545
567.563	21636.75
567.925	21742.28
568.287	21815.27
568.648	21957.64
569.01	22050.52
569.372	22065.89
569.734	21977.76
570.095	22203.74
570.457	22348.14
570.819	22398.31
571.18	22368.48
571.542	22536.38
571.903	22544.29
572.265	22780.22
572.626	22944.74
572.987	22818.41
573.349	22935.47
573.71	23029.48
574.071	23138.18
574.432	23166.42
574.794	23508.11
575.155	23379.53
575.516	23464.5
575.877	23631.95
576.238	23732.29
576.599	23904.03
576.96	23981.32
577.32	23995.56
577.681	24146.51
578.042	24330.69
578.403	24415.43
578.763	24512.15
579.124	24664.46
579.485	24924.34
579.845	25078.69
580.206	25075.98
580.566	25185.58
580.927	25347.84
581.287	25515.52
581.648	25572.46
582.008	25906.47
582.368	25863.75
582.728	26196.4
583.089	26201.83
583.449	26365.21
583.809	26586
584.169	26836.61
584.529	26942.37
584.889	27252.65
585.249	27234.79
585.609	27299.88
585.969	27627.32
586.329	27740.32
586.688	27988.9
587.048	28119.74
587.408	28209.46
587.768	28378.72
588.127	28638.6
588.487	28746.39
588.846	29049.89
589.206	29097.79
589.565	29316.77
589.925	29506.15
590.284	29740.49
590.643	30003.99
591.003	30150.87
591.362	30387.7
591.721	30554.71
592.08	30772.33
592.44	31043.73
592.799	31094.8
593.158	31384.51
593.517	31457.28
593.876	31722.13
594.235	31775.69
594.593	32031.5
594.952	32220.88
595.311	32321.44
595.67	32578.83
596.029	32970.46
596.387	33106.5
596.746	33177.01
597.104	33228.53
597.463	33433.27
597.822	33805.02
598.18	33820.16
598.538	33872.81
598.897	34323.87
599.255	34159.13
599.613	34722.05
599.972	34617.88
600.33	34904.2
600.688	34904.42
601.046	35212.89
601.404	35477.06
601.762	35506.89
602.12	35793.66
602.478	35870.5
602.836	36016.93
603.194	36016.03
603.552	36247.66
603.91	36312.52
604.268	36725.84
604.625	36509.58
604.983	36818.5
605.341	36754.32
605.698	37152.27
606.056	37299.84
606.413	37345.71
606.771	37352.72
607.128	37641.98
607.485	37636.55
607.843	37785.93
608.2	38014.62
608.557	38234.73
608.914	38183.66
609.272	38278.57
609.629	38521.05
609.986	38784.55
610.343	38609.41
610.7	38886.46
611.057	39010.08
611.414	38984.54
611.771	39173.24
612.127	39303.63
612.484	39508.82
612.841	39601.47
613.198	39643.28
613.554	39659.1
613.911	39817.29
614.267	39880.79
614.624	40042.59
614.98	40176.15
615.337	40375.24
615.693	40329.14
616.05	40529.36
616.406	40656.81
616.762	40639.41
617.118	40615.91
617.475	40736.81
617.831	40943.81
618.187	40986.52
618.543	41129.12
618.899	41387.87
619.255	41324.14
619.611	41265.16
619.967	41473.06
620.323	41592.61
620.678	41429.22
621.034	41505.6
621.39	41551.25
621.746	41541.76
622.101	42055.19
622.457	41745.6
622.812	41750.79
623.168	41993.5
623.523	41949.21
623.879	42160.05
624.234	41856.55
624.589	42081.86
624.945	42071.46
625.3	42294.51
625.655	42165.47
626.01	42274.17
626.365	42159.82
626.72	42191.69
627.075	42193.27
627.43	42311.68
627.785	42291.12
628.14	42323.89
628.495	42397.11
628.85	42362.3
629.205	42256.77
629.559	42534.96
629.914	42340.16
630.269	42441.4
630.623	42357.11
630.978	42291.12
631.332	42445.69
631.687	42663.54
632.041	42466.71
632.396	42643.65
632.75	42327.5
633.104	42370.89
633.459	42257
633.813	42338.12
634.167	42384.9
634.521	42302.64
634.875	42277.79
635.229	42297.67
635.583	42215.87
635.937	42248.41
636.291	42142.65
636.645	42262.65
636.999	42073.72
637.352	42231.23
637.706	42048.19
638.06	42206.15
638.413	42146.94
638.767	42024.01
639.121	42098.58
639.474	41958.7
639.828	42003.22
640.181	41919.83
640.534	42146.49
640.888	41888.19
641.241	41808.87
641.594	41812.49
641.947	41954.63
642.301	41820.85
642.654	41893.39
643.007	41922.54
643.36	41885.93
643.713	41733.62
644.066	41920.28
644.419	41542.21
644.771	41368.66
645.124	41056.58
645.477	41021.1
645.83	40666.08
646.182	40644.16
646.535	40554.67
646.888	40619.98
647.24	40402.36
647.593	40537.72
647.945	40549.24
648.298	40382.92
648.65	40288.01
649.002	40396.93
649.355	40513.31
649.707	40279.2
650.059	40435.35
650.411	40918.27
650.763	41024.94
651.115	41443.46
651.467	41219.51
651.819	41217.93
652.171	41085.73
652.523	41104.71
652.875	41183.13
653.227	40982.91
653.578	41253.86
653.93	41167.53
654.282	40921.44
654.633	40904.72
654.985	40969.35
655.337	40957.37
655.688	40978.61
656.039	40963.92
656.391	40746.75
656.742	40832.4
657.094	40740.43
657.445	41040.98
657.796	40849.12
658.147	40702.23
658.498	40707.21
658.849	40800.99
659.2	40730.93
659.551	40638.96
659.902	40888.22
660.253	40721.22
660.604	40909.69
660.955	40578.62
661.306	40730.71
661.656	40641.9
662.007	40588.34
662.358	40594.89
662.708	40585.85
663.059	40558.28
663.409	40343.6
663.76	40691.84
664.11	40600.99
664.461	40785.17
664.811	40599.41
665.161	40607.77
665.511	40498.4
665.862	40622.01
666.212	40681.22
666.562	40758.5
666.912	40575.46
667.262	40615.46
667.612	40598.28
667.962	40556.02
668.312	40485.74
668.662	40707.21
669.011	40612.75
669.361	40627.89
669.711	40543.82
670.06	40438.96
670.41	40363.26
670.76	40396.93
671.109	40377.72
671.459	40498.17
671.808	40339.08
672.157	40473.99
672.507	40125.3
672.856	40150.84
673.205	40279.42
673.554	40277.39
673.904	40213.43
674.253	40335.01
674.602	40281.91
674.951	39647.57
675.3	39479.89
675.649	40060.9
675.998	40016.15
676.346	40014.8
676.695	40241.46
677.044	39878.53
677.393	40021.8
677.741	40114
678.09	40030.84
678.438	39994.46
678.787	39892.99
679.135	39852.77
679.484	39536.16
679.832	39782.49
680.181	39622.94
680.529	39825.2
680.877	39679.21
681.225	39483.96
681.573	39691.41
681.922	39454.36
682.27	39334.14
682.618	39501.81
682.966	39302.5
683.314	39473.34
683.661	39335.27
684.009	39075.84
684.357	38999.45
684.705	39008.04
685.053	39135.95
685.4	39076.51
685.748	38822.96
686.095	38874.71
686.443	38706.36
686.79	38631.78
687.138	38611.89
687.485	38599.47
687.832	38497.77
688.18	38597.66
688.527	38274.05
688.874	38377.55
689.221	38174.84
689.568	38205.35
689.915	38020.95
690.262	38020.95
690.609	37987.73
690.956	37905.47
691.303	37782.76
691.65	37708.19
691.997	37669.77
692.344	37463.45
692.69	37355.88
693.037	37391.36
693.383	37094.87
693.73	37184.59
694.077	37028.21
694.423	37001.99
694.769	36872.05
695.116	36794.32
695.462	36632.51
695.808	36522.23
696.155	36675.67
696.501	36454.66
696.847	36497.83
697.193	36117.95
697.539	36239.53
697.885	36035.46
698.231	36105.52
698.577	35947.78
698.923	35871.63
699.269	35792.76
699.614	35601.58
699.96	35589.83
700.306	35461.47
700.651	35374.92
700.997	35326.78
701.342	35241.59
701.688	35191.19
702.033	35101.7
702.379	35030.75
702.724	34962.05
703.069	35029.84
703.415	34524.77
703.76	34576.97
704.105	34683.64
704.45	34444.32
704.795	34354.83
705.14	34245.46
705.485	34176.76
705.83	34088.85
706.175	34171.11
706.52	34039.59
706.865	33973.37
707.209	33824.22
707.554	33828.52
707.899	33880.27
708.243	33717.79
708.588	33543.55
708.932	33461.97
709.277	33410.9
709.621	33369.55
709.966	33127.97
710.31	33246.61
710.654	32866.96
710.998	32986.05
711.342	33089.78
711.687	33036.45
712.031	32826.28
712.375	32696.34
712.719	32696.8
713.063	32572.73
713.407	32853.63
713.75	32713.07
714.094	32530.02
714.438	32323.92
714.782	32485.73
715.125	32206.64
715.469	32358.05
715.812	32075.8
716.156	32002.58
716.499	32029.24
716.843	31991.5
717.186	31765.97
717.53	31953.54
717.873	31935.23
718.216	31916.93
718.559	31714.9
718.902	31442.82
719.246	31571.63
719.589	31524.4
719.932	31337.74
720.275	31356.72
720.617	31345.19
720.96	31319.43
721.303	31262.03
721.646	31373.89
721.989	31105.2
722.331	31181.13
722.674	31046.22
723.016	31009.61
723.359	31026.56
723.701	31022.72
724.044	30826.11
724.386	30569.39
724.729	30772.78
725.071	30680.58
725.413	30671.09
725.755	30630.18
726.097	30504.54
726.439	30399.45
726.782	30441.71
727.124	30436.52
727.465	30380.02
727.807	30210.08
728.149	30159.46
728.491	30154.94
728.833	30138.67
729.175	30009.86
729.516	29881.28
729.858	30065.68
730.199	29906.13
730.541	29909.98
730.882	29660.27
731.224	29929.18
731.565	29771.45
731.906	29720.15
732.248	29886.7
732.589	29497.56
732.93	29516.54
733.271	29526.71
733.612	29577.33
733.953	29396.32
734.294	29410.33
734.635	29438.58
734.976	29421.18
735.317	29239.26
735.658	29151.8
735.999	29217.79
736.339	29201.52
736.68	29340.27
737.021	29184.12
737.361	28891.25
737.702	29185.48
738.042	29072.48
738.383	28869.33
738.723	28924.92
739.063	28840.17
739.404	28897.12
739.744	28643.34
740.084	28666.39
740.424	28804.47
740.764	28566.28
741.104	28762.89
741.444	28503.23
741.784	28452.84
742.124	28503.69
742.464	28455.78
742.804	28300.53
743.143	28219.63
743.483	28331.49
743.823	28197.03
744.162	28155.67
744.502	28200.19
744.841	28109.8
745.181	28163.58
745.52	28203.13
745.86	28083.58
746.199	28022.57
746.538	27938.73
746.877	27997.71
747.216	27908.9
747.556	27736.93
747.895	27877.26
748.234	27744.16
748.573	27753.2
748.911	27708.45
749.25	27629.13
749.589	27505.52
749.928	27638.62
750.267	27660.32
750.605	27528.57
750.944	27480.89
751.283	27361.57
751.621	27468.46
751.96	27301.23
752.298	27218.75
752.636	27280.89
752.975	27098.75
753.313	27074.57
753.651	27122.48
753.989	27029.83
754.327	26900.11
754.666	26827.57
755.004	26844.75
755.342	26767.91
755.679	26813.11
756.017	26542.61
756.355	26720.91
756.693	26514.36
757.031	26597.3
757.368	26323.63
757.706	26410.18
758.044	26304.42
758.381	26284.53
758.719	26164.76
759.056	26085.22
759.394	26025.78
759.731	25850.2
760.068	25914.38
760.405	25782.85
760.743	25682.97
761.08	25788.5
761.417	25544.44
761.754	25551.9
762.091	25448.17
762.428	25378.12
762.765	25240.27
763.102	25308.74
763.438	25051.8
763.775	25124.79
764.112	25001.86
764.449	25118.92
764.785	24898.81
765.122	24677.12
765.458	24686.38
765.795	24732.71
766.131	24644.8
766.467	24519.61
766.804	24415.43
767.14	24343.34
767.476	24375.88
767.812	24241.42
768.148	24244.81
768.485	24012.73
768.821	23950.81
769.157	23985.39
769.492	23930.25
769.828	23788.33
770.164	23677.82
770.5	23622.68
770.836	23546.98
771.171	23497.04
771.507	23354.44
771.842	23185.18
772.178	23214.33
772.513	23096.14
772.849	22984.28
773.184	22899.54
773.519	22910.39
773.855	22841.46
774.19	22706.32
774.525	22664.29
774.86	22549.49
775.195	22617.74
775.53	22417.07
775.865	22284.87
776.2	22240.8
776.535	22076.74
776.87	22166.9
777.205	21984.31
777.539	21779.57
777.874	21963.07
778.209	21732.34
778.543	21748.16
778.878	21638.56
779.212	21556.3
779.547	21510.2
779.881	21436.98
780.215	21280.6
780.55	21317.66
780.884	21213.48
781.218	21189.08
781.552	21085.35
781.886	21009.42
782.22	20909.31
782.554	20886.71
782.888	20698.24
783.222	20615.76
783.556	20520.62
783.889	20373.28
784.223	20262.09
784.557	20338.25
784.89	20323.79
785.224	20123.79
785.557	20010.58
785.891	19979.84
786.224	19881.99
786.558	19862.78
786.891	19713.18
787.224	19603.58
787.557	19609.46
787.891	19553.86
788.224	19534.66
788.557	19539.18
788.89	19362.23
789.223	19373.76
789.556	19280.43
789.888	19155.46
790.221	19127.43
790.554	19039.3
790.887	18957.27
791.219	18858.29
791.552	18872.07
791.884	18834.56
792.217	18759.53
792.549	18653.1
792.882	18572.65
793.214	18519.32
793.546	18585.75
793.879	18337.17
794.211	18352.09
794.543	18352.09
794.875	18201.81
795.207	18228.93
795.539	18121.36
795.871	18235.25
796.203	18009.95
796.535	17887.02
796.867	17914.36
797.198	17809.5
797.53	17821.48
797.862	17608.38
798.193	17719.11
798.525	17529.74
798.856	17648.83
799.188	17494.94
799.519	17422.17
799.85	17229.63
800.182	17317.31
800.513	17262.63
800.844	17096.53
801.175	17321.15
801.506	17187.82
801.837	17073.93
802.168	17005
802.499	16996.42
802.83	16789.42
803.161	16823.54
803.491	16846.36
803.822	16828.29
804.153	16664
804.483	16498.35
804.814	16615.64
805.145	16494.96
805.475	16468.75
805.805	16507.39
806.136	16391.69
806.466	16428.52
806.796	16430.33
807.126	16177.46
807.457	16175.42
807.787	16179.04
808.117	16168.42
808.447	16062.66
808.777	16044.13
809.107	16090
809.436	15962.77
809.766	15878.25
810.096	15917.12
810.426	15752.16
810.755	15792.61
811.085	15694.98
811.414	15755.09
811.744	15684.14
812.073	15581.31
812.403	15589.22
812.732	15456.57
813.061	15489.11
813.39	15392.39
813.719	15338.38
814.049	15396.01
814.378	15304.94
814.707	15366.4
815.036	15262
815.365	15114.21
815.693	15095.9
816.022	15067.88
816.351	15047.99
816.68	14956.47
817.008	14992.18
817.337	14814.78
817.665	14740.43
817.994	14841.9
818.322	14804.38
818.651	14771.84
818.979	14741.34
819.307	14808.45
819.636	14739.53
819.964	14627.21
820.292	14667.21
820.62	14614.11
820.948	14615.01
821.276	14637.38
821.604	14477.16
821.932	14509.93
822.259	14558.97
822.587	14560.55
822.915	14501.57
823.243	14503.83
823.57	14558.97
823.898	14610.49
824.225	14418.41
824.553	14405.07
824.88	14465.64
825.207	14467.67
825.535	14440.33
825.862	14549.93
826.189	14416.6
826.516	14432.19
826.843	14563.94
827.17	14513.32
827.497	14554.9
827.824	14459.54
828.151	14472.42
828.478	14420.89
828.805	14494.56
829.131	14441.91
829.458	14358.29
829.785	14328.01
830.111	14389.48
830.438	14495.01
830.764	14434.68
831.09	14469.25
831.417	14371.18
831.743	14413.43
832.069	14432.42
832.395	14372.08
832.722	14446.2
833.048	14336.6
833.374	14350.84
833.7	14298.86
834.026	14372.53
834.351	14367.11
834.677	14275.13
835.003	14333.66
835.329	14303.61
835.654	14250.28
835.98	14198.75
836.306	14356.49
836.631	14216.83
836.956	14204.63
837.282	14227
837.607	14120.56
837.932	14154.68
838.258	14121.46
838.583	14055.25
838.908	14069.26
839.233	14064.97
839.558	13986.55
839.883	13944.75
840.208	13910.17
840.533	13855.48
840.858	13910.62
841.182	13868.36
841.507	13876.73
841.832	13759.89
842.156	13793.56
842.481	13797.86
842.805	13730.74
843.13	13679.89
843.454	13610.97
843.778	13619.56
844.103	13515.15
844.427	13518.09
844.751	13528.71
845.075	13436.74
845.399	13480.58
845.723	13435.38
846.047	13440.13
846.371	13331.66
846.695	13321.71
847.019	13183.64
847.343	13184.99
847.666	13117.88
847.99	13083.75
848.313	12972.12
848.637	12875.62
848.96	12879.01
849.284	12808.51
849.607	12765.57
849.931	12715.85
850.254	12625.91
850.577	12589.75
850.9	12499.59
851.223	12563.09
851.546	12424.79
851.869	12322.42
852.192	12409.42
852.515	12293.04
852.838	12243.1
853.161	12272.02
853.483	12168.52
853.806	12074.51
854.129	12088.98
854.451	11979.6
854.774	11988.41
855.096	11937.34
855.419	11921.97
855.741	11913.39
856.063	11782.32
856.385	11787.74
856.708	11771.7
857.03	11733.96
857.352	11705.03
857.674	11735.31
857.996	11646.05
858.318	11538.26
858.64	11585.26
858.961	11546.84
859.283	11517.01
859.605	11375.77
859.926	11427.75
860.248	11379.16
860.57	11354.53
860.891	11376.9
861.212	11314.08
861.534	11242.22
861.855	11265.04
862.176	11309.34
862.498	11306.17
862.819	11325.83
863.14	11216.46
863.461	11188.89
863.782	11114.09
864.103	11056.46
864.424	11024.37
864.745	11104.6
865.065	10968.1
865.386	10980.98
865.707	10938.5
866.027	10940.98
866.348	10932.17
866.668	10921.1
866.989	10935.11
867.309	10860.31
867.63	10866.64
867.95	10827.99
868.27	10860.31
868.59	10797.71
868.91	10887.65
869.23	10780.54
869.55	10747.54
869.87	10809.01
870.19	10823.47
870.51	10772.4
870.83	10713.64
871.15	10646.53
871.469	10710.26
871.789	10636.13
872.109	10696.02
872.428	10570.15
872.748	10690.59
873.067	10636.13
873.386	10628.45
873.706	10578.96
874.025	10492.86
874.344	10500.09
874.663	10540.09
874.982	10495.57
875.301	10477.94
875.62	10446.99
875.939	10477.04
876.258	10438.85
876.577	10328.34
876.896	10362.24
877.214	10319.3
877.533	10359.98
877.852	10348.23
878.17	10355.24
878.489	10333.09
878.807	10362.02
879.125	10240.44
879.444	10300.32
879.762	10151.85
880.08	10191.62
880.398	10206.31
880.716	10167.9
881.034	10182.36
881.352	10127.67
881.67	10096.49
881.988	10091.06
882.306	10029.6
882.624	9978.52
882.941	9927
883.259	9960.22
883.577	9964.74
883.894	9902.59
884.212	9881.12
884.529	9923.38
884.846	9877.28
885.164	9881.12
885.481	9871.18
885.798	9852.65
886.115	9803.16
886.432	9762.26
886.75	9755.7
887.067	9769.26
887.383	9728.59
887.7	9735.14
888.017	9639.32
888.334	9670.73
888.651	9556.39
888.967	9648.59
889.284	9565.43
889.6	9494.47
889.917	9442.94
890.233	9447.24
890.55	9371.31
890.866	9432.1
891.182	9410.85
891.498	9360.46
891.815	9329.05
892.131	9250.41
892.447	9233.01
892.763	9238.88
893.079	9225.32
893.395	9215.61
893.71	9200.46
894.026	9226
894.342	9104.2
894.657	9068.49
894.973	9049.96
895.289	9044.31
895.604	9051.32
895.92	8924.77
896.235	8940.81
896.55	8904.2
896.865	8947.14
897.181	8866.46
897.496	8875.05
897.811	8785.33
898.126	8816.29
898.441	8671.44
898.756	8696.3
899.071	8695.39
899.386	8679.57
899.7	8635.96
900.015	8540.14
900.33	8568.16
900.644	8466.7
900.959	8521.16
901.273	8442.97
901.588	8446.36
901.902	8350.77
902.216	8362.97
902.531	8303.54
902.845	8309.87
903.159	8270.55
903.473	8254.5
903.787	8191.68
904.101	8168.63
904.415	8191.23
904.729	8163.43
905.042	8076.65
905.356	8053.38
905.67	8049.99
905.984	8071.45
906.297	7993.04
906.611	7944.45
906.924	7939.93
907.237	7926.37
907.551	7864
907.864	7838.01
908.177	7803.66
908.491	7729.99
908.804	7754.4
909.117	7727.73
909.43	7657.23
909.743	7662.43
910.056	7608.19
910.368	7639.83
910.681	7529.1
910.994	7503.33
911.307	7487.74
911.619	7437.35
911.932	7407.52
912.244	7355.32
912.557	7363.45
912.869	7339.72
913.181	7329.78
913.494	7340.63
913.806	7197.58
914.118	7202.78
914.43	7168.2
914.742	7125.04
915.054	7073.06
915.366	7126.39
915.678	7034.87
915.99	7017.24
916.302	7035.78
916.613	6956
916.925	6940.18
917.236	6899.96
917.548	6908.32
917.859	6857.25
918.171	6830.36
918.482	6785.84
918.794	6802.56
919.105	6802.56
919.416	6724.15
919.727	6633.98
920.038	6633.3
920.349	6571.38
920.66	6607.54
920.971	6567.99
921.282	6530.7
921.593	6519.86
921.903	6495.68
922.214	6484.6
922.525	6419.07
922.835	6413.64
923.146	6347.66
923.456	6377.04
923.767	6329.13
924.077	6253.2
924.387	6344.04
924.697	6242.35
925.008	6243.48
925.318	6202.35
925.628	6213.2
925.938	6214.33
926.248	6127.1
926.558	6090.26
926.867	6040.77
927.177	6037.38
927.487	6023.6
927.796	5959.87
928.106	5981.34
928.416	5906.77
928.725	5902.25
929.034	5925.3
929.344	5913.55
929.653	5869.93
929.962	5819.08
930.271	5789.25
930.581	5739.09
930.89	5710.16
931.199	5722.82
931.508	5617.51
931.817	5708.13
932.125	5615.47
932.434	5588.36
932.743	5569.37
933.051	5580.22
933.36	5511.75
933.669	5485.53
933.977	5464.52
934.286	5450.05
934.594	5483.73
934.902	5412.77
935.21	5353.79
935.519	5362.83
935.827	5335.03
936.135	5325.54
936.443	5306.78
936.751	5246.9
937.059	5255.03
937.367	5216.39
937.674	5196.28
937.982	5214.35
938.29	5156.05
938.597	5191.53
938.905	5096.62
939.213	5106.11
939.52	5069.73
939.827	5087.8
940.135	5093.91
940.442	5002.61
940.749	5030.86
941.056	5025.66
941.363	4961.71
941.67	4915.38
941.977	4869.5
942.284	4884.19
942.591	4909.28
942.898	4835.38
943.205	4849.62
943.511	4839.22
943.818	4807.13
944.125	4751.99
944.431	4772.78
944.738	4736.17
945.044	4697.08
945.35	4672.22
945.657	4697.98
945.963	4622.05
946.269	4591.32
946.575	4642.84
946.881	4597.87
947.187	4611.66
947.493	4535.05
947.799	4540.93
948.105	4479.23
948.41	4482.4
948.716	4483.75
949.022	4439.46
949.327	4436.75
949.633	4401.95
949.938	4407.82
950.244	4391.33
950.549	4340.03
950.854	4341.16
951.16	4340.25
951.465	4318.11
951.77	4270.42
952.075	4233.82
952.38	4238.33
952.685	4203.76
952.99	4166.25
953.294	4225.91
953.599	4146.59
953.904	4147.26
954.209	4145.23
954.513	4137.77
954.818	4101.16
955.122	4077.89
955.426	4092.35
955.731	4046.93
956.035	4017.55
956.339	4017.1
956.643	3988.17
956.948	4007.83
957.252	3973.71
957.556	3918.34
957.86	3924.9
958.163	3940.49
958.467	3880.38
958.771	3899.36
959.075	3869.53
959.378	3851
959.682	3814.84
959.985	3772.81
960.289	3779.14
960.592	3773.94
960.896	3733.04
961.199	3715.86
961.502	3694.85
961.805	3679.03
962.108	3664.79
962.411	3710.21
962.714	3652.14
963.017	3665.69
963.32	3668.18
963.623	3651.68
963.926	3608.97
964.228	3597.45
964.531	3544.12
964.833	3526.94
965.136	3503.21
965.438	3557.67
965.741	3511.35
966.043	3496.89
966.345	3477.45
966.648	3484.23
966.95	3469.77
967.252	3422.99
967.554	3380.28
967.856	3424.57
968.158	3393.39
968.46	3394.97
968.761	3376.21
969.063	3314.74
969.365	3312.71
969.666	3317
969.968	3327.85
970.269	3313.84
970.571	3301.41
970.872	3291.92
971.174	3237.01
971.475	3241.75
971.776	3233.16
972.077	3180.06
972.378	3181.19
972.679	3204.92
972.98	3183.45
973.281	3186.84
973.582	3167.85
973.883	3131.02
974.183	3104.13
974.484	3110.45
974.785	3070
975.085	3081.76
975.386	3063
975.686	3063.45
975.986	3001.98
976.287	3038.14
976.587	3001.08
976.887	2996.33
977.187	2945.26
977.487	2968.31
977.787	2931.02
978.087	2932.83
978.387	2906.17
978.687	2896.22
978.987	2883.12
979.286	2870.24
979.586	2873.4
979.885	2844.93
980.185	2818.49
980.484	2833.4
980.784	2799.5
981.083	2827.98
981.382	2808.09
981.682	2787.07
981.981	2770.12
982.28	2748.66
982.579	2732.84
982.878	2724.93
983.177	2713.63
983.475	2713.86
983.774	2686.74
984.073	2691.71
984.372	2637.92
984.67	2641.54
984.969	2647.87
985.267	2664.36
985.566	2643.57
985.864	2614.87
986.162	2603.58
986.461	2589.56
986.759	2589.11
987.057	2568.77
987.355	2521.32
987.653	2540.53
987.951	2561.32
988.249	2530.81
988.547	2535.55
988.844	2512.28
989.142	2475.44
989.44	2464.6
989.737	2486.97
990.035	2449.23
990.332	2458.49
990.63	2439.96
990.927	2442.9
991.224	2412.62
991.521	2412.62
991.819	2379.85
992.116	2365.39
992.413	2359.74
992.71	2350.02
993.006	2338.27
993.303	2347.09
993.6	2330.36
993.897	2318.16
994.193	2306.63
994.49	2284.94
994.787	2240.87
995.083	2273.41
995.379	2224.83
995.676	2238.84
995.972	2272.06
996.268	2214.66
996.565	2220.08
996.861	2199.97
997.157	2167.2
997.453	2180.76
997.749	2154.32
998.044	2160.2
998.34	2153.42
998.636	2138.05
998.932	2118.39
999.227	2138.28
999.523	2112.52
999.818	2100.76
1000.114	2076.13
1000.409	2057.15
1000.704	2056.25
1001	2058.05
1001.295	2029.35
1001.59	2018.28
1001.885	1995.46
1002.18	2010.14
1002.475	2004.04
1002.77	1962.24
1003.065	1968.11
1003.359	1936.02
1003.654	1953.88
1003.949	1952.52
1004.243	1916.36
1004.538	1918.85
1004.832	1948.68
1005.127	1920.43
1005.421	1903.03
1005.715	1885.85
1006.009	1887.66
1006.304	1850.38
1006.598	1855.12
1006.892	1836.59
1007.186	1828.91
1007.48	1826.87
1007.773	1805.4
1008.067	1799.75
1008.361	1778.74
1008.655	1773.77
1008.948	1774.67
1009.242	1773.31
1009.535	1726.08
1009.829	1750.26
1010.122	1717.72
1010.415	1728.57
1010.708	1741.23
1011.001	1710.94
1011.295	1674.33
1011.588	1673.2
1011.881	1675.01
1012.173	1652.41
1012.466	1672.07
1012.759	1654.9
1013.052	1637.05
1013.344	1613.09
1013.637	1598.86
1013.93	1647.67
1014.222	1609.93
1014.514	1580.78
1014.807	1594.34
1015.099	1588.69
1015.391	1581.68
1015.683	1549.37
1015.976	1540.1
1016.268	1556.15
1016.56	1513.66
1016.851	1499.88
1017.143	1510.5
1017.435	1512.3
1017.727	1490.16
1018.018	1517.5
1018.31	1470.95
1018.602	1477.73
1018.893	1460.55
1019.185	1460.1
1019.476	1419.65
1019.767	1451.52
1020.058	1429.14
1020.35	1414.45
1020.641	1388.01
1020.932	1385.75
1021.223	1393.44
1021.514	1364.06
1021.804	1365.87
1022.095	1326.32
1022.386	1352.99
1022.677	1334
1022.967	1335.59
1023.258	1303.95
1023.548	1308.47
1023.839	1303.5
1024.129	1298.75
1024.419	1277.06
1024.709	1284.74
1025	1237.28
1025.29	1246.1
1025.58	1262.82
1025.87	1272.54
1026.16	1232.99
1026.449	1238.19
1026.739	1221.92
1027.029	1225.53
1027.319	1217.17
1027.608	1201.58
1027.898	1189.6
1028.187	1189.15
1028.477	1168.59
1028.766	1186.66
1029.055	1202.93
1029.344	1148.7
1029.634	1159.09
1029.923	1151.41
1030.212	1144.86
1030.501	1115.25
1030.79	1103.95
1031.078	1095.82
1031.367	1094.24
1031.656	1090.4
1031.945	1072.32
1032.233	1087.91
1032.522	1101.02
1032.81	1064.18
1033.099	1048.14
1033.387	1064.18
1033.675	1054.69
1033.963	1051.3
1034.251	1017.18
1034.54	1021.47
1034.828	1028.25
1035.116	1012.66
1035.403	1011.75
1035.691	1009.27
1035.979	996.16
1036.267	957.74
1036.554	984.64
1036.842	968.59
1037.129	968.14
1037.417	969.72
1037.704	967.91
1037.992	936.5
1038.279	945.99
1038.566	945.09
1038.853	945.09
1039.14	945.09
