Data from hue_140_FLMS001491_00055.txt Node
Date: Tue Feb 07 16:56:07 GMT 2017
User: dcchb
Spectrometer: FLMS00149
Trigger mode: 0
Integration Time (sec): 2.000000E-2
Scans to average: 10
Electric dark correction enabled: true
Nonlinearity correction enabled: false
Boxcar width: 0
XAxis mode: Wavelengths
Number of Pixels in Spectrum: 2048
>>>>>Begin Spectral Data<<<<<
341.393	-22.54
341.776	-22.54
342.16	-22.54
342.543	-56.67
342.927	-44.69
343.31	-66.61
343.693	-66.38
344.077	-79.49
344.46	-96.66
344.843	-73.16
345.226	1.86
345.61	-38.59
345.993	-17.57
346.376	-9.89
346.759	16.78
347.142	47.74
347.525	37.12
347.908	64.24
348.291	61.07
348.674	83.67
349.057	135.87
349.44	140.17
349.823	139.49
350.206	168.87
350.588	200.96
350.971	224.68
351.354	209.09
351.737	244.57
352.119	241.86
352.502	258.35
352.884	287.51
353.267	278.24
353.65	299.03
354.032	281.63
354.414	313.95
354.797	317.56
355.179	296.55
355.562	321.86
355.944	328.86
356.326	327.96
356.709	335.87
357.091	328.41
357.473	327.28
357.855	336.09
358.238	358.01
358.62	338.8
359.002	345.36
359.384	331.35
359.766	337.45
360.148	333.61
360.53	325.7
360.912	338.8
361.294	324.34
361.676	334.96
362.057	339.71
362.439	337.9
362.821	346.94
363.203	307.62
363.584	325.25
363.966	313.72
364.348	321.18
364.729	307.85
365.111	322.99
365.493	290.44
365.874	337.22
366.256	318.24
366.637	324.12
367.019	311.91
367.4	311.01
367.781	315.3
368.163	306.72
368.544	326.15
368.925	313.27
369.306	301.29
369.688	310.56
370.069	327.28
370.45	299.94
370.831	312.59
371.212	304.68
371.593	312.14
371.974	321.63
372.355	300.61
372.736	337.9
373.117	300.61
373.498	330.44
373.879	317.11
374.26	328.41
374.641	294.29
375.021	319.6
375.402	304
375.783	308.97
376.163	319.14
376.544	317.34
376.925	320.95
377.305	327.28
377.686	319.37
378.066	330.9
378.447	322.08
378.827	347.39
379.208	349.43
379.588	348.75
379.968	341.97
380.349	320.73
380.729	342.42
381.109	320.27
381.489	365.24
381.87	340.61
382.25	346.04
382.63	313.72
383.01	353.27
383.39	348.52
383.77	355.08
384.15	356.66
384.53	339.26
384.91	354.85
385.29	337.22
385.67	360.05
386.049	362.08
386.429	339.26
386.809	350.33
387.189	359.14
387.568	371.35
387.948	353.27
388.328	360.05
388.707	366.6
389.087	378.13
389.466	365.92
389.846	364.79
390.225	386.26
390.605	366.83
390.984	360.95
391.363	397.56
391.743	370.67
392.122	393.72
392.501	367.96
392.881	398.24
393.26	377
393.639	407.5
394.018	369.09
394.397	384.91
394.776	379.26
395.155	391.91
395.534	403.21
395.913	369.09
396.292	395.07
396.671	408.41
397.05	401.4
397.429	406.6
397.808	399.82
398.186	385.81
398.565	381.29
398.944	397.56
399.323	404.57
399.701	414.28
400.08	404.57
400.458	400.95
400.837	412.7
401.215	411.12
401.594	411.12
401.972	398.24
402.351	421.74
402.729	435.75
403.107	415.86
403.486	407.73
403.864	425.36
404.242	430.78
404.62	420.16
404.999	413.6
405.377	430.78
405.755	435.3
406.133	451.34
406.511	439.37
406.889	436.88
407.267	432.81
407.645	444.34
408.023	440.95
408.401	462.87
408.779	462.19
409.156	467.84
409.534	470.55
409.912	428.97
410.29	459.48
410.667	454.73
411.045	465.13
411.422	464
411.8	480.72
412.178	491.57
412.555	475.3
412.933	485.02
413.31	504.22
413.687	483.89
414.065	499.93
414.442	513.49
414.819	501.96
415.197	526.6
415.574	511
415.951	531.34
416.328	508.74
416.705	499.48
417.082	526.6
417.46	517.56
417.837	538.12
418.214	551.91
418.591	518.91
418.967	540.83
419.344	543.09
419.721	539.93
420.098	545.13
420.475	558.69
420.852	589.19
421.228	565.01
421.605	564.79
421.982	550.78
422.358	576.54
422.735	574.96
423.111	577.44
423.488	551.23
423.864	588.52
424.241	597.33
424.617	586.71
424.994	603.88
425.37	626.03
425.746	584
426.123	597.1
426.499	606.82
426.875	621.28
427.251	617.22
427.627	622.86
428.003	630.1
428.379	635.52
428.756	660.83
429.132	649.3
429.507	632.13
429.883	656.31
430.259	657.44
430.635	654.05
431.011	664.45
431.387	685.46
431.763	685.01
432.138	683.2
432.514	697.67
432.89	710.09
433.265	730.21
433.641	699.25
434.016	708.96
434.392	734.27
434.767	735.4
435.143	749.42
435.518	755.29
435.894	751.68
436.269	761.17
436.644	759.81
437.02	761.84
437.395	763.88
437.77	777.44
438.145	792.58
438.52	794.84
438.895	776.08
439.271	802.07
439.646	788.51
440.021	812.69
440.395	816.76
440.77	822.86
441.145	815.85
441.52	857.66
441.895	855.63
442.27	847.94
442.645	850.88
443.019	859.92
443.394	863.76
443.769	854.72
444.143	864.44
444.518	899.69
444.892	885.23
445.267	882.29
445.641	914.16
446.016	886.13
446.39	911.44
446.764	911.22
447.139	922.29
447.513	915.96
447.887	908.73
448.262	929.52
448.636	947.38
449.01	949.41
449.384	959.35
449.758	976.3
450.132	960.48
450.506	989.18
450.88	978.79
451.254	998
451.628	1007.71
452.002	1014.27
452.376	1025.79
452.75	1026.02
453.123	1055.4
453.497	1045.9
453.871	1069.18
454.244	1074.6
454.618	1090.65
454.992	1105.11
455.365	1079.12
455.739	1077.32
456.112	1114.6
456.486	1116.19
456.859	1137.65
457.232	1169.97
457.606	1157.31
457.979	1154.6
458.352	1197.31
458.725	1199.35
459.099	1222.62
459.472	1264.88
459.845	1273.02
460.218	1272.79
460.591	1277.31
460.964	1333.35
461.337	1320.93
461.71	1324.77
462.083	1364.54
462.456	1333.35
462.829	1356.63
463.201	1388.49
463.574	1417.65
463.947	1441.83
464.32	1451.09
464.692	1482.28
465.065	1476.63
465.438	1500.58
465.81	1529.28
466.183	1534.03
466.555	1590.07
466.928	1607.92
467.3	1581.48
467.672	1640.69
468.045	1673.01
468.417	1685.66
468.789	1677.75
469.161	1715.72
469.534	1758.65
469.906	1773.34
470.278	1819.44
470.65	1823.74
471.022	1890.18
471.394	1941.93
471.766	1933.11
472.138	1978.76
472.51	2009.95
472.882	2100.11
473.253	2109.61
473.625	2136.95
473.997	2202.71
474.369	2228.92
474.74	2288.58
475.112	2359.09
475.484	2364.97
475.855	2428.24
476.227	2482.03
476.598	2578.52
476.97	2623.04
477.341	2685.64
477.713	2730.83
478.084	2779.64
478.455	2843.37
478.827	2912.75
479.198	3029.58
479.569	3094.89
479.94	3208.79
480.311	3287.43
480.682	3387.99
481.053	3470.7
481.424	3627.08
481.795	3646.29
482.166	3722.22
482.537	3814.42
482.908	3972.83
483.279	3980.29
483.65	4132.6
484.021	4218.02
484.391	4374.86
484.762	4421.18
485.133	4545.7
485.503	4667.96
485.874	4838.12
486.244	4877.67
486.615	5062.3
486.985	5154.72
487.356	5276.53
487.726	5392.46
488.097	5577.54
488.467	5676.74
488.837	5869.73
489.207	5970.07
489.578	6074.02
489.948	6255.26
490.318	6362.83
490.688	6424.29
491.058	6552.2
491.428	6777.05
491.798	6890.5
492.168	7055.24
492.538	7116.03
492.908	7326.87
493.278	7479.41
493.648	7504.04
494.017	7758.5
494.387	7852.96
494.757	7973.63
495.126	8116
495.496	8206.39
495.866	8350.57
496.235	8548.98
496.605	8620.85
496.974	8717.79
497.344	8805.7
497.713	8997.56
498.082	9051.34
498.452	9253.82
498.821	9286.37
499.19	9403.43
499.559	9554.16
499.928	9694.72
500.298	9642.97
500.667	9900.14
501.036	9888.16
501.405	10082.5
501.774	10136.74
502.143	10248.15
502.512	10316.17
502.88	10445.66
503.249	10492.66
503.618	10602.04
503.987	10659.44
504.356	10804.52
504.724	10802.71
505.093	10900.56
505.462	10932.88
505.83	11095.36
506.199	11168.8
506.567	11358.4
506.936	11298.06
507.304	11452.64
507.672	11550.04
508.041	11615.12
508.409	11719.75
508.777	11789.58
509.145	11826.41
509.514	11866.86
509.882	12003.36
510.25	12100.98
510.618	12068.67
510.986	12082.45
511.354	12273.41
511.722	12336.46
512.09	12401.76
512.458	12437.47
512.826	12425.72
513.193	12504.59
513.561	12520.18
513.929	12644.7
514.297	12717.91
514.664	12796.1
515.032	12801.98
515.4	12839.72
515.767	12860.96
516.135	12972.82
516.502	12896.21
516.869	12980.28
517.237	13050.11
517.604	13015.31
517.972	13075.19
518.339	13281.97
518.706	13213.72
519.073	13213.49
519.44	13295.07
519.808	13386.82
520.175	13260.72
520.542	13486.03
520.909	13446.93
521.276	13439.7
521.643	13591.34
522.009	13653.48
522.376	13562.41
522.743	13662.07
523.11	13740.94
523.477	13744.78
523.843	13842.86
524.21	13925.79
524.577	13902.74
524.943	13936.64
525.31	13987.71
525.676	14066.13
526.043	14108.39
526.409	14135.5
526.776	14147.26
527.142	14174.83
527.508	14214.6
527.874	14241.72
528.241	14192.23
528.607	14283.97
528.973	14322.17
529.339	14294.14
529.705	14348.38
530.071	14446
530.437	14356.74
530.803	14421.82
531.169	14425.89
531.535	14369.85
531.901	14380.92
532.267	14381.37
532.632	14429.96
532.998	14382.05
533.364	14454.59
533.73	14359.9
534.095	14433.35
534.461	14369.62
534.826	14372.56
535.192	14389.96
535.557	14483.52
535.923	14406.23
536.288	14299.79
536.653	14371.66
537.019	14345.67
537.384	14357.65
537.749	14328.27
538.114	14280.58
538.479	14150.19
538.845	14240.13
539.21	14100.02
539.575	14271.09
539.94	14119.01
540.305	14143.41
540.67	14120.14
541.034	14142.96
541.399	14109.74
541.764	14004.43
542.129	13990.2
542.494	14043.76
542.858	13944.32
543.223	13884.66
543.587	14008.5
543.952	13903.42
544.316	13885.34
544.681	13844.66
545.045	13825
545.41	13818.68
545.774	13781.62
546.138	13708.4
546.503	13726.02
546.867	13685.35
547.231	13783.2
547.595	13700.94
547.959	13645.57
548.324	13516.31
548.688	13608.06
549.052	13568.74
549.416	13537.33
549.779	13478.8
550.143	13518.12
550.507	13541.17
550.871	13529.87
551.235	13432.92
551.599	13436.31
551.962	13379.14
552.326	13324
552.689	13384.56
553.053	13266.6
553.417	13287.39
553.78	13399.03
554.143	13244.68
554.507	13271.8
554.87	13266.83
555.234	13326.71
555.597	13238.13
555.96	13177.79
556.323	13221.4
556.686	13097.57
557.05	13206.71
557.413	13213.72
557.776	13221.63
558.139	13198.58
558.502	13184.79
558.865	13168.75
559.228	13237.67
559.59	13264.11
559.953	13169.43
560.316	13256.43
560.679	13228.18
561.041	13264.11
561.404	13295.3
561.767	13228.41
562.129	13274.74
562.492	13300.5
562.854	13224.57
563.217	13214.62
563.579	13280.16
563.941	13331.46
564.304	13334.62
564.666	13375.75
565.028	13323.77
565.39	13377.56
565.753	13355.19
566.115	13410.55
566.477	13406.94
566.839	13416.88
567.201	13480.83
567.563	13507.5
567.925	13487.16
568.287	13526.93
568.648	13559.47
569.01	13509.76
569.372	13636.53
569.734	13512.02
570.095	13601.51
570.457	13654.84
570.819	13629.98
571.18	13608.96
571.542	13615.29
571.903	13705.01
572.265	13670.66
572.626	13654.39
572.987	13729.64
573.349	13744.55
573.71	13746.59
574.071	13832.69
574.432	13748.17
574.794	13903.42
575.155	13841.95
575.516	13776.42
575.877	13724.89
576.238	13789.75
576.599	13829.98
576.96	13788.85
577.32	13794.5
577.681	13862.52
578.042	13862.06
578.403	13843.76
578.763	13893.7
579.124	13936.41
579.485	13939.13
579.845	13992.68
580.206	13891.67
580.566	13915.17
580.927	13819.81
581.287	13865
581.648	13867.49
582.008	13871.1
582.368	13821.39
582.728	13845.79
583.089	13902.97
583.449	13843.31
583.809	13854.83
584.169	13883.08
584.529	13766.93
584.889	13978.9
585.249	13796.3
585.609	13747.72
585.969	13917.2
586.329	13888.28
586.688	13859.35
587.048	13774.61
587.408	13838.11
587.768	13799.24
588.127	13710.66
588.487	13693.03
588.846	13854.61
589.206	13669.53
589.565	13711.79
589.925	13712.24
590.284	13753.37
590.643	13763.08
591.003	13722.63
591.362	13720.83
591.721	13735.97
592.08	13691.67
592.44	13742.75
592.799	13668.85
593.158	13664.1
593.517	13686.93
593.876	13725.35
594.235	13629.08
594.593	13647.38
594.952	13715.85
595.311	13627.49
595.67	13685.35
596.029	13718.11
596.387	13709.75
596.746	13620.04
597.104	13635.63
597.463	13671.56
597.822	13656.42
598.18	13593.82
598.538	13679.7
598.897	13728.28
599.255	13568.74
599.613	13726.02
599.972	13671.56
600.33	13625.46
600.688	13632.24
601.046	13582.3
601.404	13733.03
601.762	13628.85
602.12	13711.33
602.478	13697.78
602.836	13781.16
603.194	13615.52
603.552	13681.28
603.91	13574.16
604.268	13724.22
604.625	13576.2
604.983	13647.61
605.341	13598.34
605.698	13621.39
606.056	13624.11
606.413	13747.72
606.771	13681.73
607.128	13699.13
607.485	13577.1
607.843	13689.19
608.2	13666.14
608.557	13693.26
608.914	13740.71
609.272	13779.81
609.629	13714.05
609.986	13822.52
610.343	13823.65
610.7	13831.78
611.057	13798.79
611.414	13801.73
611.771	13768.06
612.127	13831.11
612.484	13868.62
612.841	13946.81
613.198	13878.11
613.554	13904.1
613.911	13881.5
614.267	13903.42
614.624	13973.47
614.98	13991.78
615.337	13976.64
615.693	14041.72
616.05	13937.54
616.406	14111.1
616.762	13956.07
617.118	13934.61
617.475	13973.25
617.831	14060.93
618.187	14000.37
618.543	13999.69
618.899	14100.02
619.255	14078.33
619.611	14062.29
619.967	14110.42
620.323	14097.09
620.678	14037.65
621.034	14092.12
621.39	14044.88
621.746	13983.42
622.101	14151.77
622.457	14024.09
622.812	14086.24
623.168	14145
623.523	14087.6
623.879	14206.01
624.234	14071.1
624.589	14121.27
624.945	14030.42
625.3	14142.74
625.655	14117.88
626.01	14086.47
626.365	14175.5
626.72	14094.6
627.075	14138.89
627.43	14143.87
627.785	14059.12
628.14	14067.03
628.495	14141.15
628.85	14084.21
629.205	14043.53
629.559	14072.23
629.914	14030.2
630.269	14063.19
630.623	14037.65
630.978	14072.68
631.332	14081.95
631.687	14086.24
632.041	13958.56
632.396	13975.28
632.75	13939.13
633.104	13942.74
633.459	13888.05
633.813	13940.71
634.167	13850.99
634.521	13863.65
634.875	13842.63
635.229	13831.78
635.583	13796.3
635.937	13754.95
636.291	13693.93
636.645	13725.35
636.999	13689.41
637.352	13715.85
637.706	13632.69
638.06	13749.75
638.413	13714.5
638.767	13678.11
639.121	13645.8
639.474	13560.38
639.828	13582.52
640.181	13635.18
640.534	13609.19
640.888	13599.02
641.241	13513.6
641.594	13498.91
641.947	13599.47
642.301	13535.29
642.654	13573.71
643.007	13519.25
643.36	13497.33
643.713	13494.62
644.066	13517.22
644.419	13424.11
644.771	13323.32
645.124	13225.92
645.477	13223.89
645.83	13169.88
646.182	13201.74
646.535	13018.92
646.888	13121.29
647.24	12975.76
647.593	12984.12
647.945	13038.81
648.298	12988.87
648.65	12947.51
649.002	12924.24
649.355	13026.83
649.707	13035.87
650.059	13042.65
650.411	13208.3
650.763	13182.53
651.115	13307.96
651.467	13341.4
651.819	13354.28
652.171	13320.61
652.523	13329.2
652.875	13315.86
653.227	13271.35
653.578	13325.81
653.93	13347.05
654.282	13229.99
654.633	13231.8
654.985	13312.93
655.337	13240.16
655.688	13323.55
656.039	13271.35
656.391	13246.04
656.742	13267.05
657.094	13286.26
657.445	13289.65
657.796	13275.41
658.147	13254.85
658.498	13246.26
658.849	13277.22
659.2	13303.21
659.551	13195.42
659.902	13251.01
660.253	13279.48
660.604	13309.31
660.955	13213.49
661.306	13268.41
661.656	13245.13
662.007	13305.92
662.358	13244.68
662.708	13246.71
663.059	13264.79
663.409	13213.04
663.76	13283.1
664.11	13350.44
664.461	13291.23
664.811	13292.59
665.161	13299.59
665.511	13278.35
665.862	13221.86
666.212	13316.99
666.562	13340.95
666.912	13304.34
667.262	13333.04
667.612	13306.15
667.962	13268.86
668.312	13303.89
668.662	13438.57
669.011	13328.52
669.361	13292.59
669.711	13277
670.06	13212.82
670.41	13201.07
670.76	13242.42
671.109	13262.76
671.459	13257.56
671.808	13294.17
672.157	13274.06
672.507	13180.05
672.856	13206.04
673.205	13097.57
673.554	13178.47
673.904	13128.75
674.253	13203.78
674.602	13216.43
674.951	13011.24
675.3	12988.42
675.649	13131.91
675.998	13124.23
676.346	13081.97
676.695	13109.09
677.044	13105.47
677.393	13124.23
677.741	13061.18
678.09	13057.34
678.438	13081.75
678.787	13035.65
679.135	13004.23
679.484	12996.78
679.832	12939.6
680.181	12847.18
680.529	12880.85
680.877	12933.95
681.225	12893.28
681.573	12921.98
681.922	12773.28
682.27	12755.65
682.618	12795.88
682.966	12793.84
683.314	12775.99
683.661	12713.17
684.009	12703.23
684.357	12667.29
684.705	12641.53
685.053	12712.49
685.4	12618.26
685.748	12535.32
686.095	12523.79
686.443	12472.95
686.79	12396.57
687.138	12451.48
687.485	12418.26
687.832	12413.29
688.18	12374.87
688.527	12344.59
688.874	12260.75
689.221	12308.66
689.568	12254.2
689.915	12185.95
690.262	12222.79
690.609	12142.11
690.956	12011.72
691.303	12074.09
691.65	12100.53
691.997	12022.79
692.344	11896.24
692.69	11949.57
693.037	11860.08
693.383	11737.37
693.73	11809.92
694.077	11715.45
694.423	11658.28
694.769	11703.93
695.116	11650.6
695.462	11707.09
695.808	11635.91
696.155	11581.45
696.501	11477.72
696.847	11461.9
697.193	11371.28
697.539	11416.71
697.885	11371.28
698.231	11352.75
698.577	11253.09
698.923	11233.89
699.269	11183.72
699.614	11195.24
699.96	11146.88
700.306	11154.34
700.651	11116.37
700.997	10973.33
701.342	11050.39
701.688	10941.92
702.033	10973.1
702.379	10920.45
702.724	10877.06
703.069	10933.78
703.415	10816.5
703.76	10762.03
704.105	10726.1
704.45	10683.84
704.795	10666.22
705.14	10676.16
705.485	10683.17
705.83	10485.43
706.175	10535.15
706.52	10522.49
706.865	10493.11
707.209	10449.27
707.554	10475.26
707.899	10489.05
708.243	10359.11
708.588	10339.45
708.932	10226.45
709.277	10319.56
709.621	10208.15
709.966	10118.21
710.31	10147.59
710.654	10069.62
710.998	10113.01
711.342	10146.68
711.687	10042.73
712.031	10018.78
712.375	10047.48
712.719	10023.75
713.063	9981.26
713.407	9996.86
713.75	10036.18
714.094	9951.89
714.438	9903.3
714.782	9917.31
715.125	9857.88
715.469	9868.05
715.812	9797.76
716.156	9779.23
716.499	9793.02
716.843	9817.2
717.186	9806.35
717.53	9848.84
717.873	9720.93
718.216	9753.47
718.559	9725.9
718.902	9676.86
719.246	9666.24
719.589	9625.57
719.932	9650.42
720.275	9641.61
720.617	9642.51
720.96	9621.27
721.303	9541.95
721.646	9576.08
721.989	9549.86
722.331	9568.84
722.674	9525
723.016	9492.01
723.359	9477.32
723.701	9543.08
724.044	9482.97
724.386	9385.8
724.729	9466.7
725.071	9452.01
725.413	9459.47
725.755	9435.51
726.097	9411.11
726.439	9301.96
726.782	9385.8
727.124	9435.97
727.465	9407.72
727.807	9367.95
728.149	9412.69
728.491	9438.9
728.833	9375.18
729.175	9337.89
729.516	9374.5
729.858	9322.3
730.199	9344.67
730.541	9337.89
730.882	9289.3
731.224	9380.83
731.565	9290.89
731.906	9294.28
732.248	9372.69
732.589	9310.09
732.93	9298.57
733.271	9301.28
733.612	9370.21
733.953	9311.45
734.294	9261.06
734.635	9280.94
734.976	9243.88
735.317	9260.38
735.658	9278
735.999	9285.46
736.339	9274.16
736.68	9291.56
737.021	9262.19
737.361	9348.74
737.702	9313.48
738.042	9261.51
738.383	9272.36
738.723	9367.27
739.063	9248.85
739.404	9333.37
739.744	9353.26
740.084	9268.97
740.424	9366.59
740.764	9280.04
741.104	9375.4
741.444	9389.64
741.784	9351.45
742.124	9385.12
742.464	9362.07
742.804	9398.68
743.143	9382.86
743.483	9495.63
743.823	9395.06
744.162	9424.22
744.502	9545.57
744.841	9450.88
745.181	9560.94
745.52	9570.88
745.86	9561.61
746.199	9660.14
746.538	9657.88
746.877	9767.71
747.216	9835.5
747.556	9776.07
747.895	9827.14
748.234	9757.77
748.573	9839.35
748.911	10043.86
749.25	10039.34
749.589	10143.97
749.928	10056.97
750.267	10229.39
750.605	10237.75
750.944	10322.5
751.283	10299.67
751.621	10500.57
751.96	10517.29
752.298	10573.34
752.636	10693.56
752.975	10752.09
753.313	10779.21
753.651	11026.21
753.989	10958.41
754.327	11105.08
754.666	11212.19
755.004	11339.87
755.342	11431.62
755.679	11615.8
756.017	11717.49
756.355	11856.47
756.693	11896.01
757.031	12140.98
757.368	12129.23
757.706	12362.22
758.044	12479.28
758.381	12689.89
758.719	12706.62
759.056	12956.55
759.394	13010.56
759.731	13191.12
760.068	13341.85
760.405	13425.69
760.743	13658.45
761.08	13906.81
761.417	13935.51
761.754	14140.93
762.091	14315.61
762.428	14374.59
762.765	14513.12
763.102	14787.69
763.438	14887.8
763.775	15016.38
764.112	15151.07
764.449	15334.12
764.785	15391.29
765.122	15664.28
765.458	15732.07
765.795	15909.69
766.131	16040.99
766.467	16125.06
766.804	16278.95
767.14	16363.24
767.476	16553.75
767.812	16675.32
768.148	16758.26
768.485	16868.09
768.821	16955.77
769.157	17137.23
769.492	17212.26
769.828	17292.71
770.164	17365.02
770.5	17501.97
770.836	17620.84
771.171	17700.83
771.507	17701.06
771.842	17777.22
772.178	17932.69
772.513	18033.48
772.849	18030.77
773.184	18116.42
773.519	18207.94
773.855	18213.36
774.19	18229.41
774.525	18428.27
774.86	18385.56
775.195	18488.38
775.53	18564.77
775.865	18564.99
776.2	18559.57
776.535	18519.8
776.87	18568.61
777.205	18643.18
777.539	18607.7
777.874	18749.62
778.209	18680.92
778.543	18781.71
778.878	18768.38
779.212	18925.43
779.547	18852.22
779.881	18917.07
780.215	18847.24
780.55	18930.63
780.884	18871.65
781.218	18807.02
781.552	18922.27
781.886	18886.34
782.22	18878.43
782.554	18776.74
782.888	18673.24
783.222	18741.94
783.556	18826.23
783.889	18725.89
784.223	18610.87
784.557	18735.61
784.89	18683.86
785.224	18695.16
785.557	18636.85
785.891	18624.43
786.224	18686.12
786.558	18668.27
786.891	18505.11
787.224	18482.06
787.557	18447.71
787.891	18522.51
788.224	18424.43
788.557	18548.04
788.89	18456.97
789.223	18545.11
789.556	18386.24
789.888	18304.89
790.221	18373.36
790.554	18198.22
790.887	18189.41
791.219	18186.7
791.552	18167.49
791.884	18079.58
792.217	18095.63
792.549	18103.54
792.882	17962.07
793.214	17915.07
793.546	18110.54
793.879	17920.94
794.211	17792.81
794.543	17867.61
794.875	17836.2
795.207	17907.38
795.539	17779.48
795.871	17795.52
796.203	17689.31
796.535	17521.63
796.867	17487.28
797.198	17524.57
797.53	17541.52
797.862	17405.47
798.193	17550.33
798.525	17244.57
798.856	17391.46
799.188	17225.14
799.519	17231.69
799.85	17107.4
800.182	17220.62
800.513	17142.2
800.844	16964.58
801.175	17184.01
801.506	17178.81
801.837	17044.13
802.168	17018.82
802.499	16913.96
802.83	16896.56
803.161	16838.71
803.491	16874.64
803.822	16847.98
804.153	16680.52
804.483	16664.48
804.814	16535.89
805.145	16568.43
805.475	16544.48
805.805	16444.14
806.136	16476.23
806.466	16464.26
806.796	16451.6
807.126	16264.04
807.457	16345.62
807.787	16294.54
808.117	16155.79
808.447	16219.07
808.777	16212.29
809.107	16101.1
809.436	16013.19
809.766	16018.39
810.096	16015.45
810.426	15922.8
810.755	16035.57
811.085	15920.09
811.414	15966.87
811.744	15837.61
812.073	15751.51
812.403	15750.38
812.732	15705.86
813.061	15759.87
813.39	15645.97
813.719	15589.7
814.049	15662.02
814.378	15592.41
814.707	15536.82
815.036	15536.37
815.365	15477.16
815.693	15400.56
816.022	15400.1
816.351	15361.69
816.68	15234.91
817.008	15353.55
817.337	15158.53
817.665	15166.44
817.994	15296.15
818.322	15181.35
818.651	15036.5
818.979	15076.95
819.307	15109.94
819.636	15128.92
819.964	14983.62
820.292	15054.12
820.62	15067.91
820.948	15140.68
821.276	15064.97
821.604	15029.72
821.932	15061.58
822.259	14934.13
822.587	15018.64
822.915	14932.09
823.243	15030.62
823.57	14900.46
823.898	15018.87
824.225	14908.82
824.553	14984.97
824.88	14958.31
825.207	14992.43
825.535	14923.05
825.862	15022.03
826.189	14962.6
826.516	15054.8
826.843	15017.06
827.17	15052.77
827.497	14958.76
827.824	14969.83
828.151	14999.44
828.478	15026.33
828.805	15111.07
829.131	14919.66
829.458	14866.56
829.785	14934.35
830.111	14971.87
830.438	15115.59
830.764	14971.41
831.09	15036.27
831.417	14928.48
831.743	14921.92
832.069	14937.74
832.395	14902.49
832.722	15030.4
833.048	14924.64
833.374	14915.6
833.7	14866.56
834.026	14865.88
834.351	14961.92
834.677	14979.55
835.003	14875.6
835.329	14870.85
835.654	14826.79
835.98	14774.36
836.306	14867.46
836.631	14779.78
836.956	14778.2
837.282	14816.39
837.607	14680.57
837.932	14639.45
838.258	14693.46
838.583	14667.92
838.908	14548.37
839.233	14550.41
839.558	14526.23
839.883	14474.48
840.208	14486.68
840.533	14460.02
840.858	14476.51
841.182	14321.26
841.507	14478.32
841.832	14377.76
842.156	14339.11
842.481	14340.02
842.805	14295.5
843.13	14344.31
843.454	14222.51
843.778	14171.21
844.103	14195.39
844.427	14122.85
844.751	14218.44
845.075	14130.98
845.399	14020.25
845.723	13924.44
846.047	13952.68
846.371	13848.73
846.695	13901.61
847.019	13752.92
847.343	13696.19
847.666	13656.65
847.99	13611.9
848.313	13527.16
848.637	13583.88
848.96	13466.37
849.284	13520.15
849.607	13370.78
849.931	13317.45
850.254	13277.45
850.577	13148.41
850.9	13067.06
851.223	13105.7
851.546	13012.6
851.869	12894.18
852.192	13037.45
852.515	12902.54
852.838	12784.81
853.161	12884.69
853.483	12660.51
853.806	12710.23
854.129	12710.46
854.451	12625.71
854.774	12622.78
855.096	12491.71
855.419	12555.43
855.741	12406.28
856.063	12421.65
856.385	12398.37
856.708	12352.73
857.03	12267.76
857.352	12284.71
857.674	12246.29
857.996	12229.11
858.318	12103.02
858.64	12185.5
858.961	12134.88
859.283	12022.57
859.605	11999.29
859.926	11964.26
860.248	12030.7
860.57	11899.86
860.891	11916.35
861.212	11896.69
861.534	11928.1
861.855	11717.26
862.176	11778.5
862.498	11710.03
862.819	11767.2
863.14	11713.87
863.461	11673.87
863.782	11634.1
864.103	11628.68
864.424	11606.53
864.745	11675.23
865.065	11565.4
865.386	11519.53
865.707	11537.83
866.027	11504.39
866.348	11501.9
866.668	11508.68
866.989	11458.74
867.309	11371.28
867.63	11439.98
867.95	11394.33
868.27	11341.68
868.59	11269.36
868.91	11321.79
869.23	11313.21
869.55	11272.53
869.87	11347.55
870.19	11272.75
870.51	11239.76
870.83	11299.19
871.15	11192.53
871.469	11166.54
871.789	11259.65
872.109	11076.15
872.428	11107.11
872.748	11152.08
873.067	11144.85
873.386	11121.8
873.706	11151.4
874.025	11042.7
874.344	10997.96
874.663	11061.23
874.982	10990.5
875.301	10992.76
875.62	10954.34
875.939	10927.23
876.258	10945.98
876.577	10925.19
876.896	10970.39
877.214	10857.62
877.533	10889.71
877.852	10871.86
878.17	10817.4
878.489	10786.44
878.807	10893.78
879.125	10769.04
879.444	10811.52
879.762	10680.23
880.08	10772.88
880.398	10681.81
880.716	10672.32
881.034	10653.56
881.352	10639.55
881.67	10652.43
881.988	10630.74
882.306	10545.32
882.624	10475.26
882.941	10506.67
883.259	10501.93
883.577	10509.16
883.894	10428.26
884.212	10426.9
884.529	10409.27
884.846	10357.07
885.164	10379.67
885.481	10350.52
885.798	10275.49
886.115	10168.15
886.432	10252.89
886.75	10221.71
887.067	10221.71
887.383	10197.53
887.7	10192.33
888.017	10128.38
888.334	10124.54
888.651	10119.34
888.967	10051.32
889.284	10007.03
889.6	10019.91
889.917	9905.78
890.233	9935.84
890.55	9887.93
890.866	9930.64
891.182	9896.07
891.498	9785.79
891.815	9814.94
892.131	9732.23
892.447	9692.68
892.763	9631.44
893.079	9700.82
893.395	9603.19
893.71	9634.83
894.026	9612.46
894.342	9571.78
894.657	9467.6
894.973	9459.24
895.289	9467.38
895.604	9420.37
895.92	9386.02
896.235	9380.83
896.55	9368.62
896.865	9253.37
897.181	9311
897.496	9343.31
897.811	9177.44
898.126	9218.12
898.441	9148.06
898.756	9149.42
899.071	9038.46
899.386	9040.95
899.7	8970.89
900.015	8942.65
900.33	8913.95
900.644	8900.16
900.959	8896.55
901.273	8899.71
901.588	8850.22
901.902	8761.63
902.216	8723.67
902.531	8748.75
902.845	8709.66
903.159	8694.97
903.473	8594.18
903.787	8589.21
904.101	8481.64
904.415	8544.24
904.729	8443.45
905.042	8373.17
905.356	8376.11
905.67	8408.2
905.984	8370.91
906.297	8391.47
906.611	8265.83
906.924	8266.28
907.237	8225.15
907.551	8253.85
907.864	8163.23
908.177	8115.55
908.491	8107.41
908.804	8106.51
909.117	8051.37
909.43	8054.53
909.743	7919.62
910.056	7969.11
910.368	7897.02
910.681	7868.32
910.994	7863.13
911.307	7918.04
911.619	7743.58
911.932	7818.38
912.244	7639.4
912.557	7748.33
912.869	7613.19
913.181	7560.76
913.494	7635.34
913.806	7518.95
914.118	7500.2
914.43	7529.35
914.742	7444.61
915.054	7416.81
915.366	7393.08
915.678	7387.43
915.99	7322.12
916.302	7253.88
916.613	7232.86
916.925	7282.35
917.236	7219.75
917.548	7194.9
917.859	7214.33
918.171	7104.95
918.482	7130.49
918.794	7108.8
919.105	7047.1
919.416	7015.01
919.727	6998.97
920.038	7018.4
920.349	6914.45
920.66	6878.52
920.971	6866.99
921.282	6895.69
921.593	6819.76
921.903	6786.77
922.214	6733.44
922.525	6736.15
922.835	6701.35
923.146	6694.8
923.456	6650.5
923.767	6669.94
924.077	6630.39
924.387	6563.27
924.697	6492.99
925.008	6553.33
925.318	6517.4
925.628	6528.7
925.938	6430.4
926.248	6377.74
926.558	6406.89
926.867	6393.11
927.177	6308.14
927.487	6305.88
927.796	6308.82
928.106	6256.62
928.416	6224.75
928.725	6216.84
929.034	6145.66
929.344	6184.98
929.653	6167.8
929.962	6070.41
930.271	6102.04
930.581	6064.53
930.89	6028.82
931.199	5975.27
931.508	5986.79
931.817	5972.33
932.125	5984.53
932.434	5925.1
932.743	5835.16
933.051	5863.63
933.36	5811.43
933.669	5801.03
933.977	5736.18
934.286	5772.11
934.594	5748.61
934.902	5710.41
935.21	5672.68
935.519	5655.05
935.827	5662.73
936.135	5622.28
936.443	5567.37
936.751	5576.41
937.059	5473.36
937.367	5534.83
937.674	5546.8
937.982	5481.95
938.29	5422.96
938.597	5467.71
938.905	5351.33
939.213	5336.41
939.52	5361.72
939.827	5312.91
940.135	5342.29
940.442	5294.38
940.749	5259.81
941.056	5281.5
941.363	5217.32
941.67	5213.7
941.977	5206.47
942.284	5118.34
942.591	5125.35
942.898	5125.8
943.205	5121.5
943.511	5061.39
943.818	5064.33
944.125	5046.03
944.431	5047.16
944.738	4977.33
945.044	4987.04
945.35	4984.56
945.657	4911.34
945.963	4890.32
946.269	4846.03
946.575	4859.82
946.881	4837.67
947.187	4824.56
947.493	4780.04
947.799	4727.62
948.105	4792.25
948.41	4653.72
948.716	4729.2
949.022	4689.88
949.327	4691.46
949.633	4668.41
949.938	4618.92
950.244	4609.2
950.549	4629.77
950.854	4588.64
951.16	4515.64
951.465	4504.34
951.77	4552.71
952.075	4498.47
952.38	4500.05
952.685	4501.86
952.99	4489.43
953.294	4381.64
953.599	4395.87
953.904	4387.74
954.209	4363.78
954.513	4361.52
954.818	4338.47
955.122	4321.75
955.426	4273.39
955.731	4282.43
956.035	4263.9
956.339	4213.73
956.643	4190.45
956.948	4168.31
957.252	4157.24
957.556	4181.42
957.86	4137.12
958.163	4125.15
958.467	4089.89
958.771	4100.06
959.075	4060.06
959.378	4058.25
959.682	4076.56
959.985	4037.24
960.289	3993.17
960.592	3973.51
960.896	3965.6
961.199	3957.69
961.502	3940.97
961.805	3933.74
962.108	3885.38
962.411	3862.78
962.714	3852.38
963.017	3882.21
963.32	3856.23
963.623	3851.25
963.926	3839.73
964.228	3794.08
964.531	3807.64
964.833	3750.69
965.136	3733.74
965.438	3738.94
965.741	3678.38
966.043	3687.87
966.345	3666.17
966.648	3663.69
966.95	3642.22
967.252	3601.54
967.554	3601.77
967.856	3576.46
968.158	3536.46
968.46	3563.8
968.761	3563.13
969.063	3493.07
969.365	3582.11
969.666	3537.82
969.968	3467.08
970.269	3463.92
970.571	3440.19
970.872	3466.18
971.174	3413.3
971.475	3392.74
971.776	3397.93
972.077	3371.49
972.378	3336.24
972.679	3361.32
972.98	3346.64
973.281	3304.38
973.582	3331.27
973.883	3310.03
974.183	3286.07
974.484	3229.8
974.785	3257.6
975.085	3269.35
975.386	3191.84
975.686	3202.91
975.986	3197.71
976.287	3155.45
976.587	3133.08
976.887	3119.52
977.187	3141.44
977.487	3161.78
977.787	3078.62
978.087	3100.77
978.387	3096.25
978.687	3055.34
978.987	3067.32
979.286	3053.31
979.586	3004.05
979.885	2994.33
980.185	2995.23
980.484	3001.33
980.784	2955.01
981.083	2953.65
981.382	2942.58
981.682	2929.02
981.981	2929.02
982.28	2896.93
982.579	2887.21
982.878	2898.96
983.177	2911.17
983.475	2887.44
983.774	2850.38
984.073	2837.04
984.372	2795.92
984.67	2814.22
984.969	2807.44
985.267	2791.4
985.566	2780.77
985.864	2754.56
986.162	2759.76
986.461	2709.14
986.759	2698.74
987.057	2703.94
987.355	2685.41
987.653	2681.79
987.951	2684.96
988.249	2646.31
988.547	2641.79
988.844	2643.83
989.142	2628.24
989.44	2599.76
989.737	2609.25
990.035	2563.6
990.332	2539.65
990.63	2580.55
990.927	2556.37
991.224	2563.38
991.521	2512.53
991.819	2492.87
992.116	2506.43
992.413	2506.88
992.71	2441.8
993.006	2444.74
993.303	2447.9
993.6	2472.76
993.897	2423.04
994.193	2417.62
994.49	2420.11
994.787	2367
995.083	2392.76
995.379	2392.54
995.676	2344.63
995.972	2372.65
996.268	2324.06
996.565	2331.97
996.861	2324.74
997.157	2303.27
997.453	2315.25
997.749	2277.51
998.044	2272.54
998.34	2236.83
998.636	2224.4
998.932	2263.5
999.227	2195.48
999.523	2217.4
999.818	2198.42
1000.114	2194.35
1000.409	2170.17
1000.704	2155.71
1001	2184.41
1001.295	2146.67
1001.59	2167.01
1001.885	2128.59
1002.18	2111.64
1002.475	2097.63
1002.77	2069.61
1003.065	2091.98
1003.359	2081.58
1003.654	2065.76
1003.949	2023.73
1004.243	2038.42
1004.538	2014.69
1004.832	2047.46
1005.127	1992.77
1005.421	1966.78
1005.715	1975.15
1006.009	1956.16
1006.304	1959.55
1006.598	1934.92
1006.892	1929.05
1007.186	1900.57
1007.48	1938.31
1007.773	1903.96
1008.067	1908.03
1008.361	1853.57
1008.655	1844.08
1008.948	1816.96
1009.242	1835.94
1009.535	1836.39
1009.829	1805.21
1010.122	1793
1010.415	1780.57
1010.708	1806.11
1011.001	1783.29
1011.295	1759.11
1011.588	1776.96
1011.881	1769.28
1012.173	1705.1
1012.466	1732.21
1012.759	1730.41
1013.052	1729.95
1013.344	1730.41
1013.637	1678.2
1013.93	1665.55
1014.222	1666
1014.514	1682.27
1014.807	1639.34
1015.099	1642.5
1015.391	1648.37
1015.683	1620.58
1015.976	1606.12
1016.268	1598.88
1016.56	1607.92
1016.851	1594.14
1017.143	1572.67
1017.435	1562.5
1017.727	1545.78
1018.018	1556.63
1018.31	1530.19
1018.602	1543.97
1018.893	1527.47
1019.185	1492.67
1019.476	1494.48
1019.767	1486.35
1020.058	1506.01
1020.35	1472.11
1020.641	1450.41
1020.932	1433.47
1021.223	1439.34
1021.514	1423.97
1021.804	1433.92
1022.095	1403.41
1022.386	1405.22
1022.677	1370.87
1022.967	1381.04
1023.258	1366.8
1023.548	1384.65
1023.839	1381.72
1024.129	1348.04
1024.419	1349.63
1024.709	1338.78
1025	1315.05
1025.29	1319.8
1025.58	1317.31
1025.87	1281.83
1026.16	1282.06
1026.449	1276.86
1026.739	1270.98
1027.029	1272.34
1027.319	1245.67
1027.608	1240.25
1027.898	1241.15
1028.187	1248.16
1028.477	1199.12
1028.766	1234.37
1029.055	1188.73
1029.344	1204.54
1029.634	1218.78
1029.923	1196.86
1030.212	1165.22
1030.501	1151.21
1030.79	1172.91
1031.078	1138.78
1031.367	1149.18
1031.656	1156.41
1031.945	1130.87
1032.233	1129.97
1032.522	1128.16
1032.81	1130.42
1033.099	1104.43
1033.387	1122.29
1033.675	1104.89
1033.963	1085.9
1034.251	1093.59
1034.54	1061.72
1034.828	1078.67
1035.116	1040.71
1035.403	1038.67
1035.691	1045.68
1035.979	1056.75
1036.267	1073.7
1036.554	1033.48
1036.842	1020.14
1037.129	1019.01
1037.417	999.8
1037.704	995.74
1037.992	982.18
1038.279	983.08
1038.566	980.37
1038.853	980.37
1039.14	980.37
