Data from hue_140_FLMS001491_00047.txt Node
Date: Tue Feb 07 16:55:59 GMT 2017
User: dcchb
Spectrometer: FLMS00149
Trigger mode: 0
Integration Time (sec): 2.000000E-2
Scans to average: 10
Electric dark correction enabled: true
Nonlinearity correction enabled: false
Boxcar width: 0
XAxis mode: Wavelengths
Number of Pixels in Spectrum: 2048
>>>>>Begin Spectral Data<<<<<
341.393	-7.73
341.776	-7.73
342.16	-7.73
342.543	-66.71
342.927	-58.35
343.31	-73.49
343.693	-65.13
344.077	-65.13
344.46	-61.28
344.843	-52.02
345.226	-49.76
345.61	-37.33
345.993	-4.79
346.376	-17.22
346.759	2.22
347.142	26.17
347.525	53.74
347.908	63.68
348.291	81.99
348.674	86.28
349.057	112.05
349.44	132.61
349.823	120.18
350.206	171.25
350.588	189.33
350.971	219.16
351.354	218.26
351.737	225.04
352.119	240.4
352.502	256.45
352.884	251.93
353.267	278.14
353.65	264.58
354.032	283.11
354.414	309.1
354.797	314.75
355.179	320.85
355.562	320.85
355.944	335.54
356.326	324.24
356.709	322.21
357.091	326.95
357.473	326.5
357.855	339.16
358.238	338.25
358.62	350.46
359.002	339.84
359.384	330.12
359.766	339.16
360.148	331.02
360.53	342.77
360.912	320.4
361.294	337.58
361.676	353.39
362.057	330.57
362.439	337.8
362.821	323.11
363.203	326.95
363.584	327.63
363.966	318.37
364.348	317.92
364.729	337.12
365.111	299.38
365.493	335.54
365.874	321.98
366.256	322.21
366.637	303.9
367.019	296.22
367.4	312.72
367.781	312.04
368.163	311.59
368.544	331.25
368.925	322.44
369.306	316.33
369.688	312.27
370.069	309.55
370.45	307.29
370.831	308.2
371.212	310.23
371.593	324.24
371.974	332.15
372.355	323.56
372.736	289.89
373.117	308.42
373.498	322.89
373.879	298.03
374.26	304.58
374.641	334.86
375.021	333.73
375.402	321.08
375.783	323.79
376.163	308.88
376.544	300.74
376.925	340.51
377.305	327.86
377.686	310.91
378.066	314.3
378.447	338.03
378.827	323.79
379.208	311.59
379.588	336.22
379.968	347.52
380.349	320.63
380.729	324.47
381.109	346.39
381.489	323.11
381.87	344.36
382.25	337.8
382.63	344.81
383.01	341.19
383.39	339.16
383.77	336.22
384.15	328.54
384.53	359.04
384.91	341.87
385.29	344.13
385.67	378.93
386.049	343
386.429	350.46
386.809	362.43
387.189	335.32
387.568	377.57
387.948	355.88
388.328	359.72
388.707	364.92
389.087	354.52
389.466	349.78
389.846	364.69
390.225	361.76
390.605	370.34
390.984	365.82
391.363	357.24
391.743	361.76
392.122	363.56
392.501	377.12
392.881	393.39
393.26	370.12
393.639	370.12
394.018	395.2
394.397	362.89
394.776	376.67
395.155	385.03
395.534	371.25
395.913	364.47
396.292	379.61
396.671	405.14
397.05	376.22
397.429	408.76
397.808	368.54
398.186	365.6
398.565	397.46
398.944	361.53
399.323	382.77
399.701	388.42
400.08	405.6
400.458	393.85
400.837	412.83
401.215	383
401.594	395.88
401.972	405.82
402.351	417.8
402.729	395.65
403.107	428.87
403.486	398.59
403.864	421.64
404.242	414.18
404.62	420.96
404.999	438.14
405.377	413.73
405.755	418.03
406.133	440.85
406.511	416.67
406.889	436.78
407.267	445.6
407.645	431.36
408.023	438.14
408.401	430.68
408.779	432.04
409.156	462.09
409.534	417.8
409.912	452.38
410.29	445.14
410.667	450.34
411.045	428.42
411.422	449.44
411.8	480.85
412.178	452.83
412.555	476.78
412.933	464.58
413.31	460.96
413.687	486.5
414.065	472.26
414.442	484.69
414.819	481.3
415.197	495.31
415.574	477.69
415.951	488.08
416.328	496.44
416.705	482.43
417.082	515.2
417.46	490.57
417.837	515.65
418.214	516.33
418.591	538.7
418.967	510.9
419.344	511.81
419.721	527.4
420.098	521.53
420.475	507.29
420.852	516.55
421.228	524.01
421.605	517.68
421.982	531.47
422.358	542.54
422.735	520.17
423.111	542.77
423.488	547.51
423.864	550
424.241	551.13
424.617	539.15
424.994	565.82
425.37	556.55
425.746	586.38
426.123	551.81
426.499	576.21
426.875	551.36
427.251	561.75
427.627	596.33
428.003	576.44
428.379	605.14
428.756	595.87
429.132	591.35
429.507	601.52
429.883	636.55
430.259	630.22
430.635	604.01
431.011	632.26
431.387	641.07
431.763	656.89
432.138	639.26
432.514	644.01
432.89	650.34
433.265	676.78
433.641	673.16
434.016	675.19
434.392	674.52
434.767	672.48
435.143	697.79
435.518	688.98
435.894	696.89
436.269	726.72
436.644	710.22
437.02	712.93
437.395	705.7
437.77	733.72
438.145	725.14
438.52	728.75
438.895	745.7
439.271	739.37
439.646	756.32
440.021	765.81
440.395	751.58
440.77	767.4
441.145	755.64
441.52	789.32
441.895	793.16
442.27	787.51
442.645	749.54
443.019	804
443.394	791.58
443.769	807.85
444.143	794.29
444.518	821.4
444.892	801.07
445.267	834.29
445.641	822.53
446.016	834.96
446.39	779.82
446.764	854.85
447.139	839.26
447.513	838.81
447.887	839.94
448.262	873.16
448.636	860.73
449.01	879.48
449.384	850.1
449.758	884.45
450.132	885.13
450.506	889.88
450.88	885.13
451.254	887.84
451.628	877
452.002	904.57
452.376	960.38
452.75	965.58
453.123	956.99
453.497	950.44
453.871	973.94
454.244	958.35
454.618	972.59
454.992	986.15
455.365	1016.43
455.739	1001.97
456.112	1016.65
456.486	1019.37
456.859	1045.81
457.232	1049.42
457.606	1075.41
457.979	1052.59
458.352	1081.51
458.725	1099.36
459.099	1102.3
459.472	1115.18
459.845	1117.67
460.218	1132.81
460.591	1168.29
460.964	1156.31
461.337	1169.42
461.71	1177.1
462.083	1186.82
462.456	1219.59
462.829	1223.2
463.201	1243.54
463.574	1283.54
463.947	1287.38
464.32	1283.54
464.692	1292.13
465.065	1309.98
465.438	1349.53
465.81	1362.41
466.183	1370.54
466.555	1385.91
466.928	1427.94
467.3	1422.97
467.672	1443.08
468.045	1497.32
468.417	1493.25
468.789	1475.17
469.161	1525.34
469.534	1554.49
469.906	1592.68
470.278	1600.37
470.65	1629.07
471.022	1660.7
471.394	1720.14
471.766	1737.31
472.138	1743.41
472.51	1799.23
472.882	1838.78
473.253	1844.2
473.625	1888.5
473.997	1923.52
474.369	1959.45
474.74	1991.77
475.112	2079.22
475.484	2094.59
475.855	2180.69
476.227	2177.53
476.598	2276.96
476.97	2303.4
477.341	2350.86
477.713	2406.22
478.084	2431.31
478.455	2516.73
478.827	2585.88
479.198	2678.76
479.569	2728.7
479.94	2827.45
480.311	2878.75
480.682	2955.13
481.053	3064.28
481.424	3119.2
481.795	3208.46
482.166	3279.42
482.537	3351.51
482.908	3462.92
483.279	3545.18
483.65	3658.84
484.021	3777.26
484.391	3871.95
484.762	3933.41
485.133	4005.28
485.503	4131.37
485.874	4243.69
486.244	4339.5
486.615	4455.66
486.985	4561.65
487.356	4680.96
487.726	4807.29
488.097	4892.94
488.467	5015.87
488.837	5244.79
489.207	5289.54
489.578	5438.68
489.948	5541.96
490.318	5713.93
490.688	5758.68
491.058	5884.77
491.428	6042.06
491.798	6126.58
492.168	6304.42
492.538	6400.92
492.908	6553.01
493.278	6657.86
493.648	6801.81
494.017	6946.22
494.387	7068.25
494.757	7170.39
495.126	7363.83
495.496	7349.82
495.866	7472.98
496.235	7649.7
496.605	7725.18
496.974	7874.33
497.344	7963.59
497.713	8043.14
498.082	8171.04
498.452	8360.64
498.821	8367.87
499.19	8489.68
499.559	8592.05
499.928	8730.35
500.298	8782.55
500.667	8997.46
501.036	9025.26
501.405	9111.36
501.774	9101.87
502.143	9238.36
502.512	9318.36
502.88	9451.46
503.249	9519.03
503.618	9621.17
503.987	9755.63
504.356	9792.69
504.724	9846.03
505.093	9872.92
505.462	9927.38
505.83	9984.78
506.199	10119.01
506.567	10228.84
506.936	10270.42
507.304	10375.5
507.672	10435.16
508.041	10447.37
508.409	10600.13
508.777	10657.08
509.145	10762.61
509.514	10753.57
509.882	10817.07
510.25	10877.86
510.618	10961.7
510.986	10928.94
511.354	11093.23
511.722	11104.52
512.09	11274.01
512.458	11156.73
512.826	11299.1
513.193	11352.88
513.561	11300.68
513.929	11415.48
514.297	11550.39
514.664	11584.96
515.032	11566.89
515.4	11597.84
515.767	11734.79
516.135	11688.24
516.502	11631.97
516.869	11791.51
517.237	11739.31
517.604	11765.52
517.972	11891.85
518.339	11862.92
518.706	11923.26
519.073	11884.39
519.44	12014.56
519.808	12079.87
520.175	12083.26
520.542	12061.56
520.909	12180.88
521.276	12165.97
521.643	12267.66
522.009	12200.31
522.376	12265.17
522.743	12221.33
523.11	12270.14
523.477	12413.87
523.843	12421.33
524.21	12489.12
524.577	12530.7
524.943	12526.18
525.31	12531.83
525.676	12691.15
526.043	12675.1
526.409	12673.97
526.776	12757.36
527.142	12639.63
527.508	12649.12
527.874	12774.31
528.241	12835.1
528.607	12757.36
528.973	12751.26
529.339	12688.66
529.705	12853.63
530.071	12769.11
530.437	12838.94
530.803	12766.63
531.169	12920.3
531.535	12785.38
531.901	12747.65
532.267	12711.04
532.632	12813.18
532.998	12710.36
533.364	12812.73
533.73	12779.51
534.095	12797.36
534.461	12814.08
534.826	12787.87
535.192	12822.22
535.557	12826.06
535.923	12698.83
536.288	12747.65
536.653	12702.45
537.019	12703.13
537.384	12624.03
537.749	12610.93
538.114	12560.53
538.479	12554.66
538.845	12658.61
539.21	12570.02
539.575	12480.08
539.94	12559.4
540.305	12538.61
540.67	12485.05
541.034	12433.08
541.399	12373.19
541.764	12371.16
542.129	12423.59
542.494	12359.63
542.858	12317.37
543.223	12339.75
543.587	12306.07
543.952	12220.43
544.316	12193.76
544.681	12155.57
545.045	12171.39
545.41	12232.86
545.774	12146.08
546.138	12025.86
546.503	11962.13
546.867	11979.76
547.231	12053.65
547.595	11991.73
547.959	11951.73
548.324	11875.35
548.688	11876.03
549.052	11856.82
549.416	11904.05
549.779	11827.22
550.143	11735.47
550.507	11838.97
550.871	11784.28
551.235	11697.73
551.599	11726.65
551.962	11755.13
552.326	11658.63
552.689	11685.3
553.053	11638.97
553.417	11641.23
553.78	11683.49
554.143	11457.96
554.507	11582.7
554.87	11500.9
555.234	11588.81
555.597	11552.65
555.96	11491.41
556.323	11437.4
556.686	11381.58
557.05	11480.11
557.413	11464.97
557.776	11524.4
558.139	11464.51
558.502	11481.01
558.865	11415.93
559.228	11469.94
559.59	11473.1
559.953	11424.74
560.316	11467.23
560.679	11483.05
561.041	11529.37
561.404	11555.81
561.767	11553.78
562.129	11442.82
562.492	11545.42
562.854	11432.65
563.217	11495.25
563.579	11480.33
563.941	11499.99
564.304	11517.17
564.666	11570.73
565.028	11567.79
565.39	11553.78
565.753	11555.13
566.115	11616.38
566.477	11693.21
566.839	11658.63
567.201	11690.72
567.563	11631.29
567.925	11733.89
568.287	11639.2
568.648	11649.59
569.01	11728.91
569.372	11743.15
569.734	11677.39
570.095	11662.02
570.457	11716.49
570.819	11670.84
571.18	11710.61
571.542	11784.73
571.903	11840.78
572.265	11796.26
572.626	11829.48
572.987	11795.58
573.349	11885.97
573.71	11808.01
574.071	11974.78
574.432	11847.78
574.794	11913.54
575.155	11922.81
575.516	11825.86
575.877	11907.89
576.238	11873.32
576.599	11912.41
576.96	11903.6
577.32	11935.69
577.681	11930.04
578.042	11964.16
578.403	11951.06
578.763	11955.35
579.124	11972.52
579.485	12069.02
579.845	12025.63
580.206	11930.49
580.566	11905.86
580.927	11937.5
581.287	12006.87
581.648	11939.98
582.008	11996.03
582.368	11974.33
582.728	11938.63
583.089	11984.05
583.449	11974.78
583.809	11935.01
584.169	11980.21
584.529	11923.71
584.889	12052.52
585.249	11888.23
585.609	11898.18
585.969	11965.52
586.329	11935.24
586.688	11841.23
587.048	11876.26
587.408	11849.82
587.768	11818.86
588.127	11929.36
588.487	11843.94
588.846	11878.29
589.206	11808.23
589.565	11813.88
589.925	11888.01
590.284	11795.58
590.643	11834.45
591.003	11874.9
591.362	11827.22
591.721	11794.22
592.08	11742.93
592.44	11842.13
592.799	11789.25
593.158	11755.58
593.517	11790.83
593.876	11775.92
594.235	11748.58
594.593	11738.63
594.952	11792.19
595.311	11700.67
595.67	11739.76
596.029	11851.85
596.387	11806.88
596.746	11799.87
597.104	11761.23
597.463	11745.19
597.822	11799.42
598.18	11756.71
598.538	11662.02
598.897	11736.82
599.255	11591.74
599.613	11860.21
599.972	11782.02
600.33	11767.56
600.688	11677.16
601.046	11742.7
601.404	11865.86
601.762	11787.22
602.12	11723.94
602.478	11793.09
602.836	11695.7
603.194	11728.24
603.552	11803.94
603.91	11716.94
604.268	11846.2
604.625	11754.9
604.983	11792.19
605.341	11686.43
605.698	11705.64
606.056	11795.13
606.413	11798.74
606.771	11807.56
607.128	11718.75
607.485	11732.53
607.843	11756.71
608.2	11902.24
608.557	11779.31
608.914	11738.63
609.272	11829.25
609.629	11899.76
609.986	11896.14
610.343	11836.71
610.7	11892.07
611.057	11937.72
611.414	11852.08
611.771	11956.93
612.127	11928.01
612.484	11847.78
612.841	11946.76
613.198	11876.71
613.554	11949.25
613.911	12014.11
614.267	11982.92
614.624	12006.42
614.98	11907.67
615.337	12048.91
615.693	12048.91
616.05	11929.81
616.406	12041.22
616.762	12040.54
617.118	12055.23
617.475	12092.3
617.831	12083.26
618.187	12089.58
618.543	12077.61
618.899	12126.87
619.255	12122.35
619.611	12071.96
619.967	12117.15
620.323	12137.49
620.678	12177.26
621.034	12078.74
621.39	12132.97
621.746	12107.44
622.101	12274.66
622.457	12121.22
622.812	12084.61
623.168	12183.37
623.523	12218.17
623.879	12148.56
624.234	12172.07
624.589	12165.97
624.945	12154.67
625.3	12159.41
625.655	12113.54
626.01	12158.51
626.365	12133.42
626.72	12080.54
627.075	12121.22
627.43	12089.58
627.785	12039.42
628.14	12176.36
628.495	12097.94
628.85	12087.1
629.205	12046.87
629.559	12109.47
629.914	12063.82
630.269	12022.92
630.623	11967.55
630.978	11984.05
631.332	12029.92
631.687	12071.5
632.041	12018.85
632.396	11964.84
632.75	12030.83
633.104	11945.63
633.459	11957.38
633.813	11904.28
634.167	11925.07
634.521	11881.91
634.875	11927.78
635.229	11907.67
635.583	11862.47
635.937	11823.6
636.291	11810.27
636.645	11781.34
636.999	11841.91
637.352	11864.96
637.706	11784.05
638.06	11729.59
638.413	11804.17
638.767	11733.43
639.121	11775.92
639.474	11731.85
639.828	11644.62
640.181	11734.56
640.534	11730.5
640.888	11697.05
641.241	11674.23
641.594	11623.38
641.947	11648.46
642.301	11665.87
642.654	11698.86
643.007	11708.58
643.36	11638.75
643.713	11714.45
644.066	11709.03
644.419	11534.12
644.771	11571.18
645.124	11373.9
645.477	11389.26
645.83	11315.82
646.182	11302.71
646.535	11304.29
646.888	11232.66
647.24	11204.41
647.593	11317.17
647.945	11338.87
648.298	11231.98
648.65	11240.57
649.002	11134.13
649.355	11235.59
649.707	11222.71
650.059	11276.95
650.411	11331.41
650.763	11413.22
651.115	11504.06
651.467	11426.1
651.819	11460.67
652.171	11495.7
652.523	11444.4
652.875	11426.1
653.227	11412.99
653.578	11556.49
653.93	11469.03
654.282	11439.43
654.633	11357.63
654.985	11391.3
655.337	11410.28
655.688	11377.96
656.039	11379.32
656.391	11303.16
656.742	11365.76
657.094	11466.55
657.445	11449.15
657.796	11440.79
658.147	11414.12
658.498	11399.43
658.849	11470.84
659.2	11425.65
659.551	11331.41
659.902	11480.33
660.253	11348.81
660.604	11463.16
660.955	11386.1
661.306	11388.36
661.656	11390.62
662.007	11470.84
662.358	11407.79
662.708	11400.56
663.059	11454.57
663.409	11387.45
663.76	11436.49
664.11	11435.82
664.461	11411.41
664.811	11438.07
665.161	11473.78
665.511	11472.42
665.862	11421.8
666.212	11523.04
666.562	11500.67
666.912	11573.89
667.262	11446.89
667.612	11418.64
667.962	11461.13
668.312	11443.72
668.662	11434.23
669.011	11420.22
669.361	11470.39
669.711	11495.7
670.06	11440.79
670.41	11487.79
670.76	11395.59
671.109	11470.62
671.459	11407.12
671.808	11481.24
672.157	11387.91
672.507	11352.43
672.856	11403.27
673.205	11342.26
673.554	11377.51
673.904	11352.65
674.253	11381.81
674.602	11374.57
674.951	11238.98
675.3	11152.21
675.649	11344.74
675.998	11282.6
676.346	11302.71
676.695	11290.96
677.044	11242.83
677.393	11262.71
677.741	11327.12
678.09	11280.11
678.438	11251.19
678.787	11229.72
679.135	11305.42
679.484	11128.7
679.832	11133
680.181	11071.08
680.529	11128.7
680.877	11102.72
681.225	11046.45
681.573	11155.14
681.922	11033.34
682.27	11030.18
682.618	11050.97
682.966	10957.64
683.314	10980.69
683.661	10999.44
684.009	10846
684.357	10879.45
684.705	10944.53
685.053	10966.9
685.4	10879.9
685.748	10838.54
686.095	10787.47
686.443	10777.08
686.79	10702.28
687.138	10769.62
687.485	10763.74
687.832	10737.3
688.18	10708.6
688.527	10676.51
688.874	10581.37
689.221	10638.77
689.568	10565.1
689.915	10563.97
690.262	10573.69
690.609	10491.89
690.956	10493.69
691.303	10422.96
691.65	10414.37
691.997	10361.04
692.344	10352.23
692.69	10319.23
693.037	10288.27
693.383	10236.98
693.73	10272.46
694.077	10131.67
694.423	10103.19
694.769	10135.74
695.116	10060.26
695.462	10071.56
695.808	10070.43
696.155	10028.85
696.501	10048.28
696.847	9944.55
697.193	9910.66
697.539	9883.54
697.885	9839.92
698.231	9898.23
698.577	9821.17
698.923	9780.94
699.269	9734.84
699.614	9671.57
699.96	9621.4
700.306	9642.64
700.651	9656.88
700.997	9634.28
701.342	9527.84
701.688	9537.79
702.033	9480.61
702.379	9495.3
702.724	9383.44
703.069	9455.3
703.415	9319.03
703.76	9295.08
704.105	9239.94
704.45	9310.45
704.795	9258.92
705.14	9239.04
705.485	9179.83
705.83	9163.11
706.175	9116.78
706.52	9111.58
706.865	9084.92
707.209	9107.29
707.554	9015.54
707.899	9014.64
708.243	8978.7
708.588	8923.11
708.932	8900.29
709.277	8876.11
709.621	8878.59
709.966	8832.04
710.31	8790.69
710.654	8817.58
710.998	8756.11
711.342	8762.21
711.687	8797.47
712.031	8684.7
712.375	8638.15
712.719	8704.59
713.063	8631.82
713.407	8677.47
713.75	8684.02
714.094	8607.41
714.438	8545.04
714.782	8549.56
715.125	8537.59
715.469	8559.73
715.812	8537.13
716.156	8483.35
716.499	8523.8
716.843	8483.58
717.186	8455.33
717.53	8451.94
717.873	8470.47
718.216	8448.32
718.559	8371.94
718.902	8356.12
719.246	8395.67
719.589	8324.03
719.932	8363.13
720.275	8401.54
720.617	8330.81
720.96	8287.88
721.303	8301.21
721.646	8315.45
721.989	8272.96
722.331	8342.79
722.674	8296.69
723.016	8262.79
723.359	8260.53
723.701	8329
724.044	8195.9
724.386	8254.66
724.729	8195.67
725.071	8216.92
725.413	8179.4
725.755	8165.17
726.097	8176.24
726.439	8126.52
726.782	8117.26
727.124	8112.51
727.465	8151.61
727.807	8124.72
728.149	8168.1
728.491	8127.2
728.833	8160.42
729.175	8138.27
729.516	8089.46
729.858	8100.76
730.199	8173.3
730.541	8082.46
730.882	8080.42
731.224	8168.78
731.565	8079.52
731.906	8097.6
732.248	8081.78
732.589	8041.33
732.93	8113.19
733.271	8039.07
733.612	8064.15
733.953	8121.1
734.294	8066.86
734.635	8024.38
734.976	8052.18
735.317	8013.76
735.658	8054.66
735.999	8060.08
736.339	8093.98
736.68	8066.41
737.021	8095.56
737.361	8092.17
737.702	8133.53
738.042	8129.46
738.383	8127.43
738.723	8088.11
739.063	8062.57
739.404	8145.96
739.744	8070.71
740.084	8076.13
740.424	8115.9
740.764	8104.6
741.104	8201.78
741.444	8124.94
741.784	8140.76
742.124	8235.45
742.464	8198.16
742.804	8176.47
743.143	8128.33
743.483	8173.3
743.823	8152.96
744.162	8295.11
744.502	8344.15
744.841	8354.31
745.181	8320.19
745.52	8408.1
745.86	8439.28
746.199	8494.65
746.538	8502.11
746.877	8597.02
747.216	8573.74
747.556	8625.49
747.895	8606.74
748.234	8647.64
748.573	8749.78
748.911	8790.91
749.25	8837.92
749.589	8894.19
749.928	8940.51
750.267	8993.39
750.605	9039.95
750.944	9109.55
751.283	9124.92
751.621	9269.54
751.96	9313.84
752.298	9391.8
752.636	9508.41
752.975	9516.54
753.313	9655.07
753.651	9821.85
753.989	9815.07
754.327	9872.01
754.666	9965.57
755.004	10108.84
755.342	10261.83
755.679	10371.66
756.017	10447.37
756.355	10584.54
756.693	10674.25
757.031	10869.73
757.368	10888.03
757.706	11081.02
758.044	11205.54
758.381	11401.47
758.719	11492.31
759.056	11587.68
759.394	11785.18
759.731	11865.86
760.068	12044.39
760.405	12193.54
760.743	12262.23
761.08	12469.23
761.417	12674.43
761.754	12819.28
762.091	12973.85
762.428	13152.38
762.765	13209.55
763.102	13429.66
763.438	13581.3
763.775	13708.75
764.112	13897.45
764.449	14067.84
764.785	14179.92
765.122	14320.26
765.458	14376.3
765.795	14525.9
766.131	14770.87
766.467	14861.04
766.804	14985.1
767.14	15027.81
767.476	15236.62
767.812	15348.71
768.148	15482.71
768.485	15562.26
768.821	15684.74
769.157	15775.81
769.492	15935.81
769.828	16129.7
770.164	16069.14
770.5	16146.43
770.836	16289.92
771.171	16373.76
771.507	16451.28
771.842	16465.51
772.178	16630.03
772.513	16696.47
772.849	16839.74
773.184	16851.04
773.519	17026.63
773.855	16956.35
774.19	17186.17
774.525	17119.51
774.86	17256.23
775.195	17350.91
775.53	17311.59
775.865	17340.97
776.2	17383.46
776.535	17275.89
776.87	17421.42
777.205	17401.53
777.539	17477.69
777.874	17582.09
778.209	17428.65
778.543	17544.13
778.878	17497.8
779.212	17593.17
779.547	17636.78
779.881	17664.13
780.215	17573.05
780.55	17710
780.884	17603.11
781.218	17654.86
781.552	17687.63
781.886	17631.58
782.22	17644.69
782.554	17597.24
782.888	17562.66
783.222	17578.25
783.556	17478.14
783.889	17528.76
784.223	17509.33
784.557	17577.57
784.89	17564.69
785.224	17472.04
785.557	17400.4
785.891	17403.57
786.224	17450.35
786.558	17549.55
786.891	17298.26
787.224	17330.8
787.557	17383
787.891	17423
788.224	17337.13
788.557	17436.56
788.89	17327.41
789.223	17351.59
789.556	17312.95
789.888	17291.03
790.221	17220.75
790.554	17039.28
790.887	17178.26
791.219	17079.51
791.552	17001.54
791.884	17035.22
792.217	17087.42
792.549	17037.25
792.882	17002.67
793.214	16860.98
793.546	16894.65
793.879	16858.95
794.211	16757.26
794.543	16764.71
794.875	16772.85
795.207	16930.81
795.539	16735.56
795.871	16729.01
796.203	16593.42
796.535	16515.91
796.867	16578.5
797.198	16528.79
797.53	16483.59
797.862	16433.42
798.193	16357.04
798.525	16323.14
798.856	16295.57
799.188	16140.55
799.519	16112.08
799.85	16047.67
800.182	16171.06
800.513	16170.15
800.844	15950.27
801.175	16096.03
801.506	16091.74
801.837	16062.81
802.168	16076.82
802.499	15996.15
802.83	15806.1
803.161	15878.18
803.491	15886.55
803.822	15793.21
804.153	15747.11
804.483	15649.49
804.814	15580.56
805.145	15649.49
805.475	15605.65
805.805	15556.84
806.136	15561.36
806.466	15510.28
806.796	15514.8
807.126	15388.03
807.457	15212.21
807.787	15358.2
808.117	15322.04
808.447	15176.28
808.777	15284.98
809.107	15204.3
809.436	15206.34
809.766	15205.43
810.096	15068.71
810.426	15061.26
810.755	15124.08
811.085	15063.52
811.414	14999.56
811.744	14937.87
812.073	14925.67
812.403	14902.84
812.732	14842.28
813.061	14884.54
813.39	14795.73
813.719	14666.01
814.049	14801.6
814.378	14677.54
814.707	14665.79
815.036	14656.75
815.365	14602.29
815.693	14492.68
816.022	14525.45
816.351	14467.37
816.68	14349.86
817.008	14442.29
817.337	14299.47
817.665	14356.87
817.994	14377.66
818.322	14379.24
818.651	14218.79
818.979	14223.54
819.307	14308.51
819.636	14250.2
819.964	14192.58
820.292	14176.53
820.62	14163.88
820.948	14161.62
821.276	14219.24
821.604	14190.77
821.932	14226.93
822.259	14186.7
822.587	14077.33
822.915	14197.78
823.243	14167.27
823.57	14115.74
823.898	14072.13
824.225	14159.36
824.553	14069.19
824.88	14142.41
825.207	14170.21
825.535	14030.32
825.862	14142.41
826.189	14050.44
826.516	14176.31
826.843	14154.16
827.17	14195.74
827.497	14227.61
827.824	14181.96
828.151	14247.27
828.478	14141.96
828.805	14263.54
829.131	14207.49
829.458	14134.5
829.785	14124.11
830.111	14097.21
830.438	14081.62
830.764	14114.16
831.09	14122.3
831.417	14145.57
831.743	14129.53
832.069	14156.42
832.395	13928.4
832.722	14200.49
833.048	14142.64
833.374	14146.25
833.7	14015.18
834.026	14044.11
834.351	14065.12
834.677	14070.55
835.003	14091.79
835.329	14007.95
835.654	13961.17
835.98	13931.79
836.306	13998.91
836.631	13909.65
836.956	13995.07
837.282	14002.53
837.607	13771.57
837.932	13845.24
838.258	13767.28
838.583	13832.81
838.908	13780.16
839.233	13808.86
839.558	13710.33
839.883	13681.63
840.208	13725.7
840.533	13699.71
840.858	13744.45
841.182	13740.39
841.507	13777.22
841.832	13597.34
842.156	13548.53
842.481	13558.02
842.805	13566.38
843.13	13508.53
843.454	13490.9
843.778	13409.1
844.103	13338.14
844.427	13378.36
844.751	13275.54
845.075	13228.54
845.399	13204.13
845.723	13248.42
846.047	13195.77
846.371	13120.29
846.695	13073.29
847.019	12979.73
847.343	12996
847.666	12930.69
847.99	12846.85
848.313	12849.79
848.637	12765.27
848.96	12739.51
849.284	12620.64
849.607	12580.64
849.931	12547.42
850.254	12614.77
850.577	12427.65
850.9	12373.64
851.223	12414.77
851.546	12284.15
851.869	12227.88
852.192	12277.6
852.515	12157.38
852.838	12066.31
853.161	12126.19
853.483	12049.81
853.806	12002.81
854.129	12025.18
854.451	11859.76
854.774	11853.66
855.096	11857.5
855.419	11843.26
855.741	11787.44
856.063	11707.67
856.385	11674.9
856.708	11678.75
857.03	11622.93
857.352	11661.8
857.674	11648.92
857.996	11562.14
858.318	11518.3
858.64	11435.59
858.961	11433.33
859.283	11372.31
859.605	11383.61
859.926	11307.23
860.248	11334.12
860.57	11324.63
860.891	11271.07
861.212	11267.91
861.534	11265.65
861.855	11169.16
862.176	11205.31
862.498	11149.49
862.819	11118.31
863.14	11096.16
863.461	11101.59
863.782	11050.51
864.103	10998.99
864.424	10994.24
864.745	11011.42
865.065	10935.26
865.386	10926.22
865.707	10913.79
866.027	10902.95
866.348	10912.89
866.668	10883.51
866.989	10850.97
867.309	10785.21
867.63	10759.9
867.95	10764.19
868.27	10693.01
868.59	10750.41
868.91	10710.64
869.23	10650.98
869.55	10689.62
869.87	10691.65
870.19	10683.97
870.51	10654.37
870.83	10639.45
871.15	10650.75
871.469	10609.85
871.789	10589.06
872.109	10621.83
872.428	10507.7
872.748	10560.36
873.067	10526.69
873.386	10539.79
873.706	10493.92
874.025	10419.34
874.344	10407.37
874.663	10359.46
874.982	10366.01
875.301	10392.68
875.62	10380.02
875.939	10354.49
876.258	10359.69
876.577	10365.33
876.896	10295.96
877.214	10234.94
877.533	10250.76
877.852	10257.32
878.17	10365.33
878.489	10226.58
878.807	10210.31
879.125	10216.41
879.444	10193.81
879.762	10196.75
880.08	10156.98
880.398	10023.87
880.716	10167.15
881.034	10052.57
881.352	10135.06
881.67	10096.42
881.988	10063.65
882.306	9978.9
882.624	9969.86
882.941	9946.81
883.259	9916.76
883.577	9922.86
883.894	9938.68
884.212	9872.01
884.529	9838.79
884.846	9899.36
885.164	9758.8
885.481	9716.31
885.798	9795.63
886.115	9740.72
886.432	9725.8
886.75	9648.29
887.067	9691.91
887.383	9662.3
887.7	9655.75
888.017	9590.89
888.334	9573.27
888.651	9606.48
888.967	9505.24
889.284	9515.64
889.6	9464.34
889.917	9405.36
890.233	9421.18
890.55	9350.9
890.866	9325.59
891.182	9255.99
891.498	9336.89
891.815	9255.53
892.131	9275.65
892.447	9178.25
892.763	9175.76
893.079	9163.33
893.395	9133.5
893.71	9074.3
894.026	9069.32
894.342	9054.63
894.657	9005.82
894.973	8993.17
895.289	8954.52
895.604	8915.66
895.92	8786.62
896.235	8845.83
896.55	8868.88
896.865	8857.35
897.181	8808.54
897.496	8838.82
897.811	8778.94
898.126	8682.67
898.441	8644.48
898.756	8649.9
899.071	8607.19
899.386	8645.38
899.7	8478.38
900.015	8497.36
900.33	8335.33
900.644	8427.31
900.959	8399.96
901.273	8370.81
901.588	8326.97
901.902	8363.58
902.216	8320.64
902.531	8275.45
902.845	8201.55
903.159	8173.75
903.473	8132.17
903.787	8124.04
904.101	8144.38
904.415	8127.65
904.729	8039.97
905.042	7982.57
905.356	8000.88
905.67	7924.27
905.984	7967.88
906.297	7884.27
906.611	7780.09
906.924	7825.51
907.237	7845.4
907.551	7851.73
907.864	7757.49
908.177	7714.11
908.491	7673.2
908.804	7655.35
909.117	7599.08
909.43	7539.87
909.743	7531.06
910.056	7497.84
910.368	7485.64
910.681	7467.33
910.994	7481.12
911.307	7410.16
911.619	7373.55
911.932	7380.33
912.244	7282.03
912.557	7303.95
912.869	7244.96
913.181	7207.23
913.494	7193.67
913.806	7135.82
914.118	7059.43
914.43	7102.6
914.742	7110.73
915.054	7047.91
915.366	6968.14
915.678	6970.85
915.99	6950.28
916.302	6932.43
916.613	6833.45
916.925	6881.81
917.236	6846.11
917.548	6790.97
917.859	6777.86
918.171	6789.16
918.482	6722.94
918.794	6702.83
919.105	6694.92
919.416	6641.36
919.727	6647.47
920.038	6625.77
920.349	6530.18
920.66	6564.3
920.971	6624.64
921.282	6504.65
921.593	6417.42
921.903	6441.37
922.214	6430.07
922.525	6421.03
922.835	6428.04
923.146	6274.37
923.456	6295.16
923.767	6290.87
924.077	6276.18
924.387	6240.47
924.697	6185.33
925.008	6117.54
925.318	6167.03
925.628	6114.37
925.938	6122.28
926.248	6042.28
926.558	6059.91
926.867	6084.09
927.177	6033.92
927.487	5996.41
927.796	5942.85
928.106	5903.98
928.416	5890.2
928.725	5910.76
929.034	5853.59
929.344	5839.13
929.653	5802.29
929.962	5795.06
930.271	5757.55
930.581	5720.49
930.89	5727.94
931.199	5659.7
931.508	5677.55
931.817	5678.68
932.125	5617.44
932.434	5615.86
932.743	5570.88
933.051	5539.47
933.36	5531.11
933.669	5480.04
933.977	5437.1
934.286	5455.63
934.594	5464.67
934.902	5439.81
935.21	5409.76
935.519	5400.72
935.827	5359.36
936.135	5338.35
936.443	5335.64
936.751	5273.04
937.059	5279.82
937.367	5261.97
937.674	5226.03
937.982	5229.2
938.29	5197.79
938.597	5144.46
938.905	5138.35
939.213	5118.92
939.52	5103.1
939.827	5072.82
940.135	5025.36
940.442	5029.66
940.749	5000.96
941.056	5017.45
941.363	4953.27
941.67	4941.97
941.977	4926.38
942.284	4873.5
942.591	4856.1
942.898	4815.42
943.205	4869.21
943.511	4829.89
943.818	4808.87
944.125	4748.08
944.431	4717.35
944.738	4744.92
945.044	4714.18
945.35	4686.84
945.657	4663.11
945.963	4647.52
946.269	4599.61
946.575	4599.84
946.881	4585.83
947.187	4577.46
947.493	4576.79
947.799	4520.52
948.105	4504.47
948.41	4486.62
948.716	4476.22
949.022	4429.22
949.327	4471.48
949.633	4417.47
949.938	4407.98
950.244	4435.32
950.549	4374.98
950.854	4306.06
951.16	4336.34
951.465	4304.48
951.77	4291.6
952.075	4304.03
952.38	4259.96
952.685	4297.25
952.99	4207.53
953.294	4162.33
953.599	4159.4
953.904	4140.64
954.209	4133.86
954.513	4177.02
954.818	4081.21
955.122	4080.75
955.426	4099.51
955.731	4056.8
956.035	4066.29
956.339	4029.46
956.643	4051.15
956.948	3964.37
957.252	3953.07
957.556	3959.63
957.86	3912.85
958.163	3954.43
958.467	3881.66
958.771	3894.09
959.075	3933.87
959.378	3825.85
959.682	3861.55
959.985	3824.72
960.289	3831.5
960.592	3824.72
960.896	3779.97
961.199	3762.8
961.502	3732.29
961.805	3743.14
962.108	3657.26
962.411	3677.38
962.714	3629.47
963.017	3643.93
963.32	3673.99
963.623	3624.27
963.926	3626.3
964.228	3584.04
964.531	3552.18
964.833	3585.63
965.136	3540.2
965.438	3505.85
965.741	3532.97
966.043	3477.38
966.345	3477.15
966.648	3466.99
966.95	3481.45
967.252	3443.03
967.554	3460.88
967.856	3395.8
968.158	3401
968.46	3380.21
968.761	3405.97
969.063	3381.11
969.365	3352.64
969.666	3331.85
969.968	3296.59
970.269	3266.31
970.571	3279.65
970.872	3268.35
971.174	3244.17
971.475	3270.15
971.776	3219.99
972.077	3208.91
972.378	3195.81
972.679	3167.11
972.98	3183.15
973.281	3157.61
973.582	3132.3
973.883	3119.88
974.183	3128.01
974.484	3125.75
974.785	3102.02
975.085	3111.74
975.386	3142.02
975.686	3060.44
975.986	3024.28
976.287	3067.67
976.587	3022.03
976.887	2995.81
977.187	2982.48
977.487	2953.55
977.787	2961.01
978.087	2926.21
978.387	2904.06
978.687	2922.59
978.987	2907
979.286	2881.46
979.586	2904.97
979.885	2878.98
980.185	2872.88
980.484	2836.27
980.784	2827.45
981.083	2823.84
981.382	2836.49
981.682	2812.77
981.981	2774.35
982.28	2754.01
982.579	2740.22
982.878	2739.32
983.177	2746.33
983.475	2724.63
983.774	2751.07
984.073	2681.47
984.372	2673.11
984.67	2695.03
984.969	2658.87
985.267	2669.04
985.566	2608.25
985.864	2631.07
986.162	2585.88
986.461	2603.5
986.759	2574.58
987.057	2567.8
987.355	2560.12
987.653	2555.37
987.951	2580.68
988.249	2507.46
988.547	2537.74
988.844	2521.47
989.142	2473.56
989.44	2474.92
989.737	2461.59
990.035	2479.44
990.332	2435.37
990.63	2449.16
990.927	2440.35
991.224	2412.32
991.521	2389.27
991.819	2373.45
992.116	2407.8
992.413	2400.8
992.71	2371.19
993.006	2369.16
993.303	2361.25
993.6	2306.56
993.897	2358.99
994.193	2316.28
994.49	2303.17
994.787	2277.86
995.083	2285.77
995.379	2261.82
995.676	2251.88
995.972	2246
996.268	2255.72
996.565	2198.09
996.861	2241.25
997.157	2201.48
997.453	2187.02
997.749	2135.72
998.044	2166.68
998.34	2158.77
998.636	2156.51
998.932	2139.11
999.227	2119.45
999.523	2083.97
999.818	2105.66
1000.114	2111.31
1000.409	2088.04
1000.704	2080.81
1001	2048.27
1001.295	2019.34
1001.59	2035.61
1001.885	2029.28
1002.18	2013.46
1002.475	2007.36
1002.77	1963.3
1003.065	1977.53
1003.359	1979.11
1003.654	1951.32
1003.949	1951.54
1004.243	1950.19
1004.538	1904.77
1004.832	1926.23
1005.127	1952.67
1005.421	1893.47
1005.715	1896.18
1006.009	1879.23
1006.304	1906.57
1006.598	1821.15
1006.892	1840.14
1007.186	1821.15
1007.48	1844.88
1007.773	1824.32
1008.067	1826.12
1008.361	1790.87
1008.655	1769.18
1008.948	1767.59
1009.242	1756.97
1009.535	1733.25
1009.829	1749.52
1010.122	1757.2
1010.415	1721.49
1010.708	1703.19
1011.001	1714.49
1011.295	1681.04
1011.588	1674.49
1011.881	1631.33
1012.173	1662.29
1012.466	1646.92
1012.759	1611.89
1013.052	1623.64
1013.344	1641.04
1013.637	1614.15
1013.93	1620.71
1014.222	1596.07
1014.514	1587.03
1014.807	1570.99
1015.099	1574.38
1015.391	1554.27
1015.683	1534.61
1015.976	1543.42
1016.268	1541.39
1016.56	1520.37
1016.851	1526.02
1017.143	1499.58
1017.435	1510.43
1017.727	1518.56
1018.018	1462.52
1018.31	1467.72
1018.602	1436.76
1018.893	1469.98
1019.185	1460.94
1019.476	1433.14
1019.767	1450.54
1020.058	1434.27
1020.35	1387.04
1020.641	1376.64
1020.932	1396.31
1021.223	1380.49
1021.514	1382.29
1021.804	1368.51
1022.095	1332.8
1022.386	1344.1
1022.677	1317.89
1022.967	1310.21
1023.258	1297.55
1023.548	1321.05
1023.839	1295.06
1024.129	1301.17
1024.419	1302.75
1024.709	1256.42
1025	1263.88
1025.29	1283.99
1025.58	1253.94
1025.87	1242.64
1026.16	1233.6
1026.449	1230.43
1026.739	1241.28
1027.029	1224.78
1027.319	1193.82
1027.608	1229.76
1027.898	1195.86
1028.187	1156.99
1028.477	1162.41
1028.766	1178.68
1029.055	1156.76
1029.344	1140.04
1029.634	1138.68
1029.923	1131.45
1030.212	1133.49
1030.501	1115.63
1030.79	1136.65
1031.078	1106.82
1031.367	1107.27
1031.656	1096.88
1031.945	1089.19
1032.233	1077.67
1032.522	1063.43
1032.81	1031.57
1033.099	1063.21
1033.387	1064.34
1033.675	1043.32
1033.963	1051.23
1034.251	1014.39
1034.54	1039.03
1034.828	1011.23
1035.116	1017.56
1035.403	1025.47
1035.691	992.47
1035.979	1005.13
1036.267	980.5
1036.554	1004.68
1036.842	975.98
1037.129	959.93
1037.417	966.03
1037.704	960.38
1037.992	978.69
1038.279	955.19
1038.566	954.06
1038.853	954.06
1039.14	954.06
