Data from hue_220_FLMS001491_00007.txt Node
Date: Tue Feb 07 16:38:28 GMT 2017
User: dcchb
Spectrometer: FLMS00149
Trigger mode: 0
Integration Time (sec): 2.000000E-2
Scans to average: 10
Electric dark correction enabled: true
Nonlinearity correction enabled: false
Boxcar width: 0
XAxis mode: Wavelengths
Number of Pixels in Spectrum: 2048
>>>>>Begin Spectral Data<<<<<
341.393	-15.06
341.776	-15.06
342.16	-15.06
342.543	-65
342.927	-78.78
343.31	-78.11
343.693	-61.16
344.077	-57.09
344.46	-37.2
344.843	-35.17
345.226	-36.07
345.61	-27.49
345.993	-47.15
346.376	-22.51
346.759	8.67
347.142	16.81
347.525	35.34
347.908	57.48
348.291	90.48
348.674	91.38
349.057	101.78
349.44	130.93
349.823	131.83
350.206	159.4
350.588	186.52
350.971	209.12
351.354	219.06
351.737	229.68
352.119	235.78
352.502	245.05
352.884	254.32
353.267	268.33
353.65	293.64
354.032	275.11
354.414	297.25
354.797	298.83
355.179	299.74
355.562	323.47
355.944	316.01
356.326	321.43
356.709	326.4
357.091	321.88
357.473	340.87
357.855	330.25
358.238	338.83
358.62	343.8
359.002	347.19
359.384	337.25
359.766	323.24
360.148	326.63
360.53	322.79
360.912	325.73
361.294	315.33
361.676	330.92
362.057	335.67
362.439	318.27
362.821	322.34
363.203	309
363.584	324.37
363.966	302
364.348	299.74
364.729	316.91
365.111	296.35
365.493	310.59
365.874	302
366.256	304.94
366.637	293.64
367.019	300.87
367.4	308.1
367.781	283.69
368.163	301.32
368.544	304.03
368.925	307.87
369.306	325.27
369.688	287.53
370.069	289.79
370.45	308.33
370.831	287.31
371.212	311.94
371.593	317.36
371.974	298.16
372.355	314.2
372.736	329.34
373.117	312.62
373.498	315.78
373.879	284.37
374.26	332.28
374.641	303.35
375.021	309.91
375.402	302.68
375.783	320.08
376.163	316.91
376.544	302.45
376.925	309.68
377.305	317.59
377.686	302.45
378.066	339.74
378.447	330.02
378.827	333.86
379.208	311.71
379.588	312.39
379.968	346.74
380.349	342.67
380.729	330.47
381.109	316.23
381.489	317.36
381.87	328.89
382.25	328.44
382.63	332.96
383.01	333.41
383.39	340.19
383.77	327.08
384.15	317.82
384.53	331.15
384.91	347.87
385.29	338.15
385.67	337.48
386.049	357.59
386.429	340.64
386.809	348.78
387.189	360.98
387.568	356.23
387.948	370.7
388.328	365.05
388.707	359.62
389.087	362.56
389.466	365.5
389.846	351.71
390.225	387.19
390.605	363.92
390.984	379.51
391.363	362.11
391.743	391.94
392.122	375.22
392.501	375.44
392.881	380.19
393.26	383.8
393.639	362.56
394.018	384.26
394.397	384.93
394.776	373.18
395.155	376.12
395.534	388.1
395.913	382.67
396.292	389
396.671	384.71
397.05	384.93
397.429	396.91
397.808	385.16
398.186	387.65
398.565	395.78
398.944	406.63
399.323	402.11
399.701	418.83
400.08	413.63
400.458	420.19
400.837	421.99
401.215	405.5
401.594	438.49
401.972	436.46
402.351	431.71
402.729	416.12
403.107	427.87
403.486	436.68
403.864	438.94
404.242	439.4
404.62	455.89
404.999	434.2
405.377	460.64
405.755	452.73
406.133	467.42
406.511	457.02
406.889	484.82
407.267	470.81
407.645	463.35
408.023	483.69
408.401	497.02
408.779	507.64
409.156	518.49
409.534	521.2
409.912	516.46
410.29	531.6
410.667	530.69
411.045	548.09
411.422	554.19
411.8	549.67
412.178	544.93
412.555	570.24
412.933	563.46
413.31	585.15
413.687	605.27
414.065	611.14
414.442	616.79
414.819	629.22
415.197	642.33
415.574	649.79
415.951	625.61
416.328	656.56
416.705	659.95
417.082	668.99
417.46	675.77
417.837	680.07
418.214	675.1
418.591	735.88
418.967	711.93
419.344	720.97
419.721	727.3
420.098	738.6
420.475	733.62
420.852	763.23
421.228	763.68
421.605	790.12
421.982	805.71
422.358	814.75
422.735	821.76
423.111	805.04
423.488	870.12
423.864	848.88
424.241	875.54
424.617	865.37
424.994	902.89
425.37	905.37
425.746	923.22
426.123	930.91
426.499	942.21
426.875	959.16
427.251	984.69
427.627	1017.69
428.003	986.27
428.379	1032.37
428.756	1016.1
429.132	1046.16
429.507	1070.57
429.883	1053.16
430.259	1077.57
430.635	1096.1
431.011	1119.6
431.387	1133.84
431.763	1143.78
432.138	1166.61
432.514	1164.35
432.89	1170.45
433.265	1226.04
433.641	1217.23
434.016	1255.64
434.392	1269.66
434.767	1276.21
435.143	1308.75
435.518	1311.24
435.894	1354.63
436.269	1377.68
436.644	1381.07
437.02	1419.48
437.395	1434.4
437.77	1467.84
438.145	1515.07
438.52	1514.4
438.895	1511.23
439.271	1529.54
439.646	1585.35
440.021	1598.46
440.395	1605.01
440.77	1596.65
441.145	1641.62
441.52	1684.33
441.895	1663.77
442.27	1699.25
442.645	1706.03
443.019	1729.98
443.394	1758
443.769	1743.32
444.143	1764.78
444.518	1819.47
444.892	1807.27
445.267	1834.84
445.641	1814.5
446.016	1854.05
446.39	1864.67
446.764	1873.03
447.139	1888.85
447.513	1895.63
447.887	1921.84
448.262	1914.61
448.636	1929.53
449.01	1958.45
449.384	1966.81
449.758	1991.22
450.132	2004.78
450.506	2021.95
450.88	2009.52
451.254	2048.17
451.628	2096.75
452.002	2086.58
452.376	2111.22
452.75	2107.15
453.123	2112.35
453.497	2160.03
453.871	2193.93
454.244	2223.08
454.618	2233.7
454.992	2280.02
455.365	2252.68
455.739	2285.45
456.112	2319.12
456.486	2346.69
456.859	2392.79
457.232	2412.22
457.606	2386.24
457.979	2433.24
458.352	2483.41
458.725	2491.32
459.099	2500.58
459.472	2574.03
459.845	2587.36
460.218	2602.73
460.591	2657.87
460.964	2622.84
461.337	2709.62
461.71	2714.14
462.083	2761.14
462.456	2777.41
462.829	2804.98
463.201	2834.59
463.574	2849.05
463.947	2856.28
464.32	2974.24
464.692	2949.16
465.065	2958.88
465.438	3016.05
465.81	3049.27
466.183	3062.38
466.555	3146.44
466.928	3150.06
467.3	3123.17
467.672	3169.49
468.045	3265.31
468.417	3301.69
468.789	3277.51
469.161	3326.32
469.534	3381.92
469.906	3414.01
470.278	3490.61
470.65	3518.64
471.022	3552.53
471.394	3596.6
471.766	3634.57
472.138	3663.94
472.51	3777.16
472.882	3795.01
473.253	3866.65
473.625	3854.67
473.997	3926.08
474.369	3920.43
474.74	3949.13
475.112	4054.67
475.484	4103.25
475.855	4144.16
476.227	4184.38
476.598	4324.04
476.97	4297.82
477.341	4387.77
477.713	4425.96
478.084	4527.88
478.455	4560.64
478.827	4622.11
479.198	4683.58
479.569	4766.74
479.94	4834.53
480.311	4898.71
480.682	4914.98
481.053	5063.91
481.424	5152.27
481.795	5146.39
482.166	5215.31
482.537	5267.29
482.908	5386.61
483.279	5420.73
483.65	5474.97
484.021	5637.68
484.391	5612.14
484.762	5709.54
485.133	5682.65
485.503	5782.98
485.874	5908.4
486.244	5946.14
486.615	6067.04
486.985	6062.75
487.356	6121.28
487.726	6223.2
488.097	6322.18
488.467	6346.13
488.837	6431.55
489.207	6490.54
489.578	6587.03
489.948	6648.95
490.318	6709.06
490.688	6712.45
491.058	6811.88
491.428	6919.45
491.798	6912.22
492.168	7093.91
492.538	7033.8
492.908	7103.63
493.278	7214.58
493.648	7186.79
494.017	7230.63
494.387	7331.42
494.757	7377.74
495.126	7439.66
495.496	7402.15
495.866	7474.01
496.235	7569.6
496.605	7627.23
496.974	7615.25
497.344	7661.13
497.713	7725.98
498.082	7694.35
498.452	7786.77
498.821	7827.45
499.19	7804.85
499.559	7912.87
499.928	8023.83
500.298	7937.5
500.667	8066.31
501.036	7998.74
501.405	8059.53
501.774	8085.97
502.143	8083.49
502.512	8185.86
502.88	8267.21
503.249	8187.21
503.618	8217.95
503.987	8224.95
504.356	8265.4
504.724	8325.29
505.093	8325.06
505.462	8334.55
505.83	8390.15
506.199	8404.38
506.567	8463.14
506.936	8500.43
507.304	8549.24
507.672	8536.36
508.041	8520.76
508.409	8532.06
508.777	8680.31
509.145	8655
509.514	8635.79
509.882	8652.74
510.25	8601.67
510.618	8716.01
510.986	8729.8
511.354	8789.23
511.722	8772.28
512.09	8910.81
512.458	8741.1
512.826	8888.21
513.193	8890.92
513.561	8827.42
513.929	8912.17
514.297	8946.52
514.664	8974.99
515.032	8986.97
515.4	9030.58
515.767	9004.59
516.135	9045.72
516.502	8980.19
516.869	9010.7
517.237	9052.5
517.604	9035.1
517.972	9032.62
518.339	9082.78
518.706	9071.71
519.073	9072.61
519.44	9090.92
519.808	9177.92
520.175	9082.56
520.542	9219.96
520.909	9169.79
521.276	9195.78
521.643	9274.87
522.009	9193.52
522.376	9216.11
522.743	9209.11
523.11	9266.96
523.477	9338.14
523.843	9311.7
524.21	9402.32
524.577	9413.85
524.943	9345.6
525.31	9355.32
525.676	9444.58
526.043	9473.51
526.409	9467.86
526.776	9496.78
527.142	9472.15
527.508	9482.77
527.874	9505.37
528.241	9474.64
528.607	9455.88
528.973	9570.45
529.339	9566.16
529.705	9513.73
530.071	9603.67
530.437	9511.25
530.803	9577.46
531.169	9605.93
531.535	9495.88
531.901	9495.88
532.267	9515.99
532.632	9567.06
532.998	9516.67
533.364	9557.35
533.73	9543.34
534.095	9574.07
534.461	9506.73
534.826	9566.61
535.192	9532.04
535.557	9570
535.923	9475.09
536.288	9539.04
536.653	9506.5
537.019	9353.96
537.384	9380.86
537.749	9491.36
538.114	9394.87
538.479	9369.1
538.845	9380.63
539.21	9344.47
539.575	9385.15
539.94	9390.35
540.305	9304.7
540.67	9304.92
541.034	9328.2
541.399	9316.22
541.764	9260.63
542.129	9254.53
542.494	9250.01
542.858	9261.08
543.223	9180.41
543.587	9268.99
543.952	9153.97
544.316	9163.46
544.681	9159.39
545.045	9148.77
545.41	9181.31
545.774	9067.19
546.138	9070.35
546.503	9106.29
546.867	9052.95
547.231	9037.81
547.595	9084.37
547.959	9036.01
548.324	9034.88
548.688	8942.45
549.052	8981.32
549.416	8984.03
549.779	8889.79
550.143	8958.95
550.507	8913.97
550.871	8898.38
551.235	8817.48
551.599	8862.22
551.962	8812.51
552.326	8851.6
552.689	8834.88
553.053	8799.18
553.417	8759.4
553.78	8854.99
554.143	8778.39
554.507	8774.09
554.87	8786.07
555.234	8770.48
555.597	8747.2
555.96	8697.03
556.323	8737.71
556.686	8677.37
557.05	8758.72
557.413	8754.88
557.776	8737.26
558.139	8682.57
558.502	8732.96
558.865	8759.63
559.228	8730.7
559.59	8711.95
559.953	8654.77
560.316	8782
560.679	8734.09
561.041	8752.62
561.404	8760.53
561.767	8831.72
562.129	8717.14
562.492	8821.77
562.854	8782
563.217	8810.02
563.579	8767.09
563.941	8826.52
564.304	8784.71
564.666	8856.58
565.028	8870.13
565.39	8882.56
565.753	8912.17
566.115	8842.11
566.477	8897.7
566.839	8885.5
567.201	8899.51
567.563	8942
567.925	9005.5
568.287	9012.96
568.648	9016.34
569.01	9017.93
569.372	9029.68
569.734	9008.21
570.095	9077.59
570.457	9068.55
570.819	9056.57
571.18	9088.89
571.542	9179.05
571.903	9122.33
572.265	9205.72
572.626	9198.03
572.987	9232.61
573.349	9210.92
573.71	9309.22
574.071	9240.97
574.432	9284.13
574.794	9381.08
575.155	9299.73
575.516	9268.54
575.877	9296.34
576.238	9410.91
576.599	9358.71
576.96	9409.33
577.32	9367.52
577.681	9521.19
578.042	9473.28
578.403	9504.47
578.763	9487.29
579.124	9437.12
579.485	9534.98
579.845	9581.53
580.206	9591.47
580.566	9567.29
580.927	9629.21
581.287	9648.87
581.648	9668.08
582.008	9647.51
582.368	9656.78
582.728	9719.15
583.089	9701.07
583.449	9685.93
583.809	9800.73
584.169	9793.73
584.529	9780.84
584.889	9800.51
585.249	9782.43
585.609	9774.52
585.969	9913.27
586.329	9816.78
586.688	9874.63
587.048	9865.14
587.408	9874.85
587.768	9929.54
588.127	9855.42
588.487	9873.95
588.846	10003.21
589.206	9919.82
589.565	9921.18
589.925	9962.08
590.284	9925.93
590.643	10006.6
591.003	10036.66
591.362	10089.09
591.721	10054.74
592.08	10049.09
592.44	10041.85
592.799	10135.19
593.158	10085.24
593.517	10029.2
593.876	10052.93
594.235	10096.09
594.593	10140.61
594.952	10114.4
595.311	10100.38
595.67	10108.97
596.029	10216.99
596.387	10183.77
596.746	10257.44
597.104	10226.03
597.463	10200.27
597.822	10277.78
598.18	10184.45
598.538	10136.77
598.897	10200.49
599.255	10102.42
599.613	10293.37
599.972	10285.69
600.33	10240.95
600.688	10205.92
601.046	10316.2
601.404	10308.51
601.762	10271.91
602.12	10322.98
602.478	10303.32
602.836	10310.77
603.194	10286.59
603.552	10331.56
603.91	10340.6
604.268	10396.42
604.625	10286.14
604.983	10384.44
605.341	10303.32
605.698	10378.57
606.056	10358.68
606.413	10284.79
606.771	10412.92
607.128	10411.79
607.485	10318.23
607.843	10364.33
608.2	10479.58
608.557	10452.01
608.914	10477.32
609.272	10463.76
609.629	10527.72
609.986	10488.4
610.343	10434.84
610.7	10522.75
611.057	10477.78
611.414	10448.85
611.771	10530.43
612.127	10613.59
612.484	10532.92
612.841	10589.64
613.198	10526.81
613.554	10583.54
613.911	10637.55
614.267	10540.37
614.624	10564.78
614.98	10606.59
615.337	10643.42
615.693	10604.78
616.05	10632.12
616.406	10693.59
616.762	10689.52
617.118	10639.35
617.475	10659.47
617.831	10717.77
618.187	10693.59
618.543	10675.51
618.899	10762.06
619.255	10746.02
619.611	10733.36
619.967	10673.48
620.323	10753.25
620.678	10753.7
621.034	10727.94
621.39	10745.56
621.746	10659.24
622.101	10831.89
622.457	10788.28
622.812	10761.61
623.168	10826.92
623.523	10716.41
623.879	10743.08
624.234	10749.63
624.589	10750.31
624.945	10767.71
625.3	10816.3
625.655	10765.68
626.01	10854.04
626.365	10740.37
626.72	10728.39
627.075	10760.48
627.43	10695.4
627.785	10681.84
628.14	10719.35
628.495	10726.58
628.85	10760.25
629.205	10722.97
629.559	10663.31
629.914	10663.76
630.269	10586.7
630.623	10736.75
630.978	10656.08
631.332	10696.3
631.687	10725.68
632.041	10601.84
632.396	10635.29
632.75	10619.24
633.104	10609.75
633.459	10582.86
633.813	10614.04
634.167	10560.71
634.521	10577.21
634.875	10601.84
635.229	10540.15
635.583	10550.32
635.937	10547.6
636.291	10524.1
636.645	10485.01
636.999	10441.39
637.352	10492.92
637.706	10442.97
638.06	10425.35
638.413	10386.93
638.767	10387.61
639.121	10449.3
639.474	10335.41
639.828	10396.2
640.181	10360.94
640.534	10410.88
640.888	10287.95
641.241	10281.85
641.594	10353.48
641.947	10353.94
642.301	10299.7
642.654	10359.13
643.007	10371.56
643.36	10292.02
643.713	10301.28
644.066	10344.9
644.419	10314.16
644.771	10214.05
645.124	10083.44
645.477	10101.06
645.83	10020.84
646.182	9980.61
646.535	9999.14
646.888	9979.48
647.24	9917.11
647.593	9965.92
647.945	9959.37
648.298	9917.11
648.65	9908.3
649.002	9884.57
649.355	9899.49
649.707	9912.59
650.059	9939.94
650.411	10113.49
650.763	10139.93
651.115	10120.04
651.467	10140.84
651.819	10102.87
652.171	10149.42
652.523	10164.34
652.875	10114.85
653.227	10087.73
653.578	10202.53
653.93	10226.48
654.282	10115.3
654.633	10072.81
654.985	10066.03
655.337	10099.03
655.688	10189.42
656.039	10200.49
656.391	10022.65
656.742	10150.1
657.094	10146.26
657.445	10184
657.796	10178.57
658.147	10079.59
658.498	10150.33
658.849	10170.89
659.2	10115.3
659.551	10135.41
659.902	10148.07
660.253	10172.92
660.604	10119.37
660.955	10057
661.306	10172.25
661.656	10137.22
662.007	10172.47
662.358	10184.68
662.708	10230.32
663.059	10265.13
663.409	10183.77
663.76	10220.61
664.11	10207.73
664.461	10189.2
664.811	10224
665.161	10182.87
665.511	10189.2
665.862	10164.11
666.212	10219.7
666.562	10232.13
666.912	10232.13
667.262	10196.43
667.612	10245.47
667.962	10229.19
668.312	10149.65
668.662	10275.75
669.011	10216.54
669.361	10220.16
669.711	10238.69
670.06	10191.23
670.41	10202.75
670.76	10175.18
671.109	10183.77
671.459	10108.97
671.808	10169.76
672.157	10165.24
672.507	10083.66
672.856	10074.85
673.205	10109.65
673.554	10160.04
673.904	10113.94
674.253	10079.37
674.602	10101.74
674.951	9961.18
675.3	9916.89
675.649	10025.81
675.998	10107.62
676.346	10058.58
676.695	10068.52
677.044	9991.69
677.393	10035.53
677.741	10000.73
678.09	10000.05
678.438	9949.43
678.787	9967.51
679.135	9966.15
679.484	9934.29
679.832	9959.6
680.181	9902.65
680.529	9922.99
680.877	9946.49
681.225	9918.02
681.573	9921.86
681.922	9843.89
682.27	9775.19
682.618	9816.78
682.966	9793.05
683.314	9818.58
683.661	9747.63
684.009	9654.29
684.357	9694.52
684.705	9689.1
685.053	9717.8
685.4	9712.37
685.748	9584.69
686.095	9635.31
686.443	9566.16
686.79	9588.08
687.138	9566.16
687.485	9602.32
687.832	9564.35
688.18	9522.09
688.527	9400.52
688.874	9413.62
689.221	9457.24
689.568	9379.27
689.915	9358.48
690.262	9384.02
690.609	9366.84
690.956	9254.53
691.303	9283
691.65	9249.11
691.997	9176.11
692.344	9148.54
692.69	9097.47
693.037	9143.12
693.383	9009.57
693.73	9109.68
694.077	9030.13
694.423	8956.46
694.769	8928.21
695.116	8924.6
695.462	8927.08
695.808	8865.16
696.155	8877.37
696.501	8796.01
696.847	8801.44
697.193	8667.43
697.539	8785.84
697.885	8649.8
698.231	8697.48
698.577	8610.03
698.923	8608.45
699.269	8574.55
699.614	8552.85
699.96	8520.76
700.306	8465.17
700.651	8521.44
700.997	8380.66
701.342	8461.33
701.688	8388.11
702.033	8315.12
702.379	8314.67
702.724	8185.41
703.069	8311.73
703.415	8308.34
703.76	8234.67
704.105	8224.95
704.45	8230.83
704.795	8124.84
705.14	8133.88
705.485	8092.75
705.83	8046.65
706.175	8080.32
706.52	8018.18
706.865	8036.03
707.209	7968.01
707.554	7904.06
707.899	7946.99
708.243	7942.7
708.588	7887.33
708.932	7820.22
709.277	7786.55
709.621	7835.81
709.966	7776.83
710.31	7808.02
710.654	7646.21
710.998	7730.5
711.342	7698.87
711.687	7737.28
712.031	7577.96
712.375	7638.3
712.719	7671.07
713.063	7636.27
713.407	7614.35
713.75	7599.66
714.094	7509.04
714.438	7528.7
714.782	7539.1
715.125	7513.33
715.469	7528.02
715.812	7454.8
716.156	7438.53
716.499	7456.39
716.843	7484.41
717.186	7447.57
717.53	7440.34
717.873	7417.06
718.216	7453.22
718.559	7379.1
718.902	7363.28
719.246	7360.57
719.589	7318.99
719.932	7279.89
720.275	7328.93
720.617	7274.92
720.96	7288.03
721.303	7297.52
721.646	7243.96
721.989	7257.52
722.331	7232.89
722.674	7265.66
723.016	7258.42
723.359	7234.92
723.701	7257.52
724.044	7306.33
724.386	7268.37
724.729	7231.98
725.071	7199.22
725.413	7227.92
725.755	7144.08
726.097	7191.53
726.439	7180.46
726.782	7137.52
727.124	7168.26
727.465	7143.17
727.807	7172.33
728.149	7134.13
728.491	7158.77
728.833	7164.87
729.175	7159.44
729.516	7115.15
729.858	7109.05
730.199	7146.56
730.541	7139.33
730.882	7140.91
731.224	7155.15
731.565	7058.43
731.906	7135.72
732.248	7154.02
732.589	7078.77
732.93	7088.94
733.271	7078.54
733.612	7075.15
733.953	7129.39
734.294	7149.5
734.635	7110.63
734.976	7107.47
735.317	7072.44
735.658	7133.23
735.999	7076.73
736.339	7127.35
736.68	7178.65
737.021	7126.9
737.361	7112.89
737.702	7186.11
738.042	7141.82
738.383	7158.99
738.723	7221.59
739.063	7137.98
739.404	7191.99
739.744	7181.14
740.084	7166.9
740.424	7143.63
740.764	7170.07
741.104	7242.38
741.444	7249.84
741.784	7197.18
742.124	7215.49
742.464	7264.3
742.804	7288.71
743.143	7259.55
743.483	7334.13
743.823	7312.66
744.162	7302.27
744.502	7434.47
744.841	7412.32
745.181	7453.22
745.52	7448.93
745.86	7505.42
746.199	7531.86
746.538	7540.9
746.877	7608.92
747.216	7635.36
747.556	7683.05
747.895	7766.21
748.234	7800.33
748.573	7830.84
748.911	7871.97
749.25	7983.6
749.589	7971.17
749.928	8019.31
750.267	8234.67
750.605	8169.59
750.944	8203.03
751.283	8315.35
751.621	8452.07
751.96	8463.59
752.298	8603.93
752.636	8675.11
752.975	8702.68
753.313	8815.67
753.651	9017.25
753.989	9029.68
754.327	9202.55
754.666	9301.99
755.004	9343.34
755.342	9482.32
755.679	9646.38
756.017	9756.66
756.355	9922.54
756.693	10026.26
757.031	10155.52
757.368	10247.5
757.706	10442.97
758.044	10544.44
758.381	10704.66
758.719	10901.72
759.056	11074.14
759.394	11275.04
759.731	11327.47
760.068	11510.06
760.405	11687.01
760.743	11841.81
761.08	12040.45
761.417	12120.22
761.754	12347.33
762.091	12604.05
762.428	12642.46
762.765	12849.92
763.102	13055.11
763.438	13223.01
763.775	13369.22
764.112	13618.03
764.449	13776.22
764.785	13968.98
765.122	14064.8
765.458	14247.62
765.795	14450.1
766.131	14597.67
766.467	14788.4
766.804	14901.84
767.14	14994.04
767.476	15170.53
767.812	15300.7
768.148	15559
768.485	15644.65
768.821	15787.47
769.157	15923.06
769.492	16073.79
769.828	16171.64
770.164	16215.7
770.5	16410.05
770.836	16610.95
771.171	16590.38
771.507	16728.91
771.842	16920.32
772.178	17012.07
772.513	17082.8
772.849	17162.12
773.184	17299.29
773.519	17277.82
773.855	17397.82
774.19	17507.2
774.525	17526.86
774.86	17781.99
775.195	17780.18
775.53	17892.95
775.865	17862.67
776.2	17898.37
776.535	17735.44
776.87	17968.65
777.205	18057.92
777.539	18089.33
777.874	18198.48
778.209	18116.22
778.543	18289.32
778.878	18157.57
779.212	18268.76
779.547	18304.24
779.881	18477.79
780.215	18358.92
780.55	18513.72
780.884	18378.13
781.218	18475.76
781.552	18493.16
781.886	18492.25
782.22	18461.07
782.554	18439.37
782.888	18438.92
783.222	18417
783.556	18408.87
783.889	18488.41
784.223	18241.19
784.557	18320.96
784.89	18453.84
785.224	18416.1
785.557	18368.42
785.891	18408.87
786.224	18379.04
786.558	18416.55
786.891	18319.15
787.224	18398.02
787.557	18300.85
787.891	18363.67
788.224	18392.6
788.557	18439.15
788.89	18383.56
789.223	18369.55
789.556	18298.59
789.888	18197.12
790.221	18245.93
790.554	18096.11
790.887	18252.03
791.219	18079.38
791.552	18024.92
791.884	17951.03
792.217	18117.8
792.549	18009.1
792.882	18030.8
793.214	17894.98
793.546	17925.04
793.879	17973.17
794.211	17755.78
794.543	17905.6
794.875	17869.45
795.207	17933.4
795.539	17729.79
795.871	17841.42
796.203	17596.91
796.535	17516.01
796.867	17598.27
797.198	17612.5
797.53	17581.32
797.862	17348.33
798.193	17446.63
798.525	17408.67
798.856	17371.61
799.188	17245.73
799.519	17271.04
799.85	17163.48
800.182	17128
800.513	17143.59
800.844	17037.38
801.175	17203.02
801.506	17120.54
801.837	17027.43
802.168	17008.68
802.499	16967.77
802.83	16882.35
803.161	16853.88
803.491	16907.89
803.822	16899.98
804.153	16795.58
804.483	16705.86
804.814	16667.44
805.145	16612.08
805.475	16673.09
805.805	16584.96
806.136	16542.7
806.466	16568.91
806.796	16551.29
807.126	16370.05
807.457	16340.22
807.787	16358.98
808.117	16377.51
808.447	16289.83
808.777	16278.07
809.107	16229.71
809.436	16278.07
809.766	16184.52
810.096	16079.66
810.426	16077.63
810.755	16085.31
811.085	16070.17
811.414	16094.58
811.744	15942.72
812.073	16016.16
812.403	15963.51
812.732	15956.95
813.061	15878.76
813.39	15796.05
813.719	15835.83
814.049	15839.44
814.378	15754.25
814.707	15639.45
815.036	15660.46
815.365	15544.76
815.693	15474.25
816.022	15497.53
816.351	15494.82
816.68	15450.98
817.008	15441.03
817.337	15300.93
817.665	15371.66
817.994	15385.22
818.322	15346.57
818.651	15281.26
818.979	15194.49
819.307	15335.05
819.636	15285.56
819.964	15121.72
820.292	15191.1
820.62	15229.29
820.948	15230.87
821.276	15314.94
821.604	15243.3
821.932	15119.91
822.259	15239.46
822.587	15156.97
822.915	15099.12
823.243	15228.38
823.57	15109.97
823.898	15157.43
824.225	15134.6
824.553	15135.51
824.88	15112.23
825.207	15225.22
825.535	15229.51
825.862	15115.62
826.189	15097.54
826.516	15170.53
826.843	15236.07
827.17	15243.98
827.497	15258.21
827.824	15166.01
828.151	15235.16
828.478	15131.89
828.805	15273.81
829.131	15253.24
829.458	15163.08
829.785	15112.91
830.111	15095.28
830.438	15330.98
830.764	15196.97
831.09	15251.66
831.417	15133.92
831.743	15248.27
832.069	15300.02
832.395	15169.18
832.722	15211.44
833.048	15134.38
833.374	15189.52
833.7	15149.29
834.026	15116.3
834.351	15178.89
834.677	15079.46
835.003	15233.58
835.329	15037.2
835.654	15040.37
835.98	14982.06
836.306	15012.12
836.631	14980.48
836.956	14976.41
837.282	15063.87
837.607	14906.13
837.932	14808.28
838.258	14890.99
838.583	14931.67
838.908	14775.97
839.233	14813.71
839.558	14862.52
839.883	14770.54
840.208	14719.02
840.533	14733.26
840.858	14638.12
841.182	14710.21
841.507	14669.3
841.832	14512.47
842.156	14651.68
842.481	14645.35
842.805	14557.22
843.13	14508.86
843.454	14531.91
843.778	14450.55
844.103	14432.02
844.427	14331.23
844.751	14322.65
845.075	14330.56
845.399	14207.39
845.723	14202.88
846.047	14131.46
846.371	14124.91
846.695	14173.72
847.019	13982.54
847.343	13971.02
847.666	13885.82
847.99	13756.56
848.313	13688.99
848.637	13694.41
848.96	13642.21
849.284	13697.13
849.607	13510.24
849.931	13581.2
850.254	13415.78
850.577	13359.28
850.9	13264.82
851.223	13260.3
851.546	13181.21
851.869	13099.85
852.192	13292.62
852.515	13098.05
852.838	13017.14
853.161	13014.21
853.483	12933.3
853.806	12844.27
854.129	12918.39
854.451	12794.55
854.774	12809.69
855.096	12689.92
855.419	12735.12
855.741	12691.95
856.063	12609.02
856.385	12540.32
856.708	12550.04
857.03	12485.18
857.352	12543.26
857.674	12432.75
857.996	12382.58
858.318	12354.56
858.64	12350.49
858.961	12260.1
859.283	12232.76
859.605	12139.43
859.926	12216.26
860.248	12187.79
860.57	12103.04
860.891	12132.87
861.212	12084.74
861.534	11994.35
861.855	11986.89
862.176	12060.56
862.498	11896.95
862.819	12020.79
863.14	12018.3
863.461	11937.85
863.782	11890.39
864.103	11860.11
864.424	11904.18
864.745	11808.81
865.065	11761.58
865.386	11731.08
865.707	11708.7
866.027	11706.9
866.348	11717.06
866.668	11733.11
866.989	11690.62
867.309	11595.03
867.63	11641.13
867.95	11639.78
868.27	11617.86
868.59	11547.58
868.91	11491.31
869.23	11547.58
869.55	11487.47
869.87	11534.24
870.19	11458.54
870.51	11519.1
870.83	11484.3
871.15	11428.94
871.469	11440.46
871.789	11409.73
872.109	11373.35
872.428	11237.3
872.748	11327.47
873.067	11333.57
873.386	11360.24
873.706	11290.18
874.025	11196.17
874.344	11198.89
874.663	11270.07
874.982	11217.19
875.301	11163.86
875.62	11170.86
875.939	11167.93
876.258	11173.35
876.577	11099
876.896	11100.36
877.214	11080.02
877.533	11063.3
877.852	11089.74
878.17	11081.15
878.489	11020.81
878.807	10934.94
879.125	10986.46
879.444	10909.85
879.762	10984.65
880.08	10916.86
880.398	10874.38
880.716	10876.86
881.034	10812
881.352	10865.34
881.67	10782.4
881.988	10776.07
882.306	10740.82
882.624	10713.25
882.941	10681.84
883.259	10605.91
883.577	10639.8
883.894	10596.64
884.212	10592.12
884.529	10599.58
884.846	10609.75
885.164	10524.33
885.481	10454.95
885.798	10564.1
886.115	10430.32
886.432	10430.77
886.75	10445.46
887.067	10421.51
887.383	10331.34
887.7	10394.16
888.017	10285.92
888.334	10346.93
888.651	10289.53
888.967	10172.25
889.284	10268.06
889.6	10179.7
889.917	10131.12
890.233	10110.78
890.55	10100.38
890.866	10108.97
891.182	9970.22
891.498	10017.45
891.815	9972.7
892.131	9965.47
892.447	9822.65
892.763	9891.35
893.079	9842.09
893.395	9805.7
893.71	9792.6
894.026	9741.07
894.342	9729.55
894.657	9633.96
894.973	9593.05
895.289	9627.63
895.604	9610.91
895.92	9564.81
896.235	9499.27
896.55	9564.58
896.865	9483.68
897.181	9409.1
897.496	9479.84
897.811	9421.31
898.126	9323.68
898.441	9250.24
898.756	9336.56
899.071	9172.95
899.386	9226.06
899.7	9098.15
900.015	9145.16
900.33	9050.92
900.644	9101.09
900.959	9046.85
901.273	8993.97
901.588	8981.54
901.902	8868.78
902.216	8954.2
902.531	8897.48
902.845	8842.11
903.159	8826.52
903.473	8729.57
903.787	8716.01
904.101	8671.27
904.415	8613.87
904.729	8663.81
905.042	8644.38
905.356	8558.5
905.67	8552.4
905.984	8509.01
906.297	8480.09
906.611	8477.38
906.924	8407.77
907.237	8335.91
907.551	8373.42
907.864	8341.79
908.177	8306.76
908.491	8275.35
908.804	8263.37
909.117	8145.86
909.43	8146.76
909.743	8037.39
910.056	8010.5
910.368	8027.67
910.681	8011.17
910.994	7991.06
911.307	7946.99
911.619	7909.71
911.932	7921.46
912.244	7845.98
912.557	7761.91
912.869	7674.69
913.181	7779.99
913.494	7735.02
913.806	7671.75
914.118	7612.99
914.43	7548.81
914.742	7553.33
915.054	7528.25
915.366	7561.92
915.678	7488.02
915.99	7450.74
916.302	7430.62
916.613	7341.81
916.925	7329.84
917.236	7310.4
917.548	7285.77
917.859	7294.81
918.171	7239.44
918.482	7194.25
918.794	7185.88
919.105	7192.89
919.416	7121.25
919.727	7074.7
920.038	7104.98
920.349	7041.03
920.66	6988.6
920.971	6989.51
921.282	6998.77
921.593	6900.24
921.903	6875.16
922.214	6920.58
922.525	6865.21
922.835	6829.51
923.146	6741.83
923.456	6760.81
923.767	6729.17
924.077	6737.08
924.387	6688.27
924.697	6649.18
925.008	6629.97
925.318	6624.77
925.628	6578.44
925.938	6508.84
926.248	6445.79
926.558	6490.76
926.867	6467.03
927.177	6453.93
927.487	6419.58
927.796	6402.4
928.106	6339.58
928.416	6372.57
928.725	6313.14
929.034	6288.73
929.344	6269.52
929.653	6171.67
929.962	6238.34
930.271	6112.47
930.581	6171.67
930.89	6164.22
931.199	6057.55
931.508	6072.24
931.817	6094.84
932.125	6056.2
932.434	6018.23
932.743	5988.18
933.051	5943.43
933.36	5968.74
933.669	5866.82
933.977	5867.05
934.286	5889.87
934.594	5857.11
934.902	5811.01
935.21	5774.85
935.519	5748.41
935.827	5725.36
936.135	5701.18
936.443	5657.34
936.751	5659.37
937.059	5658.92
937.367	5614.4
937.674	5620.28
937.982	5547.74
938.29	5546.61
938.597	5489.43
938.905	5511.8
939.213	5442.88
939.52	5446.27
939.827	5430.22
940.135	5399.94
940.442	5367.85
940.749	5382.54
941.056	5380.51
941.363	5262.09
941.67	5298.93
941.977	5249.89
942.284	5258.48
942.591	5185.26
942.898	5175.54
943.205	5148.2
943.511	5137.58
943.818	5144.58
944.125	5093.74
944.431	5087.18
944.738	5115.88
945.044	5054.87
945.35	5018.03
945.657	4967.86
945.963	5015.77
946.269	4898.71
946.575	4928.54
946.881	4894.87
947.187	4863.91
947.493	4831.82
947.799	4886.28
948.105	4801.77
948.41	4768.77
948.716	4833.4
949.022	4759.73
949.327	4778.04
949.633	4720.19
949.938	4704.14
950.244	4693.97
950.549	4678.61
950.854	4679.06
951.16	4613.07
951.465	4599.51
951.77	4565.84
952.075	4594.31
952.38	4545.73
952.685	4573.3
952.99	4502.57
953.294	4508.44
953.599	4483.36
953.904	4473.64
954.209	4453.75
954.513	4418.05
954.818	4441.32
955.122	4372.17
955.426	4359.29
955.731	4333.08
956.035	4276.81
956.339	4329.69
956.643	4278.84
956.948	4260.31
957.252	4220.54
957.556	4218.96
957.86	4181.22
958.163	4197.04
958.467	4180.09
958.771	4201.33
959.075	4162.69
959.378	4091.05
959.682	4084.05
959.985	4111.39
960.289	4055.57
960.592	4047.44
960.896	4037.04
961.199	3978.51
961.502	4036.36
961.805	4009.24
962.108	3984.16
962.411	3957.72
962.714	3943.48
963.017	3909.81
963.32	3898.29
963.623	3927.89
963.926	3861
964.228	3870.04
964.531	3823.26
964.833	3852.19
965.136	3769.93
965.438	3819.87
965.741	3733.32
966.043	3719.31
966.345	3719.99
966.648	3693.77
966.95	3709.14
967.252	3663.27
967.554	3653.55
967.856	3667.56
968.158	3609.71
968.46	3625.07
968.761	3586.66
969.063	3595.02
969.365	3619.2
969.666	3536.49
969.968	3492.65
970.269	3557.28
970.571	3507.34
970.872	3523.83
971.174	3478.64
971.475	3463.72
971.776	3443.38
972.077	3447.9
972.378	3444.51
972.679	3401.58
972.98	3403.84
973.281	3400
973.582	3338.53
973.883	3370.62
974.183	3383.95
974.484	3327.91
974.785	3281.58
975.085	3287.23
975.386	3287.68
975.686	3274.8
975.986	3252.43
976.287	3244.29
976.587	3216.5
976.887	3204.97
977.187	3217.4
977.487	3149.83
977.787	3144.41
978.087	3136.05
978.387	3115.03
978.687	3123.62
978.987	3131.53
979.286	3084.07
979.586	3069.61
979.885	3039.78
980.185	3051.08
980.484	3032.55
980.784	3018.08
981.083	3032.1
981.382	2984.41
981.682	2982.61
981.981	2982.61
982.28	2946.45
982.579	2909.39
982.878	2930.63
983.177	2917.97
983.475	2896.28
983.774	2894.7
984.073	2875.72
984.372	2842.04
984.67	2846.11
984.969	2835.26
985.267	2841.59
985.566	2804.98
985.864	2804.76
986.162	2792.1
986.461	2779.67
986.759	2756.17
987.057	2713.69
987.355	2724.08
987.653	2694.25
987.951	2727.02
988.249	2694.03
988.547	2662.39
988.844	2674.82
989.142	2666.23
989.44	2660.35
989.737	2611.99
990.035	2591.2
990.332	2558.89
990.63	2600.02
990.927	2599.79
991.224	2585.1
991.521	2564.76
991.819	2547.81
992.116	2526.57
992.413	2523.18
992.71	2482.05
993.006	2509.85
993.303	2507.82
993.6	2491.09
993.897	2506.23
994.193	2446.57
994.49	2453.58
994.787	2445.44
995.083	2428.27
995.379	2425.11
995.676	2374.94
995.972	2378.1
996.268	2359.34
996.565	2370.64
996.861	2297.2
997.157	2365.9
997.453	2322.28
997.749	2345.79
998.044	2279.8
998.34	2298.33
998.636	2263.75
998.932	2249.07
999.227	2229.86
999.523	2253.58
999.818	2225.56
1000.114	2205.22
1000.409	2211.55
1000.704	2208.61
1001	2204.77
1001.295	2173.36
1001.59	2159.8
1001.885	2172.23
1002.18	2146.92
1002.475	2115.74
1002.77	2109.18
1003.065	2101.5
1003.359	2097.2
1003.654	2063.99
1003.949	2031.67
1004.243	2073.02
1004.538	2065.34
1004.832	2037.55
1005.127	2031.9
1005.421	2007.26
1005.715	1962.29
1006.009	1965.91
1006.304	1958
1006.598	1968.62
1006.892	1939.47
1007.186	1956.42
1007.48	1925.01
1007.773	1916.19
1008.067	1914.61
1008.361	1883.43
1008.655	1868.28
1008.948	1841.17
1009.242	1864.22
1009.535	1849.75
1009.829	1849.53
1010.122	1835.97
1010.415	1830.32
1010.708	1820.83
1011.001	1792.13
1011.295	1814.27
1011.588	1769.53
1011.881	1768.85
1012.173	1762.07
1012.466	1769.53
1012.759	1730.21
1013.052	1763.65
1013.344	1751.68
1013.637	1706.48
1013.93	1721.4
1014.222	1688.4
1014.514	1664
1014.807	1675.52
1015.099	1651.11
1015.391	1642.75
1015.683	1632.81
1015.976	1630.78
1016.268	1628.74
1016.56	1588.97
1016.851	1597.78
1017.143	1574.51
1017.435	1575.18
1017.727	1556.43
1018.018	1585.35
1018.31	1512.59
1018.602	1543.77
1018.893	1533.15
1019.185	1528.86
1019.476	1521.17
1019.767	1515.3
1020.058	1472.81
1020.35	1505.81
1020.641	1471.23
1020.932	1451.8
1021.223	1439.82
1021.514	1448.41
1021.804	1420.16
1022.095	1424.45
1022.386	1402.99
1022.677	1402.08
1022.967	1397.56
1023.258	1374.06
1023.548	1365.92
1023.839	1378.35
1024.129	1372.93
1024.419	1350.11
1024.709	1312.37
1025	1331.58
1025.29	1314.63
1025.58	1294.06
1025.87	1272.37
1026.16	1281.63
1026.449	1261.07
1026.739	1274.18
1027.029	1291.58
1027.319	1271.24
1027.608	1265.14
1027.898	1248.19
1028.187	1222.65
1028.477	1240.28
1028.766	1194.4
1029.055	1225.82
1029.344	1189.88
1029.634	1193.27
1029.923	1202.31
1030.212	1188.53
1030.501	1192.6
1030.79	1146.72
1031.078	1195.08
1031.367	1152.37
1031.656	1144.69
1031.945	1143.78
1032.233	1112.82
1032.522	1127.74
1032.81	1094.75
1033.099	1106.95
1033.387	1095.65
1033.675	1087.29
1033.963	1070.34
1034.251	1097.01
1034.54	1061.07
1034.828	1067.18
1035.116	1045.48
1035.403	1065.82
1035.691	1042.09
1035.979	1041.19
1036.267	1032.37
1036.554	1047.29
1036.842	1024.46
1037.129	1009.78
1037.417	1005.93
1037.704	1017.91
1037.992	1002.77
1038.279	1001.41
1038.566	972.49
1038.853	972.49
1039.14	972.49
