Data from hue_350_FLMS001491_21.txt Node
Date: Mon Feb 06 15:37:47 GMT 2017
User: dcchb
Spectrometer: FLMS00149
Trigger mode: 0
Integration Time (sec): 2.000000E-2
Scans to average: 10
Electric dark correction enabled: true
Nonlinearity correction enabled: false
Boxcar width: 0
XAxis mode: Wavelengths
Number of Pixels in Spectrum: 2048
>>>>>Begin Spectral Data<<<<<
341.393	-13.29
341.776	-13.29
342.16	-13.29
342.543	-64.36
342.927	-73.63
343.31	-66.85
343.693	-75.21
344.077	-53.29
344.46	-50.35
344.843	-66.17
345.226	-28.66
345.61	-8.09
345.993	-28.21
346.376	2.98
346.759	17.22
347.142	30.32
347.525	28.06
347.908	35.75
348.291	74.16
348.674	84.79
349.057	103.54
349.44	157.78
349.823	153.94
350.206	148.97
350.588	198.91
350.971	216.08
351.354	214.05
351.737	246.14
352.119	240.04
352.502	269.41
352.884	289.98
353.267	272.13
353.65	286.81
354.032	311.22
354.414	320.94
354.797	315.51
355.179	324.1
355.562	313.93
355.944	343.31
356.326	333.59
356.709	333.59
357.091	335.63
357.473	314.61
357.855	335.4
358.238	331.79
358.62	334.72
359.002	333.14
359.384	339.24
359.766	328.17
360.148	342.41
360.53	336.76
360.912	336.08
361.294	327.72
361.676	300.6
362.057	317.1
362.439	327.27
362.821	333.59
363.203	334.27
363.584	322.07
363.966	335.63
364.348	326.14
364.729	315.06
365.111	327.49
365.493	331.33
365.874	302.86
366.256	322.75
366.637	307.15
367.019	337.43
367.4	312.35
367.781	327.04
368.163	294.05
368.544	310.77
368.925	297.21
369.306	306.7
369.688	298.11
370.069	307.38
370.45	310.54
370.831	298.79
371.212	288.85
371.593	310.09
371.974	325.23
372.355	306.7
372.736	305.57
373.117	298.11
373.498	314.16
373.879	284.55
374.26	301.5
374.641	300.37
375.021	304.44
375.402	314.84
375.783	304.22
376.163	328.17
376.544	329.98
376.925	307.6
377.305	308.28
377.686	348.06
378.066	328.62
378.447	326.59
378.827	328.4
379.208	328.4
379.588	307.38
379.968	340.82
380.349	319.36
380.729	318.45
381.109	330.88
381.489	352.12
381.87	333.82
382.25	328.4
382.63	339.24
383.01	323.88
383.39	314.16
383.77	340.15
384.15	340.15
384.53	344.67
384.91	339.69
385.29	328.85
385.67	343.99
386.049	345.34
386.429	324.78
386.809	340.15
387.189	342.41
387.568	349.19
387.948	360.94
388.328	350.54
388.707	355.29
389.087	354.16
389.466	341.73
389.846	340.6
390.225	347.6
390.605	347.38
390.984	345.57
391.363	350.77
391.743	361.39
392.122	367.04
392.501	347.15
392.881	330.2
393.26	352.58
393.639	357.1
394.018	380.37
394.397	350.99
394.776	377.89
395.155	393.03
395.534	379.47
395.913	359.35
396.292	354.84
396.671	359.35
397.05	390.77
397.429	369.75
397.808	351.9
398.186	368.62
398.565	380.37
398.944	369.07
399.323	381.5
399.701	372.91
400.08	409.98
400.458	388.96
400.837	381.95
401.215	394.16
401.594	377.43
401.972	394.61
402.351	393.25
402.729	388.51
403.107	412.23
403.486	387.38
403.864	390.09
404.242	396.87
404.62	410.65
404.999	394.83
405.377	406.13
405.755	416.75
406.133	404.33
406.511	402.74
406.889	416.53
407.267	439.8
407.645	437.77
408.023	418.79
408.401	416.53
408.779	415.62
409.156	429.86
409.534	442.52
409.912	427.83
410.29	426.25
410.667	448.39
411.045	439.13
411.422	450.2
411.8	440.71
412.178	454.95
412.555	454.72
412.933	460.82
413.31	447.26
413.687	477.09
414.065	444.55
414.442	478.67
414.819	476.64
415.197	477.54
415.574	477.09
415.951	472.12
416.328	493.59
416.705	501.95
417.082	480.03
417.46	470.31
417.837	513.7
418.214	495.4
418.591	517.09
418.967	475.06
419.344	524.77
419.721	514.83
420.098	525.68
420.475	512.57
420.852	519.8
421.228	523.64
421.605	540.14
421.982	548.05
422.358	530.65
422.735	509.18
423.111	523.87
423.488	542.85
423.864	552.57
424.241	543.76
424.617	569.74
424.994	578.56
425.37	559.8
425.746	579.69
426.123	568.16
426.499	592.57
426.875	563.42
427.251	595.05
427.627	586.24
428.003	583.98
428.379	601.61
428.756	620.59
429.132	619.24
429.507	609.07
429.883	623.75
430.259	632.57
430.635	625.34
431.011	622.17
431.387	631.21
431.763	658.56
432.138	645.45
432.514	663.08
432.89	649.74
433.265	670.08
433.641	666.47
434.016	677.54
434.392	662.62
434.767	710.76
435.143	692
435.518	687.71
435.894	690.19
436.269	696.3
436.644	720.7
437.02	701.49
437.395	704.2
437.77	713.47
438.145	738.1
438.52	746.46
438.895	736.75
439.271	736.97
439.646	744.43
440.021	759.12
440.395	787.59
440.77	761.83
441.145	763.19
441.52	791.66
441.895	798.89
442.27	779
442.645	789.85
443.019	784.2
443.394	786.91
443.769	781.72
444.143	788.95
444.518	823.75
444.892	801.38
445.267	825.33
445.641	822.85
446.016	816.74
446.39	830.3
446.764	818.78
447.139	807.03
447.513	840.92
447.887	846.8
448.262	833.69
448.636	840.7
449.01	855.84
449.384	851.55
449.758	853.35
450.132	875.05
450.506	882.73
450.88	866.91
451.254	903.75
451.628	874.37
452.002	884.99
452.376	895.61
452.75	896.52
453.123	914.14
453.497	913.24
453.871	926.57
454.244	938.32
454.618	942.39
454.992	932.9
455.365	966.12
455.739	959.34
456.112	993.46
456.486	992.56
456.859	969.73
457.232	1006.57
457.606	1000.47
457.979	1017.87
458.352	1010.86
458.725	1041.82
459.099	1031.43
459.472	1058.32
459.845	1059.22
460.218	1071.65
460.591	1061.71
460.964	1107.36
461.337	1072.78
461.71	1102.84
462.083	1123.85
462.456	1128.37
462.829	1126.11
463.201	1144.42
463.574	1183.97
463.947	1164.98
464.32	1201.37
464.692	1162.72
465.065	1201.37
465.438	1199.11
465.81	1219.22
466.183	1227.35
466.555	1257.18
466.928	1251.31
467.3	1267.81
467.672	1297.64
468.045	1321.82
468.417	1323.85
468.789	1323.17
469.161	1352.1
469.534	1338.99
469.906	1412.89
470.278	1380.12
470.65	1422.83
471.022	1411.3
471.394	1457.41
471.766	1472.09
472.138	1458.99
472.51	1503.28
472.882	1499.21
473.253	1552.32
473.625	1562.94
473.997	1589.15
474.369	1578.08
474.74	1637.29
475.112	1652.88
475.484	1688.36
475.855	1717.74
476.227	1704.86
476.598	1739.66
476.97	1765.19
477.341	1826.44
477.713	1828.47
478.084	1858.75
478.455	1938.07
478.827	1905.75
479.198	1959.54
479.569	1951.63
479.94	2037.5
480.311	2039.08
480.682	2047.67
481.053	2129.25
481.424	2159.31
481.795	2190.27
482.166	2195.69
482.537	2230.94
482.908	2276.82
483.279	2342.13
483.65	2342.58
484.021	2408.57
484.391	2453.31
484.762	2443.59
485.133	2478.17
485.503	2513.42
485.874	2588.22
486.244	2595.23
486.615	2640.88
486.985	2667.09
487.356	2727.2
487.726	2740.76
488.097	2799.29
488.467	2824.83
488.837	2851.27
489.207	2940.08
489.578	2936.91
489.948	2989.12
490.318	3003.81
490.688	3048.78
491.058	3115.21
491.428	3152.5
491.798	3185.5
492.168	3221.43
492.538	3236.12
492.908	3255.78
493.278	3354.08
493.648	3347.75
494.017	3379.84
494.387	3422.78
494.757	3510.01
495.126	3483.11
495.496	3488.76
495.866	3515.43
496.235	3535.09
496.605	3616.67
496.974	3559.04
497.344	3616.44
497.713	3678.59
498.082	3725.59
498.452	3705.71
498.821	3762.43
499.19	3743.22
499.559	3794.74
499.928	3835.65
500.298	3835.42
500.667	3851.24
501.036	3871.35
501.405	3930.56
501.774	3895.08
502.143	3908.87
502.512	3947.51
502.88	3981.86
503.249	4004.23
503.618	4022.08
503.987	4013.95
504.356	4030.22
504.724	4076.32
505.093	4117.22
505.462	4106.6
505.83	4112.93
506.199	4150.67
506.567	4188.63
506.936	4222.08
507.304	4305.47
507.672	4229.08
508.041	4264.34
508.409	4306.82
508.777	4328.06
509.145	4356.99
509.514	4382.53
509.882	4372.81
510.25	4369.64
510.618	4420.49
510.986	4418.46
511.354	4452.35
511.722	4506.59
512.09	4483.09
512.458	4479.25
512.826	4535.06
513.193	4483.31
513.561	4558.11
513.929	4583.88
514.297	4622.29
514.664	4591.79
515.032	4634.72
515.4	4663.65
515.767	4645.12
516.135	4680.82
516.502	4663.87
516.869	4759.69
517.237	4712.23
517.604	4727.83
517.972	4766.02
518.339	4787.26
518.706	4816.64
519.073	4850.08
519.44	4783.65
519.808	4847.15
520.175	4883.08
520.542	4921.27
520.909	4921.04
521.276	4921.27
521.643	4949.74
522.009	4978.44
522.376	5011.66
522.743	5022.51
523.11	5086.24
523.477	5088.5
523.843	5144.77
524.21	5135.73
524.577	5180.25
524.943	5200.13
525.31	5183.86
525.676	5226.35
526.043	5277.19
526.409	5331.88
526.776	5342.5
527.142	5332.33
527.508	5404.19
527.874	5373.23
528.241	5492.33
528.607	5478.09
528.973	5505.21
529.339	5502.04
529.705	5550.18
530.071	5584.08
530.437	5583.62
530.803	5638.31
531.169	5631.76
531.535	5655.94
531.901	5674.7
532.267	5705.88
532.632	5722.83
532.998	5776.84
533.364	5782.72
533.73	5765.31
534.095	5810.29
534.461	5897.97
534.826	5878.31
535.192	5886.89
535.557	5954.69
535.923	5999.43
536.288	5989.94
536.653	6035.36
537.019	6063.61
537.384	6036.27
537.749	6074.23
538.114	6124.4
538.479	6165.98
538.845	6082.14
539.21	6141.12
539.575	6133.67
539.94	6157.85
540.305	6178.41
540.67	6199.2
541.034	6255.7
541.399	6299.54
541.764	6332.53
542.129	6366.43
542.494	6372.3
542.858	6407.11
543.223	6398.29
543.587	6442.13
543.952	6472.64
544.316	6483.04
544.681	6459.76
545.045	6563.94
545.41	6602.58
545.774	6591.96
546.138	6593.99
546.503	6607.78
546.867	6671.28
547.231	6629.92
547.595	6742.69
547.959	6759.41
548.324	6706.53
548.688	6800.77
549.052	6810.48
549.416	6859.07
549.779	6817.04
550.143	6856.81
550.507	6920.09
550.871	6866.3
551.235	6942.46
551.599	6999.41
551.962	6990.14
552.326	7045.51
552.689	7026.3
553.053	7019.07
553.417	7018.84
553.78	7124.15
554.143	7106.97
554.507	7156.69
554.87	7172.06
555.234	7222.23
555.597	7191.49
555.96	7222.45
556.323	7262
556.686	7277.37
557.05	7243.69
557.413	7337.48
557.776	7320.53
558.139	7375.44
558.502	7365.72
558.865	7396.91
559.228	7461.32
559.59	7494.76
559.953	7502.67
560.316	7552.39
560.679	7523.23
561.041	7539.28
561.404	7575.44
561.767	7737.92
562.129	7648.88
562.492	7804.58
562.854	7748.99
563.217	7667.64
563.579	7738.6
563.941	7795.32
564.304	7797.8
564.666	7886.84
565.028	7904.92
565.39	7933.85
565.753	7951.7
566.115	7928.2
566.477	7948.08
566.839	7994.41
567.201	8082.99
567.563	8107.63
567.925	8130.9
568.287	8142.88
568.648	8185.14
569.01	8162.54
569.372	8251.12
569.734	8275.08
570.095	8306.04
570.457	8313.04
570.819	8409.54
571.18	8373.38
571.542	8485.24
571.903	8432.14
572.265	8544.9
572.626	8575.18
572.987	8490.89
573.349	8599.59
573.71	8676.65
574.071	8711
574.432	8844.78
574.794	8848.85
575.155	8860.6
575.516	8928.17
575.877	8964.78
576.238	9080.26
576.599	9061.27
576.96	9162.74
577.32	9234.83
577.681	9324.54
578.042	9402.96
578.403	9447.03
578.763	9553.01
579.124	9584.42
579.485	9743.51
579.845	9840.24
580.206	9863.06
580.566	10080.68
580.927	10112.32
581.287	10296.72
581.648	10334.01
582.008	10458.07
582.368	10603.83
582.728	10821.45
583.089	10867.1
583.449	11029.58
583.809	11190.03
584.169	11329.01
584.529	11487.88
584.889	11724.48
585.249	11853.74
585.609	11965.6
585.969	12166.28
586.329	12312.71
586.688	12540.5
587.048	12786.82
587.408	12899.14
587.768	13070.21
588.127	13387.04
588.487	13505.22
588.846	13903.41
589.206	14022.05
589.565	14268.37
589.925	14533.9
590.284	14704.51
590.643	15005.98
591.003	15367.32
591.362	15561.22
591.721	15809.57
592.08	15990.13
592.44	16298.82
592.799	16510.12
593.158	16789.21
593.517	17066.71
593.876	17379.7
594.235	17608.39
594.593	17973.36
594.952	18261.71
595.311	18576.96
595.67	18836.16
596.029	19174.23
596.387	19458.97
596.746	19663.48
597.104	19941.66
597.463	20156.57
597.822	20539.16
598.18	20823.9
598.538	20892.6
598.897	21468.4
599.255	21501.62
599.613	22074.94
599.972	22204.66
600.33	22421.15
600.688	22681.93
601.046	22989.72
601.404	23399.65
601.762	23526.2
602.12	23916.02
602.478	24204.6
602.836	24468.33
603.194	24600.98
603.552	24845.04
603.91	25024.02
604.268	25533.16
604.625	25512.82
604.983	26057.66
605.341	26108.96
605.698	26433.47
606.056	26703.07
606.413	26974.47
606.771	27151.87
607.128	27426.89
607.485	27585.31
607.843	27820.78
608.2	28166.76
608.557	28450.37
608.914	28457.15
609.272	28811.49
609.629	29074.53
609.986	29291.25
610.343	29398.14
610.7	29912.7
611.057	30089.87
611.414	29962.19
611.771	30287.83
612.127	30620.03
612.484	30645.79
612.841	30973.24
613.198	31030.19
613.554	31110.64
613.911	31503.39
614.267	31672.88
614.624	31750.39
614.98	32054.11
615.337	32225.86
615.693	32302.92
616.05	32479.64
616.406	32783.36
616.762	32727.77
617.118	32909.23
617.475	33049.12
617.831	33312.84
618.187	33385.38
618.543	33597.13
618.899	33801.19
619.255	33890.22
619.611	33973.84
619.967	34160.05
620.323	34336.54
620.678	34340.61
621.034	34417.89
621.39	34525.46
621.746	34580.38
622.101	35020.59
622.457	34836.41
622.812	35006.35
623.168	35169.06
623.523	35244.54
623.879	35476.85
624.234	35276.63
624.589	35454.48
624.945	35663.96
625.3	35629.39
625.655	35700.12
626.01	35817.63
626.365	35829.83
626.72	35950.96
627.075	35957.51
627.43	36029.6
627.785	36057.4
628.14	36078.87
628.495	36232.99
628.85	36331.52
629.205	36176.72
629.559	36631.17
629.914	36376.26
630.269	36532.87
630.623	36351.85
630.978	36306.21
631.332	36424.4
631.687	36712.3
632.041	36529.25
632.396	36720.66
632.75	36473.21
633.104	36648.8
633.459	36565.63
633.813	36650.38
634.167	36515.01
634.521	36710.94
634.875	36585.97
635.229	36597.5
635.583	36584.62
635.937	36564.28
636.291	36566.76
636.645	36679.53
636.999	36725.18
637.352	36890.82
637.706	36555.92
638.06	36768.34
638.413	36778.28
638.767	36658.97
639.121	36741.22
639.474	36645.63
639.828	36620.32
640.181	36758.17
640.534	36636.82
640.888	36660.55
641.241	36557.73
641.594	36699.64
641.947	36754.78
642.301	36576.93
642.654	36697.16
643.007	36670.04
643.36	36641.11
643.713	36464.17
644.066	36652.19
644.419	36520.66
644.771	36265.3
645.124	35883.84
645.477	35915.71
645.83	35701.93
646.182	35668.71
646.535	35479.34
646.888	35582.38
647.24	35509.39
647.593	35585.32
647.945	35481.37
648.298	35390.52
648.65	35314.37
649.002	35286.57
649.355	35457.19
649.707	35369.28
650.059	35385.55
650.411	35827.12
650.763	35903.05
651.115	36399.09
651.467	36290.84
651.819	36201.8
652.171	36192.31
652.523	36043.39
652.875	36099.43
653.227	36063.05
653.578	36193.22
653.93	36022.15
654.282	35960.9
654.633	36067.57
654.985	35947.8
655.337	35966.33
655.688	36049.94
656.039	36118.87
656.391	35821.25
656.742	35911.87
657.094	35975.37
657.445	35933.33
657.796	35859.44
658.147	35923.84
658.498	35812.43
658.849	35915.26
659.2	35904.64
659.551	35827.35
659.902	35998.87
660.253	35743.96
660.604	35917.52
660.955	35755.94
661.306	35924.3
661.656	35892.43
662.007	35868.03
662.358	35817.41
662.708	35781.93
663.059	35794.36
663.409	35591.42
663.76	35913.45
664.11	35801.59
664.461	35770.63
664.811	35854.24
665.161	35766.33
665.511	35661.93
665.862	35735.6
666.212	35818.99
666.562	35929.72
666.912	35760.23
667.262	35706.22
667.612	35678.65
667.962	35855.6
668.312	35732.66
668.662	35945.99
669.011	35760.46
669.361	35722.27
669.711	35722.49
670.06	35586.23
670.41	35587.13
670.76	35502.39
671.109	35681.82
671.459	35613.12
671.808	35677.3
672.157	35709.16
672.507	35348.27
672.856	35437.75
673.205	35500.8
673.554	35527.47
673.904	35424.42
674.253	35598.43
674.602	35430.75
674.951	34884.77
675.3	34832.35
675.649	35409.73
675.998	35393.24
676.346	35327.25
676.695	35452.44
677.044	35172.9
677.393	35375.61
677.741	35364.76
678.09	35232.11
678.438	35196.41
678.787	35276.63
679.135	35275.73
679.484	34983.98
679.832	35139.23
680.181	35012.91
680.529	35042.28
680.877	34996.18
681.225	34989.18
681.573	35265.33
681.922	34929.75
682.27	34855.62
682.618	34852.46
682.966	34730.43
683.314	34783.08
683.661	34771.11
684.009	34642.75
684.357	34490.21
684.705	34336.99
685.053	34434.84
685.4	34454.28
685.748	34205.7
686.095	34184.23
686.443	34007.74
686.79	34039.6
687.138	34124.34
687.485	34216.54
687.832	33974.52
688.18	34041.18
688.527	33756.67
688.874	33745.82
689.221	33790.11
689.568	33699.95
689.915	33619.27
690.262	33582.21
690.609	33541.76
690.956	33386.06
691.303	33308.09
691.65	33190.58
691.997	33177.93
692.344	32950.36
692.69	33001.66
693.037	33034.43
693.383	32720.76
693.73	32817.48
694.077	32660.43
694.423	32711.72
694.769	32586.98
695.116	32645.96
695.462	32481.45
695.808	32339.53
696.155	32424.73
696.501	32114.45
696.847	32154
697.193	32155.36
697.539	32172.3
697.885	31836.04
698.231	31762.82
698.577	31851.41
698.923	31693.45
699.269	31502.49
699.614	31363.96
699.96	31367.58
700.306	31398.54
700.651	31123.97
700.997	31150.86
701.342	31151.09
701.688	31008.27
702.033	30927.14
702.379	30975.05
702.724	30856.63
703.069	30896.63
703.415	30435.63
703.76	30521.05
704.105	30563.76
704.45	30432.01
704.795	30307.04
705.14	30243.77
705.485	30135.52
705.83	29966.94
706.175	30161.51
706.52	29975.53
706.865	29944.11
707.209	29992.7
707.554	29663.44
707.899	29815.3
708.243	29745.7
708.588	29639.26
708.932	29478.82
709.277	29518.36
709.621	29520.17
709.966	29309.33
710.31	29359.95
710.654	29073.85
710.998	29157.02
711.342	29233.85
711.687	29054.42
712.031	29079.96
712.375	28832.05
712.719	28963.8
713.063	28847.19
713.407	28950.02
713.75	28671.83
714.094	28743.24
714.438	28572.62
714.782	28544.6
715.125	28362.46
715.469	28595.45
715.812	28296.93
716.156	28223.26
716.499	28204.72
716.843	28172.86
717.186	28083.15
717.53	28235.68
717.873	28099.42
718.216	27995.01
718.559	27974.45
718.902	27910.27
719.246	27899.87
719.589	27764.51
719.932	27692.87
720.275	27685.42
720.617	27608.36
720.96	27597.96
721.303	27496.27
721.646	27606.55
721.989	27301.92
722.331	27519.54
722.674	27453.11
723.016	27355.48
723.359	27295.14
723.701	27394.58
724.044	27200.46
724.386	26983.97
724.729	27178.54
725.071	26982.61
725.413	27081.59
725.755	27045.66
726.097	26832.33
726.439	26732.67
726.782	26893.12
727.124	26848.83
727.465	26788.94
727.807	26683.86
728.149	26632.34
728.491	26626.69
728.833	26614.26
729.175	26516.41
729.516	26488.39
729.858	26527.48
730.199	26476.41
730.541	26418.1
730.882	26372
731.224	26416.3
731.565	26243.87
731.906	26313.7
732.248	26211.78
732.589	26156.64
732.93	26010.21
733.271	26063.54
733.612	26131.56
733.953	26172.91
734.294	25992.81
734.635	25952.58
734.976	25946.25
735.317	25912.13
735.658	25852.92
735.999	25805.47
736.339	25729.08
736.68	25891.56
737.021	25706.94
737.361	25654.51
737.702	25669.65
738.042	25735.64
738.383	25569.54
738.723	25739.93
739.063	25642.08
739.404	25626.49
739.744	25404.8
740.084	25326.83
740.424	25464.46
740.764	25275.31
741.104	25359.6
741.444	25249.1
741.784	25080.29
742.124	25239.6
742.464	25107.86
742.804	25136.78
743.143	25101.53
743.483	25015.66
743.823	24935.43
744.162	24924.36
744.502	25024.47
744.841	24919.61
745.181	24953.51
745.52	24781.99
745.86	24916.45
746.199	24783.35
746.538	24789
746.877	24833.29
747.216	24755.78
747.556	24725.95
747.895	24678.94
748.234	24628.77
748.573	24503.58
748.911	24499.96
749.25	24517.14
749.589	24340.42
749.928	24409.12
750.267	24421.1
750.605	24250.48
750.944	24281.89
751.283	24201.67
751.621	24221.78
751.96	24047.09
752.298	24144.49
752.636	24108.11
752.975	24011.84
753.313	23905.85
753.651	24059.75
753.989	23787.67
754.327	23896.36
754.666	23881.9
755.004	23819.76
755.342	23721.23
755.679	23741.79
756.017	23612.53
756.355	23651.85
756.693	23561.46
757.031	23561.46
757.368	23559.65
757.706	23337.96
758.044	23268.13
758.381	23329.82
758.719	23252.09
759.056	23262.48
759.394	23166.21
759.731	23063.62
760.068	22889.61
760.405	22970.29
760.743	22850.06
761.08	22882.6
761.417	22632.67
761.754	22723.06
762.091	22653.23
762.428	22632.22
762.765	22462.05
763.102	22505.21
763.438	22352.67
763.775	22336.4
764.112	22279.23
764.449	22248.95
764.785	22210.08
765.122	22053.47
765.458	21969.18
765.795	21901.16
766.131	21960.14
766.467	21806.25
766.804	21761.73
767.14	21629.76
767.476	21726.02
767.812	21563.54
768.148	21641.73
768.485	21507.5
768.821	21359.48
769.157	21340.95
769.492	21273.38
769.828	21208.07
770.164	21037
770.5	20929.89
770.836	20912.26
771.171	20850.12
771.507	20749.33
771.842	20705.71
772.178	20576.45
772.513	20497.81
772.849	20502.55
773.184	20461.2
773.519	20386.17
773.855	20314.31
774.19	20220.3
774.525	20115.22
774.86	20190.47
775.195	20099.17
775.53	20030.02
775.865	19904.83
776.2	19819.86
776.535	19623.71
776.87	19586.87
777.205	19532.64
777.539	19456.03
777.874	19472.98
778.209	19319.08
778.543	19334.9
778.878	19169.93
779.212	19072.08
779.547	19068.69
779.881	19098.52
780.215	18899.21
780.55	19041.35
780.884	18842.03
781.218	18744.18
781.552	18757.06
781.886	18645.65
782.22	18498.54
782.554	18477.3
782.888	18325.21
783.222	18306.91
783.556	18178.1
783.889	18163.18
784.223	17990.3
784.557	18015.61
784.89	17992.34
785.224	17907.82
785.557	17840.7
785.891	17822.85
786.224	17754.83
786.558	17698.33
786.891	17584.66
787.224	17543.08
787.557	17453.82
787.891	17385.12
788.224	17409.98
788.557	17541.73
788.89	17274.62
789.223	17326.82
789.556	17177.22
789.888	17128.18
790.221	16971.35
790.554	16949.65
790.887	16978.13
791.219	16877.56
791.552	16857.68
791.884	16766.83
792.217	16680.73
792.549	16705.82
792.882	16578.59
793.214	16449.78
793.546	16589.21
793.879	16427.63
794.211	16267.19
794.543	16298.6
794.875	16298.37
795.207	16302.21
795.539	16132.27
795.871	16114.19
796.203	16021.54
796.535	15952.17
796.867	15851.15
797.198	15936.8
797.53	15844.82
797.862	15835.33
798.193	15870.36
798.525	15596.69
798.856	15635.56
799.188	15591.72
799.519	15513.08
799.85	15443.7
800.182	15438.96
800.513	15378.62
800.844	15259.75
801.175	15329.81
801.506	15260.21
801.837	15111.96
802.168	15098.4
802.499	15112.19
802.83	15028.35
803.161	14958.97
803.491	14941.57
803.822	14958.97
804.153	14880.56
804.483	14822.93
804.814	14775.02
805.145	14655.93
805.475	14682.14
805.805	14631.97
806.136	14558.3
806.466	14495.71
806.796	14630.17
807.126	14381.81
807.457	14437.18
807.787	14398.53
808.117	14335.03
808.447	14247.13
808.777	14296.16
809.107	14223.4
809.436	14233.79
809.766	14151.76
810.096	14089.16
810.426	14140.91
810.755	14062.27
811.085	14036.06
811.414	14065.44
811.744	13895.95
812.073	13899.79
812.403	13930.98
812.732	13861.6
813.061	13698.89
813.39	13727.14
813.719	13657.31
814.049	13656.63
814.378	13685.78
814.707	13623.41
815.036	13561.49
815.365	13491.89
815.693	13399.24
816.022	13486.02
816.351	13431.1
816.68	13389.75
817.008	13326.47
817.337	13272.01
817.665	13148.4
817.994	13242.18
818.322	13211.22
818.651	13183.42
818.979	13127.38
819.307	13173.71
819.636	13144.78
819.964	13041.96
820.292	13116.31
820.62	13061.39
820.948	12969.19
821.276	13081.05
821.604	13000.15
821.932	12898.69
822.259	13059.36
822.587	12929.87
822.915	12871.12
823.243	12966.03
823.57	12919.7
823.898	12969.64
824.225	12843.55
824.553	12886.03
824.88	12938.46
825.207	12906.6
825.535	12918.35
825.862	12935.97
826.189	12863.88
826.516	12919.93
826.843	12860.5
827.17	12845.35
827.497	12954.73
827.824	12926.48
828.151	12950.66
828.478	12896.88
828.805	13011
829.131	13026.14
829.458	12833.15
829.785	12896.65
830.111	12947.05
830.438	12921.06
830.764	12846.94
831.09	12881.06
831.417	12755.41
831.743	12880.83
832.069	12925.8
832.395	12846.03
832.722	12734.85
833.048	12785.02
833.374	12817.11
833.7	12761.06
834.026	12718.35
834.351	12790.67
834.677	12721.97
835.003	12750.44
835.329	12764.45
835.654	12707.5
835.98	12601.74
836.306	12690.78
836.631	12628.41
836.956	12678.13
837.282	12679.93
837.607	12567.17
837.932	12557.9
838.258	12510.45
838.583	12544.12
838.908	12522.65
839.233	12414.63
839.558	12476.78
839.883	12405.14
840.208	12377.34
840.533	12415.99
840.858	12319.72
841.182	12350.68
841.507	12343.45
841.832	12300.51
842.156	12237.91
842.481	12198.14
842.805	12274.52
843.13	12105.49
843.454	12134.41
843.778	12138.48
844.103	12062.55
844.427	12063.45
844.751	12066.39
845.075	11965.38
845.399	11950.01
845.723	11901.2
846.047	11860.07
846.371	11817.13
846.695	11813.52
847.019	11746.63
847.343	11675.89
847.666	11655.56
847.99	11639.96
848.313	11540.98
848.637	11514.54
848.96	11491.94
849.284	11451.72
849.607	11345.96
849.931	11384.83
850.254	11185.74
850.577	11213.76
850.9	11118.39
851.223	11169.92
851.546	11087.66
851.869	11003.82
852.192	10997.72
852.515	10960.66
852.838	10859.64
853.161	10912.75
853.483	10900.09
853.806	10756.37
854.129	10822.36
854.451	10716.37
854.774	10713.21
855.096	10675.47
855.419	10632.76
855.741	10676.82
856.063	10543.27
856.385	10496.72
856.708	10471.18
857.03	10448.13
857.352	10481.8
857.674	10387.79
857.996	10447
858.318	10344.63
858.64	10375.36
858.961	10220.56
859.283	10291.75
859.605	10254.24
859.926	10211.3
860.248	10118.19
860.57	10144.86
860.891	10165.88
861.212	10082.49
861.534	10090.4
861.855	10100.79
862.176	10050.85
862.498	10043.62
862.819	10012.21
863.14	9963.4
863.461	10011.08
863.782	9924.3
864.103	9944.41
864.424	9892.66
864.745	9973.34
865.065	9860.35
865.386	9854.92
865.707	9806.11
866.027	9799.11
866.348	9802.72
866.668	9748.03
866.989	9753.23
867.309	9695.15
867.63	9699.22
867.95	9709.84
868.27	9638.66
868.59	9697.64
868.91	9653.12
869.23	9666.68
869.55	9590.07
869.87	9633.24
870.19	9630.3
870.51	9560.92
870.83	9587.81
871.15	9514.37
871.469	9554.59
871.789	9600.92
872.109	9509.4
872.428	9462.62
872.748	9467.36
873.067	9475.73
873.386	9417.87
873.706	9443.64
874.025	9399.8
874.344	9340.36
874.663	9431.66
874.982	9322.28
875.301	9372
875.62	9347.82
875.939	9283.64
876.258	9302.4
876.577	9220.14
876.896	9270.76
877.214	9156.19
877.533	9166.58
877.852	9219.46
878.17	9150.31
878.489	9230.99
878.807	9201.61
879.125	9166.81
879.444	9151.21
879.762	9095.17
880.08	9101.95
880.398	9041.61
880.716	9124.1
881.034	9047.04
881.352	9077.09
881.67	9010.2
881.988	9006.59
882.306	9019.47
882.624	8938.79
882.941	8955.51
883.259	8892.92
883.577	8905.8
883.894	8902.63
884.212	8861.5
884.529	8880.49
884.846	8835.74
885.164	8828.74
885.481	8745.35
885.798	8842.97
886.115	8674.39
886.432	8720.49
886.75	8728.17
887.067	8676.2
887.383	8607.95
887.7	8663.77
888.017	8611.12
888.334	8665.35
888.651	8614.05
888.967	8571.34
889.284	8523.89
889.6	8520.5
889.917	8445.02
890.233	8435.53
890.55	8401.18
890.866	8412.93
891.182	8411.8
891.498	8406.15
891.815	8294.97
892.131	8318.69
892.447	8298.58
892.763	8201.86
893.079	8215.19
893.395	8226.72
893.71	8214.97
894.026	8172.93
894.342	8111.47
894.657	8124.8
894.973	8037.35
895.289	8059.94
895.604	8081.19
895.92	7993.5
896.235	7960.06
896.55	7972.71
896.865	7891.59
897.181	7838.25
897.496	7868.76
897.811	7859.72
898.126	7825.15
898.441	7792.83
898.756	7787.41
899.071	7740.86
899.386	7683
899.7	7640.07
900.015	7640.07
900.33	7602.1
900.644	7566.85
900.959	7492.05
901.273	7574.08
901.588	7517.36
901.902	7471.94
902.216	7399.17
902.531	7428.77
902.845	7453.41
903.159	7357.59
903.473	7387.42
903.787	7282.79
904.101	7284.14
904.415	7251.83
904.729	7200.98
905.042	7216.12
905.356	7167.76
905.67	7155.11
905.984	7148.1
906.297	7120.31
906.611	7089.57
906.924	7114.88
907.237	7010.48
907.551	7070.59
907.864	7040.99
908.177	6965.28
908.491	6970.93
908.804	6955.57
909.117	6882.57
909.43	6791.73
909.743	6770.94
910.056	6796.7
910.368	6763.03
910.681	6738.62
910.994	6766.64
911.307	6696.82
911.619	6638.06
911.932	6658.17
912.244	6548.12
912.557	6603.03
912.869	6523.94
913.181	6580.21
913.494	6502.92
913.806	6438.97
914.118	6403.04
914.43	6393.09
914.742	6368.91
915.054	6368.69
915.366	6305.64
915.678	6366.43
915.99	6261.12
916.302	6268.58
916.613	6189.48
916.925	6253.44
917.236	6228.81
917.548	6164.63
917.859	6174.57
918.171	6099.99
918.482	6110.84
918.794	6084.4
919.105	6020.68
919.416	5999.66
919.727	5989.04
920.038	6018.42
920.349	5894.8
920.66	5903.16
920.971	5908.59
921.282	5815.48
921.593	5790.17
921.903	5846.22
922.214	5756.95
922.525	5808.03
922.835	5744.07
923.146	5690.29
923.456	5722.6
923.767	5696.62
924.077	5630.63
924.387	5629.72
924.697	5594.7
925.008	5591.31
925.318	5597.18
925.628	5540.46
925.938	5527.35
926.248	5498.2
926.558	5437.19
926.867	5437.64
927.177	5396.51
927.487	5434.93
927.796	5347.7
928.106	5375.04
928.416	5348.15
928.725	5356.29
929.034	5268.38
929.344	5275.61
929.653	5277.64
929.962	5192
930.271	5195.84
930.581	5186.8
930.89	5118.55
931.199	5108.38
931.508	5093.02
931.817	5087.37
932.125	5053.92
932.434	5038.55
932.743	5001.72
933.051	4997.43
933.36	4983.64
933.669	4947.48
933.977	4964.43
934.286	4923.75
934.594	4899.8
934.902	4880.59
935.21	4820.71
935.519	4869.52
935.827	4821.61
936.135	4793.81
936.443	4708.17
936.751	4719.01
937.059	4727.38
937.367	4680.15
937.674	4765.34
937.982	4640.15
938.29	4635.63
938.597	4668.39
938.905	4599.92
939.213	4558.34
939.52	4580.49
939.827	4564.89
940.135	4532.13
940.442	4513.37
940.749	4521.96
941.056	4528.06
941.363	4443.54
941.67	4470.66
941.977	4397.67
942.284	4416.65
942.591	4412.81
942.898	4327.84
943.205	4348.4
943.511	4325.35
943.818	4324
944.125	4299.59
944.431	4273.6
944.738	4239.93
945.044	4268.63
945.35	4209.88
945.657	4190.21
945.963	4195.64
946.269	4186.82
946.575	4196.32
946.881	4149.09
947.187	4109.54
947.493	4108.41
947.799	4097.56
948.105	4082.42
948.41	3982.08
948.716	4041.74
949.022	4032.25
949.327	3969.66
949.633	3971.24
949.938	3981.86
950.244	3988.41
950.549	3881.3
950.854	3912.71
951.16	3893.95
951.465	3846.27
951.77	3843.33
952.075	3824.12
952.38	3819.15
952.685	3815.31
952.99	3775.76
953.294	3805.82
953.599	3762.66
953.904	3755.88
954.209	3710
954.513	3749.55
954.818	3714.75
955.122	3711.81
955.426	3675.2
955.731	3626.16
956.035	3664.8
956.339	3644.69
956.643	3600.17
956.948	3566.28
957.252	3549.33
957.556	3546.16
957.86	3538.93
958.163	3546.39
958.467	3511.14
958.771	3502.55
959.075	3498.71
959.378	3502.78
959.682	3454.87
959.985	3391.82
960.289	3395.89
960.592	3423.23
960.896	3406.05
961.199	3372.16
961.502	3376.22
961.805	3344.59
962.108	3296
962.411	3317.02
962.714	3322.89
963.017	3272.05
963.32	3289.22
963.623	3247.87
963.926	3213.07
964.228	3233.63
964.531	3227.75
964.833	3216
965.136	3203.8
965.438	3165.38
965.741	3178.04
966.043	3155.44
966.345	3126.06
966.648	3098.49
966.95	3062.33
967.252	3044.93
967.554	3078.15
967.856	3026.63
968.158	3044.93
968.46	3053.52
968.761	3053.75
969.063	3037.7
969.365	2981.66
969.666	2972.17
969.968	2945.28
970.269	2992.96
970.571	2932.17
970.872	2953.64
971.174	2924.94
971.475	2914.09
971.776	2921.1
972.077	2860.08
972.378	2884.49
972.679	2854.66
972.98	2856.01
973.281	2836.58
973.582	2831.61
973.883	2803.81
974.183	2801.32
974.484	2785.51
974.785	2763.36
975.085	2760.87
975.386	2780.08
975.686	2747.09
975.986	2728.11
976.287	2745.51
976.587	2684.94
976.887	2735.79
977.187	2623.02
977.487	2668.67
977.787	2658.28
978.087	2649.01
978.387	2653.53
978.687	2641.55
978.987	2611.73
979.286	2572.63
979.586	2605.17
979.885	2541.44
980.185	2572.63
980.484	2556.59
980.784	2562.23
981.083	2531.05
981.382	2529.47
981.682	2514.55
981.981	2477.27
982.28	2479.98
982.579	2502.8
982.878	2478.85
983.177	2470.26
983.475	2452.86
983.774	2418.96
984.073	2455.12
984.372	2421
984.67	2403.37
984.969	2410.6
985.267	2418.96
985.566	2394.78
985.864	2375.57
986.162	2374.44
986.461	2350.04
986.759	2325.4
987.057	2323.82
987.355	2323.15
987.653	2278.4
987.951	2321.34
988.249	2314.78
988.547	2280.66
988.844	2260.55
989.142	2240.44
989.44	2237.05
989.737	2270.94
990.035	2231.17
990.332	2202.24
990.63	2214.9
990.927	2232.53
991.224	2200.89
991.521	2181.91
991.819	2145.75
992.116	2175.35
992.413	2159.31
992.71	2129.03
993.006	2131.96
993.303	2108.01
993.6	2103.49
993.897	2110.5
994.193	2089.03
994.49	2103.72
994.787	2072.08
995.083	2031.18
995.379	2056.26
995.676	2042.25
995.972	2034.11
996.268	2017.16
996.565	2013.32
996.861	1992.31
997.157	1990.95
997.453	1952.08
997.749	1975.58
998.044	1961.12
998.34	1950.27
998.636	1959.09
998.932	1929.94
999.227	1928.13
999.523	1924.06
999.818	1884.06
1000.114	1884.06
1000.409	1874.57
1000.704	1891.97
1001	1866.43
1001.295	1846.32
1001.59	1815.59
1001.885	1820.11
1002.18	1807
1002.475	1838.41
1002.77	1795.93
1003.065	1782.59
1003.359	1787.79
1003.654	1790.28
1003.949	1771.52
1004.243	1778.98
1004.538	1719.77
1004.832	1747.79
1005.127	1748.47
1005.421	1760
1005.715	1719.32
1006.009	1711.86
1006.304	1714.57
1006.598	1687
1006.892	1682.03
1007.186	1677.06
1007.48	1657.85
1007.773	1631.86
1008.067	1656.04
1008.361	1650.85
1008.655	1622.6
1008.948	1617.85
1009.242	1601.58
1009.535	1596.84
1009.829	1604.97
1010.122	1569.04
1010.415	1568.59
1010.708	1564.52
1011.001	1534.92
1011.295	1561.36
1011.588	1541.02
1011.881	1507.8
1012.173	1512.32
1012.466	1523.62
1012.759	1489.04
1013.052	1494.47
1013.344	1514.13
1013.637	1474.35
1013.93	1508.03
1014.222	1485.2
1014.514	1460.12
1014.807	1455.15
1015.099	1428.48
1015.391	1408.59
1015.683	1429.61
1015.976	1425.09
1016.268	1408.14
1016.56	1405.66
1016.851	1376.5
1017.143	1385.09
1017.435	1374.7
1017.727	1372.21
1018.018	1358.65
1018.31	1393.9
1018.602	1327.24
1018.893	1339.44
1019.185	1327.24
1019.476	1320.91
1019.767	1303.06
1020.058	1303.28
1020.35	1289.05
1020.641	1283.17
1020.932	1296.05
1021.223	1258.77
1021.514	1242.27
1021.804	1243.85
1022.095	1254.02
1022.386	1255.38
1022.677	1228.03
1022.967	1236.62
1023.258	1206.56
1023.548	1183.74
1023.839	1185.77
1024.129	1210.18
1024.419	1216.51
1024.709	1174.93
1025	1183.51
1025.29	1143.74
1025.58	1151.88
1025.87	1142.16
1026.16	1141.48
1026.449	1125.44
1026.739	1115.72
1027.029	1134.02
1027.319	1113.23
1027.608	1100.13
1027.898	1084.53
1028.187	1086.79
1028.477	1103.06
1028.766	1074.82
1029.055	1052.22
1029.344	1061.94
1029.634	1057.64
1029.923	1068.94
1030.212	1039.34
1030.501	1054.48
1030.79	1012.67
1031.078	1046.34
1031.367	1000.69
1031.656	1030.52
1031.945	1002.95
1032.233	990.52
1032.522	1014.7
1032.81	982.39
1033.099	1012.67
1033.387	992.78
1033.675	982.16
1033.963	956.18
1034.251	963.86
1034.54	942.16
1034.828	937.64
1035.116	960.7
1035.403	945.78
1035.691	912.11
1035.979	910.3
1036.267	907.59
1036.554	911.2
1036.842	909.85
1037.129	899.68
1037.417	887.93
1037.704	874.6
1037.992	885.22
1038.279	877.76
1038.566	873.92
1038.853	873.92
1039.14	873.92
