Data from hue_10_FLMS001491_79.txt Node
Date: Mon Feb 06 15:32:32 GMT 2017
User: dcchb
Spectrometer: FLMS00149
Trigger mode: 0
Integration Time (sec): 2.000000E-2
Scans to average: 10
Electric dark correction enabled: true
Nonlinearity correction enabled: false
Boxcar width: 0
XAxis mode: Wavelengths
Number of Pixels in Spectrum: 2048
>>>>>Begin Spectral Data<<<<<
341.393	-10.28
341.776	-10.28
342.16	-10.28
342.543	-76.04
342.927	-71.98
343.31	-61.58
343.693	-62.71
344.077	-70.39
344.46	-51.86
344.843	-41.47
345.226	-41.24
345.61	-31.52
345.993	-21.81
346.376	8.7
346.759	10.06
347.142	32.65
347.525	38.08
347.908	51.19
348.291	52.77
348.674	77.17
349.057	111.97
349.44	139.32
349.823	156.72
350.206	167.57
350.588	203.95
350.971	201.46
351.354	220.45
351.737	243.27
352.119	232.65
352.502	255.25
352.884	265.64
353.267	296.6
353.65	299.99
354.032	293.89
354.414	291.4
354.797	301.35
355.179	319.2
355.562	325.75
355.944	344.51
356.326	354.45
356.709	327.56
357.091	316.26
357.473	329.37
357.855	319.88
358.238	341.35
358.62	325.98
359.002	353.55
359.384	330.5
359.766	336.83
360.148	336.38
360.53	359.43
360.912	331.86
361.294	333.44
361.676	321.23
362.057	341.8
362.439	331.18
362.821	321.23
363.203	356.71
363.584	341.35
363.966	313.78
364.348	305.87
364.729	316.49
365.111	332.76
365.493	312.65
365.874	318.52
366.256	317.84
366.637	312.65
367.019	302.25
367.4	313.1
367.781	313.78
368.163	335.47
368.544	302.03
368.925	317.84
369.306	298.41
369.688	287.79
370.069	320.33
370.45	320.1
370.831	301.57
371.212	299.31
371.593	303.38
371.974	314
372.355	324.4
372.736	298.18
373.117	305.19
373.498	292.53
373.879	318.75
374.26	314
374.641	302.03
375.021	315.13
375.402	307.45
375.783	328.47
376.163	317.17
376.544	313.1
376.925	321.69
377.305	322.82
377.686	329.6
378.066	305.42
378.447	331.18
378.827	327.79
379.208	319.43
379.588	330.73
379.968	331.4
380.349	354.68
380.729	337.51
381.109	323.04
381.489	324.4
381.87	337.51
382.25	329.37
382.63	316.26
383.01	333.66
383.39	320.56
383.77	337.51
384.15	323.49
384.53	325.75
384.91	339.31
385.29	325.98
385.67	342.93
386.049	332.53
386.429	344.06
386.809	352.42
387.189	349.93
387.568	332.76
387.948	345.87
388.328	329.6
388.707	339.09
389.087	368.92
389.466	357.39
389.846	356.26
390.225	340.89
390.605	355.36
390.984	341.35
391.363	362.36
391.743	328.92
392.122	353.55
392.501	353.32
392.881	350.16
393.26	346.77
393.639	351.97
394.018	347.67
394.397	354.45
394.776	357.62
395.155	353.55
395.534	365.98
395.913	353.55
396.292	352.42
396.671	347.22
397.05	385.64
397.429	386.54
397.808	383.15
398.186	349.93
398.565	380.22
398.944	372.76
399.323	350.84
399.701	379.99
400.08	373.66
400.458	382.93
400.837	363.95
401.215	364.85
401.594	380.67
401.972	372.53
402.351	386.32
402.729	385.64
403.107	382.25
403.486	398.75
403.864	370.5
404.242	384.28
404.62	377.28
404.999	390.39
405.377	378.86
405.755	370.95
406.133	377.28
406.511	398.75
406.889	378.41
407.267	390.16
407.645	404.17
408.023	384.96
408.401	407.33
408.779	402.36
409.156	410.72
409.534	420.21
409.912	419.09
410.29	419.99
410.667	432.42
411.045	412.76
411.422	392.19
411.8	416.15
412.178	426.54
412.555	415.7
412.933	440.1
413.31	400.55
413.687	415.47
414.065	437.62
414.442	430.84
414.819	429.03
415.197	429.71
415.574	424.28
415.951	435.36
416.328	432.42
416.705	443.94
417.082	457.95
417.46	460.21
417.837	451.85
418.214	450.72
418.591	462.25
418.967	466.54
419.344	444.85
419.721	459.08
420.098	466.54
420.475	453.66
420.852	471.96
421.228	486.88
421.605	474.9
421.982	472.64
422.358	463.15
422.735	465.64
423.111	475.58
423.488	480.78
423.864	471.74
424.241	488.24
424.617	484.17
424.994	475.35
425.37	493.66
425.746	475.35
426.123	495.69
426.499	521.68
426.875	489.37
427.251	514.68
427.627	525.3
428.003	526.65
428.379	531.17
428.756	505.64
429.132	529.14
429.507	501.34
429.883	518.97
430.259	541.79
430.635	531.4
431.011	546.31
431.387	530.49
431.763	546.09
432.138	541.34
432.514	560.1
432.89	560.32
433.265	553.32
433.641	565.07
434.016	555.35
434.392	550.16
434.767	541.57
435.143	567.33
435.518	559.19
435.894	582.24
436.269	594.67
436.644	574.79
437.02	596.03
437.395	569.36
437.77	582.24
438.145	602.36
438.52	575.47
438.895	606.42
439.271	613.2
439.646	609.36
440.021	615.46
440.395	623.37
440.77	615.92
441.145	644.84
441.52	614.11
441.895	637.84
442.27	614.79
442.645	634.67
443.019	642.81
443.394	621.34
443.769	616.59
444.143	658.17
444.518	646.2
444.892	639.87
445.267	648.91
445.641	660.43
446.016	658.4
446.39	668.12
446.764	653.43
447.139	656.14
447.513	646.88
447.887	671.73
448.262	672.64
448.636	660.21
449.01	682.35
449.384	677.16
449.758	689.13
450.132	703.6
450.506	685.07
450.88	695.91
451.254	684.39
451.628	717.61
452.002	688.91
452.376	706.54
452.75	714.22
453.123	734.33
453.497	710.83
453.871	735.23
454.244	733.2
454.618	755.57
454.992	732.98
455.365	745.86
455.739	754.44
456.112	785.86
456.486	783.6
456.859	784.05
457.232	792.18
457.606	810.49
457.979	801.9
458.352	764.39
458.725	791.28
459.099	823.14
459.472	835.57
459.845	808.23
460.218	829.7
460.591	850.26
460.964	830.6
461.337	861.79
461.71	868.11
462.083	860.88
462.456	863.14
462.829	885.97
463.201	902.69
463.574	874.67
463.947	883.03
464.32	925.74
464.692	896.59
465.065	931.84
465.438	937.94
465.81	910.6
466.183	975.68
466.555	967.09
466.928	960.77
467.3	967.77
467.672	1004.61
468.045	1014.1
468.417	1000.99
468.789	1025.85
469.161	1031.27
469.534	1062.68
469.906	1071.5
470.278	1098.84
470.65	1069.46
471.022	1123.93
471.394	1123.47
471.766	1152.4
472.138	1146.07
472.51	1165.73
472.882	1194.88
473.253	1209.57
473.625	1237.59
473.997	1233.98
474.369	1244.37
474.74	1279.85
475.112	1299.97
475.484	1302
475.855	1323.92
476.227	1340.19
476.598	1401.43
476.97	1399.4
477.341	1404.82
477.713	1458.83
478.084	1454.09
478.455	1509.45
478.827	1507.87
479.198	1573.4
479.569	1597.59
479.94	1664.48
480.311	1629.9
480.682	1691.59
481.053	1721.65
481.424	1735.43
481.795	1762.33
482.166	1823.57
482.537	1838.26
482.908	1872.83
483.279	1901.98
483.65	1963.23
484.021	1970
484.391	1981.98
484.762	2061.98
485.133	2079.61
485.503	2112.6
485.874	2139.27
486.244	2184.01
486.615	2191.47
486.985	2295.87
487.356	2319.6
487.726	2347.62
488.097	2402.54
488.467	2415.87
488.837	2410.45
489.207	2492.48
489.578	2520.5
489.948	2549.42
490.318	2593.72
490.688	2613.15
491.058	2693.15
491.428	2746.03
491.798	2801.62
492.168	2804.11
492.538	2871
492.908	2872.58
493.278	2933.14
493.648	2944.22
494.017	2988.51
494.387	2978.57
494.757	3011.33
495.126	3049.75
495.496	3068.96
495.866	3073.25
496.235	3153.48
496.605	3162.52
496.974	3234.83
497.344	3235.73
497.713	3294.26
498.082	3316.41
498.452	3329.29
498.821	3363.19
499.19	3360.48
499.559	3347.82
499.928	3386.69
500.298	3464.2
500.667	3469.17
501.036	3487.93
501.405	3513.47
501.774	3509.17
502.143	3542.39
502.512	3574.48
502.88	3623.29
503.249	3595.72
503.618	3580.13
503.987	3645.67
504.356	3721.37
504.724	3707.13
505.093	3702.39
505.462	3689.96
505.83	3748.04
506.199	3754.82
506.567	3820.13
506.936	3765.66
507.304	3824.42
507.672	3803.4
508.041	3861.25
508.409	3891.31
508.777	3907.13
509.145	3956.17
509.514	3929.5
509.882	3927.02
510.25	3967.24
510.618	3983.29
510.986	3978.99
511.354	4028.03
511.722	4017.41
512.09	4025.54
512.458	4058.31
512.826	4082.27
513.193	4090.17
513.561	4090.17
513.929	4102.38
514.297	4113
514.664	4164.07
515.032	4089.5
515.4	4166.33
515.767	4160.46
516.135	4197.29
516.502	4169.04
516.869	4211.3
517.237	4216.05
517.604	4188.25
517.972	4258.53
518.339	4264.18
518.706	4279.77
519.073	4283.84
519.44	4302.15
519.808	4338.3
520.175	4294.24
520.542	4334.01
520.909	4360.45
521.276	4295.59
521.643	4405.19
522.009	4394.8
522.376	4387.57
522.743	4389.38
523.11	4413.78
523.477	4494.91
523.843	4437.96
524.21	4526.77
524.577	4502.14
524.943	4543.5
525.31	4551.63
525.676	4560.22
526.043	4604.06
526.409	4614.91
526.776	4656.04
527.142	4653.55
527.508	4672.08
527.874	4671.4
528.241	4725.41
528.607	4723.83
528.973	4758.86
529.339	4772.42
529.705	4796.15
530.071	4785.52
530.437	4856.71
530.803	4856.48
531.169	4880.89
531.535	4867.1
531.901	4924.5
532.267	4938.74
532.632	5008.34
532.998	4985.52
533.364	4977.16
533.73	5007.21
534.095	5065.74
534.461	5053.99
534.826	5105.97
535.192	5088.11
535.557	5132.86
535.923	5076.14
536.288	5147.1
536.653	5168.11
537.019	5164.05
537.384	5180.99
537.749	5221.67
538.114	5252.86
538.479	5233.2
538.845	5215.57
539.21	5265.96
539.575	5270.48
539.94	5314.1
540.305	5332.4
540.67	5352.51
541.034	5405.17
541.399	5385.28
541.764	5407.65
542.129	5471.38
542.494	5483.36
542.858	5487.2
543.223	5484.94
543.587	5547.76
543.952	5564.26
544.316	5584.37
544.681	5533.53
545.045	5626.41
545.41	5649.68
545.774	5694.65
546.138	5710.47
546.503	5730.81
546.867	5719.96
547.231	5831.37
547.595	5807.19
547.959	5838.15
548.324	5823.69
548.688	5847.42
549.052	5858.72
549.416	5870.69
549.779	5933.52
550.143	5879.51
550.507	5961.09
550.871	5953.4
551.235	6009.45
551.599	6012.38
551.962	6071.14
552.326	5998.15
552.689	6098.71
553.053	6062.55
553.417	6073.4
553.78	6114.08
554.143	6074.53
554.507	6152.95
554.87	6153.62
555.234	6237.46
555.597	6211.93
555.96	6176.45
556.323	6252.6
556.686	6307.29
557.05	6317.91
557.413	6312.72
557.776	6326.05
558.139	6319.04
558.502	6342.55
558.865	6366.05
559.228	6381.19
559.59	6339.61
559.953	6412.37
560.316	6512.03
560.679	6436.55
561.041	6525.59
561.404	6495.54
561.767	6516.55
562.129	6488.76
562.492	6555.87
562.854	6533.05
563.217	6599.04
563.579	6586.83
563.941	6564.69
564.304	6693.95
564.666	6720.84
565.028	6756.09
565.39	6716.32
565.753	6754.51
566.115	6798.8
566.477	6807.17
566.839	6808.75
567.201	6817.79
567.563	6888.75
567.925	6900.04
568.287	6917.22
568.648	6938.91
569.01	6951.57
569.372	6995.41
569.734	6975.3
570.095	7003.09
570.457	7083.09
570.819	7107.04
571.18	7096.42
571.542	7116.99
571.903	7199.47
572.265	7265.91
572.626	7290.99
572.987	7363.76
573.349	7386.81
573.71	7411.67
574.071	7515.62
574.432	7510.88
574.794	7598.11
575.155	7671.32
575.516	7646.24
575.877	7833.13
576.238	7851.66
576.599	7919.9
576.96	8010.75
577.32	8048.71
577.681	8184.08
578.042	8209.16
578.403	8316.73
578.763	8361.25
579.124	8439.89
579.485	8648.47
579.845	8711.52
580.206	8828.81
580.566	8982.48
580.927	9084.39
581.287	9213.2
581.648	9363.03
582.008	9508.56
582.368	9654.32
582.728	9831.49
583.089	10030.36
583.449	10149.68
583.809	10366.85
584.169	10571.13
584.529	10795.99
584.889	11044.34
585.249	11261.74
585.609	11398.46
585.969	11729.07
586.329	11908.5
586.688	12122.28
587.048	12431.65
587.408	12679.1
587.768	12976.04
588.127	13220.33
588.487	13415.81
588.846	13829.35
589.206	14084.94
589.565	14273.18
589.925	14795.88
590.284	14955.65
590.643	15306.6
591.003	15668.18
591.362	16010.09
591.721	16332.11
592.08	16667.47
592.44	17040.57
592.799	17378.19
593.158	17706.31
593.517	18072.41
593.876	18489.12
594.235	18824.93
594.593	19248.19
594.952	19570.9
595.311	19870.78
595.67	20262.63
596.029	20799.57
596.387	21054.47
596.746	21496.04
597.104	21765.42
597.463	22099.87
597.822	22616.24
598.18	22865.27
598.538	23303.68
598.897	23641.07
599.255	23845.81
599.613	24579.81
599.972	24741.16
600.33	25291.65
600.688	25434.7
601.046	25907.91
601.404	26329.36
601.762	26719.86
602.12	27156.91
602.478	27549.9
602.836	27822.88
603.194	28047.74
603.552	28454.28
603.91	28651.79
604.268	29116.18
604.625	29378.32
604.983	29879.55
605.341	29902.15
605.698	30454.23
606.056	30881.33
606.413	31162.46
606.771	31512.73
607.128	31933.96
607.485	32011.25
607.843	32160.62
608.2	32805.13
608.557	32974.39
608.914	33233.82
609.272	33777.3
609.629	34008.48
609.986	34252.55
610.343	34421.58
610.7	35026.31
611.057	35186.53
611.414	35392.63
611.771	35693.64
612.127	35983.35
612.484	36064.48
612.841	36387.18
613.198	36528.42
613.554	36744.68
613.911	37200.26
614.267	37460.14
614.624	37557.09
614.98	37843.64
615.337	38141.48
615.693	38233.01
616.05	38510.96
616.406	38719.09
616.762	38877.96
617.118	38914.34
617.475	39149.37
617.831	39443.14
618.187	39597.04
618.543	39750.03
618.899	40147.08
619.255	40224.82
619.611	40458.94
619.967	40632.72
620.323	40707.52
620.678	40829.55
621.034	40936.89
621.39	41022.31
621.746	41112.7
622.101	41759.24
622.457	41498.46
622.812	41819.35
623.168	41944.09
623.523	41933.25
623.879	42148.84
624.234	42043.75
624.589	42200.13
624.945	42301.15
625.3	42465.89
625.655	42514.48
626.01	42725.09
626.365	42880.34
626.72	42871.53
627.075	42916.05
627.43	42998.98
627.785	42998.98
628.14	43198.07
628.495	43127.11
628.85	43373.89
629.205	43285.08
629.559	43589.25
629.914	43412.98
630.269	43424.73
630.623	43563.94
630.978	43464.73
631.332	43876.47
631.687	43914.44
632.041	43702.69
632.396	43670.15
632.75	43749.02
633.104	43834.44
633.459	43685.52
633.813	43753.54
634.167	43812.75
634.521	43911.27
634.875	43926.87
635.229	43873.99
635.583	43720.55
635.937	43730.94
636.291	43924.61
636.645	43917.83
636.999	43940.43
637.352	44052.06
637.706	43795.35
638.06	44078.5
638.413	43868.34
638.767	43802.13
639.121	43923.7
639.474	43781.79
639.828	43920.09
640.181	43871.28
640.534	43972.74
640.888	43759.64
641.241	43662.69
641.594	43711.51
641.947	43997.15
642.301	43801.22
642.654	43932.74
643.007	43869.47
643.36	43811.39
643.713	43798.96
644.066	43992.63
644.419	43727.55
644.771	43442.81
645.124	43010.51
645.477	43221.58
645.83	42830.4
646.182	42848.03
646.535	42566.23
646.888	42719.22
647.24	42564.19
647.593	42754.7
647.945	42714.02
648.298	42565.55
648.65	42349.28
649.002	42366.68
649.355	42555.38
649.707	42534.81
650.059	42697.97
650.411	43175.7
650.763	43250.28
651.115	43443.72
651.467	43339.99
651.819	43368.69
652.171	43407.56
652.523	43409.59
652.875	43431.74
653.227	43130.96
653.578	43434
653.93	43321.23
654.282	43228.81
654.633	43133.44
654.985	43144.29
655.337	43241.01
655.688	43157.17
656.039	43265.42
656.391	42944.97
656.742	43111.97
657.094	43231.29
657.445	43202.37
657.796	43163.27
658.147	43139.54
658.498	43126.21
658.849	43092.77
659.2	43058.19
659.551	43049.83
659.902	43136.61
660.253	42940.45
660.604	43146.78
660.955	42871.3
661.306	43124.4
661.656	42893.67
662.007	43016.61
662.358	42813.45
662.708	43061.35
663.059	42795.37
663.409	42588.15
663.76	43012.32
664.11	43006.89
664.461	43035.82
664.811	42997.63
665.161	42933.9
665.511	42844.86
665.862	42970.28
666.212	42947.46
666.562	43043.5
666.912	42890.74
667.262	42847.35
667.612	42940.9
667.962	43083.05
668.312	42812.32
668.662	43063.84
669.011	42947.68
669.361	42868.59
669.711	42811.87
670.06	42731.64
670.41	42653
670.76	42674.92
671.109	42772.1
671.459	42784.3
671.808	42735.71
672.157	42740.01
672.507	42594.02
672.856	42532.1
673.205	42656.84
673.554	42685.32
673.904	42499.79
674.253	42844.41
674.602	42565.32
674.951	42106.8
675.3	41817.77
675.649	42478.77
675.998	42404.2
676.346	42507.02
676.695	42521.25
677.044	42373.01
677.393	42366.23
677.741	42535.94
678.09	42361.94
678.438	42175.28
678.787	42410.52
679.135	42323.75
679.484	42059.35
679.832	42204.65
680.181	41965.11
680.529	41959.46
680.877	41898.67
681.225	41905.45
681.573	42156.52
681.922	41841.27
682.27	41856.87
682.618	41844.21
682.966	41658
683.314	41679.7
683.661	41660.49
684.009	41608.51
684.357	41455.29
684.705	41244.68
685.053	41368.29
685.4	41286.49
685.748	41090.78
686.095	41168.07
686.443	41073.61
686.79	40973.72
687.138	41054.17
687.485	41092.59
687.832	40796.55
688.18	40922.88
688.527	40594.75
688.874	40724.47
689.221	40541.87
689.568	40443.34
689.915	40447.19
690.262	40359.73
690.609	40457.58
690.956	40057.82
691.303	40061.66
691.65	39934.66
691.997	39948.22
692.344	39738.73
692.69	39744.38
693.037	39765.17
693.383	39401.79
693.73	39580.54
694.077	39396.59
694.423	39329.7
694.769	39340.1
695.116	39167.9
695.462	39039.54
695.808	38934.91
696.155	39047.9
696.501	38782.6
696.847	38734.46
697.193	38454.24
697.539	38644.75
697.885	38435.26
698.231	38268.26
698.577	38303.96
698.923	38171.54
699.269	38081.82
699.614	37858.33
699.96	37854.26
700.306	37743.75
700.651	37659.69
700.997	37447.49
701.342	37508.51
701.688	37429.41
702.033	37287.95
702.379	37186.93
702.724	37168.85
703.069	37140.38
703.415	36674.63
703.76	36755.08
704.105	36867.62
704.45	36797.56
704.795	36545.82
705.14	36502.66
705.485	36404.13
705.83	36340.63
706.175	36348.99
706.52	36077.58
706.865	36072.16
707.209	36086.4
707.554	35952.61
707.899	35978.83
708.243	35868.32
708.588	35711.72
708.932	35556.47
709.277	35606.18
709.621	35761.43
709.966	35332.29
710.31	35337.71
710.654	35146.53
710.998	35176.82
711.342	35120.77
711.687	35097.72
712.031	34899.08
712.375	34721.01
712.719	34991.06
713.063	34700.9
713.407	34869.7
713.75	34636.04
714.094	34629.03
714.438	34475.59
714.782	34495.48
715.125	34282.83
715.469	34439.66
715.812	34207.35
716.156	34108.59
716.499	34160.34
716.843	34094.13
717.186	33895.27
717.53	34091.42
717.873	34202.6
718.216	33841.26
718.559	33815.27
718.902	33584.31
719.246	33700.02
719.589	33623.41
719.932	33431.32
720.275	33374.6
720.617	33377.99
720.96	33370.99
721.303	33368.05
721.646	33256.64
721.989	33139.13
722.331	33147.26
722.674	33124.21
723.016	33238.79
723.359	32969.42
723.701	33072.01
724.044	32873.37
724.386	32591.57
724.729	32820.49
725.071	32709.99
725.413	32711.12
725.755	32685.58
726.097	32528.98
726.439	32380.28
726.782	32324.46
727.124	32490.78
727.465	32440.16
727.807	32237.91
728.149	32164.24
728.491	32244.01
728.833	32156.33
729.175	32026.16
729.516	32071.59
729.858	31906.84
730.199	31970.35
730.541	31957.46
730.882	31848.99
731.224	31961.98
731.565	31779.39
731.906	31697.81
732.248	31790.24
732.589	31577.81
732.93	31351.38
733.271	31476.12
733.612	31571.49
733.953	31522
734.294	31370.14
734.635	31348.22
734.976	31312.51
735.317	31232.06
735.658	31253.3
735.999	31236.81
736.339	31127.66
736.68	31132.63
737.021	31112.29
737.361	30886.98
737.702	31096.47
738.042	30933.76
738.383	30862.13
738.723	30762.02
739.063	30857.15
739.404	30819.87
739.744	30731.96
740.084	30554.79
740.424	30646.76
740.764	30539.87
741.104	30756.37
741.444	30526.54
741.784	30419.43
742.124	30379.88
742.464	30434.79
742.804	30329.03
743.143	30157.96
743.483	30245.87
743.823	30136.72
744.162	30149.38
744.502	30078.19
744.841	30018.98
745.181	30146.21
745.52	29922.04
745.86	30154.8
746.199	29930.17
746.538	29960.68
746.877	30021.7
747.216	29854.92
747.556	29675.72
747.895	29731.31
748.234	29680.69
748.573	29665.32
748.911	29649.05
749.25	29471.2
749.589	29340.81
749.928	29408.15
750.267	29453.35
750.605	29329.51
750.944	29313.69
751.283	29362.73
751.621	29281.6
751.96	29143.75
752.298	29058.56
752.636	29069.18
752.975	28811.78
753.313	28765.23
753.651	28936.3
753.989	28731.79
754.327	28739.02
754.666	28623.77
755.004	28597.1
755.342	28619.25
755.679	28587.16
756.017	28422.87
756.355	28407.95
756.693	28352.14
757.031	28290.44
757.368	28154.85
757.706	28212.93
758.044	28041.86
758.381	28121.41
758.719	27930.45
759.056	28028.3
759.394	27900.4
759.731	27758.48
760.068	27698.37
760.405	27504.25
760.743	27449.33
761.08	27605.71
761.417	27444.36
761.754	27348.09
762.091	27349.22
762.428	27190.81
762.765	27118.95
763.102	27150.59
763.438	26987.65
763.775	26774.78
764.112	26760.54
764.449	26915.11
764.785	26662.01
765.122	26570.71
765.458	26502.92
765.795	26450.49
766.131	26384.05
766.467	26260.67
766.804	26183.38
767.14	25944.52
767.476	26031.97
767.812	26003.27
768.148	25930.28
768.485	25810.06
768.821	25593.79
769.157	25659.1
769.492	25525.09
769.828	25514.47
770.164	25274.02
770.5	25231.31
770.836	25262.05
771.171	25124.65
771.507	25042.62
771.842	24792.46
772.178	24720.14
772.513	24665.23
772.849	24679.69
773.184	24610.99
773.519	24578
773.855	24449.19
774.19	24356.08
774.525	24148.86
774.86	24201.96
775.195	24110.44
775.53	24081.51
775.865	23892.37
776.2	23777.11
776.535	23695.31
776.87	23668.87
777.205	23651.69
777.539	23509.1
777.874	23557.46
778.209	23366.05
778.543	23200.63
778.878	23182.1
779.212	22999.28
779.547	22922
779.881	22968.55
780.215	22894.65
780.55	22792.96
780.884	22688.78
781.218	22677.93
781.552	22591.61
781.886	22613.98
782.22	22335.8
782.554	22174.22
782.888	22120.66
783.222	22231.84
783.556	21983.94
783.889	21968.57
784.223	21829.37
784.557	21744.85
784.89	21592.77
785.224	21611.07
785.557	21520
785.891	21390.51
786.224	21424.86
786.558	21368.82
786.891	21201.14
787.224	21113.91
787.557	21035.72
787.891	21016.28
788.224	21031.88
788.557	21054.25
788.89	20818.32
789.223	20731.55
789.556	20695.16
789.888	20635.28
790.221	20586.46
790.554	20378.79
790.887	20499.91
791.219	20258.79
791.552	20246.59
791.884	20099.02
792.217	20128.62
792.549	19968.4
792.882	19886.82
793.214	19842.98
793.546	19849.53
793.879	19736.77
794.211	19647.51
794.543	19697.22
794.875	19583.33
795.207	19601.86
795.539	19462.88
795.871	19496.1
796.203	19235.31
796.535	19184.02
796.867	19217.91
797.198	19094.75
797.53	19084.81
797.862	18915.32
798.193	18969.33
798.525	18834.42
798.856	18826.51
799.188	18752.16
799.519	18685.72
799.85	18595.56
800.182	18669.68
800.513	18563.69
800.844	18469.23
801.175	18460.64
801.506	18323.02
801.837	18275.79
802.168	18318.5
802.499	18208.9
802.83	18130.03
803.161	17997.83
803.491	18019.53
803.822	18015.91
804.153	17970.49
804.483	17775.01
804.814	17706.09
805.145	17740.44
805.475	17732.75
805.805	17638.52
806.136	17636.49
806.466	17549.26
806.796	17458.19
807.126	17464.06
807.457	17325.99
807.787	17332.54
808.117	17224.29
808.447	17218.42
808.777	17263.16
809.107	17125.54
809.436	17163.28
809.766	17115.37
810.096	17089.61
810.426	17015.03
810.755	16925.32
811.085	16949.5
811.414	16807.58
811.744	16710.18
812.073	16679.22
812.403	16716.51
812.732	16645.78
813.061	16526.91
813.39	16496.85
813.719	16501.37
814.049	16565.55
814.378	16498.44
814.707	16387.48
815.036	16356.75
815.365	16272.45
815.693	16150.65
816.022	16113.36
816.351	16078.56
816.68	16053.93
817.008	16078.79
817.337	15989.98
817.665	15775.07
817.994	15909.53
818.322	15905.68
818.651	15813.93
818.979	15729.87
819.307	15804.44
819.636	15749.53
819.964	15695.75
820.292	15782.3
820.62	15672.92
820.948	15685.8
821.276	15774.84
821.604	15566.03
821.932	15633.15
822.259	15548.63
822.587	15522.87
822.915	15616.43
823.243	15606.71
823.57	15628.63
823.898	15559.48
824.225	15464.34
824.553	15500.72
824.88	15585.69
825.207	15481.51
825.535	15471.57
825.862	15531.46
826.189	15457.56
826.516	15512.93
826.843	15572.36
827.17	15598.57
827.497	15573.49
827.824	15570.55
828.151	15539.59
828.478	15434.96
828.805	15509.99
829.131	15471.57
829.458	15451.68
829.785	15346.38
830.111	15453.72
830.438	15602.19
830.764	15547.73
831.09	15569.87
831.417	15400.84
831.743	15446.94
832.069	15497.11
832.395	15418.01
832.722	15496.43
833.048	15294.17
833.374	15400.39
833.7	15420.5
834.026	15333.27
834.351	15383.21
834.677	15363.78
835.003	15357.45
835.329	15327.39
835.654	15243.78
835.98	15138.7
836.306	15290.33
836.631	15193.39
836.956	15192.48
837.282	15108.64
837.607	15100.28
837.932	15113.16
838.258	15087.17
838.583	15088.76
838.908	14995.42
839.233	14952.49
839.558	14975.09
839.883	14838.37
840.208	14972.37
840.533	14835.43
840.858	14896.9
841.182	14795.43
841.507	14832.27
841.832	14779.16
842.156	14664.36
842.481	14742.55
842.805	14739.84
843.13	14616.68
843.454	14674.53
843.778	14551.37
844.103	14508.66
844.427	14540.3
844.751	14558.83
845.075	14460.52
845.399	14416.68
845.723	14314.09
846.047	14295.1
846.371	14216.24
846.695	14248.1
847.019	14051.49
847.343	14042.23
847.666	13998.39
847.99	13923.14
848.313	13923.14
848.637	13831.16
848.96	13687.66
849.284	13756.59
849.607	13697.15
849.931	13653.09
850.254	13543.03
850.577	13509.14
850.9	13364.28
851.223	13335.81
851.546	13345.75
851.869	13207.68
852.192	13250.16
852.515	13164.29
852.838	13128.58
853.161	13201.12
853.483	13034.12
853.806	12953.44
854.129	12996.83
854.451	12919.55
854.774	12842.49
855.096	12793.9
855.419	12784.18
855.741	12769.04
856.063	12695.37
856.385	12684.3
856.708	12626.45
857.03	12552.78
857.352	12605.21
857.674	12493.34
857.996	12437.75
858.318	12424.42
858.64	12414.48
858.961	12382.39
859.283	12342.61
859.605	12261.71
859.926	12291.32
860.248	12264.42
860.57	12158.44
860.891	12238.66
861.212	12162.05
861.534	12097.2
861.855	12005.45
862.176	12059.91
862.498	12023.53
862.819	12056.97
863.14	11931.1
863.461	11944.21
863.782	11867.6
864.103	11889.29
864.424	11836.64
864.745	11785.79
865.065	11760.93
865.386	11769.3
865.707	11809.75
866.027	11796.19
866.348	11729.97
866.668	11738.11
866.989	11684.1
867.309	11572.24
867.63	11634.38
867.95	11587.38
868.27	11605.91
868.59	11643.87
868.91	11489.53
869.23	11503.99
869.55	11421.28
869.87	11539.7
870.19	11478.68
870.51	11568.85
870.83	11560.04
871.15	11354.62
871.469	11471.45
871.789	11407.27
872.109	11386.48
872.428	11335.86
872.748	11347.16
873.067	11315.97
873.386	11375.63
873.706	11269.65
874.025	11199.37
874.344	11199.37
874.663	11215.86
874.982	11194.85
875.301	11186.49
875.62	11126.15
875.939	11116.43
876.258	11143.1
876.577	11097
876.896	11118.46
877.214	11019.48
877.533	11003.89
877.852	11062.42
878.17	10980.39
878.489	10979.03
878.807	11023.55
879.125	10965.93
879.444	10917.34
879.762	10904.69
880.08	10915.53
880.398	10846.38
880.716	10832.6
881.034	10787.17
881.352	10892.93
881.67	10763.67
881.988	10800.28
882.306	10747.63
882.624	10736.78
882.941	10686.61
883.259	10689.1
883.577	10596.22
883.894	10649.1
884.212	10634.18
884.529	10616.33
884.846	10535.88
885.164	10516.67
885.481	10446.39
885.798	10478.93
886.115	10424.25
886.432	10425.38
886.75	10396.68
887.067	10379.73
887.383	10332.5
887.7	10398.71
888.017	10266.06
888.334	10299.96
888.651	10302.89
888.967	10250.69
889.284	10193.07
889.6	10165.95
889.917	10056.57
890.233	10100.41
890.55	10150.35
890.866	10055.89
891.182	10014.99
891.498	10061.09
891.815	9939.96
892.131	9945.16
892.447	9979.51
892.763	9871.94
893.079	9824.26
893.395	9790.36
893.71	9867.42
894.026	9755.56
894.342	9777.26
894.657	9690.03
894.973	9699.97
895.289	9643.25
895.604	9589.92
895.92	9584.04
896.235	9549.47
896.55	9601.22
896.865	9459.07
897.181	9471.95
897.496	9464.04
897.811	9364.16
898.126	9359.41
898.441	9306.31
898.756	9298.63
899.071	9245.29
899.386	9229.93
899.7	9176.14
900.015	9083.94
900.33	9101.12
900.644	9122.13
900.959	9045.3
901.273	9075.13
901.588	8964.17
901.902	8935.92
902.216	9006.66
902.531	8867.9
902.845	8923.04
903.159	8807.79
903.473	8813.89
903.787	8747.68
904.101	8673.56
904.415	8691.18
904.729	8662.48
905.042	8669.72
905.356	8632.65
905.67	8583.84
905.984	8574.58
906.297	8550.4
906.611	8469.49
906.924	8485.77
907.237	8445.99
907.551	8454.81
907.864	8320.57
908.177	8342.72
908.491	8278.99
908.804	8218.65
909.117	8228.82
909.43	8180.69
909.743	8187.69
910.056	8123.74
910.368	8073.8
910.681	8060.01
910.994	7988.6
911.307	8034.93
911.619	7880.81
911.932	7935.95
912.244	7953.12
912.557	7870.19
912.869	7761.49
913.181	7784.32
913.494	7801.94
913.806	7737.08
914.118	7688.05
914.43	7695.5
914.742	7630.87
915.054	7567.15
915.366	7568.73
915.678	7590.2
915.99	7503.19
916.302	7464.1
916.613	7459.58
916.925	7390.43
917.236	7377.77
917.548	7381.84
917.859	7307.04
918.171	7321.95
918.482	7204.22
918.794	7200.6
919.105	7191.34
919.416	7131.9
919.727	7172.81
920.038	7141.39
920.349	7072.02
920.66	7017.78
920.971	7017.78
921.282	7005.35
921.593	6981.62
921.903	6897.78
922.214	6892.36
922.525	6874.96
922.835	6821.4
923.146	6757.22
923.456	6769.2
923.767	6754.06
924.077	6733.04
924.387	6691.46
924.697	6694.85
925.008	6642.88
925.318	6629.09
925.628	6553.39
925.938	6572.6
926.248	6548.64
926.558	6482.43
926.867	6520.85
927.177	6426.84
927.487	6435.65
927.796	6356.78
928.106	6347.29
928.416	6353.39
928.725	6328.31
929.034	6261.64
929.344	6273.39
929.653	6302.77
929.962	6183
930.271	6177.58
930.581	6143.68
930.89	6125.38
931.199	6059.16
931.508	6065.49
931.817	6048.09
932.125	6029.78
932.434	6038.37
932.743	5901.2
933.051	5943.46
933.36	5869.79
933.669	5819.4
933.977	5846.51
934.286	5846.51
934.594	5815.1
934.902	5787.53
935.21	5710.25
935.519	5759.06
935.827	5654.88
936.135	5656.46
936.443	5604.26
936.751	5616.24
937.059	5604.03
937.367	5578.72
937.674	5559.06
937.982	5547.99
938.29	5497.37
938.597	5519.97
938.905	5469.8
939.213	5434.55
939.52	5373.98
939.827	5421.44
940.135	5375.34
940.442	5334.66
940.749	5306.41
941.056	5300.99
941.363	5299.18
941.67	5216.92
941.977	5198.39
942.284	5158.4
942.591	5192.52
942.898	5181.45
943.205	5120.2
943.511	5158.17
943.818	5102.8
944.125	5038.85
944.431	5051.51
944.738	5028.23
945.044	5016.03
945.35	4973.77
945.657	4964.95
945.963	4980.77
946.269	4864.17
946.575	4897.61
946.881	4843.83
947.187	4842.92
947.493	4875.24
947.799	4825.52
948.105	4781.68
948.41	4743.94
948.716	4734.9
949.022	4740.55
949.327	4714.57
949.633	4648.35
949.938	4643.83
950.244	4689.71
950.549	4612.87
950.854	4582.14
951.16	4574.46
951.465	4589.82
951.77	4537.62
952.075	4475.02
952.38	4536.04
952.685	4471.86
952.99	4438.19
953.294	4424.86
953.599	4435.25
953.904	4357.06
954.209	4356.83
954.513	4354.12
954.818	4358.19
955.122	4313.9
955.426	4317.97
955.731	4293.33
956.035	4282.03
956.339	4284.07
956.643	4254.01
956.948	4202.94
957.252	4218.08
957.556	4157.07
957.86	4179.44
958.163	4098.54
958.467	4158.42
958.771	4143.73
959.075	4082.72
959.378	4096.5
959.682	4073.45
959.985	4038.42
960.289	4042.49
960.592	4020.57
960.896	3993.45
961.199	3992.55
961.502	3943.74
961.805	3965.66
962.108	3898.77
962.411	3943.29
962.714	3883.63
963.017	3866.68
963.32	3845.89
963.623	3821.93
963.926	3816.96
964.228	3758.88
964.531	3777.64
964.833	3796.85
965.136	3742.39
965.438	3759.56
965.741	3708.04
966.043	3700.81
966.345	3692.45
966.648	3684.08
966.95	3637.31
967.252	3622.16
967.554	3628.72
967.856	3604.76
968.158	3618.1
968.46	3555.05
968.761	3568.61
969.063	3544.88
969.365	3494.03
969.666	3535.39
969.968	3484.99
970.269	3441.6
970.571	3435.95
970.872	3491.77
971.174	3439.12
971.475	3449.29
971.776	3421.27
972.077	3379.91
972.378	3378.78
972.679	3356.41
972.98	3325
973.281	3332
973.582	3335.84
973.883	3342.62
974.183	3287.03
974.484	3316.18
974.785	3289.07
975.085	3246.13
975.386	3214.94
975.686	3242.06
975.986	3190.09
976.287	3190.76
976.587	3161.84
976.887	3143.53
977.187	3146.7
977.487	3178.79
977.787	3111.22
978.087	3105.79
978.387	3088.39
978.687	3072.12
978.987	3063.99
979.286	3047.04
979.586	3050.65
979.885	3005.46
980.185	2997.32
980.484	2977.66
980.784	2987.83
981.083	2979.7
981.382	2950.32
981.682	2932.24
981.981	2903.99
982.28	2961.84
982.579	2865.12
982.878	2925.01
983.177	2873.94
983.475	2883.2
983.774	2850.89
984.073	2843.65
984.372	2797.1
984.67	2793.49
984.969	2837.1
985.267	2828.74
985.566	2762.3
985.864	2798.91
986.162	2758.23
986.461	2711.68
986.759	2700.61
987.057	2730.66
987.355	2696.99
987.653	2671.23
987.951	2684.11
988.249	2678.46
988.547	2668.29
988.844	2660.16
989.142	2629.87
989.44	2632.13
989.737	2588.29
990.035	2587.62
990.332	2583.1
990.63	2573.6
990.927	2557.11
991.224	2532.02
991.521	2539.93
991.819	2518.01
992.116	2535.19
992.413	2499.26
992.71	2461.97
993.006	2488.18
993.303	2475.75
993.6	2406.83
993.897	2444.57
994.193	2417.22
994.49	2412.7
994.787	2441.63
995.083	2409.77
995.379	2390.11
995.676	2369.99
995.972	2353.95
996.268	2352.59
996.565	2333.84
996.861	2344.23
997.157	2322.99
997.453	2301.75
997.749	2286.61
998.044	2276.89
998.34	2272.82
998.636	2267.62
998.932	2226.95
999.227	2219.26
999.523	2233.73
999.818	2201.19
1000.114	2178.13
1000.409	2178.36
1000.704	2174.29
1001	2162.77
1001.295	2153.05
1001.59	2150.79
1001.885	2145.14
1002.18	2092.49
1002.475	2112.83
1002.77	2110.34
1003.065	2091.36
1003.359	2069.44
1003.654	2045.48
1003.949	2037.57
1004.243	2087.06
1004.538	2017.69
1004.832	2008.65
1005.127	1999.61
1005.421	1981.76
1005.715	1979.95
1006.009	1977.91
1006.304	1939.95
1006.598	1914.19
1006.892	1946.05
1007.186	1913.06
1007.48	1923.23
1007.773	1876.22
1008.067	1864.02
1008.361	1897.46
1008.655	1864.92
1008.948	1884.36
1009.242	1853.17
1009.535	1845.71
1009.829	1838.71
1010.122	1796.9
1010.415	1825.15
1010.708	1791.25
1011.001	1782.89
1011.295	1798.03
1011.588	1780.63
1011.881	1747.19
1012.173	1726.85
1012.466	1745.6
1012.759	1728.2
1013.052	1712.84
1013.344	1709.22
1013.637	1700.63
1013.93	1692.72
1014.222	1669.9
1014.514	1667.64
1014.807	1670.13
1015.099	1652.05
1015.391	1645.27
1015.683	1611.82
1015.976	1597.13
1016.268	1604.59
1016.56	1590.81
1016.851	1581.77
1017.143	1564.82
1017.435	1592.39
1017.727	1593.29
1018.018	1574.08
1018.31	1523.69
1018.602	1537.47
1018.893	1530.69
1019.185	1504.25
1019.476	1532.73
1019.767	1527.08
1020.058	1493.41
1020.35	1437.14
1020.641	1476.23
1020.932	1446.85
1021.223	1431.94
1021.514	1411.83
1021.804	1419.06
1022.095	1412.51
1022.386	1420.41
1022.677	1403.01
1022.967	1368.44
1023.258	1386.29
1023.548	1360.08
1023.839	1368.44
1024.129	1358.04
1024.419	1352.62
1024.709	1329.34
1025	1305.62
1025.29	1320.76
1025.58	1299.06
1025.87	1283.92
1026.16	1292.73
1026.449	1266.97
1026.739	1278.5
1027.029	1282.57
1027.319	1263.36
1027.608	1270.36
1027.898	1265.84
1028.187	1229.23
1028.477	1216.8
1028.766	1247.54
1029.055	1204.83
1029.344	1216.13
1029.634	1194.43
1029.923	1183.81
1030.212	1185.62
1030.501	1199.86
1030.79	1171.83
1031.078	1147.88
1031.367	1159.86
1031.656	1141.1
1031.945	1149.46
1032.233	1148.11
1032.522	1123.25
1032.81	1104.72
1033.099	1102.91
1033.387	1113.08
1033.675	1083.02
1033.963	1080.76
1034.251	1069.01
1034.54	1034.44
1034.828	1071.5
1035.116	1056.58
1035.403	1066.75
1035.691	1041.67
1035.979	1056.58
1036.267	1013.65
1036.554	1021.78
1036.842	1041.89
1037.129	1031.72
1037.417	1002.35
1037.704	982.01
1037.992	989.47
1038.279	991.05
1038.566	990.37
1038.853	990.37
1039.14	990.37
