Data from hue_20_FLMS001491_15.txt Node
Date: Mon Feb 06 15:33:41 GMT 2017
User: dcchb
Spectrometer: FLMS00149
Trigger mode: 0
Integration Time (sec): 2.000000E-2
Scans to average: 10
Electric dark correction enabled: true
Nonlinearity correction enabled: false
Boxcar width: 0
XAxis mode: Wavelengths
Number of Pixels in Spectrum: 2048
>>>>>Begin Spectral Data<<<<<
341.393	-5.14
341.776	-5.14
342.16	-5.14
342.543	-80.39
342.927	-78.81
343.31	-51.47
343.693	-87.85
344.077	-81.07
344.46	-62.09
344.843	-45.59
345.226	-46.72
345.61	-34.74
345.993	-11.47
346.376	-9.66
346.759	6.84
347.142	11.13
347.525	59.72
347.908	61.75
348.291	76.89
348.674	79.38
349.057	134.97
349.44	120.28
349.823	117.34
350.206	158.7
350.588	173.84
350.971	178.58
351.354	213.84
351.737	231.69
352.119	236.43
352.502	251.12
352.884	281.63
353.267	278.47
353.65	288.64
354.032	296.55
354.414	307.85
354.797	299.94
355.179	301.74
355.562	355.53
355.944	343.1
356.326	331.35
356.709	313.72
357.091	342.19
357.473	322.08
357.855	336.09
358.238	357.79
358.62	342.65
359.002	339.93
359.384	323.21
359.766	321.63
360.148	340.61
360.53	327.05
360.912	337.67
361.294	339.48
361.676	326.6
362.057	346.04
362.439	331.57
362.821	324.34
363.203	335.64
363.584	331.8
363.966	321.86
364.348	315.98
364.729	319.14
365.111	327.28
365.493	296.32
365.874	317.34
366.256	312.82
366.637	313.27
367.019	304.23
367.4	320.95
367.781	305.59
368.163	300.16
368.544	340.39
368.925	323.66
369.306	316.43
369.688	287.51
370.069	326.15
370.45	304.23
370.831	292.48
371.212	316.21
371.593	315.3
371.974	290.67
372.355	307.39
372.736	329.09
373.117	307.62
373.498	305.36
373.879	301.52
374.26	328.86
374.641	295.42
375.021	324.12
375.402	306.72
375.783	316.21
376.163	325.7
376.544	308.97
376.925	301.29
377.305	323.44
377.686	301.29
378.066	306.72
378.447	329.54
378.827	327.51
379.208	316.66
379.588	322.53
379.968	320.05
380.349	358.24
380.729	325.47
381.109	332.7
381.489	312.36
381.87	316.88
382.25	332.48
382.63	357.79
383.01	336.54
383.39	349.2
383.77	362.31
384.15	355.98
384.53	364.34
384.91	360.05
385.29	319.37
385.67	359.14
386.049	346.04
386.429	347.39
386.809	362.98
387.189	359.6
387.568	342.87
387.948	341.74
388.328	353.04
388.707	345.13
389.087	338.58
389.466	371.35
389.846	355.75
390.225	360.5
390.605	341.74
390.984	367.5
391.363	347.17
391.743	379.03
392.122	374.51
392.501	369.09
392.881	360.72
393.26	371.35
393.639	366.37
394.018	335.41
394.397	369.99
394.776	364.11
395.155	371.12
395.534	364.11
395.913	378.13
396.292	398.92
396.671	372.48
397.05	364.57
397.429	378.58
397.808	386.49
398.186	372.02
398.565	390.1
398.944	381.97
399.323	377.22
399.701	380.61
400.08	381.52
400.458	373.38
400.837	386.49
401.215	395.53
401.594	407.05
401.972	371.8
402.351	393.94
402.729	391.68
403.107	383.1
403.486	409.76
403.864	395.3
404.242	414.73
404.62	410.89
404.999	405.02
405.377	405.7
405.755	403.89
406.133	418.8
406.511	394.17
406.889	390.1
407.267	410.22
407.645	403.21
408.023	426.03
408.401	445.47
408.779	429.42
409.156	408.86
409.534	418.35
409.912	433.04
410.29	436.66
410.667	447.05
411.045	421.97
411.422	437.79
411.8	438.24
412.178	431.01
412.555	430.1
412.933	451.57
413.31	426.26
413.687	443.21
414.065	448.41
414.442	451.12
414.819	465.13
415.197	461.97
415.574	470.33
415.951	485.24
416.328	475.07
416.705	459.93
417.082	450.89
417.46	487.5
417.837	486.6
418.214	479.82
418.591	494.96
418.967	485.02
419.344	466.94
419.721	477.78
420.098	487.28
420.475	499.7
420.852	484.34
421.228	475.07
421.605	491.79
421.982	499.25
422.358	496.99
422.735	496.09
423.111	503.09
423.488	501.96
423.864	491.34
424.241	532.47
424.617	517.33
424.994	542.64
425.37	516.88
425.746	513.94
426.123	499.25
426.499	530.89
426.875	546.03
427.251	535.18
427.627	535.18
428.003	557.56
428.379	536.77
428.756	553.71
429.132	564.56
429.507	582.87
429.883	563.21
430.259	586.03
430.635	591.23
431.011	570.89
431.387	569.99
431.763	578.35
432.138	588.97
432.514	595.52
432.89	595.07
433.265	585.8
433.641	618.35
434.016	588.97
434.392	625.35
434.767	612.24
435.143	611.79
435.518	637.78
435.894	619.25
436.269	638.23
436.644	644.56
437.02	633.94
437.395	649.08
437.77	656.54
438.145	664.22
438.52	659.02
438.895	660.83
439.271	671.9
439.646	675.29
440.021	665.8
440.395	679.59
440.77	683.43
441.145	685.46
441.52	682.3
441.895	702.86
442.27	709.64
442.645	706.48
443.019	724.11
443.394	696.54
443.769	696.54
444.143	724.56
444.518	707.38
444.892	726.14
445.267	711.9
445.641	728.4
446.016	726.82
446.39	772.24
446.764	740.15
447.139	721.39
447.513	736.08
447.887	743.31
448.262	769.53
448.636	757.78
449.01	778.57
449.384	756.19
449.758	769.53
450.132	783.99
450.506	771.56
450.88	779.7
451.254	801.17
451.628	807.94
452.002	794.39
452.376	806.14
452.75	772.69
453.123	824.44
453.497	808.85
453.871	815.4
454.244	858.79
454.618	823.09
454.992	857.66
455.365	848.17
455.739	870.32
456.112	876.19
456.486	878.23
456.859	896.98
457.232	917.32
457.606	886.81
457.979	909.19
458.352	937.21
458.725	904.21
459.099	941.5
459.472	955.74
459.845	950.99
460.218	955.51
460.591	957.09
460.964	980.14
461.337	993.93
461.71	1003.65
462.083	1037.32
462.456	1008.17
462.829	1024.21
463.201	1049.52
463.574	1054.94
463.947	1054.04
464.32	1085.45
464.692	1096.98
465.065	1080.48
465.438	1112.12
465.81	1120.25
466.183	1099.01
466.555	1141.5
466.928	1132.23
467.3	1140.82
467.672	1167.26
468.045	1184.66
468.417	1171.33
468.789	1212.91
469.161	1208.61
469.534	1252.23
469.906	1252.68
470.278	1258.78
470.65	1296.75
471.022	1307.14
471.394	1342.62
471.766	1313.47
472.138	1357.08
472.51	1387.59
472.882	1389.62
473.253	1412.45
473.625	1457.42
473.997	1467.59
474.369	1463.75
474.74	1488.6
475.112	1517.76
475.484	1549.85
475.855	1571.77
476.227	1589.39
476.598	1612.22
476.97	1610.64
477.341	1682.5
477.713	1716.85
478.084	1713.68
478.455	1763.4
478.827	1740.12
479.198	1816.51
479.569	1853.57
479.94	1897.63
480.311	1887.01
480.682	1957.07
481.053	2010.4
481.424	2004.52
481.795	2066.89
482.166	2085.43
482.537	2110.28
482.908	2167.91
483.279	2194.58
483.65	2254.46
484.021	2250.17
484.391	2317.28
484.762	2340.11
485.133	2351.41
485.503	2415.59
485.874	2482.7
486.244	2496.49
486.615	2502.36
486.985	2550.95
487.356	2597.95
487.726	2632.3
488.097	2736.26
488.467	2722.02
488.837	2810.6
489.207	2811.73
489.578	2870.72
489.948	2862.58
490.318	2931.28
490.688	2976.02
491.058	3040.43
491.428	3048.11
491.798	3079.98
492.168	3125.17
492.538	3154.32
492.908	3209.01
493.278	3224.15
493.648	3248.78
494.017	3283.59
494.387	3343.02
494.757	3351.61
495.126	3426.63
495.496	3433.19
495.866	3438.16
496.235	3512.96
496.605	3518.61
496.974	3564.71
497.344	3612.39
497.713	3583.47
498.082	3648.55
498.452	3670.02
498.821	3738.49
499.19	3715.67
499.559	3750.01
499.928	3768.77
500.298	3825.94
500.667	3845.61
501.036	3822.78
501.405	3880.86
501.774	3892.16
502.143	3927.86
502.512	3941.42
502.88	3960.63
503.249	3966.96
503.618	4022.1
503.987	4032.04
504.356	4110
504.724	4094.19
505.093	4080.63
505.462	4125.82
505.83	4135.99
506.199	4178.48
506.567	4176.22
506.936	4240.17
507.304	4242.66
507.672	4254.63
508.041	4306.61
508.409	4278.59
508.777	4330.34
509.145	4374.63
509.514	4371.47
509.882	4398.36
510.25	4404.91
510.618	4440.84
510.986	4394.07
511.354	4485.36
511.722	4509.77
512.09	4517.23
512.458	4497.57
512.826	4545.47
513.193	4568.98
513.561	4562.42
513.929	4644.45
514.297	4623.66
514.664	4648.97
515.032	4653.04
515.4	4686.26
515.767	4711.35
516.135	4758.12
516.502	4697.79
516.869	4796.31
517.237	4819.36
517.604	4823.43
517.972	4785.02
518.339	4826.82
518.706	4854.17
519.073	4851
519.44	4897.33
519.808	4931.45
520.175	4881.74
520.542	4942.53
520.909	5011.22
521.276	4998.8
521.643	5017.33
522.009	5074.5
522.376	5084.89
522.743	5054.39
523.11	5130.54
523.477	5171.45
523.843	5215.51
524.21	5221.61
524.577	5206.7
524.943	5268.84
525.31	5297.54
525.676	5349.29
526.043	5369.63
526.409	5395.17
526.776	5411.67
527.142	5475.84
527.508	5440.14
527.874	5499.8
528.241	5502.51
528.607	5502.06
528.973	5559.23
529.339	5567.59
529.705	5658.66
530.071	5627.25
530.437	5696.18
530.803	5734.82
531.169	5719
531.535	5745.44
531.901	5798.32
532.267	5781.6
532.632	5845.55
532.998	5849.62
533.364	5970.75
533.73	5919
534.095	5986.57
534.461	5974.81
534.826	5975.27
535.192	6008.26
535.557	6088.03
535.923	6080.12
536.288	6063.4
536.653	6097.3
537.019	6139.1
537.384	6107.24
537.749	6150.86
538.114	6189.72
538.479	6175.26
538.845	6182.04
539.21	6175.04
539.575	6245.09
539.94	6270.63
540.305	6331.64
540.67	6377.74
541.034	6346.1
541.399	6397.63
541.764	6435.59
542.129	6411.87
542.494	6424.97
542.858	6509.26
543.223	6483.73
543.587	6550.84
543.952	6526.66
544.316	6606.66
544.681	6554.01
545.045	6585.19
545.41	6644.18
545.774	6636.72
546.138	6655.93
546.503	6698.64
546.867	6745.42
547.231	6822.48
547.595	6830.61
547.959	6816.83
548.324	6866.32
548.688	6957.16
549.052	6969.14
549.416	6894.56
549.779	6913.1
550.143	6965.75
550.507	6988.8
550.871	7035.13
551.235	7039.19
551.599	7035.8
551.962	7062.92
552.326	7083.03
552.689	7163.48
553.053	7109.47
553.417	7126.42
553.78	7200.09
554.143	7169.13
554.507	7209.36
554.87	7231.5
555.234	7368
555.597	7316.7
555.96	7349.24
556.323	7342.01
556.686	7326.19
557.05	7417.04
557.413	7481.44
557.776	7457.94
558.139	7484.15
558.502	7503.14
558.865	7528.67
559.228	7604.83
559.59	7577.03
559.953	7623.81
560.316	7609.57
560.679	7662.68
561.041	7699.52
561.404	7738.84
561.767	7795.33
562.129	7766.86
562.492	7905.84
562.854	7828.55
563.217	7844.6
563.579	7918.04
563.941	7970.92
564.304	7941.09
564.666	8030.81
565.028	8044.82
565.39	8053.63
565.753	8111.03
566.115	8157.58
566.477	8088.21
566.839	8098.83
567.201	8214.3
567.563	8242.55
567.925	8279.61
568.287	8311.7
568.648	8308.09
569.01	8330.68
569.372	8492.71
569.734	8365.03
570.095	8426.73
570.457	8483.9
570.819	8473.96
571.18	8518.48
571.542	8518.48
571.903	8617.46
572.265	8643.45
572.626	8633.05
572.987	8769.09
573.349	8840.73
573.71	8743.33
574.071	8884.34
574.432	8920.05
574.794	9004.34
575.155	8967.5
575.516	8992.36
575.877	9092.47
576.238	9186.26
576.599	9237.1
576.96	9356.42
577.32	9356.19
577.681	9460.37
578.042	9569.52
578.403	9619.24
578.763	9690.88
579.124	9716.19
579.485	9879.57
579.845	9952.79
580.206	10019.68
580.566	10075.72
580.927	10229.39
581.287	10350.97
581.648	10327.69
582.008	10611.53
582.368	10684.07
582.728	10796.16
583.089	10964.06
583.449	11078.41
583.809	11196.82
584.169	11351.85
584.529	11462.81
584.889	11723.36
585.249	11849.46
585.609	12021.66
585.969	12253.29
586.329	12396.34
586.688	12609.67
587.048	12807.86
587.408	13017.79
587.768	13186.15
588.127	13362.87
588.487	13613.94
588.846	13913.14
589.206	14040.59
589.565	14297.53
589.925	14533.91
590.284	14923.73
590.643	15015.71
591.003	15373.89
591.362	15610.95
591.721	15896.59
592.08	16064.94
592.44	16462.9
592.799	16638.49
593.158	16940.4
593.517	17291.81
593.876	17494.29
594.235	17778.35
594.593	18139.92
594.952	18447.26
595.311	18619.45
595.67	18932.89
596.029	19395.48
596.387	19616.49
596.746	20017.61
597.104	20122.92
597.463	20379.18
597.822	20817.59
598.18	20980.52
598.538	21369.21
598.897	21771.69
599.255	21869.31
599.613	22426.36
599.972	22552.01
600.33	22863.86
600.688	23013.24
601.046	23406.22
601.404	23854.57
601.762	24038.29
602.12	24397.83
602.478	24685.06
602.836	25032.17
603.194	25151.26
603.552	25471.93
603.91	25616.33
604.268	26021.75
604.625	26263.09
604.983	26643.42
605.341	26698.56
605.698	27176.07
606.056	27481.37
606.413	27709.61
606.771	28033.9
607.128	28279.99
607.485	28371.06
607.843	28625.74
608.2	28891.95
608.557	29201.55
608.914	29376.69
609.272	29627.53
609.629	29924.47
609.986	30214.63
610.343	30226.15
610.7	30658.46
611.057	30750.21
611.414	30973.03
611.771	31257.54
612.127	31565.1
612.484	31698.21
612.841	32036.73
613.198	31987.46
613.554	32240.34
613.911	32593.78
614.267	32833.77
614.624	32958.51
614.98	33072.41
615.337	33433.75
615.693	33539.51
616.05	33631.94
616.406	33979.28
616.762	34000.52
617.118	33993.74
617.475	34200.74
617.831	34531.8
618.187	34605.25
618.543	34810.21
618.899	34987.84
619.255	35141.28
619.611	35189.19
619.967	35397.32
620.323	35556.64
620.678	35680.25
621.034	35654.71
621.39	35822.84
621.746	35851.32
622.101	36432.54
622.457	36327.91
622.812	36355.03
623.168	36477.29
623.523	36550.51
623.879	36792.08
624.234	36697.62
624.589	36847.22
624.945	37015.13
625.3	37063.71
625.655	37115.92
626.01	37193.43
626.365	37400.66
626.72	37360.66
627.075	37455.57
627.43	37577.83
627.785	37455.57
628.14	37752.06
628.495	37735.56
628.85	37714.77
629.205	37702.79
629.559	38015.33
629.914	37865.05
630.269	37986.4
630.623	37895.56
630.978	37911.6
631.332	38005.84
631.687	38141.65
632.041	37990.02
632.396	38206.06
632.75	38065.95
633.104	38268.2
633.459	38056.46
633.813	38150.47
634.167	38183.91
634.521	38125.16
634.875	38227.98
635.229	38170.13
635.583	38117.25
635.937	38224.81
636.291	38116.79
636.645	38223.23
636.999	38101.88
637.352	38274.98
637.706	38058.72
638.06	38343.46
638.413	38212.61
638.767	38109.56
639.121	38260.07
639.474	37959.74
639.828	38093.07
640.181	38236.57
640.534	38205.15
640.888	38109.79
641.241	38024.59
641.594	38185.95
641.947	38346.62
642.301	38133.52
642.654	38267.52
643.007	38227.3
643.36	38151.37
643.713	38138.04
644.066	38259.62
644.419	38044.25
644.771	37858.72
645.124	37498.96
645.477	37474.1
645.83	37253.77
646.182	37171.28
646.535	36963.15
646.888	37210.38
647.24	36945.53
647.593	37154.33
647.945	37167.21
648.298	37007.67
648.65	36863.95
649.002	36745.98
649.355	36927
649.707	36922.7
650.059	37073.21
650.411	37578.28
650.763	37599.29
651.115	37848.1
651.467	37926.74
651.819	37814.2
652.171	37841.55
652.523	37663.02
652.875	37812.17
653.227	37534.89
653.578	37852.17
653.93	37724.94
654.282	37636.58
654.633	37480.43
654.985	37811.04
655.337	37580.76
655.688	37715.22
656.039	37687.2
656.391	37480.65
656.742	37583.02
657.094	37652.85
657.445	37540.54
657.796	37610.59
658.147	37550.48
658.498	37526.98
658.849	37641.1
659.2	37614.66
659.551	37435.91
659.902	37646.98
660.253	37504.61
660.604	37538.96
660.955	37435.91
661.306	37520.43
661.656	37389.13
662.007	37570.82
662.358	37573.76
662.708	37532.63
663.059	37557.94
663.409	37360.43
663.76	37559.97
664.11	37444.95
664.461	37524.95
664.811	37513.87
665.161	37502.35
665.511	37381.9
665.862	37569.24
666.212	37602.91
666.562	37678.61
666.912	37582.57
667.262	37461.22
667.612	37489.92
667.962	37528.56
668.312	37364.27
668.662	37627.32
669.011	37446.08
669.361	37507.77
669.711	37369.02
670.06	37399.07
670.41	37329.7
670.76	37346.87
671.109	37404.5
671.459	37448.11
671.808	37388.23
672.157	37446.98
672.507	37297.83
672.856	37079.08
673.205	37283.14
673.554	37378.06
673.904	37167.44
674.253	37478.85
674.602	37430.94
674.951	36786.89
675.3	36628.25
675.649	37257.83
675.998	37335.57
676.346	37273.88
676.695	37331.5
677.044	37012.42
677.393	37209.47
677.741	37302.35
678.09	37234.56
678.438	37144.16
678.787	37090.83
679.135	37283.82
679.484	36880.44
679.832	37151.4
680.181	36938.75
680.529	37043.83
680.877	36996.15
681.225	36805.42
681.573	37025.52
681.922	36852.19
682.27	36890.16
682.618	36863.49
682.966	36665.99
683.314	36723.38
683.661	36638.42
684.009	36442.94
684.357	36454.47
684.705	36444.52
685.053	36352.55
685.4	36350.29
685.748	36155.49
686.095	36165.89
686.443	36094.25
686.79	35970.41
687.138	36154.59
687.485	36127.24
687.832	36041.14
688.18	35995.95
688.527	35759.12
688.874	35750.75
689.221	35817.42
689.568	35684.99
689.915	35555.28
690.262	35617.65
690.609	35457.88
690.956	35400.03
691.303	35382.4
691.65	35120.04
691.997	35243.65
692.344	35014.96
692.69	34831.01
693.037	35012.02
693.383	34706.04
693.73	34800.27
694.077	34602.54
694.423	34737.22
694.769	34520.96
695.116	34505.59
695.462	34464.24
695.808	34290.91
696.155	34424.91
696.501	34141.53
696.847	34170.23
697.193	33935.66
697.539	34126.62
697.885	33847.08
698.231	33709.9
698.577	33767.76
698.923	33815.21
699.269	33460.42
699.614	33472.85
699.96	33418.61
700.306	33308.56
700.651	33267.43
700.997	33074.89
701.342	33037.61
701.688	32931.39
702.033	32907.89
702.379	32907.89
702.724	32706.09
703.069	32835.13
703.415	32545.87
703.76	32600.33
704.105	32564.85
704.45	32374.12
704.795	32238.76
705.14	32268.36
705.485	32146.78
705.83	31998.76
706.175	32092.55
706.52	31888.94
706.865	31931.65
707.209	31861.82
707.554	31779.11
707.899	31740.01
708.243	31756.96
708.588	31596.97
708.932	31353.36
709.277	31318.56
709.621	31412.11
709.966	31105.45
710.31	31291.44
710.654	30913.82
710.998	31073.36
711.342	31070.2
711.687	30918.79
712.031	30765.58
712.375	30686.93
712.719	30747.04
713.063	30686.48
713.407	30834.27
713.75	30675.18
714.094	30714.28
714.438	30519.03
714.782	30462.53
715.125	30338.02
715.469	30443.32
715.812	30257.11
716.156	30086.27
716.499	30161.98
716.843	30100.73
717.186	29904.13
717.53	30164.24
717.873	30010.34
718.216	29988.87
718.559	29919.04
718.902	29677.02
719.246	29781.19
719.589	29672.27
719.932	29589.11
720.275	29514.53
720.617	29481.09
720.96	29605.38
721.303	29491.94
721.646	29489
721.989	29257.59
722.331	29399.51
722.674	29251.72
723.016	29255.33
723.359	29234.09
723.701	29112.29
724.044	29142.79
724.386	28886.3
724.729	28983.93
725.071	28906.19
725.413	28859.64
725.755	28802.91
726.097	28739.64
726.439	28691.28
726.782	28639.3
727.124	28680.66
727.465	28512.3
727.807	28531.51
728.149	28552.75
728.491	28464.62
728.833	28515.24
729.175	28359.99
729.516	28350.05
729.858	28299.88
730.199	28324.96
730.541	28409.93
730.882	28250.39
731.224	28329.71
731.565	28003.61
731.906	28185.08
732.248	28237.28
732.589	28065.76
732.93	27859.44
733.271	27882.71
733.612	28020.11
733.953	27979.43
734.294	27786.67
734.635	27743.96
734.976	27775.82
735.317	27650.85
735.658	27616.73
735.999	27673.91
736.339	27468.03
736.68	27612.89
737.021	27433.91
737.361	27404.53
737.702	27437.53
738.042	27420.35
738.383	27296.97
738.723	27334.03
739.063	27235.27
739.404	27323.18
739.744	27230.07
740.084	27087.25
740.424	27066.92
740.764	27066.92
741.104	27173.81
741.444	26864.43
741.784	26979.69
742.124	26915.28
742.464	26868.95
742.804	26852.23
743.143	26844.55
743.483	26803.42
743.823	26742.4
744.162	26749.64
744.502	26722.74
744.841	26656.08
745.181	26726.81
745.52	26537.44
745.86	26605.68
746.199	26557.78
746.538	26489.76
746.877	26513.48
747.216	26527.04
747.556	26427.84
747.895	26465.12
748.234	26308.29
748.573	26401.62
748.911	26291.12
749.25	26220.16
749.589	26108.07
749.928	26170.44
750.267	26126.6
750.605	26007.06
750.944	25998.69
751.283	25915.99
751.621	25854.07
751.96	25707.86
752.298	25810.23
752.636	25854.29
752.975	25687.74
753.313	25546.5
753.651	25758.25
753.989	25572.72
754.327	25571.14
754.666	25422.44
755.004	25440.52
755.342	25497.92
755.679	25264.25
756.017	25233.97
756.355	25335.66
756.693	25201.43
757.031	25267.64
757.368	25114.65
757.706	25159.39
758.044	24935.45
758.381	24974.54
758.719	24891.83
759.056	24912.4
759.394	24851.38
759.731	24649.13
760.068	24592.86
760.405	24519.64
760.743	24522.35
761.08	24555.8
761.417	24382.24
761.754	24340.21
762.091	24326.87
762.428	24266.09
762.765	24144.73
763.102	24193.09
763.438	23902.93
763.775	24002.82
764.112	23850.95
764.449	23864.29
764.785	23729.83
765.122	23511.98
765.458	23549.49
765.795	23462.26
766.131	23536.84
766.467	23328.03
766.804	23405.99
767.14	23328.48
767.476	23264.3
767.812	23094.82
768.148	23129.39
768.485	22996.74
768.821	22870.64
769.157	22879.68
769.492	22793.58
769.828	22660.03
770.164	22538.67
770.5	22514.49
770.836	22418
771.171	22302.07
771.507	22208.96
771.842	22055.52
772.178	22129.42
772.513	22087.84
772.849	22061.85
773.184	21936.88
773.519	21871.8
773.855	21686.49
774.19	21649.2
774.525	21651.24
774.86	21607.85
775.195	21464.35
775.53	21453.05
775.865	21278.37
776.2	21251.7
776.535	21011.03
776.87	21036.79
777.205	21009.9
777.539	20938.26
777.874	21024.59
778.209	20704.14
778.543	20769.68
778.878	20660.08
779.212	20573.3
779.547	20420.99
779.881	20504.6
780.215	20302.12
780.55	20401.1
780.884	20166.53
781.218	20219.19
781.552	20158.17
781.886	20019.64
782.22	20050.83
782.554	19958.18
782.888	19718.41
783.222	19615.59
783.556	19590.95
783.889	19648.13
784.223	19473.44
784.557	19315.03
784.89	19395.93
785.224	19277.97
785.557	19129.05
785.891	19066.45
786.224	19058.99
786.558	19050.86
786.891	18916.62
787.224	18808.38
787.557	18726.12
787.891	18774.03
788.224	18674.14
788.557	18667.59
788.89	18617.87
789.223	18559.34
789.556	18379.23
789.888	18389.18
790.221	18273.02
790.554	18075.74
790.887	18110.77
791.219	18046.14
791.552	18041.16
791.884	17971.56
792.217	17912.58
792.549	17836.88
792.882	17790.78
793.214	17638.24
793.546	17720.27
793.879	17564.11
794.211	17538.58
794.543	17548.07
794.875	17419.71
795.207	17515.53
795.539	17343.56
795.871	17253.39
796.203	17261.07
796.535	17080.51
796.867	17108.53
797.198	16993.28
797.53	16937.46
797.862	16889.1
798.193	16945.37
798.525	16926.39
798.856	16787.41
799.188	16633.07
799.519	16530.24
799.85	16560.75
800.182	16513.29
800.513	16458.15
800.844	16375.9
801.175	16523.46
801.506	16301.1
801.837	16328.44
802.168	16195.79
802.499	16239.86
802.83	16121.21
803.161	16083.48
803.491	16081.22
803.822	16031.05
804.153	15982.91
804.483	15925.97
804.814	15765.52
805.145	15795.35
805.475	15733.2
805.805	15714.9
806.136	15682.58
806.466	15638.29
806.796	15631.74
807.126	15491.63
807.457	15490.5
807.787	15482.59
808.117	15438.07
808.447	15311.74
808.777	15355.58
809.107	15301.58
809.436	15245.98
809.766	15210.05
810.096	15167.12
810.426	15123.73
810.755	15168.25
811.085	15050.51
811.414	15001.24
811.744	14908.59
812.073	14914.47
812.403	14824.75
812.732	14752.66
813.061	14708.6
813.39	14761.25
813.719	14639.45
814.049	14748.82
814.378	14612.55
814.707	14596.06
815.036	14612.33
815.365	14579.11
815.693	14395.61
816.022	14313.13
816.351	14328.95
816.68	14344.54
817.008	14340.24
817.337	14211.66
817.665	14246.46
817.994	14224.77
818.322	14272.9
818.651	14082.62
818.979	14054.38
819.307	14093.47
819.636	14034.04
819.964	13927.15
820.292	14009.63
820.62	13936.87
820.948	13935.06
821.276	14035.62
821.604	13949.29
821.932	13981.84
822.259	13954.72
822.587	13919.92
822.915	13871.33
823.243	13899.13
823.57	13876.3
823.898	13900.93
824.225	13876.53
824.553	13937.32
824.88	13937.09
825.207	13874.95
825.535	13822.07
825.862	13865.91
826.189	13809.18
826.516	13862.52
826.843	13987.94
827.17	13940.93
827.497	13932.8
827.824	13907.26
828.151	13869.52
828.478	13886.7
828.805	13886.7
829.131	13751.11
829.458	13710.2
829.785	13775.74
830.111	13654.39
830.438	13844.44
830.764	13765.12
831.09	13847.83
831.417	13731.45
831.743	13824.55
832.069	13736.87
832.395	13741.16
832.722	13675.4
833.048	13677.89
833.374	13669.3
833.7	13708.62
834.026	13800.15
834.351	13736.64
834.677	13652.58
835.003	13673.37
835.329	13686.25
835.654	13637.89
835.98	13468.63
836.306	13543.43
836.631	13466.82
836.956	13615.52
837.282	13580.49
837.607	13444.9
837.932	13484
838.258	13437.67
838.583	13442.64
838.908	13409.87
839.233	13404.45
839.558	13328.07
839.883	13309.76
840.208	13233.61
840.533	13269.54
840.858	13312.25
841.182	13265.7
841.507	13256.88
841.832	13160.16
842.156	13118.81
842.481	13138.69
842.805	13075.87
843.13	13096.89
843.454	13044.46
843.778	13018.92
844.103	12901.19
844.427	12942.32
844.751	12922.65
845.075	12894.41
845.399	12843.33
845.723	12702.77
846.047	12849.21
846.371	12696.22
846.695	12707.07
847.019	12608.09
847.343	12584.36
847.666	12445.38
847.99	12411.93
848.313	12417.13
848.637	12384.14
848.96	12339.62
849.284	12358.38
849.607	12175.56
849.931	12169.68
850.254	12088.33
850.577	12046.29
850.9	11938.05
851.223	11934.43
851.546	11877.03
851.869	11832.74
852.192	11815.11
852.515	11740.09
852.838	11638.62
853.161	11705.29
853.483	11592.07
853.806	11574.44
854.129	11556.81
854.451	11517.95
854.774	11399.3
855.096	11388.46
855.419	11416.48
855.741	11413.09
856.063	11359.98
856.385	11325.63
856.708	11233.21
857.03	11200.44
857.352	11220.55
857.674	11205.41
857.996	11149.59
858.318	11107.11
858.64	11098.97
858.961	11045.87
859.283	11009.71
859.605	10946.44
859.926	10927.68
860.248	10911.63
860.57	10814.24
860.891	10875.48
861.212	10845.42
861.534	10785.99
861.855	10781.24
862.176	10764.52
862.498	10740.57
862.819	10719.77
863.14	10722.71
863.461	10593.9
863.782	10663.05
864.103	10602.04
864.424	10590.06
864.745	10609.5
865.065	10570.17
865.386	10535.6
865.707	10530.85
866.027	10524.98
866.348	10510.97
866.668	10491.53
866.989	10488.37
867.309	10372.44
867.63	10383.06
867.95	10393
868.27	10361.37
868.59	10370.41
868.91	10344.19
869.23	10297.41
869.55	10213.57
869.87	10282.5
870.19	10331.99
870.51	10272.78
870.83	10258.32
871.15	10209.73
871.469	10277.3
871.789	10216.74
872.109	10162.5
872.428	10136.74
872.748	10163.18
873.067	10139.68
873.386	10149.39
873.706	10060.13
874.025	10043.86
874.344	10074.82
874.663	10045.67
874.982	10004.09
875.301	9984.88
875.62	9956.18
875.939	9995.5
876.258	10036.85
876.577	9896.97
876.896	9904.43
877.214	9851.1
877.533	9908.72
877.852	9845.22
878.17	9843.41
878.489	9877.08
878.807	9845.45
879.125	9850.19
879.444	9770.42
879.762	9729.07
880.08	9778.78
880.398	9719.35
880.716	9666.92
881.034	9696.75
881.352	9715.73
881.67	9674.15
881.988	9699.91
882.306	9600.03
882.624	9568.39
882.941	9603.19
883.259	9469.86
883.577	9539.92
883.894	9532.91
884.212	9518.22
884.529	9469.86
884.846	9393.93
885.164	9427.38
885.481	9356.87
885.798	9380.15
886.115	9341.05
886.432	9336.08
886.75	9336.76
887.067	9324.78
887.383	9256.54
887.7	9257.21
888.017	9198.46
888.334	9230.32
888.651	9185.13
888.967	9167.5
889.284	9137.22
889.6	9083.43
889.917	9020.61
890.233	9029.65
890.55	9006.15
890.866	8996.88
891.182	8974.06
891.498	8989.42
891.815	8910.56
892.131	8924.79
892.447	8871.01
892.763	8827.85
893.079	8804.12
893.395	8769.32
893.71	8810.9
894.026	8753.95
894.342	8711.47
894.657	8717.34
894.973	8652.48
895.289	8702.43
895.604	8614.52
895.92	8598.25
896.235	8485.48
896.55	8558.7
896.865	8481.42
897.181	8422.21
897.496	8454.3
897.811	8438.7
898.126	8429.89
898.441	8390.12
898.756	8301.99
899.071	8251.82
899.386	8305.6
899.7	8156.45
900.015	8195.77
900.33	8150.12
900.644	8139.05
900.959	8146.06
901.273	8153.29
901.588	8045.72
901.902	8021.54
902.216	7978.83
902.531	7934.76
902.845	7985.16
903.159	7898.83
903.473	7917.14
903.787	7859.28
904.101	7776.35
904.415	7793.07
904.729	7735.9
905.042	7676.46
905.356	7669.69
905.67	7656.35
905.984	7706.75
906.297	7660.65
906.611	7571.61
906.924	7613.19
907.237	7559.86
907.551	7564.15
907.864	7477.6
908.177	7435.12
908.491	7420.43
908.804	7393.76
909.117	7375
909.43	7347.66
909.743	7270.83
910.056	7312.63
910.368	7207.32
910.681	7219.75
910.994	7166.65
911.307	7128.46
911.619	7079.87
911.932	7089.36
912.244	7061.34
912.557	7060.44
912.869	6993.09
913.181	6994.9
913.494	6983.38
913.806	6923.94
914.118	6917.61
914.43	6885.3
914.742	6848.46
915.054	6780.22
915.366	6831.74
915.678	6710.84
915.99	6728.24
916.302	6695.25
916.613	6648.7
916.925	6678.98
917.236	6627.23
917.548	6568.25
917.859	6583.16
918.171	6558.53
918.482	6508.36
918.794	6494.12
919.105	6504.74
919.416	6409.61
919.727	6380.23
920.038	6428.59
920.349	6347.46
920.66	6296.61
920.971	6352.21
921.282	6310.63
921.593	6203.96
921.903	6178.65
922.214	6155.37
922.525	6161.7
922.835	6126.22
923.146	6108.14
923.456	6103.4
923.767	6074.7
924.077	6097.07
924.387	6024.08
924.697	5981.59
925.008	5967.13
925.318	5918.09
925.628	5919.67
925.938	5903.86
926.248	5856.63
926.558	5849.62
926.867	5850.3
927.177	5826.34
927.487	5746.12
927.796	5716.29
928.106	5692.56
928.416	5681.04
928.725	5674.26
929.034	5663.18
929.344	5673.58
929.653	5610.98
929.962	5588.16
930.271	5538.22
930.581	5516.97
930.89	5546.58
931.199	5456.64
931.508	5456.86
931.817	5406.92
932.125	5414.15
932.434	5426.13
932.743	5348.39
933.051	5322.18
933.36	5313.14
933.669	5283.99
933.977	5236.3
934.286	5246.25
934.594	5217.09
934.902	5188.85
935.21	5154.95
935.519	5168.51
935.827	5149.07
936.135	5085.57
936.443	5028.4
936.751	5060.04
937.059	5028.17
937.367	5046.48
937.674	5033.82
937.982	5001.51
938.29	4964.22
938.597	4960.6
938.905	4874.28
939.213	4874.28
939.52	4822.98
939.827	4918.35
940.135	4846.71
940.442	4851.45
940.749	4785.24
941.056	4798.8
941.363	4734.62
941.67	4751.34
941.977	4704.34
942.284	4647.17
942.591	4678.13
942.898	4675.64
943.205	4658.24
943.511	4590.9
943.818	4589.09
944.125	4535.76
944.431	4533.5
944.738	4508.19
945.044	4484.68
945.35	4544.34
945.657	4480.39
945.963	4467.51
946.269	4424.8
946.575	4440.62
946.881	4381.64
947.187	4391.58
947.493	4372.82
947.799	4320.62
948.105	4310.45
948.41	4292.6
948.716	4332.37
949.022	4278.81
949.327	4279.49
949.633	4213.28
949.938	4213.28
950.244	4191.81
950.549	4156.78
950.854	4167.4
951.16	4176.9
951.465	4109.1
951.77	4142.09
952.075	4063
952.38	4106.62
952.685	4081.08
952.99	4051.02
953.294	4022.32
953.599	3990.69
953.904	3933.51
954.209	3973.51
954.513	3985.71
954.818	3912.27
955.122	3921.31
955.426	3908.43
955.731	3871.82
956.035	3872.27
956.339	3881.99
956.643	3864.59
956.948	3811.26
957.252	3768.77
957.556	3792.05
957.86	3757.47
958.163	3748.21
958.467	3784.59
958.771	3740.3
959.075	3730.58
959.378	3680.64
959.682	3664.59
959.985	3672.73
960.289	3648.55
960.592	3601.09
960.896	3618.27
961.199	3601.09
961.502	3606.97
961.805	3576.91
962.108	3553.18
962.411	3550.25
962.714	3526.74
963.017	3514.99
963.32	3488.1
963.623	3475.45
963.926	3496.91
964.228	3457.59
964.531	3428.89
964.833	3425.96
965.136	3380.76
965.438	3412.62
965.741	3423.47
966.043	3366.07
966.345	3350.02
966.648	3320.87
966.95	3310.93
967.252	3310.7
967.554	3317.03
967.856	3256.69
968.158	3220.08
968.46	3227.99
968.761	3214.66
969.063	3232.97
969.365	3196.58
969.666	3185.96
969.968	3154.78
970.269	3163.36
970.571	3163.59
970.872	3124.95
971.174	3122.01
971.475	3115.68
971.776	3089.47
972.077	3055.57
972.378	3046.3
972.679	3024.16
972.98	3034.55
973.281	3017.6
973.582	3013.08
973.883	2991.39
974.183	3019.19
974.484	2995.91
974.785	2959.53
975.085	2933.54
975.386	2935.35
975.686	2920.21
975.986	2915.23
976.287	2900.32
976.587	2886.99
976.887	2861.45
977.187	2842.47
977.487	2857.16
977.787	2821.23
978.087	2824.16
978.387	2800.89
978.687	2818.29
978.987	2802.24
979.286	2781.9
979.586	2748.91
979.885	2746.65
980.185	2704.62
980.484	2715.92
980.784	2701
981.083	2670.04
981.382	2671.62
981.682	2650.38
981.981	2679.53
982.28	2674.11
982.579	2621
982.878	2622.81
983.177	2623.72
983.475	2618.52
983.774	2597.28
984.073	2596.82
984.372	2548.92
984.67	2547.79
984.969	2558.18
985.267	2562.25
985.566	2519.31
985.864	2551.18
986.162	2477.28
986.461	2479.77
986.759	2495.13
987.057	2452.65
987.355	2470.73
987.653	2431.63
987.951	2436.83
988.249	2454.91
988.547	2433.21
988.844	2407.68
989.142	2394.8
989.44	2372.42
989.737	2396.38
990.035	2373.78
990.332	2328.13
990.63	2334.46
990.927	2331.07
991.224	2336.72
991.521	2310.96
991.819	2302.82
992.116	2274.57
992.413	2268.92
992.71	2253.33
993.006	2263.95
993.303	2222.6
993.6	2227.79
993.897	2233.44
994.193	2237.74
994.49	2240.68
994.787	2189.15
995.083	2176.72
995.379	2180.79
995.676	2172.88
995.972	2148.25
996.268	2153.9
996.565	2116.16
996.861	2084.75
997.157	2093.33
997.453	2099.89
997.749	2080.23
998.044	2077.52
998.34	2065.09
998.636	2043.39
998.932	2068.02
999.227	2044.75
999.523	2044.3
999.818	2030.29
1000.114	2000.91
1000.409	1957.52
1000.704	2013.56
1001	1964.3
1001.295	1975.82
1001.59	1932.44
1001.885	1949.84
1002.18	1921.14
1002.475	1923.85
1002.77	1910.51
1003.065	1894.7
1003.359	1893.79
1003.654	1875.49
1003.949	1875.04
1004.243	1892.21
1004.538	1858.76
1004.832	1847.01
1005.127	1848.14
1005.421	1828.48
1005.715	1833.45
1006.009	1820.35
1006.304	1810.63
1006.598	1814.92
1006.892	1771.08
1007.186	1758.43
1007.48	1739.9
1007.773	1712.1
1008.067	1757.75
1008.361	1740.35
1008.655	1701.03
1008.948	1704.19
1009.242	1720.01
1009.535	1693.12
1009.829	1670.07
1010.122	1673.23
1010.415	1656.06
1010.708	1665.55
1011.001	1637.75
1011.295	1635.95
1011.588	1617.64
1011.881	1597.08
1012.173	1648.15
1012.466	1584.2
1012.759	1586.46
1013.052	1565.44
1013.344	1541.94
1013.637	1582.84
1013.93	1575.83
1014.222	1546.68
1014.514	1530.86
1014.807	1514.37
1015.099	1510.07
1015.391	1480.24
1015.683	1514.37
1015.976	1498.32
1016.268	1456.74
1016.56	1468.04
1016.851	1459.23
1017.143	1453.8
1017.435	1468.49
1017.727	1439.57
1018.018	1455.61
1018.31	1398.21
1018.602	1442.96
1018.893	1388.72
1019.185	1400.7
1019.476	1407.25
1019.767	1376.74
1020.058	1374.71
1020.35	1373.35
1020.641	1352.34
1020.932	1313.24
1021.223	1328.16
1021.514	1308.72
1021.804	1327.71
1022.095	1287.93
1022.386	1293.36
1022.677	1290.64
1022.967	1295.39
1023.258	1277.76
1023.548	1290.87
1023.839	1283.86
1024.129	1239.35
1024.419	1245
1024.709	1238.89
1025	1244.32
1025.29	1229.18
1025.58	1209.06
1025.87	1197.54
1026.16	1225.34
1026.449	1215.84
1026.739	1186.69
1027.029	1146.02
1027.319	1148.27
1027.608	1156.41
1027.898	1154.83
1028.187	1153.25
1028.477	1137.43
1028.766	1115.28
1029.055	1122.06
1029.344	1109.63
1029.634	1118.67
1029.923	1101.04
1030.212	1074.38
1030.501	1090.88
1030.79	1073.47
1031.078	1077.09
1031.367	1038
1031.656	1064.21
1031.945	1066.47
1032.233	1045
1032.522	1032.8
1032.81	1043.42
1033.099	1051.55
1033.387	1012.91
1033.675	1033.25
1033.963	1016.75
1034.251	1016.98
1034.54	998.22
1034.828	996.87
1035.116	974.95
1035.403	955.74
1035.691	945.12
1035.979	976.75
1036.267	958.22
1036.554	973.36
1036.842	971.33
1037.129	933.59
1037.417	952.12
1037.704	924.1
1037.992	924.33
1038.279	903.54
1038.566	897.21
1038.853	897.21
1039.14	897.21
