Data from hue_250_FLMS001491_00100.txt Node
Date: Tue Feb 07 16:01:47 GMT 2017
User: dcchb
Spectrometer: FLMS00149
Trigger mode: 0
Integration Time (sec): 2.000000E-2
Scans to average: 10
Electric dark correction enabled: true
Nonlinearity correction enabled: false
Boxcar width: 0
XAxis mode: Wavelengths
Number of Pixels in Spectrum: 2048
>>>>>Begin Spectral Data<<<<<
341.393	11.31
341.776	11.31
342.16	11.31
342.543	-46.09
342.927	-84.73
343.31	-62.13
343.693	-75.46
344.077	-42.02
344.46	-57.61
344.843	-42.24
345.226	-39.98
345.61	-35.69
345.993	-25.07
346.376	-16.48
346.759	4.31
347.142	16.51
347.525	51.99
347.908	53.57
348.291	79.56
348.674	87.47
349.057	103.29
349.44	128.82
349.823	147.81
350.206	158.65
350.588	197.98
350.971	209.73
351.354	211.53
351.737	237.07
352.119	251.76
352.502	259.67
352.884	265.77
353.267	280.46
353.65	284.07
354.032	273.23
354.414	291.53
354.797	292.89
355.179	291.76
355.562	296.5
355.944	314.36
356.326	304.19
356.709	308.03
357.091	322.94
357.473	321.81
357.855	332.66
358.238	318.88
358.62	312.55
359.002	329.05
359.384	327.24
359.766	315.94
360.148	312.55
360.53	310.51
360.912	322.49
361.294	330.63
361.676	309.84
362.057	317.75
362.439	312.1
362.821	299.89
363.203	320.23
363.584	321.81
363.966	302.38
364.348	320.23
364.729	317.97
365.111	305.77
365.493	319.55
365.874	304.19
366.256	302.61
366.637	298.76
367.019	302.61
367.4	313.23
367.781	303.06
368.163	298.09
368.544	297.18
368.925	289.27
369.306	311.19
369.688	293.34
370.069	319.78
370.45	289.05
370.831	302.38
371.212	289.27
371.593	315.71
371.974	321.14
372.355	294.02
372.736	287.92
373.117	303.51
373.498	293.57
373.879	306.22
374.26	318.88
374.641	294.24
375.021	318.65
375.402	299.44
375.783	296.28
376.163	333.34
376.544	305.54
376.925	294.47
377.305	317.07
377.686	307.8
378.066	310.29
378.447	346.45
378.827	308.71
379.208	302.38
379.588	291.76
379.968	338.99
380.349	323.4
380.729	326.11
381.109	303.51
381.489	305.09
381.87	342.15
382.25	315.26
382.63	326.79
383.01	315.26
383.39	320.68
383.77	340.34
384.15	345.99
384.53	320.68
384.91	340.12
385.29	337.18
385.67	350.74
386.049	335.82
386.429	336.28
386.809	350.74
387.189	342.6
387.568	352.77
387.948	334.02
388.328	342.6
388.707	331.98
389.087	323.17
389.466	358.2
389.846	341.47
390.225	338.31
390.605	346.67
390.984	340.8
391.363	356.84
391.743	351.64
392.122	346.67
392.501	353.45
392.881	340.34
393.26	355.49
393.639	358.65
394.018	348.25
394.397	366.78
394.776	353
395.155	362.04
395.534	368.37
395.913	395.26
396.292	399.55
396.671	356.16
397.05	366.11
397.429	362.04
397.808	387.12
398.186	373.34
398.565	380.34
398.944	403.39
399.323	358.2
399.701	392.32
400.08	409.49
400.458	390.51
400.837	403.85
401.215	407.24
401.594	384.86
401.972	407.46
402.351	402.94
402.729	405.43
403.107	430.06
403.486	419.66
403.864	416.05
404.242	396.16
404.62	395.94
404.999	437.06
405.377	437.74
405.755	429.38
406.133	432.32
406.511	428.03
406.889	436.39
407.267	432.09
407.645	431.42
408.023	454.92
408.401	449.49
408.779	473.9
409.156	459.44
409.534	474.13
409.912	477.06
410.29	486.33
410.667	478.87
411.045	495.59
411.422	499.44
411.8	505.31
412.178	487.01
412.555	520.68
412.933	512.77
413.31	556.61
413.687	536.95
414.065	554.58
414.442	552.54
414.819	558.87
415.197	561.13
415.574	586.44
415.951	579.21
416.328	574.01
416.705	588.25
417.082	593.44
417.46	578.98
417.837	594.12
418.214	591.19
418.591	600
418.967	604.07
419.344	626.44
419.721	634.57
420.098	639.32
420.475	657.62
420.852	645.42
421.228	670.05
421.605	668.92
421.982	660.79
422.358	699.88
422.735	693.33
423.111	680
423.488	724.74
423.864	722.26
424.241	743.5
424.617	747.79
424.994	733.55
425.37	751.41
425.746	760.67
426.123	789.15
426.499	768.36
426.875	816.94
427.251	811.29
427.627	822.59
428.003	816.94
428.379	829.82
428.756	841.12
429.132	846.55
429.507	870.5
429.883	870.05
430.259	869.14
430.635	874.57
431.011	878.64
431.387	908.69
431.763	917.05
432.138	934.23
432.514	966.09
432.89	962.25
433.265	969.48
433.641	1007.67
434.016	1001.8
434.392	1028.24
434.767	1058.74
435.143	1025.3
435.518	1072.53
435.894	1078.86
436.269	1086.09
436.644	1099.65
437.02	1134.9
437.395	1121.11
437.77	1163.37
438.145	1187.78
438.52	1160.66
438.895	1176.48
439.271	1227.55
439.646	1228.68
440.021	1227.55
440.395	1250.6
440.77	1254.22
441.145	1276.82
441.52	1272.75
441.895	1301.22
442.27	1315.46
442.645	1302.13
443.019	1341.9
443.394	1311.62
443.769	1347.32
444.143	1332.63
444.518	1378.73
444.892	1357.72
445.267	1367.21
445.641	1406.76
446.016	1392.97
446.39	1421.45
446.764	1441.11
447.139	1447.21
447.513	1437.26
447.887	1460.09
448.262	1455.8
448.636	1472.07
449.01	1477.26
449.384	1527.66
449.758	1507.32
450.132	1515.45
450.506	1538.73
450.88	1539.41
451.254	1543.48
451.628	1569.46
452.002	1561.55
452.376	1583.93
452.75	1606.53
453.123	1606.3
453.497	1640.87
453.871	1645.62
454.244	1698.05
454.618	1672.29
454.992	1712.06
455.365	1723.81
455.739	1773.53
456.112	1797.93
456.486	1776.69
456.859	1777.59
457.232	1836.35
457.606	1791.61
457.979	1860.76
458.352	1873.19
458.725	1918.38
459.099	1914.09
459.472	1928.1
459.845	1929.91
460.218	1933.52
460.591	1979.85
460.964	1992.73
461.337	2038.38
461.71	2065.5
462.083	2036.34
462.456	2065.95
462.829	2083.35
463.201	2094.42
463.574	2153.63
463.947	2165.38
464.32	2222.78
464.692	2211.93
465.065	2183.91
465.438	2269.78
465.81	2264.36
466.183	2321.76
466.555	2341.87
466.928	2354.53
467.3	2397.24
467.672	2401.53
468.045	2491.02
468.417	2442.89
468.789	2458.93
469.161	2514.3
469.534	2528.76
469.906	2594.97
470.278	2584.58
470.65	2606.5
471.022	2609.89
471.394	2721.98
471.766	2714.52
472.138	2759.94
472.51	2827.51
472.882	2832.93
473.253	2870.9
473.625	2885.81
473.997	2907.96
474.369	2988.86
474.74	2985.92
475.112	3048.75
475.484	3135.3
475.855	3150.21
476.227	3190.89
476.598	3226.6
476.97	3252.36
477.341	3306.82
477.713	3368.51
478.084	3387.5
478.455	3473.6
478.827	3505.46
479.198	3572.35
479.569	3571.45
479.94	3680.82
480.311	3698.45
480.682	3750.65
481.053	3826.35
481.424	3849.63
481.795	3902.74
482.166	3929.4
482.537	3981.83
482.908	4062.51
483.279	4109.06
483.65	4179.34
484.021	4207.14
484.391	4265.44
484.762	4293.69
485.133	4319.45
485.503	4387.47
485.874	4432.44
486.244	4530.52
486.615	4564.87
486.985	4617.29
487.356	4686.44
487.726	4667.69
488.097	4796.72
488.467	4786.78
488.837	4887.8
489.207	4907.46
489.578	4981.35
489.948	5030.16
490.318	5038.53
490.688	5094.34
491.058	5146.32
491.428	5233.1
491.798	5247.79
492.168	5320.55
492.538	5386.99
492.908	5410.04
493.278	5440.1
493.648	5445.29
494.017	5553.77
494.387	5537.04
494.757	5604.16
495.126	5620.21
495.496	5638.28
495.866	5727.1
496.235	5732.74
496.605	5739.98
496.974	5796.92
497.344	5872.85
497.713	5860.88
498.082	5932.51
498.452	5968.67
498.821	5973.64
499.19	5997.6
499.559	6046.63
499.928	6022.68
500.298	6032.62
500.667	6078.27
501.036	6065.84
501.405	6089.12
501.774	6153.98
502.143	6186.97
502.512	6238.27
502.88	6292.05
503.249	6290.92
503.618	6285.5
503.987	6319.85
504.356	6352.84
504.724	6366.4
505.093	6366.17
505.462	6378.15
505.83	6410.47
506.199	6484.82
506.567	6542.21
506.936	6476
507.304	6597.35
507.672	6582.21
508.041	6651.36
508.409	6628.31
508.777	6640.29
509.145	6682.1
509.514	6713.06
509.882	6728.2
510.25	6703.57
510.618	6784.47
510.986	6688.88
511.354	6781.76
511.722	6828.08
512.09	6852.49
512.458	6854.07
512.826	6885.71
513.193	6892.71
513.561	6906.95
513.929	6908.53
514.297	7014.74
514.664	6961.19
515.032	6967.06
515.4	7053.39
515.767	7040.96
516.135	7073.27
516.502	6961.86
516.869	7062.2
517.237	7068.3
517.604	7113.27
517.972	7060.85
518.339	7142.2
518.706	7141.97
519.073	7198.92
519.44	7116.66
519.808	7200.95
520.175	7197.11
520.542	7207.96
520.909	7265.59
521.276	7178.13
521.643	7293.38
522.009	7283.66
522.376	7292.03
522.743	7339.48
523.11	7380.84
523.477	7439.59
523.843	7413.38
524.21	7400.95
524.577	7457.67
524.943	7475.52
525.31	7423.1
525.676	7535.18
526.043	7496.31
526.409	7515.07
526.776	7580.61
527.142	7563.43
527.508	7572.02
527.874	7636.65
528.241	7653.6
528.607	7619.7
528.973	7732.24
529.339	7641.85
529.705	7671.22
530.071	7689.3
530.437	7676.2
530.803	7743.99
531.169	7692.02
531.535	7732.92
531.901	7691.79
532.267	7735.63
532.632	7739.02
532.998	7715.29
533.364	7739.47
533.73	7709.87
534.095	7760.26
534.461	7751.45
534.826	7731.56
535.192	7732.92
535.557	7805.91
535.923	7693.37
536.288	7741.51
536.653	7773.6
537.019	7703.54
537.384	7667.16
537.749	7721.39
538.114	7684.33
538.479	7748.51
538.845	7696.53
539.21	7665.8
539.575	7751
539.94	7690.43
540.305	7650.21
540.67	7622.64
541.034	7589.42
541.399	7695.86
541.764	7656.08
542.129	7682.75
542.494	7672.35
542.858	7704.22
543.223	7605.01
543.587	7755.06
543.952	7642.53
544.316	7657.21
544.681	7651.56
545.045	7657.89
545.41	7664.22
545.774	7621.73
546.138	7617.67
546.503	7619.7
546.867	7667.61
547.231	7558.69
547.595	7588.29
547.959	7628.06
548.324	7592.81
548.688	7557.78
549.052	7588.29
549.416	7577.22
549.779	7450.21
550.143	7506.94
550.507	7529.76
550.871	7538.12
551.235	7482.3
551.599	7533.83
551.962	7508.29
552.326	7530.44
552.689	7549.19
553.053	7456.99
553.417	7502.42
553.78	7560.04
554.143	7471.46
554.507	7517.33
554.87	7530.89
555.234	7553.94
555.597	7492.02
555.96	7522.75
556.323	7526.82
556.686	7555.3
557.05	7550.55
557.413	7574.73
557.776	7586.71
558.139	7550.1
558.502	7519.36
558.865	7520.49
559.228	7581.96
559.59	7554.17
559.953	7572.24
560.316	7689.98
560.679	7625.12
561.041	7627.61
561.404	7631.9
561.767	7673.03
562.129	7589.87
562.492	7631.45
562.854	7666.48
563.217	7688.17
563.579	7721.84
563.941	7751.67
564.304	7726.36
564.666	7780.6
565.028	7816.53
565.39	7789.64
565.753	7808.85
566.115	7845.68
566.477	7853.14
566.839	7768.62
567.201	7849.53
567.563	7911.22
567.925	7952.12
568.287	7949.18
568.648	7971.33
569.01	7937.21
569.372	7937.21
569.734	7955.96
570.095	8058.33
570.457	7979.01
570.819	8031.22
571.18	7991.44
571.542	8028.73
571.903	8109.86
572.265	8104.43
572.626	8135.85
572.987	8108.95
573.349	8132.68
573.71	8174.94
574.071	8147.37
574.432	8183.08
574.794	8201.38
575.155	8253.13
575.516	8227.82
575.877	8262.85
576.238	8232.79
576.599	8332.9
576.96	8335.61
577.32	8256.29
577.681	8346.01
578.042	8368.61
578.403	8433.46
578.763	8436.63
579.124	8398.89
579.485	8404.76
579.845	8448.61
580.206	8407.48
580.566	8507.81
580.927	8430.53
581.287	8457.42
581.648	8488.15
582.008	8534.03
582.368	8487.7
582.728	8636.85
583.089	8523.63
583.449	8542.16
583.809	8526.8
584.169	8627.58
584.529	8579
584.889	8647.02
585.249	8595.95
585.609	8618.54
585.969	8679.11
586.329	8629.39
586.688	8718.2
587.048	8671.88
587.408	8712.33
587.768	8649.05
588.127	8667.81
588.487	8773.12
588.846	8733.34
589.206	8727.69
589.565	8742.61
589.925	8813.79
590.284	8771.31
590.643	8771.76
591.003	8873.91
591.362	8851.53
591.721	8819.44
592.08	8881.14
592.44	8845.21
592.799	8919.1
593.158	8843.62
593.517	8879.55
593.876	8887.92
594.235	8818.77
594.593	8856.05
594.952	8896.05
595.311	8866.45
595.67	8908.25
596.029	9000
596.387	8959.1
596.746	8911.19
597.104	8825.32
597.463	8899.44
597.822	8990.51
598.18	8868.71
598.538	8960
598.897	8896.96
599.255	8861.02
599.613	9010.17
599.972	9004.98
600.33	9018.08
600.688	8938.31
601.046	8957.07
601.404	9033
601.762	8996.84
602.12	9040.68
602.478	9017.18
602.836	9068.7
603.194	8967.69
603.552	9010.17
603.91	8977.86
604.268	9047.01
604.625	8943.73
604.983	9046.78
605.341	9027.57
605.698	9078.42
606.056	9076.84
606.413	9000
606.771	9120.68
607.128	9120.68
607.485	9058.76
607.843	9042.04
608.2	9122.26
608.557	9098.98
608.914	9110.74
609.272	9190.28
609.629	9172.88
609.986	9234.57
610.343	9102.6
610.7	9236.38
611.057	9191.86
611.414	9261.47
611.771	9186.67
612.127	9218.08
612.484	9185.76
612.841	9285.42
613.198	9223.73
613.554	9240
613.911	9294.91
614.267	9250.39
614.624	9275.02
614.98	9304.63
615.337	9339.88
615.693	9371.07
616.05	9293.56
616.406	9374.68
616.762	9287
617.118	9262.37
617.475	9294.01
617.831	9342.14
618.187	9344.85
618.543	9309.37
618.899	9370.39
619.255	9380.78
619.611	9321.8
619.967	9403.16
620.323	9402.48
620.678	9354.57
621.034	9346.44
621.39	9346.66
621.746	9368.36
622.101	9403.61
622.457	9360.45
622.812	9391.18
623.168	9431.63
623.523	9435.92
623.879	9430.05
624.234	9370.62
624.589	9433.89
624.945	9406.32
625.3	9407.45
625.655	9315.48
626.01	9491.06
626.365	9416.72
626.72	9328.36
627.075	9406.09
627.43	9371.75
627.785	9343.72
628.14	9381.01
628.495	9376.26
628.85	9312.09
629.205	9261.92
629.559	9333.33
629.914	9368.13
630.269	9323.38
630.623	9345.98
630.978	9254.46
631.332	9368.36
631.687	9330.84
632.041	9307.34
632.396	9289.04
632.75	9226.66
633.104	9192.31
633.459	9185.76
633.813	9243.39
634.167	9163.84
634.521	9195.03
634.875	9199.32
635.229	9174.69
635.583	9148.7
635.937	9155.25
636.291	9112.09
636.645	9181.24
636.999	9091.53
637.352	9160.9
637.706	9037.97
638.06	9147.34
638.413	9080.45
638.767	9018.31
639.121	9083.84
639.474	8997.97
639.828	9007.23
640.181	9069.38
640.534	9016.95
640.888	9012.43
641.241	8943.73
641.594	8932.21
641.947	9059.21
642.301	9007.91
642.654	8940.12
643.007	8972.43
643.36	8945.99
643.713	8915.71
644.066	8961.36
644.419	8918.65
644.771	8891.08
645.124	8762.72
645.477	8783.51
645.83	8771.99
646.182	8689.96
646.535	8627.36
646.888	8663.06
647.24	8578.09
647.593	8663.06
647.945	8599.56
648.298	8579.68
648.65	8612.9
649.002	8536.29
649.355	8649.05
649.707	8661.26
650.059	8675.49
650.411	8747.58
650.763	8764.08
651.115	8866.22
651.467	8783.96
651.819	8818.09
652.171	8790.97
652.523	8795.94
652.875	8727.69
653.227	8698.99
653.578	8808.14
653.93	8769.95
654.282	8704.19
654.633	8710.29
654.985	8799.1
655.337	8786.68
655.688	8755.26
656.039	8774.25
656.391	8730.63
656.742	8769.95
657.094	8746.22
657.445	8756.39
657.796	8767.69
658.147	8787.13
658.498	8745.32
658.849	8725.21
659.2	8748.94
659.551	8729.05
659.902	8751.2
660.253	8757.98
660.604	8792.55
660.955	8750.74
661.306	8734.7
661.656	8848.37
662.007	8771.08
662.358	8759.78
662.708	8849.27
663.059	8723.63
663.409	8747.13
663.76	8777.64
664.11	8760.91
664.461	8778.77
664.811	8787.58
665.161	8783.51
665.511	8762.27
665.862	8755.72
666.212	8850.63
666.562	8842.72
666.912	8814.02
667.262	8783.06
667.612	8817.18
667.962	8757.3
668.312	8714.14
668.662	8742.38
669.011	8775.6
669.361	8789.61
669.711	8686.34
670.06	8696.96
670.41	8819.22
670.76	8667.36
671.109	8769.5
671.459	8720.01
671.808	8673.01
672.157	8760.01
672.507	8654.7
672.856	8640.24
673.205	8682.95
673.554	8720.91
673.904	8656.74
674.253	8750.97
674.602	8631.65
674.951	8551.43
675.3	8560.47
675.649	8647.24
675.998	8601.6
676.346	8616.51
676.695	8668.94
677.044	8585.55
677.393	8602.27
677.741	8597.75
678.09	8610.18
678.438	8566.57
678.787	8575.38
679.135	8573.12
679.484	8478.21
679.832	8589.62
680.181	8488.6
680.529	8456.06
680.877	8424.88
681.225	8499.45
681.573	8478.66
681.922	8491.77
682.27	8437.98
682.618	8471.66
682.966	8386.46
683.314	8426.69
683.661	8421.94
684.009	8379
684.357	8285.9
684.705	8296.07
685.053	8329.51
685.4	8309.17
685.748	8258.1
686.095	8266.92
686.443	8176.3
686.79	8172.45
687.138	8250.42
687.485	8200.7
687.832	8188.73
688.18	8205.9
688.527	8146.01
688.874	8091.55
689.221	8060.82
689.568	8050.42
689.915	8016.53
690.262	8065.56
690.609	7996.19
690.956	7991.67
691.303	7960.48
691.65	7887.49
691.997	7924.55
692.344	7906.92
692.69	7894.27
693.037	7815.18
693.383	7793.71
693.73	7824.22
694.077	7795.97
694.423	7730.66
694.769	7772.69
695.116	7678
695.462	7703.77
695.808	7664.67
696.155	7648.17
696.501	7599.81
696.847	7659.93
697.193	7523.66
697.539	7555.07
697.885	7488.86
698.231	7461.96
698.577	7461.51
698.923	7417.9
699.269	7346.49
699.614	7341.06
699.96	7344.68
700.306	7338.13
700.651	7306.49
700.997	7274.17
701.342	7270.78
701.688	7258.35
702.033	7245.25
702.379	7226.94
702.724	7158.7
703.069	7143.1
703.415	7078.7
703.76	7080.05
704.105	7103.56
704.45	7055.42
704.795	7056.78
705.14	7042.99
705.485	6986.27
705.83	6889.55
706.175	6915.99
706.52	7008.19
706.865	6888.65
707.209	6900.4
707.554	6922.77
707.899	6856.56
708.243	6837.12
708.588	6831.47
708.932	6793.51
709.277	6806.39
709.621	6758.25
709.966	6731.14
710.31	6727.75
710.654	6710.35
710.998	6733.4
711.342	6719.84
711.687	6698.82
712.031	6665.38
712.375	6603.46
712.719	6602.33
713.063	6606.39
713.407	6596.45
713.75	6582.44
714.094	6520.29
714.438	6480.3
714.782	6552.84
715.125	6532.72
715.469	6522.78
715.812	6497.92
716.156	6503.35
716.499	6481.43
716.843	6436.46
717.186	6451.82
717.53	6472.61
717.873	6458.15
718.216	6394.42
718.559	6406.63
718.902	6348.1
719.246	6371.15
719.589	6400.07
719.932	6390.58
720.275	6335.89
720.617	6359.85
720.96	6317.81
721.303	6339.28
721.646	6309.23
721.989	6302.22
722.331	6302
722.674	6287.98
723.016	6270.58
723.359	6282.11
723.701	6301.77
724.044	6247.76
724.386	6241.21
724.729	6244.37
725.071	6229.68
725.413	6252.05
725.755	6203.24
726.097	6217.25
726.439	6187.65
726.782	6165.05
727.124	6226.52
727.465	6149
727.807	6209.12
728.149	6166.18
728.491	6150.36
728.833	6203.92
729.175	6161.66
729.516	6143.36
729.858	6097.71
730.199	6198.27
730.541	6122.79
730.882	6159.4
731.224	6231.49
731.565	6124.82
731.906	6115.33
732.248	6170.7
732.589	6161.21
732.93	6110.14
733.271	6102
733.612	6138.38
733.953	6159.63
734.294	6129.8
734.635	6095
734.976	6121.66
735.317	6080.08
735.658	6109.46
735.999	6116.92
736.339	6057.48
736.68	6113.3
737.021	6103.13
737.361	6100.64
737.702	6165.73
738.042	6101.77
738.383	6150.13
738.723	6133.86
739.063	6133.41
739.404	6110.81
739.744	6093.64
740.084	6098.16
740.424	6158.72
740.764	6139.51
741.104	6188.55
741.444	6164.15
741.784	6128.89
742.124	6141.77
742.464	6200.08
742.804	6205.05
743.143	6192.39
743.483	6232.84
743.823	6239.4
744.162	6198.5
744.502	6182.22
744.841	6230.58
745.181	6260.64
745.52	6310.36
745.86	6325.05
746.199	6343.58
746.538	6367.3
746.877	6404.37
747.216	6420.18
747.556	6393.07
747.895	6521.88
748.234	6527.98
748.573	6512.84
748.911	6557.58
749.25	6575.89
749.589	6601.65
749.928	6700.63
750.267	6768.88
750.605	6770.91
750.944	6822.21
751.283	6850
751.621	6937.46
751.96	6972.94
752.298	7062.2
752.636	7098.81
752.975	7083.9
753.313	7172.71
753.651	7201.41
753.989	7356.66
754.327	7381.74
754.666	7448.63
755.004	7520.27
755.342	7657.21
755.679	7708.96
756.017	7746.7
756.355	7888.17
756.693	7923.42
757.031	8007.26
757.368	8078.67
757.706	8148.5
758.044	8216.97
758.381	8436.4
758.719	8481.83
759.056	8588.04
759.394	8663.52
759.731	8743.51
760.068	8808.82
760.405	8940.12
760.743	8998.42
761.08	9191.64
761.417	9212.2
761.754	9351.86
762.091	9413.55
762.428	9497.17
762.765	9595.47
763.102	9745.75
763.438	9778.74
763.775	9832.07
764.112	10019.41
764.449	10122.01
764.785	10211.5
765.122	10212.63
765.458	10328.33
765.795	10422.11
766.131	10503.01
766.467	10573.3
766.804	10726.74
767.14	10694.42
767.476	10897.13
767.812	10918.6
768.148	11003.57
768.485	11149.55
768.821	11072.27
769.157	11213.73
769.492	11314.52
769.828	11293.95
770.164	11396.32
770.5	11443.78
770.836	11545.02
771.171	11545.25
771.507	11584.57
771.842	11554.29
772.178	11652.36
772.513	11784.79
772.849	11766.26
773.184	11787.73
773.519	11810.1
773.855	11851.45
774.19	11895.75
774.525	11943.88
774.86	11953.82
775.195	12058.68
775.53	12031.79
775.865	12003.09
776.2	12058.91
776.535	12017.33
776.87	12015.07
777.205	12078.57
777.539	12072.01
777.874	12132.12
778.209	12103.42
778.543	12089.87
778.878	12000.38
779.212	12083.54
779.547	12116.31
779.881	12072.47
780.215	12143.88
780.55	12229.07
780.884	12207.15
781.218	12125.57
781.552	12122.18
781.886	12066.59
782.22	12022.97
782.554	12100.71
782.888	12004.44
783.222	12044.9
783.556	12014.39
783.889	12061.62
784.223	11944.33
784.557	11953.37
784.89	11979.36
785.224	11959.47
785.557	11944.11
785.891	11871.11
786.224	11931.23
786.558	11882.19
786.891	11826.82
787.224	11807.84
787.557	11895.97
787.891	11826.82
788.224	11846.03
788.557	11870.66
788.89	11792.47
789.223	11765.58
789.556	11713.6
789.888	11690.78
790.221	11687.62
790.554	11610.78
790.887	11617.34
791.219	11599.48
791.552	11637.45
791.884	11582.99
792.217	11593.38
792.549	11552.48
792.882	11500.05
793.214	11434.06
793.546	11525.36
793.879	11385.03
794.211	11367.85
794.543	11401.3
794.875	11350.45
795.207	11426.15
795.539	11360.39
795.871	11368.75
796.203	11292.82
796.535	11081.3
796.867	11147.07
797.198	11162.21
797.53	11155.2
797.862	11111.36
798.193	11113.62
798.525	11063.68
798.856	11120.17
799.188	11041.08
799.519	11016.45
799.85	10910.91
800.182	10889.9
800.513	10918.82
800.844	10902.33
801.175	10913.85
801.506	10843.8
801.837	10812.61
802.168	10800.41
802.499	10771.71
802.83	10761.99
803.161	10754.31
803.491	10669.11
803.822	10685.61
804.153	10571.26
804.483	10531.26
804.814	10554.54
805.145	10543.01
805.475	10542.34
805.805	10548.21
806.136	10480.87
806.466	10515.67
806.796	10415.79
807.126	10368.56
807.457	10351.15
807.787	10378.95
808.117	10352.28
808.447	10353.19
808.777	10380.31
809.107	10301.44
809.436	10285.85
809.766	10249.91
810.096	10235.23
810.426	10166.53
810.755	10185.06
811.085	10171.05
811.414	10137.6
811.744	10120.88
812.073	10057.6
812.403	10059.64
812.732	9993.2
813.061	10076.59
813.39	9966.98
813.719	9961.33
814.049	9995.23
814.378	9982.8
814.707	9909.81
815.036	9922.24
815.365	9878.17
815.693	9809.7
816.022	9856.93
816.351	9799.3
816.68	9826.2
817.008	9790.72
817.337	9713.43
817.665	9643.6
817.994	9739.65
818.322	9700.55
818.651	9598.86
818.979	9658.52
819.307	9725.41
819.636	9661.46
819.964	9594.11
820.292	9655.81
820.62	9602.93
820.948	9624.85
821.276	9672.98
821.604	9559.99
821.932	9572.64
822.259	9544.4
822.587	9555.7
822.915	9534.45
823.243	9566.09
823.57	9538.52
823.898	9505.98
824.225	9475.25
824.553	9475.47
824.88	9531.51
825.207	9514.34
825.535	9574.23
825.862	9533.77
826.189	9489.26
826.516	9529.26
826.843	9595.47
827.17	9590.95
827.497	9576.71
827.824	9555.7
828.151	9678.4
828.478	9551.4
828.805	9579.42
829.131	9550.72
829.458	9590.5
829.785	9458.97
830.111	9574.23
830.438	9645.86
830.764	9548.69
831.09	9581.23
831.417	9557.28
831.743	9653.32
832.069	9504.62
832.395	9520.44
832.722	9609.48
833.048	9512.98
833.374	9536.26
833.7	9482.93
834.026	9469.82
834.351	9461.91
834.677	9465.98
835.003	9554.11
835.329	9487.45
835.654	9457.39
835.98	9404.74
836.306	9424.63
836.631	9399.32
836.956	9410.16
837.282	9450.16
837.607	9383.04
837.932	9346.44
838.258	9377.62
838.583	9320.9
838.908	9333.78
839.233	9397.06
839.558	9252.88
839.883	9215.14
840.208	9227.12
840.533	9207
840.858	9253.1
841.182	9258.75
841.507	9242.48
841.832	9144.86
842.156	9178.3
842.481	9200.45
842.805	9150.06
843.13	9168.36
843.454	9094.46
843.778	9085.65
844.103	9045.65
844.427	9117.74
844.751	9052.43
845.075	8971.08
845.399	9033.67
845.723	8950.97
846.047	8918.2
846.371	8887.92
846.695	8914.81
847.019	8833.45
847.343	8795.26
847.666	8714.14
847.99	8677.75
848.313	8708.03
848.637	8593.91
848.96	8623.74
849.284	8559.34
849.607	8548.94
849.931	8512.56
850.254	8487.93
850.577	8447.93
850.9	8346.24
851.223	8385.56
851.546	8281.15
851.869	8214.71
852.192	8364.99
852.515	8242.96
852.838	8160.48
853.161	8209.06
853.483	8097.65
853.806	8138.56
854.129	8159.57
854.451	8111.89
854.774	8032.8
855.096	8067.37
855.419	8103.76
855.741	8015.17
856.063	7969.75
856.385	7958.67
856.708	7921.39
857.03	7907.15
857.352	7918
857.674	7916.42
857.996	7834.84
858.318	7812.01
858.64	7817.21
858.961	7830.77
859.283	7746.03
859.605	7723.88
859.926	7737.66
860.248	7692.47
860.57	7633.49
860.891	7686.82
861.212	7598.23
861.534	7606.37
861.855	7631
862.176	7580.83
862.498	7558.69
862.819	7597.55
863.14	7508.52
863.461	7517.1
863.782	7513.71
864.103	7516.88
864.424	7527.05
864.745	7483.21
865.065	7512.58
865.386	7428.75
865.707	7491.12
866.027	7411.34
866.348	7355.75
866.668	7395.3
866.989	7378.8
867.309	7334.28
867.63	7358.92
867.95	7391.23
868.27	7314.85
868.59	7392.36
868.91	7326.6
869.23	7353.72
869.55	7237.56
869.87	7335.87
870.19	7299.71
870.51	7259.94
870.83	7270.56
871.15	7197.79
871.469	7233.72
871.789	7229.43
872.109	7240.28
872.428	7205.47
872.748	7224.91
873.067	7253.61
873.386	7171.58
873.706	7166.38
874.025	7156.44
874.344	7119.15
874.663	7135.87
874.982	7105.14
875.301	7090
875.62	7083.67
875.939	7061.98
876.258	7033.05
876.577	7083.44
876.896	7053.61
877.214	7026.04
877.533	6995.76
877.852	7040.96
878.17	6995.76
878.489	6989.21
878.807	7022.65
879.125	6995.08
879.444	6963.67
879.762	6928.65
880.08	6907.63
880.398	6888.87
880.716	6922.09
881.034	6842.77
881.352	6854.98
881.67	6865.14
881.988	6841.19
882.306	6814.98
882.624	6811.81
882.941	6798.71
883.259	6770.91
883.577	6779.27
883.894	6746.28
884.212	6772.94
884.529	6737.01
884.846	6708.54
885.164	6651.14
885.481	6675.77
885.798	6653.62
886.115	6631.93
886.432	6558.71
886.75	6534.98
887.067	6620.63
887.383	6579.05
887.7	6593.51
888.017	6596.22
888.334	6581.99
888.651	6563.01
888.967	6529.79
889.284	6457.47
889.6	6421.09
889.917	6420.18
890.233	6390.58
890.55	6389.45
890.866	6370.47
891.182	6381.54
891.498	6349.45
891.815	6342.67
892.131	6332.73
892.447	6319.17
892.763	6276.69
893.079	6292.5
893.395	6267.87
893.71	6215.22
894.026	6172.06
894.342	6172.06
894.657	6187.2
894.973	6164.82
895.289	6174.99
895.604	6132.51
895.92	6087.09
896.235	6050.25
896.55	6031.04
896.865	6046.63
897.181	5992.17
897.496	5998.05
897.811	6004.38
898.126	5984.94
898.441	5980.65
898.756	5967.99
899.071	5892.74
899.386	5899.07
899.7	5815
900.015	5855.68
900.33	5825.17
900.644	5760.31
900.959	5812.52
901.273	5793.76
901.588	5744.04
901.902	5707.89
902.216	5669.24
902.531	5676.25
902.845	5727.77
903.159	5631.05
903.473	5620.43
903.787	5571.17
904.101	5564.84
904.415	5543.82
904.729	5544.05
905.042	5543.82
905.356	5505.63
905.67	5536.37
905.984	5509.47
906.297	5468.12
906.611	5395.35
906.924	5392.41
907.237	5424.28
907.551	5386.54
907.864	5368.23
908.177	5330.27
908.491	5377.95
908.804	5300.89
909.117	5266.09
909.43	5202.14
909.743	5158.75
910.056	5218.63
910.368	5172.99
910.681	5181.57
910.994	5115.59
911.307	5147.22
911.619	5051.18
911.932	5110.16
912.244	5085.76
912.557	5005.08
912.869	4980.22
913.181	5024.06
913.494	4998.3
913.806	4977.96
914.118	4962.14
914.43	4935.25
914.742	4875.59
915.054	4894.8
915.366	4869.94
915.678	4841.92
915.99	4812.09
916.302	4800.34
916.613	4788.81
916.925	4756.95
917.236	4732.77
917.548	4747.69
917.859	4723.96
918.171	4672.89
918.482	4659.55
918.794	4646.67
919.105	4661.59
919.416	4630.4
919.727	4593.57
920.038	4583.62
920.349	4583.4
920.66	4558.09
920.971	4572.55
921.282	4502.72
921.593	4531.65
921.903	4486.68
922.214	4454.36
922.525	4458.43
922.835	4430.63
923.146	4439.67
923.456	4428.15
923.767	4384.98
924.077	4354.02
924.387	4344.76
924.697	4333.01
925.008	4381.59
925.318	4277.42
925.628	4238.55
925.938	4259.79
926.248	4227.47
926.558	4199.9
926.867	4192.67
927.177	4194.25
927.487	4163.75
927.796	4132.11
928.106	4158.32
928.416	4166.01
928.725	4074.94
929.034	4110.64
929.344	4098.44
929.653	4036.52
929.962	4062.96
930.271	4019.8
930.581	4003.52
930.89	3970.76
931.199	3952.23
931.508	3967.37
931.817	3979.12
932.125	3912.68
932.434	3908.61
932.743	3897.54
933.051	3859.12
933.36	3869.52
933.669	3785
933.977	3838.78
934.286	3769.86
934.594	3801.95
934.902	3771.44
935.21	3784.32
935.519	3777.77
935.827	3752.91
936.135	3725.79
936.443	3689.86
936.751	3690.09
937.059	3679.01
937.367	3642.86
937.674	3646.47
937.982	3606.92
938.29	3591.33
938.597	3610.54
938.905	3545.91
939.213	3509.07
939.52	3575.29
939.827	3536.42
940.135	3474.5
940.442	3503.65
940.749	3542.52
941.056	3522.86
941.363	3424.78
941.67	3458.45
941.977	3439.02
942.284	3395.86
942.591	3446.25
942.898	3352.47
943.205	3400.38
943.511	3355.41
943.818	3378.68
944.125	3362.64
944.431	3349.3
944.738	3324.45
945.044	3327.38
945.35	3283.77
945.657	3290.78
945.963	3307.05
946.269	3253.71
946.575	3251
946.881	3228.18
947.187	3253.94
947.493	3182.98
947.799	3177.33
948.105	3193.83
948.41	3160.16
948.716	3159.48
949.022	3143.43
949.327	3148.41
949.633	3081.29
949.938	3123.1
950.244	3100.5
950.549	3105.02
950.854	3042.87
951.16	3025.7
951.465	3020.05
951.77	3014.62
952.075	3023.66
952.38	3006.26
952.685	2997.45
952.99	2980.5
953.294	2995.64
953.599	2961.97
953.904	2891.46
954.209	2901.86
954.513	2877.9
954.818	2875.42
955.122	2890.11
955.426	2883.33
955.731	2878.81
956.035	2860.96
956.339	2860.5
956.643	2818.47
956.948	2806.72
957.252	2812.37
957.556	2804.69
957.86	2789.77
958.163	2774.63
958.467	2755.87
958.771	2729.21
959.075	2750.45
959.378	2729.43
959.682	2717.46
959.985	2714.29
960.289	2705.25
960.592	2704.12
960.896	2692.6
961.199	2670.68
961.502	2649.21
961.805	2666.61
962.108	2638.14
962.411	2649.66
962.714	2597.69
963.017	2580.51
963.32	2603.56
963.623	2559.04
963.926	2561.98
964.228	2548.42
964.531	2532.6
964.833	2570.12
965.136	2508.87
965.438	2497.58
965.741	2500.06
966.043	2462.1
966.345	2540.51
966.648	2465.49
966.95	2466.16
967.252	2449.89
967.554	2427.97
967.856	2433.62
968.158	2395.66
968.46	2444.47
968.761	2454.19
969.063	2376
969.365	2377.13
969.666	2365.38
969.968	2347.52
970.269	2355.43
970.571	2328.99
970.872	2335.77
971.174	2318.82
971.475	2330.8
971.776	2303.91
972.077	2294.87
972.378	2266.17
972.679	2237.92
972.98	2299.16
973.281	2265.94
973.582	2256.23
973.883	2237.47
974.183	2251.71
974.484	2227.75
974.785	2192.05
975.085	2223.46
975.386	2209.45
975.686	2195.44
975.986	2206.06
976.287	2163.8
976.587	2150.01
976.887	2172.61
977.187	2128.55
977.487	2142.78
977.787	2141.43
978.087	2142.78
978.387	2108.66
978.687	2107.08
978.987	2117.02
979.286	2050.58
979.586	2055.78
979.885	2045.38
980.185	2066.17
980.484	2050.81
980.784	2023.69
981.083	2019.85
981.382	2028.21
981.682	1995.22
981.981	1996.57
982.28	1975.78
982.579	1990.24
982.878	1991.83
983.177	1962.22
983.475	1959.28
983.774	1977.82
984.073	1916.8
984.372	1946.18
984.67	1938.27
984.969	1936.91
985.267	1924.03
985.566	1933.07
985.864	1885.39
986.162	1906.18
986.461	1879.96
986.759	1894.88
987.057	1863.92
987.355	1856.69
987.653	1837.93
987.951	1851.72
988.249	1828.21
988.547	1842.45
988.844	1781.66
989.142	1820.08
989.44	1802.23
989.737	1805.62
990.035	1801.77
990.332	1780.31
990.63	1762.45
990.927	1779.4
991.224	1764.26
991.521	1759.29
991.819	1733.3
992.116	1718.16
992.413	1701.66
992.71	1710.48
993.006	1738.95
993.303	1712.96
993.6	1697.37
993.897	1687.88
994.193	1692.62
994.49	1657.37
994.787	1642.91
995.083	1629.8
995.379	1676.35
995.676	1656.02
995.972	1643.81
996.268	1643.81
996.565	1604.27
996.861	1597.94
997.157	1615.56
997.453	1592.06
997.749	1587.09
998.044	1585.06
998.34	1576.47
998.636	1584.61
998.932	1576.24
999.227	1546.87
999.523	1558.84
999.818	1514.1
1000.114	1511.39
1000.409	1537.15
1000.704	1533.53
1001	1503.93
1001.295	1479.98
1001.59	1470.26
1001.885	1497.38
1002.18	1482.01
1002.475	1472.52
1002.77	1463.03
1003.065	1447.89
1003.359	1446.98
1003.654	1426.19
1003.949	1397.94
1004.243	1437.26
1004.538	1406.76
1004.832	1421.67
1005.127	1432.97
1005.421	1399.53
1005.715	1404.05
1006.009	1393.42
1006.304	1363.82
1006.598	1379.19
1006.892	1370.83
1007.186	1359.53
1007.48	1338.51
1007.773	1336.7
1008.067	1353.2
1008.361	1315.01
1008.655	1333.54
1008.948	1309.81
1009.242	1305.29
1009.535	1298.29
1009.829	1298.29
1010.122	1281.56
1010.415	1282.01
1010.708	1296.03
1011.001	1281.79
1011.295	1239.08
1011.588	1244.95
1011.881	1238.85
1012.173	1244.28
1012.466	1223.26
1012.759	1234.78
1013.052	1204.05
1013.344	1214.45
1013.637	1199.76
1013.93	1213.54
1014.222	1189.36
1014.514	1196.37
1014.807	1188.23
1015.099	1196.82
1015.391	1143.03
1015.683	1133.32
1015.976	1162.47
1016.268	1141
1016.56	1119.31
1016.851	1136.71
1017.143	1117.27
1017.435	1129.7
1017.727	1109.14
1018.018	1129.93
1018.31	1107.33
1018.602	1099.42
1018.893	1077.05
1019.185	1111.4
1019.476	1062.59
1019.767	1090.38
1020.058	1074.56
1020.35	1081.57
1020.641	1061.46
1020.932	1082.25
1021.223	1055.35
1021.514	1026.65
1021.804	1008.35
1022.095	1023.49
1022.386	1028.24
1022.677	1014.9
1022.967	1021.46
1023.258	1001.12
1023.548	993.21
1023.839	978.07
1024.129	960.44
1024.419	985.75
1024.709	963.83
1025	959.31
1025.29	968.58
1025.58	951.85
1025.87	960.21
1026.16	939.42
1026.449	933.55
1026.739	923.38
1027.029	912.08
1027.319	898.97
1027.608	925.19
1027.898	924.28
1028.187	911.4
1028.477	891.52
1028.766	895.58
1029.055	901.91
1029.344	889.71
1029.634	867.79
1029.923	880.89
1030.212	876.83
1030.501	885.41
1030.79	860.78
1031.078	856.26
1031.367	857.17
1031.656	832.08
1031.945	830.5
1032.233	847.9
1032.522	835.92
1032.81	829.14
1033.099	813.78
1033.387	838.18
1033.675	812.42
1033.963	795.93
1034.251	818.07
1034.54	813.78
1034.828	763.61
1035.116	808.35
1035.403	792.31
1035.691	780.56
1035.979	776.72
1036.267	790.28
1036.554	781.24
1036.842	760.22
1037.129	789.37
1037.417	763.61
1037.704	783.95
1037.992	759.99
1038.279	725.87
1038.566	765.42
1038.853	765.42
1039.14	765.42
