Data from hue_30_FLMS001491_30.txt Node
Date: Mon Feb 06 15:04:57 GMT 2017
User: dcchb
Spectrometer: FLMS00149
Trigger mode: 0
Integration Time (sec): 2.000000E-2
Scans to average: 10
Electric dark correction enabled: true
Nonlinearity correction enabled: false
Boxcar width: 0
XAxis mode: Wavelengths
Number of Pixels in Spectrum: 2048
>>>>>Begin Spectral Data<<<<<
341.393	-14.79
341.776	-14.79
342.16	-14.79
342.543	-60.44
342.927	-64.5
343.31	-69.25
343.693	-56.82
344.077	-55.24
344.46	-64.73
344.843	-57.95
345.226	-48.01
345.61	-27.67
345.993	-25.63
346.376	-0.1
346.759	17.08
347.142	19.79
347.525	37.41
347.908	46.68
348.291	88.71
348.674	81.48
349.057	114.25
349.44	122.61
349.823	135.26
350.206	165.55
350.588	175.49
350.971	192.66
351.354	227.47
351.737	244.87
352.119	253.23
352.502	253.91
352.884	268.59
353.267	299.1
353.65	283.96
354.032	298.88
354.414	308.59
354.797	322.83
355.179	310.63
355.562	328.03
355.944	333.23
356.326	304.98
356.709	348.37
357.091	328.03
357.473	332.55
357.855	340.46
358.238	323.73
358.62	335.71
359.002	341.36
359.384	345.43
359.766	343.17
360.148	344.3
360.53	338.65
360.912	347.91
361.294	324.41
361.676	329.84
362.057	337.52
362.439	322.83
362.821	317.41
363.203	333.68
363.584	324.19
363.966	320.57
364.348	317.41
364.729	309.95
365.111	330.06
365.493	319.44
365.874	310.63
366.256	319.44
366.637	342.49
367.019	309.27
367.4	316.95
367.781	285.77
368.163	312.21
368.544	323.51
368.925	311.08
369.306	309.95
369.688	312.44
370.069	313.57
370.45	302.49
370.831	328.93
371.212	311.76
371.593	319.44
371.974	322.38
372.355	314.7
372.736	304.3
373.117	319.89
373.498	304.75
373.879	308.59
374.26	311.76
374.641	322.6
375.021	306.11
375.402	300.23
375.783	320.8
376.163	310.4
376.544	342.49
376.925	308.14
377.305	325.99
377.686	345.88
378.066	325.77
378.447	321.7
378.827	333.45
379.208	345.65
379.588	326.9
379.968	341.59
380.349	322.15
380.729	330.29
381.109	346.56
381.489	343.85
381.87	346.33
382.25	339.78
382.63	342.72
383.01	336.62
383.39	333
383.77	340.68
384.15	343.17
384.53	350.17
384.91	361.02
385.29	344.07
385.67	354.24
386.049	350.63
386.429	357.63
386.809	363.73
387.189	343.39
387.568	360.34
387.948	359.21
388.328	359.44
388.707	359.44
389.087	362.38
389.466	362.6
389.846	363.51
390.225	361.93
390.605	361.7
390.984	375.03
391.363	356.5
391.743	375.26
392.122	373.22
392.501	364.64
392.881	369.83
393.26	367.12
393.639	382.04
394.018	401.47
394.397	356.28
394.776	374.81
395.155	359.89
395.534	396.05
395.913	371.19
396.292	398.31
396.671	385.88
397.05	392.43
397.429	389.27
397.808	396.95
398.186	387.01
398.565	384.75
398.944	407.8
399.323	388.59
399.701	378.87
400.08	400.12
400.458	400.57
400.837	408.25
401.215	387.01
401.594	411.64
401.972	413.9
402.351	405.09
402.729	405.99
403.107	406.44
403.486	416.84
403.864	415.48
404.242	423.62
404.62	422.71
404.999	417.97
405.377	411.87
405.755	415.94
406.133	418.42
406.511	429.49
406.889	420.46
407.267	452.54
407.645	436.05
408.023	443.05
408.401	422.26
408.779	446.9
409.156	444.86
409.534	433.11
409.912	433.34
410.29	453.22
410.667	457.52
411.045	462.26
411.422	469.95
411.8	476.95
412.178	456.61
412.555	485.54
412.933	486.44
413.31	475.82
413.687	455.26
414.065	472.88
414.442	479.66
414.819	502.26
415.197	471.53
415.574	505.65
415.951	527.34
416.328	504.52
416.705	511.75
417.082	514.46
417.46	523.5
417.837	509.94
418.214	527.57
418.591	509.27
418.967	493.67
419.344	520.79
419.721	534.8
420.098	543.39
420.475	544.07
420.852	546.78
421.228	538.42
421.605	531.86
421.982	526.67
422.358	569.15
422.735	555.37
423.111	559.21
423.488	575.03
423.864	568.47
424.241	565.31
424.617	539.32
424.994	559.89
425.37	550.85
425.746	575.03
426.123	561.47
426.499	574.58
426.875	607.34
427.251	578.64
427.627	610.28
428.003	623.16
428.379	597.17
428.756	604.63
429.132	596.04
429.507	603.05
429.883	631.07
430.259	610.96
430.635	609.83
431.011	646.89
431.387	657.74
431.763	640.11
432.138	622.48
432.514	651.18
432.89	669.94
433.265	669.94
433.641	673.56
434.016	678.08
434.392	665.65
434.767	671.52
435.143	679.66
435.518	708.81
435.894	684.85
436.269	698.87
436.644	698.41
437.02	716.72
437.395	701.58
437.77	719.66
438.145	753.78
438.52	734.12
438.895	742.71
439.271	754.91
439.646	745.19
440.021	756.72
440.395	778.41
440.77	771.86
441.145	756.27
441.52	786.55
441.895	770.05
442.27	785.19
442.645	775.47
443.019	778.64
443.394	789.48
443.769	819.77
444.143	798.52
444.518	817.51
444.892	809.6
445.267	790.39
445.641	807.79
446.016	818.18
446.39	846.66
446.764	805.53
447.139	819.54
447.513	839.2
447.887	845.08
448.262	829.48
448.636	842.14
449.01	861.12
449.384	870.61
449.758	860.67
450.132	880.56
450.506	854.79
450.88	891.18
451.254	880.1
451.628	885.75
452.002	902.25
452.376	916.71
452.75	911.29
453.123	904.28
453.497	904.06
453.871	907.45
454.244	954.68
454.618	948.58
454.992	975.92
455.365	979.99
455.739	986.99
456.112	989.25
456.486	1019.76
456.859	1002.81
457.232	1033.09
457.606	1008.91
457.979	1015.24
458.352	1061.34
458.725	1055.92
459.099	1075.58
459.472	1093.88
459.845	1108.57
460.218	1101.79
460.591	1117.39
460.964	1100.89
461.337	1128.46
461.71	1144.5
462.083	1158.29
462.456	1143.83
462.829	1172.3
463.201	1181.79
463.574	1210.04
463.947	1193.77
464.32	1242.35
464.692	1220.89
465.065	1240.77
465.438	1266.99
465.81	1291.39
466.183	1295.23
466.555	1339.07
466.928	1340.2
467.3	1335.46
467.672	1345.63
468.045	1379.75
468.417	1379.53
468.789	1414.33
469.161	1408
469.534	1455.91
469.906	1471.73
470.278	1514.21
470.65	1510.14
471.022	1546.98
471.394	1568.9
471.766	1530.71
472.138	1597.15
472.51	1654.32
472.882	1667.88
473.253	1680.08
473.625	1692.96
473.997	1774.09
474.369	1767.09
474.74	1769.8
475.112	1827.42
475.484	1833.3
475.855	1888.21
476.227	1914.88
476.598	1976.35
476.97	1997.36
477.341	2047.3
477.713	2056.12
478.084	2099.05
478.455	2170.92
478.827	2175.44
479.198	2269.22
479.569	2273.97
479.94	2368.65
480.311	2396
480.682	2434.87
481.053	2528.65
481.424	2554.86
481.795	2599.15
482.166	2661.75
482.537	2722.99
482.908	2753.5
483.279	2788.3
483.65	2857.68
484.021	2940.61
484.391	3011.8
484.762	2968.41
485.133	3087.28
485.503	3121.85
485.874	3225.58
486.244	3292.7
486.615	3368.4
486.985	3406.14
487.356	3487.72
487.726	3482.07
488.097	3595.29
488.467	3602.52
488.837	3684.55
489.207	3794.38
489.578	3847.48
489.948	3908.05
490.318	3983.53
490.688	3970.64
491.058	4111.43
491.428	4162.28
491.798	4220.58
492.168	4323.18
492.538	4326.12
492.908	4446.56
493.278	4506.9
493.648	4544.87
494.017	4645.88
494.387	4674.58
494.757	4771.3
495.126	4786.22
495.496	4825.99
495.866	4894.24
496.235	4968.36
496.605	5006.1
496.974	5011.07
497.344	5095.81
497.713	5158.86
498.082	5196.15
498.452	5280.21
498.821	5279.31
499.19	5338.29
499.559	5482.69
499.928	5455.8
500.298	5496.25
500.667	5572.18
501.036	5556.59
501.405	5597.04
501.774	5634.33
502.143	5704.84
502.512	5697.6
502.88	5797.49
503.249	5785.06
503.618	5856.7
503.987	5914.1
504.356	5906.86
504.724	5984.83
505.093	6037.26
505.462	6056.92
505.83	6157.25
506.199	6133.98
506.567	6219.17
506.936	6238.38
507.304	6316.57
507.672	6287.87
508.041	6350.02
508.409	6448.09
508.777	6426.62
509.145	6474.53
509.514	6549.11
509.882	6604.02
510.25	6555.43
510.618	6612.61
510.986	6583.46
511.354	6730.57
511.722	6800.4
512.09	6817.12
512.458	6795.2
512.826	6901.87
513.193	6891.92
513.561	6938.7
513.929	7039.72
514.297	7045.82
514.664	7072.48
515.032	7072.71
515.4	7108.64
515.767	7130.79
516.135	7147.06
516.502	7176.44
516.869	7266.83
517.237	7234.06
517.604	7252.59
517.972	7362.42
518.339	7406.49
518.706	7339.37
519.073	7394.51
519.44	7454.62
519.808	7497.56
520.175	7472.47
520.542	7569.65
520.909	7614.16
521.276	7627.27
521.643	7664.33
522.009	7707.95
522.376	7784.56
522.743	7784.78
523.11	7829.07
523.477	7883.76
523.843	7912.69
524.21	8034.94
524.577	8038.79
524.943	8067.26
525.31	8154.71
525.676	8209.85
526.043	8224.32
526.409	8235.16
526.776	8295.05
527.142	8353.81
527.508	8357.2
527.874	8425.22
528.241	8458.89
528.607	8484.65
528.973	8586.12
529.339	8568.26
529.705	8716.96
530.071	8742.27
530.437	8756.51
530.803	8710.63
531.169	8859.56
531.535	8850.29
531.901	8892.1
532.267	8943.39
532.632	9041.25
532.998	9021.81
533.364	9045.31
533.73	9074.92
534.095	9135.93
534.461	9193.56
534.826	9183.39
535.192	9210.51
535.557	9349.03
535.923	9329.6
536.288	9373.67
536.653	9363.95
537.019	9420.9
537.384	9466.09
537.749	9521.68
538.114	9551.29
538.479	9590.16
538.845	9601.23
539.21	9660.21
539.575	9671.06
539.94	9657.5
540.305	9757.84
540.67	9778.18
541.034	9924.39
541.399	9892.97
541.764	9902.47
542.129	10000.54
542.494	9995.8
542.858	10059.98
543.223	10101.1
543.587	10120.09
543.952	10125.28
544.316	10197.83
544.681	10199.18
545.045	10289.57
545.41	10332.28
545.774	10368.22
546.138	10373.41
546.503	10405.96
546.867	10418.84
547.231	10569.79
547.595	10568.89
547.959	10596.68
548.324	10654.31
548.688	10680.98
549.052	10713.74
549.416	10674.2
549.779	10799.39
550.143	10774.31
550.507	10854.76
550.871	10843.01
551.235	10921.2
551.599	10938.14
551.962	11025.6
552.326	10970.23
552.689	11062.44
553.053	10930.24
553.417	11082.1
553.78	11190.34
554.143	11139.5
554.507	11186.27
554.87	11201.19
555.234	11388.08
555.597	11273.73
555.96	11341.98
556.323	11396.44
556.686	11359.38
557.05	11434.85
557.413	11489.54
557.776	11584.46
558.139	11548.75
558.502	11642.53
558.865	11645.7
559.228	11734.51
559.59	11779.93
559.953	11768.41
560.316	11926.82
560.679	11846.6
561.041	11942.86
561.404	12000.49
561.767	12071.22
562.129	12060.83
562.492	12139.69
562.854	12109.64
563.217	12069.41
563.579	12190.77
563.941	12212.46
564.304	12296.98
564.666	12322.29
565.028	12355.73
565.39	12413.81
565.753	12415.62
566.115	12512.34
566.477	12539.23
566.839	12602.51
567.201	12636.18
567.563	12645.22
567.925	12775.61
568.287	12811.77
568.648	12804.08
569.01	12901.48
569.372	12879.79
569.734	12859.9
570.095	13029.84
570.457	13092.21
570.819	13138.76
571.18	13142.83
571.542	13258.08
571.903	13272.32
572.265	13361.81
572.626	13392.32
572.987	13518.42
573.349	13603.16
573.71	13549.83
574.071	13776.26
574.432	13749.14
574.794	13812.42
575.155	13902.13
575.516	13961.57
575.877	14090.15
576.238	14169.92
576.599	14309.13
576.96	14337.15
577.32	14432.06
577.681	14610.14
578.042	14717.93
578.403	14750.47
578.763	14835.44
579.124	15019.39
579.485	15140.97
579.845	15307.52
580.206	15422.77
580.566	15516.1
580.927	15798.81
581.287	15942.31
581.648	16037.45
582.008	16192.02
582.368	16406.48
582.728	16623.42
583.089	16785
583.449	16975.5
583.809	17198.54
584.169	17327.81
584.529	17591.98
584.889	17904.06
585.249	18048.47
585.609	18094.57
585.969	18507.89
586.329	18590.15
586.688	18940.87
587.048	19135.9
587.408	19249.34
587.768	19677.58
588.127	19868.76
588.487	20035.31
588.846	20518.91
589.206	20698.57
589.565	20868.96
589.925	21336.97
590.284	21454.93
590.643	21800.01
591.003	22221.01
591.362	22508.91
591.721	22749.59
592.08	22979.41
592.44	23393.86
592.799	23567.87
593.158	23865.94
593.517	24127.85
593.876	24365.14
594.235	24686.71
594.593	25068.62
594.952	25284.21
595.311	25495.73
595.67	25935.72
596.029	26335.48
596.387	26649.82
596.746	26912.64
597.104	26962.58
597.463	27316.25
597.822	27673.52
598.18	27775.44
598.538	28172.95
598.897	28495.65
599.255	28551.24
599.613	29237.78
599.972	29277.1
600.33	29683.87
600.688	29726.13
601.046	30229.61
601.404	30647.91
601.762	30732.43
602.12	31172.19
602.478	31392.97
602.836	31720.65
603.194	31691.95
603.552	31953.86
603.91	32106.4
604.268	32546.39
604.625	32602.89
604.983	33033.61
605.341	33075.64
605.698	33520.83
606.056	33712.01
606.413	33896.86
606.771	34252.33
607.128	34434.25
607.485	34466.57
607.843	34696.62
608.2	35042.82
608.557	35328.24
608.914	35439.42
609.272	35716.25
609.629	35860.2
609.986	36308.55
610.343	36246.63
610.7	36637.58
611.057	36648.2
611.414	36842.55
611.771	37009.1
612.127	37205.7
612.484	37439.59
612.841	37605.69
613.198	37564.79
613.554	37866.25
613.911	38257.2
614.267	38331.77
614.624	38241.61
614.98	38527.93
615.337	38778.99
615.693	38712.33
616.05	38962.94
616.406	39308.7
616.762	39107.57
617.118	39343.27
617.475	39512.76
617.831	39735.58
618.187	39721.34
618.543	40023.03
618.899	40346.86
619.255	40293.53
619.611	40510.25
619.967	40475.67
620.323	40785.5
620.678	40656.69
621.034	40651.49
621.39	40784.59
621.746	40798.83
622.101	41290.34
622.457	40923.12
622.812	41343.22
623.168	41368.3
623.523	41291.02
623.879	41523.78
624.234	41334.18
624.589	41498.92
624.945	41631.35
625.3	41624.12
625.655	41827.05
626.01	41743.89
626.365	41877.9
626.72	41881.29
627.075	41989.98
627.43	41996.76
627.785	41958.35
628.14	42083.31
628.495	42157.21
628.85	42168.96
629.205	42198.79
629.559	42275.4
629.914	42270.43
630.269	42279.02
630.623	42322.4
630.978	42185.91
631.332	42525.11
631.687	42552.45
632.041	42366.7
632.396	42455.06
632.75	42341.61
633.104	42424.1
633.459	42317.21
633.813	42469.97
634.167	42434.04
634.521	42415.28
634.875	42552
635.229	42428.84
635.583	42242.86
635.937	42246.93
636.291	42227.27
636.645	42315.85
636.999	42249.64
637.352	42451.21
637.706	42126.25
638.06	42326.02
638.413	42276.08
638.767	42074.05
639.121	42295.29
639.474	42059.59
639.828	42202.41
640.181	42277.89
640.534	42187.27
640.888	42048.29
641.241	42020.27
641.594	42122.41
641.947	42145.46
642.301	42047.38
642.654	42126.7
643.007	42058
643.36	41992.02
643.713	41976.42
644.066	42153.14
644.419	41912.02
644.771	41678.58
645.124	41292.37
645.477	41171.25
645.83	41021.42
646.182	40824.14
646.535	40793.4
646.888	40974.42
647.24	40589.79
647.593	40997.47
647.945	40769.9
648.298	40600.87
648.65	40525.62
649.002	40517.93
649.355	40599.06
649.707	40660.3
650.059	40774.2
650.411	41289.21
650.763	41248.99
651.115	41646.26
651.467	41446.49
651.819	41588.41
652.171	41445.82
652.523	41373.5
652.875	41422.99
653.227	41330.57
653.578	41463.9
653.93	41246.05
654.282	41145.71
654.633	41084.7
654.985	41285.6
655.337	41224.13
655.688	41120.18
656.039	41433.39
656.391	41022.78
656.742	40978.71
657.094	41113.17
657.445	41232.94
657.796	41091.93
658.147	41031.36
658.498	41098.48
658.849	41196.11
659.2	41069.33
659.551	41053.06
659.902	41126.05
660.253	40969.22
660.604	41065.26
660.955	40881.76
661.306	41165.15
661.656	40881.09
662.007	41041.31
662.358	40950.01
662.708	41024.36
663.059	40892.84
663.409	40605.84
663.76	40991.14
664.11	40796.12
664.461	41045.38
664.811	40967.86
665.161	40887.19
665.511	40766.74
665.862	40901.2
666.212	40969.67
666.562	40975.55
666.912	40758.83
667.262	40813.29
667.612	40834.31
667.962	40943.46
668.312	40747.98
668.662	41083.57
669.011	40798.38
669.361	40790.69
669.711	40729.9
670.06	40719.96
670.41	40653.52
670.76	40664.59
671.109	40793.86
671.459	40576.46
671.808	40571.26
672.157	40700.3
672.507	40577.82
672.856	40539.85
673.205	40507.31
673.554	40573.3
673.904	40451.72
674.253	40631.83
674.602	40457.37
674.951	39951.17
675.3	39672.98
675.649	40329.24
675.998	40296.69
676.346	40481.1
676.695	40437.93
677.044	40159.75
677.393	40277.71
677.741	40342.8
678.09	40202.23
678.438	40148
678.787	40216.24
679.135	40217.6
679.484	40016.93
679.832	40191.61
680.181	39927.66
680.529	40044.5
680.877	39879.76
681.225	39904.16
681.573	40227.77
681.922	39858.29
682.27	39622.81
682.618	39715.47
682.966	39649.93
683.314	39666.2
683.661	39535.58
684.009	39339.66
684.357	39396.38
684.705	39364.97
685.053	39236.61
685.4	39340.34
685.748	39139.89
686.095	38999.78
686.443	38909.84
686.79	38885.88
687.138	39053.56
687.485	38855.38
687.832	38797.53
688.18	38887.69
688.527	38699.67
688.874	38521.15
689.221	38492.9
689.568	38310.31
689.915	38373.58
690.262	38327.48
690.609	38209.29
690.956	38051.56
691.303	37908.28
691.65	37845.23
691.997	37792.13
692.344	37571.79
692.69	37630.32
693.037	37584.22
693.383	37328.41
693.73	37407.05
694.077	37223.78
694.423	37345.59
694.769	37087.51
695.116	36963
695.462	36995.54
695.808	36898.14
696.155	37030.34
696.501	36666.06
696.847	36676
697.193	36351.94
697.539	36514.2
697.885	36222
698.231	36182.45
698.577	36253.41
698.923	35970.48
699.269	35942.46
699.614	35878.51
699.96	35821.33
700.306	35702.01
700.651	35617.72
700.997	35510.38
701.342	35399.42
701.688	35344.96
702.033	35174.34
702.379	35254.79
702.724	35084.4
703.069	35203.95
703.415	34849.38
703.76	34878.76
704.105	34783.39
704.45	34674.7
704.795	34510.86
705.14	34514.93
705.485	34454.59
705.83	34248.72
706.175	34224.31
706.52	34209.62
706.865	34051.66
707.209	34022.06
707.554	33894.38
707.899	33920.59
708.243	33895.73
708.588	33852.8
708.932	33585.01
709.277	33512.69
709.621	33691.22
709.966	33311.34
710.31	33434.05
710.654	33167.84
710.998	33266.15
711.342	33266.15
711.687	33128.52
712.031	32924.23
712.375	32882.43
712.719	32742.77
713.063	32653.73
713.407	32973.72
713.75	32709.32
714.094	32730.11
714.438	32490.57
714.782	32591.13
715.125	32413.06
715.469	32534.41
715.812	32179.85
716.156	31994.77
716.499	32169.9
716.843	32045.16
717.186	31906.86
717.53	32084.48
717.873	32074.31
718.216	32020.08
718.559	31799.07
718.902	31667.32
719.246	31740.31
719.589	31660.99
719.932	31494.89
720.275	31543.03
720.617	31488.34
720.96	31380.54
721.303	31353.88
721.646	31334.44
721.989	31164.51
722.331	31226.2
722.674	31092.87
723.016	31202.02
723.359	31057.39
723.701	31085.64
724.044	30786.89
724.386	30741.47
724.729	31008.35
725.071	30934
725.413	30751.63
725.755	30782.82
726.097	30520.23
726.439	30464.64
726.782	30563.84
727.124	30628.7
727.465	30450.17
727.807	30400.46
728.149	30390.29
728.491	30308.93
728.833	30411.76
729.175	30278.88
729.516	30157.53
729.858	30115.72
730.199	30148.26
730.541	30009.73
730.882	30037.53
731.224	30180.58
731.565	29779.91
731.906	30012.45
732.248	29911.66
732.589	29779.46
732.93	29746.46
733.271	29729.97
733.612	29746.01
733.953	29733.13
734.294	29576.07
734.635	29473.7
734.976	29648.16
735.317	29415.62
735.658	29398.9
735.999	29437.77
736.339	29269.87
736.68	29421.05
737.021	29279.81
737.361	29139.7
737.702	29366.13
738.042	29120.27
738.383	29051.11
738.723	29181.51
739.063	29052.24
739.404	29115.97
739.744	28974.28
740.084	28936.32
740.424	28933.83
740.764	28759.6
741.104	28944
741.444	28742.2
741.784	28593.05
742.124	28742.2
742.464	28609.54
742.804	28458.59
743.143	28590.79
743.483	28549.66
743.823	28251.36
744.162	28411.13
744.502	28371.13
744.841	28305.37
745.181	28291.59
745.52	28229.44
745.86	28211.81
746.199	28216.56
746.538	28144.7
746.877	28231.93
747.216	28105.38
747.556	28094.53
747.895	28236.67
748.234	27964.59
748.573	28003.01
748.911	27831.71
749.25	28009.11
749.589	27869
749.928	27850.47
750.267	27801.66
750.605	27760.75
750.944	27652.96
751.283	27626.75
751.621	27815.67
751.96	27542.91
752.298	27583.81
752.636	27511.95
752.975	27354.21
753.313	27272.63
753.651	27353.98
753.989	27200.09
754.327	27158.96
754.666	27028.12
755.004	27070.6
755.342	27230.82
755.679	26981.34
756.017	26914.9
756.355	27025.86
756.693	26751.74
757.031	26861.12
757.368	26694.34
757.706	26733.89
758.044	26577.73
758.381	26567.11
758.719	26598.3
759.056	26539.32
759.394	26446.21
759.731	26357.85
760.068	26287.35
760.405	26177.29
760.743	26053.45
761.08	26113.56
761.417	26051.42
761.754	25963.96
762.091	25940.69
762.428	25916.06
762.765	25720.13
763.102	25711.77
763.438	25577.53
763.775	25457.31
764.112	25497.76
764.449	25487.82
764.785	25337.54
765.122	25234.49
765.458	25156.98
765.795	25139.13
766.131	25031.33
766.467	25012.35
766.804	24819.59
767.14	24766.93
767.476	24746.82
767.812	24570.33
768.148	24628.86
768.485	24477.9
768.821	24334.18
769.157	24468.64
769.492	24388.86
769.828	24131.24
770.164	24035.88
770.5	23980.29
770.836	24008.08
771.171	23705.49
771.507	23861.87
771.842	23606.51
772.178	23624.82
772.513	23472.73
772.849	23525.84
773.184	23307.99
773.519	23333.52
773.855	23299.4
774.19	23162
774.525	23085.62
774.86	23072.29
775.195	23108.9
775.53	22966.98
775.865	22772.41
776.2	22673.66
776.535	22558.4
776.87	22473.21
777.205	22351.18
777.539	22376.26
777.874	22315.92
778.209	22092.88
778.543	22132.88
778.878	21953.9
779.212	22029.15
779.547	21900.34
779.881	21884.3
780.215	21710.97
780.55	21762.72
780.884	21537.64
781.218	21448.15
781.552	21557.98
781.886	21439.79
782.22	21202.96
782.554	21222.39
782.888	20970.65
783.222	20974.26
783.556	20837.09
783.889	20814.95
784.223	20625.12
784.557	20638.45
784.89	20659.02
785.224	20601.62
785.557	20393.04
785.891	20367.73
786.224	20320.5
786.558	20311.01
786.891	20087.06
787.224	20075.53
787.557	20057
787.891	19950.56
788.224	19897.01
788.557	19932.03
788.89	19831.47
789.223	19783.34
789.556	19645.94
789.888	19567.75
790.221	19580.63
790.554	19344.25
790.887	19412.72
791.219	19325.95
791.552	19139.74
791.884	19112.17
792.217	19049.12
792.549	19128.21
792.882	18937.93
793.214	18868.11
793.546	18862
793.879	18728.45
794.211	18645.51
794.543	18662.69
794.875	18650.94
795.207	18639.19
795.539	18509.92
795.871	18537.27
796.203	18342.47
796.535	18290.04
796.867	18284.84
797.198	18176.15
797.53	18193.32
797.862	18045.53
798.193	18055.7
798.525	17900.9
798.856	17971.86
799.188	17773.22
799.519	17819.55
799.85	17609.38
800.182	17620.23
800.513	17642.38
800.844	17438.31
801.175	17523.51
801.506	17491.87
801.837	17311.31
802.168	17299.33
802.499	17314.93
802.83	17214.14
803.161	17152.9
803.491	17121.26
803.822	17116.29
804.153	17087.81
804.483	16875.62
804.814	16860.7
805.145	16850.53
805.475	16887.59
805.805	16738.22
806.136	16754.04
806.466	16729.63
806.796	16684.43
807.126	16564.21
807.457	16402.63
807.787	16487.83
808.117	16406.7
808.447	16325.57
808.777	16379.36
809.107	16370.77
809.436	16252.81
809.766	16280.15
810.096	16126.26
810.426	16161.06
810.755	16088.07
811.085	16160.38
811.414	16055.3
811.744	15885.13
812.073	15857.11
812.403	15905.25
812.732	15760.39
813.061	15844.23
813.39	15670.9
813.719	15674.52
814.049	15754.29
814.378	15625.93
814.707	15550.68
815.036	15531.92
815.365	15425.03
815.693	15324.24
816.022	15355.66
816.351	15354.07
816.68	15253.96
817.008	15269.1
817.337	15178.94
817.665	15095.32
817.994	15111.59
818.322	15130.35
818.651	14994.99
818.979	15022.11
819.307	15049.67
819.636	14905.95
819.964	14895.55
820.292	14853.75
820.62	14941.43
820.948	14778.95
821.276	14969.68
821.604	14833.86
821.932	14827.31
822.259	14869.34
822.587	14785.5
822.915	14764.94
823.243	14869.79
823.57	14688.55
823.898	14874.09
824.225	14729.01
824.553	14770.13
824.88	14752.73
825.207	14803.58
825.535	14757.93
825.862	14762.68
826.189	14725.16
826.516	14792.28
826.843	14887.42
827.17	14693.98
827.497	14836.12
827.824	14730.36
828.151	14788.89
828.478	14785.5
828.805	14731.04
829.131	14697.59
829.458	14778.95
829.785	14667.31
830.111	14720.64
830.438	14811.49
830.764	14708.21
831.09	14701.89
831.417	14616.47
831.743	14726.75
832.069	14645.39
832.395	14600.87
832.722	14649.69
833.048	14642.91
833.374	14622.79
833.7	14487.43
834.026	14573.76
834.351	14555.68
834.677	14556.58
835.003	14525.62
835.329	14487.43
835.654	14461.22
835.98	14491.27
836.306	14512.74
836.631	14438.84
836.956	14464.38
837.282	14499.63
837.607	14373.99
837.932	14331.73
838.258	14366.53
838.583	14371.5
838.908	14300.77
839.233	14260.09
839.558	14297.38
839.883	14149.59
840.208	14107.1
840.533	14186.65
840.858	14062.58
841.182	14211.73
841.507	14130.15
841.832	14049.48
842.156	14063.71
842.481	14006.09
842.805	14021
843.13	13851.51
843.454	13924.28
843.778	13866.66
844.103	13811.06
844.427	13794.57
844.751	13763.61
845.075	13769.03
845.399	13708.02
845.723	13604.97
846.047	13653.33
846.371	13570.17
846.695	13503.5
847.019	13460.79
847.343	13390.74
847.666	13334.92
847.99	13220.34
848.313	13280
848.637	13150.52
848.96	13075.49
849.284	13038.65
849.607	12974.93
849.931	13026.68
850.254	12938.32
850.577	12852.22
850.9	12710.08
851.223	12766.12
851.546	12694.03
851.869	12578.78
852.192	12679.57
852.515	12600.25
852.838	12469.4
853.161	12534.94
853.483	12463.98
853.806	12256.75
854.129	12372.23
854.451	12307.6
854.774	12250.2
855.096	12136.76
855.419	12188.28
855.741	12183.76
856.063	12034.39
856.385	11998.46
856.708	11971.11
857.03	11953.71
857.352	11917.1
857.674	11825.13
857.996	11858.12
858.318	11807.27
858.64	11830.78
858.961	11753.72
859.283	11676.88
859.605	11699.48
859.926	11704.68
860.248	11621.06
860.57	11601.4
860.891	11594.17
861.212	11549.65
861.534	11434.4
861.855	11432.37
862.176	11528.86
862.498	11471.46
862.819	11477.34
863.14	11353.27
863.461	11330
863.782	11322.54
864.103	11374.97
864.424	11240.06
864.745	11364.8
865.065	11285.93
865.386	11216.1
865.707	11206.84
866.027	11268.98
866.348	11103.34
866.668	11163.45
866.989	11166.61
867.309	11048.2
867.63	11074.64
867.95	11035.54
868.27	11013.62
868.59	10991.25
868.91	11001.42
869.23	11002.32
869.55	10909.22
869.87	10965.94
870.19	10878.71
870.51	10964.81
870.83	10907.64
871.15	10832.38
871.469	10876.68
871.789	10835.32
872.109	10823.35
872.428	10794.87
872.748	10883.68
873.067	10841.2
873.386	10792.39
873.706	10734.76
874.025	10731.37
874.344	10700.41
874.663	10713.74
874.982	10731.14
875.301	10632.84
875.62	10626.51
875.939	10604.82
876.258	10579.74
876.577	10560.53
876.896	10575.89
877.214	10500.42
877.533	10531.38
877.852	10519.62
878.17	10544.71
878.489	10500.19
878.807	10466.29
879.125	10354.66
879.444	10436.01
879.762	10397.14
880.08	10379.74
880.398	10375.22
880.716	10346.3
881.034	10371.38
881.352	10349.01
881.67	10290.25
881.988	10271.72
882.306	10217.03
882.624	10174.32
882.941	10228.33
883.259	10138.39
883.577	10055.91
883.894	10090.71
884.212	10087.32
884.529	10066.53
884.846	10047.09
885.164	10053.2
885.481	9965.06
885.798	9999.41
886.115	9906.99
886.432	9949.24
886.75	9865.18
887.067	9953.99
887.383	9882.13
887.7	9894.78
888.017	9773.66
888.334	9817.27
888.651	9763.03
888.967	9732.53
889.284	9697.5
889.6	9679.19
889.917	9511.29
890.233	9659.53
890.55	9560.1
890.866	9656.6
891.182	9512.65
891.498	9491.18
891.815	9590.61
892.131	9482.14
892.447	9487.11
892.763	9388.58
893.079	9361.01
893.395	9434
893.71	9333.67
894.026	9339.54
894.342	9337.51
894.657	9206.89
894.973	9260
895.289	9229.04
895.604	9210.96
895.92	9096.39
896.235	9115.82
896.55	9083.96
896.865	9073.11
897.181	8987.91
897.496	8966.9
897.811	8928.03
898.126	8922.83
898.441	8881.02
898.756	8874.47
899.071	8812.32
899.386	8796.28
899.7	8759.22
900.015	8743.4
900.33	8639.22
900.644	8638.32
900.959	8671.31
901.273	8612.56
901.588	8595.83
901.902	8561.26
902.216	8489.85
902.531	8544.54
902.845	8471.32
903.159	8385.67
903.473	8382.73
903.787	8374.37
904.101	8326.69
904.415	8299.12
904.729	8285.11
905.042	8229.06
905.356	8211.44
905.67	8279.46
905.984	8193.13
906.297	8186.8
906.611	8083.53
906.924	8085.11
907.237	8045.34
907.551	8003.76
907.864	7931.44
908.177	7944.33
908.491	7938.9
908.804	7863.2
909.117	7837.44
909.43	7771.45
909.743	7745.01
910.056	7797.66
910.368	7682.64
910.681	7659.81
910.994	7648.97
911.307	7600.83
911.619	7521.96
911.932	7527.16
912.244	7474.73
912.557	7529.19
912.869	7413.49
913.181	7439.71
913.494	7436.54
913.806	7354.06
914.118	7287.17
914.43	7297.34
914.742	7218.02
915.054	7188.41
915.366	7184.8
915.678	7207.62
915.99	7164.46
916.302	7104.8
916.613	7118.36
916.925	7102.31
917.236	7023.9
917.548	6961.07
917.859	6966.72
918.171	6938.25
918.482	6982.54
918.794	6918.59
919.105	6836.56
919.416	6813.06
919.727	6780.74
920.038	6793.85
920.349	6728.54
920.66	6680.86
920.971	6652.38
921.282	6654.87
921.593	6622.33
921.903	6632.95
922.214	6567.64
922.525	6605.15
922.835	6523.35
923.146	6515.66
923.456	6511.37
923.767	6493.74
924.077	6434.76
924.387	6395.89
924.697	6425.27
925.008	6335.55
925.318	6252.84
925.628	6323.35
925.938	6240.87
926.248	6235.9
926.558	6207.87
926.867	6160.19
927.177	6173.52
927.487	6130.14
927.796	6006.3
928.106	6084.03
928.416	6054.43
928.725	6009.01
929.034	5971.95
929.344	5987.31
929.653	5953.19
929.962	5906.41
930.271	5873.64
930.581	5864.61
930.89	5785.29
931.199	5811.27
931.508	5776.47
931.817	5764.72
932.125	5782.8
932.434	5768.34
932.743	5637.27
933.051	5663.48
933.36	5613.76
933.669	5611.96
933.977	5599.98
934.286	5582.81
934.594	5582.58
934.902	5475.24
935.21	5504.39
935.519	5475.24
935.827	5482.47
936.135	5415.35
936.443	5417.16
936.751	5347.78
937.059	5391.85
937.367	5351.85
937.674	5328.35
937.982	5335.13
938.29	5265.98
938.597	5273.43
938.905	5155.25
939.213	5199.54
939.52	5155.25
939.827	5164.74
940.135	5159.31
940.442	5105.98
940.749	5082.25
941.056	5106.66
941.363	5050.39
941.67	5021.46
941.977	4985.98
942.284	4923.61
942.591	5007.45
942.898	4926.55
943.205	4964.74
943.511	4890.85
943.818	4868.25
944.125	4807.91
944.431	4790.96
944.738	4804.75
945.044	4804.97
945.35	4760.91
945.657	4775.59
945.963	4697.86
946.269	4712.55
946.575	4649.5
946.881	4682.04
947.187	4636.39
947.493	4620.34
947.799	4605.43
948.105	4569.95
948.41	4583.28
948.716	4556.39
949.022	4516.39
949.327	4474.59
949.633	4469.39
949.938	4481.82
950.244	4418.54
950.549	4426.23
950.854	4391.42
951.16	4369.73
951.465	4370.41
951.77	4401.14
952.075	4352.33
952.38	4349.62
952.685	4320.92
952.99	4271.65
953.294	4261.26
953.599	4237.76
953.904	4231.2
954.209	4200.02
954.513	4166.12
954.818	4167.7
955.122	4157.76
955.426	4132.67
955.731	4154.37
956.035	4044.09
956.339	4052.68
956.643	4094.26
956.948	4057.42
957.252	4002.06
957.556	3987.37
957.86	3979.23
958.163	3993.92
958.467	3974.03
958.771	3962.73
959.075	3922.28
959.378	3933.81
959.682	3918.44
959.985	3879.57
960.289	3871.66
960.592	3870.08
960.896	3820.37
961.199	3823.53
961.502	3836.18
961.805	3725.9
962.108	3762.29
962.411	3745.34
962.714	3751.21
963.017	3690.88
963.32	3692.23
963.623	3664.89
963.926	3647.49
964.228	3607.49
964.531	3659.24
964.833	3623.53
965.136	3593.48
965.438	3598.45
965.741	3581.28
966.043	3539.92
966.345	3561.62
966.648	3571.78
966.95	3471.45
967.252	3488.85
967.554	3468.06
967.856	3434.39
968.158	3453.6
968.46	3422.41
968.761	3414.05
969.063	3404.78
969.365	3357.78
969.666	3382.64
969.968	3296.99
970.269	3318.01
970.571	3329.31
970.872	3321.4
971.174	3311.9
971.475	3305.8
971.776	3268.29
972.077	3258.57
972.378	3263.09
972.679	3216.54
972.98	3171.34
973.281	3209.99
973.582	3157.33
973.883	3209.08
974.183	3132.47
974.484	3141.74
974.785	3077.56
975.085	3071.68
975.386	3141.29
975.686	3077.11
975.986	3078.46
976.287	3064.23
976.587	3028.97
976.887	2998.47
977.187	3026.04
977.487	3012.48
977.787	3009.09
978.087	2968.64
978.387	2977.45
978.687	2917.56
978.987	2942.65
979.286	2897
979.586	2912.14
979.885	2868.53
980.185	2889.09
980.484	2832.82
980.784	2877.57
981.083	2845.93
981.382	2837.11
981.682	2802.54
981.981	2828.08
982.28	2820.84
982.579	2828.08
982.878	2789.43
983.177	2792.14
983.475	2775.65
983.774	2760.51
984.073	2746.95
984.372	2673.73
984.67	2697.46
984.969	2709.89
985.267	2675.54
985.566	2657.01
985.864	2652.71
986.162	2651.36
986.461	2624.69
986.759	2661.98
987.057	2600.96
987.355	2612.94
987.653	2583.79
987.951	2568.42
988.249	2563.68
988.547	2571.58
988.844	2554.64
989.142	2512.38
989.44	2534.52
989.737	2492.49
990.035	2494.07
990.332	2478.71
990.63	2444.36
990.927	2426.05
991.224	2455.43
991.521	2450.68
991.819	2413.62
992.116	2403
992.413	2415.2
992.71	2386.73
993.006	2381.31
993.303	2353.74
993.6	2356.45
993.897	2338.6
994.193	2312.38
994.49	2316.45
994.787	2341.76
995.083	2297.02
995.379	2308.54
995.676	2249.79
995.972	2268.99
996.268	2265.6
996.565	2241.2
996.861	2205.49
997.157	2227.19
997.453	2204.59
997.749	2193.74
998.044	2159.17
998.34	2180.18
998.636	2185.38
998.932	2157.58
999.227	2158.04
999.523	2126.17
999.818	2104.03
1000.114	2109
1000.409	2106.06
1000.704	2092.5
1001	2060.41
1001.295	2041.2
1001.59	2017.7
1001.885	2045.95
1002.18	2014.31
1002.475	2031.26
1002.77	2033.97
1003.065	1997.36
1003.359	1974.99
1003.654	2006.85
1003.949	1966.63
1004.243	1929.57
1004.538	1927.99
1004.832	1949.91
1005.127	1957.82
1005.421	1933.86
1005.715	1884.82
1006.009	1902.45
1006.304	1885.5
1006.598	1850.7
1006.892	1859.29
1007.186	1853.41
1007.48	1858.84
1007.773	1835.79
1008.067	1830.36
1008.361	1815.67
1008.655	1791.04
1008.948	1797.14
1009.242	1805.96
1009.535	1796.46
1009.829	1742.68
1010.122	1759.18
1010.415	1742.91
1010.708	1700.65
1011.001	1713.3
1011.295	1697.26
1011.588	1719.63
1011.881	1689.12
1012.173	1673.3
1012.466	1686.64
1012.759	1696.81
1013.052	1643.25
1013.344	1643.25
1013.637	1649.8
1013.93	1645.73
1014.222	1639.41
1014.514	1655.22
1014.807	1599.41
1015.099	1589.69
1015.391	1579.97
1015.683	1576.36
1015.976	1563.02
1016.268	1541.1
1016.56	1527.09
1016.851	1517.6
1017.143	1552.18
1017.435	1506.3
1017.727	1539.07
1018.018	1513.31
1018.31	1474.66
1018.602	1479.41
1018.893	1487.09
1019.185	1425.63
1019.476	1457.49
1019.767	1435.12
1020.058	1429.24
1020.35	1433.54
1020.641	1422.24
1020.932	1376.36
1021.223	1388.34
1021.514	1380.88
1021.804	1353.99
1022.095	1361.45
1022.386	1353.76
1022.677	1340.66
1022.967	1338.4
1023.258	1336.82
1023.548	1327.32
1023.839	1313.99
1024.129	1306.99
1024.419	1305.86
1024.709	1276.03
1025	1262.92
1025.29	1264.27
1025.58	1271.73
1025.87	1244.16
1026.16	1266.53
1026.449	1245.74
1026.739	1246.2
1027.029	1259.08
1027.319	1224.05
1027.608	1222.24
1027.898	1172.3
1028.187	1195.8
1028.477	1179.98
1028.766	1178.4
1029.055	1167.33
1029.344	1165.75
1029.634	1166.42
1029.923	1137.05
1030.212	1138.18
1030.501	1161.68
1030.79	1117.16
1031.078	1136.37
1031.367	1101.79
1031.656	1092.53
1031.945	1101.79
1032.233	1063.38
1032.522	1086.2
1032.81	1076.48
1033.099	1087.33
1033.387	1072.42
1033.675	1071.29
1033.963	1064.05
1034.251	1060.44
1034.54	1002.36
1034.828	1039.42
1035.116	1027.22
1035.403	1023.38
1035.691	1009.59
1035.979	999.2
1036.267	996.71
1036.554	1000.33
1036.842	982.02
1037.129	1001.23
1037.417	952.42
1037.704	960.78
1037.992	953.55
1038.279	968.46
1038.566	942.93
1038.853	942.93
1039.14	942.93
