Data from hue_140_FLMS001491_00048.txt Node
Date: Tue Feb 07 16:55:59 GMT 2017
User: dcchb
Spectrometer: FLMS00149
Trigger mode: 0
Integration Time (sec): 2.000000E-2
Scans to average: 10
Electric dark correction enabled: true
Nonlinearity correction enabled: false
Boxcar width: 0
XAxis mode: Wavelengths
Number of Pixels in Spectrum: 2048
>>>>>Begin Spectral Data<<<<<
341.393	-16.17
341.776	-16.17
342.16	-16.17
342.543	-64.76
342.927	-85.55
343.31	-60.69
343.693	-70.41
344.077	-96.62
344.46	-66.11
344.843	-45.32
345.226	-21.82
345.61	-44.87
345.993	-22.95
346.376	-11.88
346.759	16.14
347.142	46.88
347.525	58.63
347.908	68.35
348.291	64.05
348.674	96.37
349.057	90.27
349.44	101.34
349.823	131.17
350.206	150.38
350.588	196.7
350.971	207.78
351.354	220.21
351.737	237.61
352.119	254.33
352.502	261.56
352.884	270.83
353.267	274.22
353.65	295.91
354.032	297.94
354.414	305.4
354.797	311.96
355.179	337.72
355.562	329.36
355.944	343.59
356.326	326.19
356.709	314.67
357.091	329.36
357.473	351.05
357.855	321.67
358.238	334.55
358.62	327.32
359.002	333.2
359.384	328.9
359.766	357.38
360.148	338.85
360.53	339.98
360.912	335.68
361.294	325.29
361.676	336.36
362.057	334.55
362.439	336.81
362.821	330.49
363.203	327.1
363.584	340.43
363.966	324.16
364.348	312.86
364.729	295.01
365.111	306.31
365.493	343.37
365.874	310.15
366.256	310.83
366.637	302.69
367.019	322.58
367.4	336.14
367.781	313.54
368.163	309.47
368.544	319.86
368.925	314.44
369.306	306.08
369.688	308.79
370.069	311.05
370.45	293.65
370.831	318.06
371.212	291.16
371.593	302.24
371.974	295.68
372.355	308.34
372.736	321.22
373.117	323.03
373.498	309.92
373.879	324.38
374.26	304.5
374.641	304.72
375.021	302.01
375.402	318.51
375.783	314.67
376.163	322.8
376.544	302.46
376.925	311.05
377.305	331.84
377.686	303.14
378.066	326.64
378.447	310.83
378.827	331.62
379.208	309.92
379.588	333.65
379.968	335.46
380.349	338.4
380.729	347.66
381.109	338.62
381.489	339.75
381.87	346.53
382.25	337.27
382.63	320.09
383.01	340.2
383.39	353.76
383.77	337.27
384.15	346.3
384.53	332.29
384.91	341.56
385.29	341.33
385.67	357.15
386.049	332.07
386.429	349.69
386.809	333.88
387.189	340.88
387.568	345.4
387.948	359.64
388.328	377.26
388.707	357.6
389.087	355.34
389.466	343.59
389.846	372.97
390.225	368.22
390.605	382.01
390.984	379.07
391.363	379.3
391.743	383.59
392.122	381.56
392.501	399.86
392.881	374.1
393.26	360.99
393.639	368.9
394.018	359.41
394.397	352.18
394.776	384.95
395.155	369.13
395.534	374.55
395.913	371.84
396.292	405.06
396.671	397.6
397.05	390.15
397.429	392.63
397.808	390.37
398.186	383.82
398.565	389.47
398.944	406.42
399.323	370.48
399.701	384.95
400.08	404.38
400.458	409.35
400.837	406.64
401.215	401.9
401.594	404.83
401.972	427.43
402.351	389.02
402.729	392.18
403.107	408
403.486	424.27
403.864	402.57
404.242	410.48
404.62	417.94
404.999	405.06
405.377	402.57
405.755	426.08
406.133	416.81
406.511	420.88
406.889	417.72
407.267	447.77
407.645	429.69
408.023	406.87
408.401	412.97
408.779	439.41
409.156	428.56
409.534	475.79
409.912	444.83
410.29	451.61
410.667	458.17
411.045	461.56
411.422	468.34
411.8	466.98
412.178	460.2
412.555	477.15
412.933	475.57
413.31	473.08
413.687	478.05
414.065	478.28
414.442	477.83
414.819	494.32
415.197	490.26
415.574	491.61
415.951	482.12
416.328	490.93
416.705	493.19
417.082	478.05
417.46	507.2
417.837	509.46
418.214	521.22
418.591	533.87
418.967	535.68
419.344	512.63
419.721	517.6
420.098	504.72
420.475	503.14
420.852	510.59
421.228	527.09
421.605	530.03
421.982	544.72
422.358	545.17
422.735	556.24
423.111	546.98
423.488	549.01
423.864	544.04
424.241	546.98
424.617	563.02
424.994	555.79
425.37	563.7
425.746	563.25
426.123	572.29
426.499	550.82
426.875	550.14
427.251	585.39
427.627	604.83
428.003	571.84
428.379	586.52
428.756	626.52
429.132	600.54
429.507	605.05
429.883	606.86
430.259	629.91
430.635	626.98
431.011	622.46
431.387	626.52
431.763	660.65
432.138	641.44
432.514	647.77
432.89	643.7
433.265	663.13
433.641	665.84
434.016	681.44
434.392	660.19
434.767	690.02
435.143	673.98
435.518	684.83
435.894	679.63
436.269	713.3
436.644	735.22
437.02	694.32
437.395	740.19
437.77	717.82
438.145	739.74
438.52	741.32
438.895	735.22
439.271	726.63
439.646	752.85
440.021	749.23
440.395	732.73
440.77	753.98
441.145	751.04
441.52	765.73
441.895	796.01
442.27	792.62
442.645	784.94
443.019	778.61
443.394	801.66
443.769	790.81
444.143	805.95
444.518	803.69
444.892	811.6
445.267	819.29
445.641	806.63
446.016	837.36
446.39	846.4
446.764	828.78
447.139	820.19
447.513	851.15
447.887	850.92
448.262	845.27
448.636	851.38
449.01	867.19
449.384	860.19
449.758	853.41
450.132	880.53
450.506	885.5
450.88	891.6
451.254	909.23
451.628	934.31
452.002	912.62
452.376	928.66
452.75	936.8
453.123	924.82
453.497	932.28
453.871	955.78
454.244	982.22
454.618	969.11
454.992	979.51
455.365	975.44
455.739	990.13
456.112	986.29
456.486	1005.04
456.859	1023.57
457.232	1049.11
457.606	1039.17
457.979	1062.44
458.352	1073.29
458.725	1086.17
459.099	1101.31
459.472	1110.8
459.845	1124.14
460.218	1142.89
460.591	1150.35
460.964	1160.07
461.337	1210.46
461.71	1191.48
462.083	1210.91
462.456	1214.98
462.829	1216.56
463.201	1212.04
463.574	1246.62
463.947	1284.36
464.32	1280.07
464.692	1307.86
465.065	1333.85
465.438	1356.9
465.81	1379.72
466.183	1370.46
466.555	1391.02
466.928	1414.3
467.3	1429.21
467.672	1437.35
468.045	1481.64
468.417	1465.37
468.789	1535.65
469.161	1542.43
469.534	1564.58
469.906	1601.86
470.278	1602.54
470.65	1635.76
471.022	1654.97
471.394	1681.18
471.766	1739.71
472.138	1765.93
472.51	1827.62
472.882	1816.77
473.253	1842.99
473.625	1889.31
473.997	1968.41
474.369	1983.32
474.74	1982.65
475.112	2036.88
475.484	2104.45
475.855	2157.1
476.227	2162.3
476.598	2282.52
476.97	2261.06
477.341	2339.7
477.713	2400.71
478.084	2467.15
478.455	2551.44
478.827	2626.7
479.198	2696.3
479.569	2726.81
479.94	2806.35
480.311	2883.86
480.682	2939.68
481.053	3089.06
481.424	3122.05
481.795	3173.57
482.166	3287.02
482.537	3371.99
482.908	3470.06
483.279	3555.03
483.65	3672.32
484.021	3790.73
484.391	3884.97
484.762	3884.29
485.133	4036.15
485.503	4130.39
485.874	4272.3
486.244	4347.1
486.615	4431.85
486.985	4606.98
487.356	4666.64
487.726	4757.49
488.097	4924.94
488.467	5024.6
488.837	5171.49
489.207	5340.3
489.578	5425.49
489.948	5465.04
490.318	5654.64
490.688	5732.83
491.058	5878.81
491.428	5979.6
491.798	6155.64
492.168	6262.31
492.538	6438.35
492.908	6516.09
493.278	6709.98
493.648	6729.41
494.017	6887.83
494.387	6992.91
494.757	7190.42
495.126	7279.68
495.496	7372.56
495.866	7521.03
496.235	7621.82
496.605	7763.06
496.974	7862.94
497.344	7972.77
497.713	8107.91
498.082	8216.15
498.452	8321.01
498.821	8436.04
499.19	8459.31
499.559	8619.99
499.928	8728.68
500.298	8744.95
500.667	8916.47
501.036	8936.59
501.405	9083.02
501.774	9135.68
502.143	9207.77
502.512	9324.15
502.88	9509.91
503.249	9457.48
503.618	9565.5
503.987	9639.85
504.356	9740.86
504.724	9805.94
505.093	9875.77
505.462	9948.54
505.83	10014.75
506.199	10146.95
506.567	10311.92
506.936	10272.82
507.304	10418.81
507.672	10404.12
508.041	10487.28
508.409	10561.63
508.777	10649.76
509.145	10712.59
509.514	10829.64
509.882	10860.83
510.25	10949.42
510.618	10969.98
510.986	10956.65
511.354	11059.92
511.722	11080.49
512.09	11169.75
512.458	11215.17
512.826	11321.84
513.193	11289.75
513.561	11358.67
513.929	11428.95
514.297	11497.65
514.664	11503.98
515.032	11566.35
515.4	11670.98
515.767	11780.13
516.135	11746.46
516.502	11595.27
516.869	11780.35
517.237	11815.16
517.604	11745.78
517.972	11795.49
518.339	11931.99
518.706	11890.18
519.073	11891.76
519.44	11958.43
519.808	12082.72
520.175	11984.19
520.542	12152.32
520.909	12140.8
521.276	12142.38
521.643	12247.69
522.009	12195.94
522.376	12221.25
522.743	12223.73
523.11	12337.85
523.477	12437.51
523.843	12436.83
524.21	12500.34
524.577	12526.1
524.943	12517.96
525.31	12551.63
525.676	12647.9
526.043	12635.02
526.409	12689.71
526.776	12700.56
527.142	12790.72
527.508	12661.23
527.874	12765.86
528.241	12737.62
528.607	12756.37
528.973	12779.65
529.339	12700.33
529.705	12747.79
530.071	12774.45
530.437	12936.48
530.803	12896.93
531.169	12878.4
531.535	12784.17
531.901	12793.66
532.267	12854.22
532.632	12790.72
532.998	12804.06
533.364	12870.04
533.73	12752.98
534.095	12844.05
534.461	12800.89
534.826	12778.75
535.192	12844.73
535.557	12824.17
535.923	12723.61
536.288	12781.91
536.653	12799.54
537.019	12688.8
537.384	12686.54
537.749	12619.43
538.114	12630.95
538.479	12702.36
538.845	12654.68
539.21	12453.1
539.575	12530.84
539.94	12531.52
540.305	12517.06
540.67	12367.91
541.034	12477.96
541.399	12397.06
541.764	12325.88
542.129	12386.89
542.494	12370.85
542.858	12345.99
543.223	12235.94
543.587	12305.54
543.952	12224.86
544.316	12263.28
544.681	12127.01
545.045	12191.87
545.41	12183.73
545.774	12129.72
546.138	12009.27
546.503	11996.17
546.867	12049.5
547.231	11986.9
547.595	12042.04
547.959	12000.91
548.324	11889.73
548.688	11845.44
549.052	11919.56
549.416	11840.92
549.779	11767.02
550.143	11768.6
550.507	11848.83
550.871	11746.46
551.235	11654.48
551.599	11748.26
551.962	11687.02
552.326	11705.33
552.689	11643.63
553.053	11653.13
553.417	11638.21
553.78	11675.72
554.143	11612.9
554.507	11584.43
554.87	11544.88
555.234	11561.6
555.597	11504.2
555.96	11453.13
556.323	11489.51
556.686	11425.34
557.05	11468.72
557.413	11503.98
557.776	11445.9
558.139	11507.59
558.502	11423.75
558.865	11469.85
559.228	11429.18
559.59	11456.29
559.953	11412
560.316	11488.84
560.679	11464.43
561.041	11481.83
561.404	11567.03
561.767	11562.28
562.129	11473.24
562.492	11480.47
562.854	11482.06
563.217	11511.43
563.579	11444.09
563.941	11488.61
564.304	11485.22
564.666	11560.25
565.028	11524.99
565.39	11552.79
565.753	11621.26
566.115	11579.91
566.477	11635.73
566.839	11653.58
567.201	11694.93
567.563	11636.4
567.925	11650.41
568.287	11720.92
568.648	11675.27
569.01	11685.89
569.372	11776.06
569.734	11713.92
570.095	11746.68
570.457	11701.26
570.819	11800.24
571.18	11722.5
571.542	11779.9
571.903	11838.66
572.265	11847.47
572.626	11885.89
572.987	11840.92
573.349	11870.75
573.71	11883.63
574.071	11883.85
574.432	11870.75
574.794	11945.77
575.155	11916.85
575.516	11870.75
575.877	11851.99
576.238	11918.2
576.599	11983.51
576.96	11928.6
577.32	11864.19
577.681	11967.02
578.042	11963.4
578.403	11995.94
578.763	11960.01
579.124	11980.12
579.485	11960.46
579.845	12016.96
580.206	11890.18
580.566	11924.98
580.927	11964.08
581.287	12051.08
581.648	11886.79
582.008	11995.26
582.368	11961.37
582.728	11998.65
583.089	11997.07
583.449	11911.65
583.809	11927.24
584.169	11993.91
584.529	11887.02
584.889	12016.28
585.249	11941.71
585.609	11927.24
585.969	11931.99
586.329	11931.76
586.688	11882.95
587.048	11887.24
587.408	11878.43
587.768	11827.13
588.127	11814.48
588.487	11825.55
588.846	11965.43
589.206	11951.42
589.565	11768.6
589.925	11926.11
590.284	11826.45
590.643	11813.8
591.003	11809.05
591.362	11828.04
591.721	11863.29
592.08	11770.18
592.44	11799.34
592.799	11888.6
593.158	11781.26
593.517	11776.06
593.876	11831.88
594.235	11753.46
594.593	11743.97
594.952	11852.44
595.311	11737.19
595.67	11693.12
596.029	11780.13
596.387	11794.14
596.746	11810.41
597.104	11778.77
597.463	11739.45
597.822	11766.12
598.18	11734.25
598.538	11689.74
598.897	11749.39
599.255	11659.68
599.613	11844.08
599.972	11739.45
600.33	11716.63
600.688	11696.97
601.046	11776.29
601.404	11820.13
601.762	11837.75
602.12	11838.21
602.478	11813.12
602.836	11797.98
603.194	11728.15
603.552	11799.79
603.91	11712.33
604.268	11781.48
604.625	11701.26
604.983	11818.09
605.341	11794.59
605.698	11838.43
606.056	11798.43
606.413	11764.76
606.771	11754.37
607.128	11881.37
607.485	11727.93
607.843	11708.72
608.2	11801.37
608.557	11882.95
608.914	11779
609.272	11873.23
609.629	11901.93
609.986	11874.14
610.343	11778.09
610.7	11969.95
611.057	11904.19
611.414	11853.57
611.771	11920.46
612.127	11941.03
612.484	11966.79
612.841	11923.85
613.198	11883.18
613.554	11902.84
613.911	11988.71
614.267	11996.17
614.624	11992.1
614.98	11977.41
615.337	11996.39
615.693	11957.75
616.05	11940.12
616.406	12073.91
616.762	12007.24
617.118	12054.02
617.475	11984.87
617.831	12115.71
618.187	12028.48
618.543	12019.44
618.899	12197.97
619.255	12154.36
619.611	12083.17
619.967	12182.6
620.323	12168.59
620.678	12166.78
621.034	12148.48
621.39	12124.75
621.746	12109.38
622.101	12171.53
622.457	12078.65
622.812	12144.41
623.168	12114.81
623.523	12142.6
623.879	12176.73
624.234	12057.86
624.589	12133.79
624.945	12117.75
625.3	12111.42
625.655	12126.33
626.01	12131.98
626.365	12066
626.72	12146.67
627.075	12075.94
627.43	12068.93
627.785	12103.74
628.14	12160.91
628.495	12123.62
628.85	12162.72
629.205	12035.49
629.559	12158.88
629.914	12075.26
630.269	12046.34
630.623	12086.33
630.978	12006.79
631.332	12095.37
631.687	12067.35
632.041	11983.06
632.396	12124.75
632.75	12002.72
633.104	12006.34
633.459	11912.78
633.813	11878.43
634.167	11850.86
634.521	11941.93
634.875	11972.21
635.229	11922.72
635.583	11904.87
635.937	11909.39
636.291	11856.06
636.645	11835.04
636.999	11855.83
637.352	11842.5
637.706	11783.52
638.06	11853.35
638.413	11788.04
638.767	11765.44
639.121	11744.65
639.474	11753.46
639.828	11714.37
640.181	11747.59
640.534	11693.35
640.888	11680.92
641.241	11654.03
641.594	11616.52
641.947	11710.98
642.301	11597.76
642.654	11764.08
643.007	11682.05
643.36	11652.22
643.713	11610.19
644.066	11655.61
644.419	11565.22
644.771	11538.1
645.124	11432.57
645.477	11466.46
645.83	11341.95
646.182	11232.12
646.535	11257.66
646.888	11294.94
647.24	11142.18
647.593	11226.92
647.945	11307.6
648.298	11214.27
648.65	11185.34
649.002	11146.92
649.355	11234.61
649.707	11215.85
650.059	11283.64
650.411	11355.96
650.763	11340.37
651.115	11528.16
651.467	11495.62
651.819	11467.59
652.171	11480.7
652.523	11413.36
652.875	11498.78
653.227	11396.18
653.578	11508.5
653.93	11433.7
654.282	11400.93
654.633	11398.22
654.985	11404.54
655.337	11422.62
655.688	11442.06
656.039	11478.89
656.391	11371.1
656.742	11421.95
657.094	11456.52
657.445	11512.79
657.796	11478.44
658.147	11398.44
658.498	11394.83
658.849	11424.43
659.2	11416.75
659.551	11365
659.902	11460.14
660.253	11461.49
660.604	11453.36
660.955	11355.28
661.306	11443.19
661.656	11437.09
662.007	11415.62
662.358	11517.54
662.708	11465.79
663.059	11493.13
663.409	11410.87
663.76	11522.73
664.11	11520.25
664.461	11531.77
664.811	11496.97
665.161	11548.5
665.511	11493.13
665.862	11505.11
666.212	11539.23
666.562	11543.07
666.912	11515.5
667.262	11480.93
667.612	11503.53
667.962	11474.6
668.312	11440.93
668.662	11515.73
669.011	11554.37
669.361	11402.28
669.711	11457.65
670.06	11448.61
670.41	11448.16
670.76	11391.66
671.109	11510.76
671.459	11439.35
671.808	11422.62
672.157	11392.57
672.507	11376.07
672.856	11404.77
673.205	11355.96
673.554	11429.85
673.904	11404.32
674.253	11458.1
674.602	11321.84
674.951	11266.7
675.3	11233.93
675.649	11303.98
675.998	11311.67
676.346	11333.59
676.695	11293.59
677.044	11261.05
677.393	11245.68
677.741	11314.6
678.09	11290.88
678.438	11268.5
678.787	11289.07
679.135	11228.05
679.484	11134.95
679.832	11230.76
680.181	11179.92
680.529	11125.46
680.877	11114.83
681.225	11101.28
681.573	11120.26
681.922	11084.1
682.27	11052.01
682.618	11083.88
682.966	10973.82
683.314	11035.97
683.661	10953.71
684.009	10951.45
684.357	10973.82
684.705	10891.11
685.053	10888.17
685.4	10949.64
685.748	10878.91
686.095	10819.93
686.443	10856.54
686.79	10746.93
687.138	10786.03
687.485	10762.3
687.832	10676.65
688.18	10722.53
688.527	10628.75
688.874	10644.34
689.221	10587.62
689.568	10575.64
689.915	10538.58
690.262	10551.91
690.609	10502.42
690.956	10441.63
691.303	10448.19
691.65	10462.42
691.997	10424.91
692.344	10317.79
692.69	10370.45
693.037	10287.96
693.383	10198.7
693.73	10250.22
694.077	10249.32
694.423	10140.4
694.769	10153.5
695.116	10132.04
695.462	10110.34
695.808	10074.64
696.155	10050.23
696.501	9983.34
696.847	9983.79
697.193	9841.42
697.539	9862.89
697.885	9809.11
698.231	9796
698.577	9805.26
698.923	9784.47
699.269	9706.74
699.614	9646.85
699.96	9616.8
700.306	9648.88
700.651	9614.31
700.997	9605.95
701.342	9547.42
701.688	9494.76
702.033	9431.26
702.379	9444.37
702.724	9409.34
703.069	9473.97
703.415	9328.89
703.76	9309.23
704.105	9341.32
704.45	9321.44
704.795	9247.31
705.14	9199.18
705.485	9196.47
705.83	9167.54
706.175	9182
706.52	9113.76
706.865	9054.1
707.209	9055.45
707.554	9035.34
707.899	9012.29
708.243	8964.83
708.588	8902.01
708.932	8875.57
709.277	8846.65
709.621	8916.25
709.966	8784.05
710.31	8819.75
710.654	8761.22
710.998	8816.82
711.342	8785.18
711.687	8702.47
712.031	8692.07
712.375	8703.6
712.719	8668.12
713.063	8680.32
713.407	8741.34
713.75	8633.09
714.094	8600.1
714.438	8581.57
714.782	8614.11
715.125	8580.44
715.469	8513.55
715.812	8540.67
716.156	8525.52
716.499	8504.06
716.843	8518.52
717.186	8431.29
717.53	8484.17
717.873	8523.94
718.216	8487.56
718.559	8461.12
718.902	8404.17
719.246	8408.92
719.589	8273.33
719.932	8292.54
720.275	8360.11
720.617	8298.19
720.96	8307.45
721.303	8325.98
721.646	8297.06
721.989	8332.31
722.331	8318.98
722.674	8297.51
723.016	8288.92
723.359	8259.09
723.701	8262.25
724.044	8187
724.386	8204.18
724.729	8209.37
725.071	8222.26
725.413	8214.57
725.755	8183.61
726.097	8163.05
726.439	8145.42
726.782	8193.33
727.124	8184.52
727.465	8085.76
727.807	8100.22
728.149	8179.32
728.491	8158.53
728.833	8124.86
729.175	8148.81
729.516	8126.89
729.858	8109.49
730.199	8151.75
730.541	8116.04
730.882	8156.04
731.224	8119.21
731.565	8118.53
731.906	8071.07
732.248	8102.03
732.589	8094.35
732.93	8052.77
733.271	8061.81
733.612	8053.67
733.953	7992.21
734.294	8007.35
734.635	8113.11
734.976	8074.91
735.317	8019.78
735.658	8020.45
735.999	8032.43
736.339	8039.89
736.68	8095.48
737.021	8052.32
737.361	7973.22
737.702	8058.87
738.042	8067.23
738.383	8099.32
738.723	8121.47
739.063	8119.43
739.404	8147.23
739.744	8125.53
740.084	8124.41
740.424	8152.43
740.764	8162.14
741.104	8210.05
741.444	8103.39
741.784	8118.08
742.124	8197.17
742.464	8220.45
742.804	8215.25
743.143	8227.68
743.483	8272.42
743.823	8180
744.162	8257.96
744.502	8290.5
744.841	8343.16
745.181	8396.26
745.52	8426.09
745.86	8486.66
746.199	8475.58
746.538	8479.65
746.877	8517.84
747.216	8587.44
747.556	8587.9
747.895	8650.04
748.234	8629.02
748.573	8735.01
748.911	8778.85
749.25	8811.84
749.589	8871.05
749.928	8948.56
750.267	9010.03
750.605	9077.15
750.944	9187.65
751.283	9163.7
751.621	9199.41
751.96	9395.11
752.298	9437.14
752.636	9541.54
752.975	9577.25
753.313	9607.3
753.651	9745.61
753.989	9878.94
754.327	9889.1
754.666	10009.55
755.004	10202.99
755.342	10245.03
755.679	10312.14
756.017	10439.37
756.355	10554.4
756.693	10682.53
757.031	10854.95
757.368	10949.64
757.706	11101.5
758.044	11152.8
758.381	11303.3
758.719	11497.65
759.056	11637.53
759.394	11734.93
759.731	11881.37
760.068	12076.17
760.405	12131.76
760.743	12277.97
761.08	12508.92
761.417	12598.86
761.754	12865.52
762.091	13002.69
762.428	13075.01
762.765	13182.35
763.102	13444.94
763.438	13573.53
763.775	13681.32
764.112	13931.26
764.449	14029.33
764.785	14209.22
765.122	14253.74
765.458	14341.42
765.795	14549.55
766.131	14712.25
766.467	14878.13
766.804	14981.85
767.14	15097.56
767.476	15258.68
767.812	15325.35
768.148	15491.89
768.485	15622.96
768.821	15632
769.157	15799.01
769.492	16003.07
769.828	16077.19
770.164	16095.49
770.5	16191.09
770.836	16344.53
771.171	16394.7
771.507	16571.41
771.842	16524.18
772.178	16650.96
772.513	16692.32
772.849	16827
773.184	16792.88
773.519	17042.59
773.855	16983.83
774.19	17112.19
774.525	17057.05
774.86	17210.49
775.195	17299.98
775.53	17321.45
775.865	17304.05
776.2	17349.47
776.535	17339.53
776.87	17464.5
777.205	17355.12
777.539	17509.24
777.874	17572.52
778.209	17474.67
778.543	17568
778.878	17617.49
779.212	17598.96
779.547	17551.73
779.881	17549.69
780.215	17552.18
780.55	17634.44
780.884	17627.21
781.218	17637.6
781.552	17712.4
781.886	17669.69
782.22	17689.8
782.554	17638.28
782.888	17566.64
783.222	17572.07
783.556	17523.93
783.889	17505.63
784.223	17441.9
784.557	17570.94
784.89	17624.72
785.224	17535.01
785.557	17479.64
785.891	17417.04
786.224	17410.49
786.558	17514.21
786.891	17344.73
787.224	17346.99
787.557	17399.19
787.891	17416.14
788.224	17354.44
788.557	17361.9
788.89	17338.17
789.223	17465.85
789.556	17281.23
789.888	17352.86
790.221	17181.12
790.554	17090.5
790.887	17108.8
791.219	17158.07
791.552	17078.52
791.884	17035.58
792.217	16989.71
792.549	16985.41
792.882	16837.62
793.214	16854.12
793.546	16949.03
793.879	16809.37
794.211	16784.29
794.543	16864.97
794.875	16718.98
795.207	16876.49
795.539	16700.9
795.871	16696.83
796.203	16620
796.535	16476.28
796.867	16601.02
797.198	16497.07
797.53	16538.87
797.862	16424.07
798.193	16481.93
798.525	16316.96
798.856	16331.19
799.188	16094.59
799.519	16114.25
799.85	16159.22
800.182	16129.84
800.513	16151.99
800.844	15999.9
801.175	16065.89
801.506	16125.55
801.837	15958.1
802.168	15928.72
802.499	15890.3
802.83	15907.93
803.161	15799.01
803.491	15820.02
803.822	15857.31
804.153	15767.37
804.483	15581.61
804.814	15645.56
805.145	15616.19
805.475	15577.77
805.805	15548.62
806.136	15553.36
806.466	15598.33
806.796	15408.28
807.126	15348.17
807.457	15323.54
807.787	15373.93
808.117	15273.14
808.447	15187.72
808.777	15220.72
809.107	15247.83
809.436	15129.87
809.766	15219.36
810.096	15132.36
810.426	15105.69
810.755	15072.92
811.085	15002.19
811.414	14993.15
811.744	14863.66
812.073	14915.19
812.403	14862.76
812.732	14780.05
813.061	14845.13
813.39	14739.15
813.719	14780.5
814.049	14775.53
814.378	14617.57
814.707	14697.11
815.036	14712.48
815.365	14594.07
815.693	14517.91
816.022	14519.94
816.351	14433.62
816.68	14393.39
817.008	14469.77
817.337	14388.65
817.665	14327.18
817.994	14383.45
818.322	14280.4
818.651	14252.83
818.979	14196.34
819.307	14353.85
819.636	14282.89
819.964	14245.15
820.292	14214.41
820.62	14202.44
820.948	14210.8
821.276	14267.29
821.604	14235.2
821.932	14235.88
822.259	14120.63
822.587	14154.75
822.915	14152.72
823.243	14128.54
823.57	14145.72
823.898	14128.31
824.225	14125.38
824.553	14014.87
824.88	14077.69
825.207	14143.91
825.535	14140.52
825.862	14114.3
826.189	14113.17
826.516	14107.98
826.843	14251.7
827.17	14173.74
827.497	14214.64
827.824	14163.79
828.151	14216.67
828.478	14202.21
828.805	14295.54
829.131	14139.16
829.458	14154.08
829.785	14039.05
830.111	14117.24
830.438	14165.38
830.764	14170.12
831.09	14136.22
831.417	14090.58
831.743	14145.49
832.069	14097.36
832.395	14157.92
832.722	14149.78
833.048	14115.89
833.374	14133.06
833.7	14149.33
834.026	14066.17
834.351	14058.49
834.677	14089.22
835.003	13980.07
835.329	14013.29
835.654	14048.77
835.98	13902.33
836.306	14011.71
836.631	13931.71
836.956	13941.65
837.282	13949.34
837.607	13855.1
837.932	13961.31
838.258	13829.34
838.583	13846.74
838.908	13743.24
839.233	13837.93
839.558	13799.96
839.883	13740.53
840.208	13662.11
840.533	13667.08
840.858	13672.51
841.182	13707.76
841.507	13701.89
841.832	13573.08
842.156	13608.1
842.481	13551.38
842.805	13523.59
843.13	13461.89
843.454	13399.75
843.778	13391.39
844.103	13316.36
844.427	13395
844.751	13356.36
845.075	13328.79
845.399	13291.27
845.723	13045.86
846.047	13178.74
846.371	13068.23
846.695	13152.52
847.019	13035.69
847.343	12977.84
847.666	12878.4
847.99	12817.16
848.313	12882.47
848.637	12754.11
848.96	12781.23
849.284	12713.66
849.607	12590.5
849.931	12613.33
850.254	12461.47
850.577	12416.27
850.9	12314.13
851.223	12332.43
851.546	12248.14
851.869	12200.68
852.192	12218.76
852.515	12127.46
852.838	12081.59
853.161	12095.6
853.483	12042.49
853.806	11988.94
854.129	11966.11
854.451	11877.75
854.774	11876.62
855.096	11815.16
855.419	11760.24
855.741	11790.52
856.063	11732.45
856.385	11706.68
856.708	11649.51
857.03	11622.17
857.352	11575.84
857.674	11584.2
857.996	11538.33
858.318	11455.84
858.64	11475.5
858.961	11416.3
859.283	11394.83
859.605	11428.5
859.926	11383.98
860.248	11298.11
860.57	11218.33
860.891	11222.85
861.212	11233.48
861.534	11240.71
861.855	11149.86
862.176	11119.35
862.498	11121.61
862.819	11120.03
863.14	11007.27
863.461	11026.02
863.782	11018.11
864.103	11068.73
864.424	11002.97
864.745	10985.8
865.065	10970.43
865.386	10974.95
865.707	10888.17
866.027	10920.94
866.348	10857.67
866.668	10838.68
866.989	10795.97
867.309	10749.19
867.63	10789.42
867.95	10768.4
868.27	10816.99
868.59	10750.78
868.91	10725.47
869.23	10693.38
869.55	10613.38
869.87	10668.74
870.19	10702.64
870.51	10549.65
870.83	10645.92
871.15	10577.45
871.469	10558.01
871.789	10606.6
872.109	10593.49
872.428	10548.97
872.748	10548.07
873.067	10561.4
873.386	10497.22
873.706	10497.68
874.025	10412.25
874.344	10427.85
874.663	10444.57
874.982	10375.87
875.301	10346.95
875.62	10339.49
875.939	10339.26
876.258	10381.52
876.577	10283.67
876.896	10339.49
877.214	10251.81
877.533	10238.02
877.852	10320.05
878.17	10224.01
878.489	10239.6
878.807	10280.96
879.125	10183.56
879.444	10208.19
879.762	10139.72
880.08	10192.37
880.398	10090
880.716	10160.96
881.034	10071.25
881.352	10070.12
881.67	10003.68
881.988	10018.59
882.306	10019.72
882.624	10008.2
882.941	9933.4
883.259	9906.05
883.577	9930.46
883.894	9873.96
884.212	9876.45
884.529	9809.11
884.846	9855.66
885.164	9785.38
885.481	9758.71
885.798	9776.79
886.115	9674.19
886.432	9699.5
886.75	9686.85
887.067	9704.02
887.383	9664.25
887.7	9584.93
888.017	9600.3
888.334	9530.24
888.651	9530.24
888.967	9516.01
889.284	9509.23
889.6	9462
889.917	9457.25
890.233	9410.25
890.55	9316.92
890.866	9386.74
891.182	9312.17
891.498	9355.56
891.815	9239.86
892.131	9250.7
892.447	9195.56
892.763	9218.61
893.079	9125.73
893.395	9106.75
893.71	9116.7
894.026	9066.98
894.342	9077.83
894.657	8988.56
894.973	9008
895.289	8922.12
895.604	8928.68
895.92	8892.75
896.235	8792.41
896.55	8821.56
896.865	8782.24
897.181	8740.66
897.496	8803.94
897.811	8742.02
898.126	8681.45
898.441	8686.65
898.756	8658.4
899.071	8572.08
899.386	8550.38
899.7	8544.51
900.015	8451.18
900.33	8502.25
900.644	8462.48
900.959	8435.58
901.273	8442.81
901.588	8385.19
901.902	8341.8
902.216	8282.14
902.531	8297.06
902.845	8236.27
903.159	8175.25
903.473	8198.3
903.787	8125.31
904.101	8113.11
904.415	8088.47
904.729	8108.36
905.042	8006.67
905.356	7978.42
905.67	7975.93
905.984	7983.62
906.297	7959.44
906.611	7886.45
906.924	7813.9
907.237	7821.59
907.551	7790.4
907.864	7771.42
908.177	7643.06
908.491	7695.26
908.804	7646.68
909.117	7632.21
909.43	7564.65
909.743	7553.12
910.056	7507.47
910.368	7468.15
910.681	7446.46
910.994	7425.21
911.307	7401.94
911.619	7344.31
911.932	7346.57
912.244	7300.47
912.557	7260.92
912.869	7200.81
913.181	7204.88
913.494	7214.37
913.806	7071.33
914.118	7101.38
914.43	7038.33
914.742	7131.66
915.054	6993.81
915.366	7003.53
915.678	6929.63
915.99	6938.22
916.302	6902.52
916.613	6828.39
916.925	6870.88
917.236	6844.44
917.548	6793.59
917.859	6800.82
918.171	6796.98
918.482	6733.03
918.794	6685.12
919.105	6702.97
919.416	6625.24
919.727	6603.54
920.038	6583.2
920.349	6569.42
920.66	6548.85
920.971	6527.84
921.282	6526.25
921.593	6462.08
921.903	6427.5
922.214	6419.37
922.525	6408.97
922.835	6277.45
923.146	6322.87
923.456	6357.45
923.767	6334.4
924.077	6293.04
924.387	6261.18
924.697	6191.57
925.008	6179.82
925.318	6135.98
925.628	6114.74
925.938	6142.76
926.248	6095.53
926.558	6034.06
926.867	6013.5
927.177	6004.69
927.487	5962.43
927.796	5967.63
928.106	5897.12
928.416	5938.47
928.725	5901.86
929.034	5860.51
929.344	5876.33
929.653	5891.02
929.962	5779.61
930.271	5769.89
930.581	5760.4
930.89	5733.28
931.199	5665.94
931.508	5679.5
931.817	5706.84
932.125	5660.06
932.434	5594.08
932.743	5591.82
933.051	5601.08
933.36	5534.64
933.669	5515.89
933.977	5485.6
934.286	5504.36
934.594	5496.23
934.902	5437.7
935.21	5386.62
935.519	5406.28
935.827	5357.25
936.135	5319.96
936.443	5314.76
936.751	5299.39
937.059	5298.72
937.367	5218.94
937.674	5279.28
937.982	5236.12
938.29	5153.41
938.597	5186.63
938.905	5129.91
939.213	5110.47
939.52	5084.94
939.827	5084.03
940.135	5021.21
940.442	5025.96
940.749	5027.09
941.056	4983.02
941.363	4944.83
941.67	4931.04
941.977	4914.09
942.284	4884.49
942.591	4892.17
942.898	4850.82
943.205	4835.9
943.511	4799.07
943.818	4805.4
944.125	4771.5
944.431	4778.5
944.738	4741.9
945.044	4720.43
945.35	4649.02
945.657	4653.08
945.963	4635.46
946.269	4595.68
946.575	4608.11
946.881	4602.69
947.187	4547.55
947.493	4557.27
947.799	4526.31
948.105	4521.79
948.41	4468
948.716	4496.03
949.022	4475.24
949.327	4461.45
949.633	4389.59
949.938	4393.88
950.244	4412.64
950.549	4345.07
950.854	4331.51
951.16	4308.01
951.465	4293.55
951.77	4267.11
952.075	4279.99
952.38	4235.69
952.685	4207.45
952.99	4211.51
953.294	4175.58
953.599	4160.22
953.904	4154.34
954.209	4104.17
954.513	4115.7
954.818	4119.76
955.122	4089.26
955.426	4098.07
955.731	4145.53
956.035	4039.09
956.339	4023.72
956.643	4004.06
956.948	3957.06
957.252	3980.79
957.556	3943.5
957.86	3955.02
958.163	3961.12
958.467	3930.62
958.771	3887.91
959.075	3907.34
959.378	3881.58
959.682	3824.86
959.985	3823.73
960.289	3809.04
960.592	3757.06
960.896	3818.3
961.199	3759.77
961.502	3743.96
961.805	3745.54
962.108	3708.48
962.411	3690.4
962.714	3688.59
963.017	3639.1
963.32	3674.13
963.623	3635.48
963.926	3618.53
964.228	3592.32
964.531	3580.8
964.833	3601.13
965.136	3531.98
965.438	3516.62
965.741	3516.39
966.043	3502.61
966.345	3500.35
966.648	3534.92
966.95	3469.16
967.252	3463.51
967.554	3430.97
967.856	3424.64
968.158	3381.25
968.46	3422.83
968.761	3396.39
969.063	3338.99
969.365	3316.62
969.666	3348.49
969.968	3259.67
970.269	3290.63
970.571	3258.54
970.872	3255.15
971.174	3234.36
971.475	3264.42
971.776	3270.75
972.077	3217.19
972.378	3177.64
972.679	3193.24
972.98	3159.79
973.281	3196.85
973.582	3134.03
973.883	3129.28
974.183	3143.97
974.484	3106.68
974.785	3136.74
975.085	3075.72
975.386	3099.9
975.686	3054.71
975.986	3074.82
976.287	3035.95
976.587	2975.61
976.887	2970.19
977.187	2987.59
977.487	2946.01
977.787	2953.02
978.087	2924.32
978.387	2926.35
978.687	2943.3
978.987	2929.74
979.286	2886.58
979.586	2846.58
979.885	2881.15
980.185	2833.02
980.484	2860.81
980.784	2841.61
981.083	2848.16
981.382	2796.64
981.682	2782.4
981.981	2765.68
982.28	2769.52
982.579	2742.63
982.878	2788.95
983.177	2716.41
983.475	2721.61
983.774	2698.78
984.073	2690.42
984.372	2695.62
984.67	2642.29
984.969	2657.43
985.267	2648.84
985.566	2671.67
985.864	2620.59
986.162	2634.61
986.461	2609.07
986.759	2585.12
987.057	2559.81
987.355	2583.76
987.653	2525.46
987.951	2528.85
988.249	2557.77
988.547	2516.87
988.844	2547.83
989.142	2485.01
989.44	2486.59
989.737	2463.54
990.035	2437.77
990.332	2420.6
990.63	2449.07
990.927	2430.09
991.224	2443.88
991.521	2406.82
991.819	2415.63
992.116	2381.05
992.413	2354.61
992.71	2360.04
993.006	2376.76
993.303	2349.64
993.6	2314.84
993.897	2329.98
994.193	2336.31
994.49	2325.24
994.787	2305.8
995.083	2273.03
995.379	2243.2
995.676	2250.89
995.972	2244.56
996.268	2242.98
996.565	2219.93
996.861	2221.51
997.157	2197.1
997.453	2174.96
997.749	2165.69
998.044	2156.65
998.34	2177.22
998.636	2159.59
998.932	2144.9
999.227	2128.4
999.523	2148.52
999.818	2131.12
1000.114	2080.5
1000.409	2057.22
1000.704	2060.38
1001	2075.98
1001.295	2028.75
1001.59	2015.87
1001.885	2042.31
1002.18	2010.22
1002.475	2006.83
1002.77	1991.68
1003.065	1990.33
1003.359	1974.74
1003.654	1987.62
1003.949	1951.46
1004.243	1976.32
1004.538	1899.48
1004.832	1898.81
1005.127	1881.86
1005.421	1913.27
1005.715	1858.58
1006.009	1877.79
1006.304	1851.12
1006.598	1837.79
1006.892	1848.19
1007.186	1844.34
1007.48	1824.68
1007.773	1820.16
1008.067	1806.83
1008.361	1777.91
1008.655	1773.61
1008.948	1755.53
1009.242	1762.31
1009.535	1771.35
1009.829	1707.62
1010.122	1737.91
1010.415	1728.42
1010.708	1679.83
1011.001	1688.19
1011.295	1710.56
1011.588	1662.43
1011.881	1681.18
1012.173	1655.2
1012.466	1642.99
1012.759	1646.84
1013.052	1638.47
1013.344	1607.97
1013.637	1619.04
1013.93	1564.35
1014.222	1582.43
1014.514	1585.14
1014.807	1593.96
1015.099	1584.69
1015.391	1563.67
1015.683	1567.29
1015.976	1539.49
1016.268	1532.26
1016.56	1502.88
1016.851	1500.17
1017.143	1539.27
1017.435	1492.94
1017.727	1470.57
1018.018	1483.22
1018.31	1476.44
1018.602	1443
1018.893	1443.22
1019.185	1440.06
1019.476	1450.91
1019.767	1419.5
1020.058	1391.93
1020.35	1406.16
1020.641	1358.93
1020.932	1361.42
1021.223	1372.94
1021.514	1357.8
1021.804	1361.19
1022.095	1370.01
1022.386	1369.1
1022.677	1329.1
1022.967	1304.7
1023.258	1317.13
1023.548	1311.93
1023.839	1294.98
1024.129	1297.92
1024.419	1264.7
1024.709	1277.58
1025	1281.87
1025.29	1259.95
1025.58	1225.6
1025.87	1237.35
1026.16	1247.75
1026.449	1225.15
1026.739	1239.39
1027.029	1184.7
1027.319	1174.98
1027.608	1226.51
1027.898	1191.25
1028.187	1184.93
1028.477	1197.58
1028.766	1165.72
1029.055	1159.84
1029.344	1145.61
1029.634	1150.35
1029.923	1103.8
1030.212	1097.7
1030.501	1113.97
1030.79	1108.09
1031.078	1123.91
1031.367	1114.42
1031.656	1110.35
1031.945	1097.92
1032.233	1072.84
1032.522	1083.01
1032.81	1061.77
1033.099	1065.61
1033.387	1068.32
1033.675	1050.92
1033.963	1044.37
1034.251	1048.43
1034.54	1040.52
1034.828	1016.57
1035.116	1024.48
1035.403	1009.56
1035.691	1024.7
1035.979	1001.2
1036.267	979.51
1036.554	993.07
1036.842	991.94
1037.129	975.21
1037.417	973.18
1037.704	957.36
1037.992	946.97
1038.279	954.88
1038.566	929.79
1038.853	929.79
1039.14	929.79
