Data from hue_70_FLMS001491_51.txt Node
Date: Mon Feb 06 15:21:06 GMT 2017
User: dcchb
Spectrometer: FLMS00149
Trigger mode: 0
Integration Time (sec): 2.000000E-2
Scans to average: 10
Electric dark correction enabled: true
Nonlinearity correction enabled: false
Boxcar width: 0
XAxis mode: Wavelengths
Number of Pixels in Spectrum: 2048
>>>>>Begin Spectral Data<<<<<
341.393	-0.23
341.776	-0.23
342.16	-0.23
342.543	-52.65
342.927	-79.09
343.31	-86.55
343.693	-68.47
344.077	-57.85
344.46	-56.27
344.843	-62.82
345.226	-43.39
345.61	-33.9
345.993	-20.11
346.376	8.81
346.759	25.54
347.142	16.72
347.525	30.73
347.908	52.65
348.291	91.07
348.674	98.75
349.057	105.08
349.44	115.48
349.823	130.84
350.206	171.52
350.588	190.28
350.971	228.69
351.354	212.65
351.737	236.6
352.119	230.05
352.502	268.92
352.884	278.86
353.267	269.6
353.65	281.12
354.032	302.59
354.414	293.1
354.797	322.93
355.179	331.97
355.562	331.97
355.944	337.84
356.326	338.97
356.709	328.8
357.091	330.61
357.473	322.7
357.855	345.75
358.238	328.58
358.62	331.74
359.002	351.86
359.384	331.52
359.766	349.82
360.148	347.34
360.53	322.25
360.912	341.46
361.294	334.68
361.676	340.1
362.057	324.96
362.439	331.97
362.821	315.02
363.203	328.35
363.584	339.43
363.966	320.44
364.348	318.18
364.729	317.51
365.111	319.54
365.493	306.43
365.874	329.48
366.256	309.37
366.637	318.41
367.019	305.98
367.4	336.04
367.781	302.14
368.163	320.9
368.544	324.96
368.925	301.24
369.306	310.73
369.688	307.34
370.069	304.85
370.45	322.03
370.831	305.53
371.212	338.75
371.593	312.99
371.974	317.05
372.355	313.66
372.736	308.01
373.117	303.95
373.498	323.16
373.879	309.14
374.26	317.96
374.641	306.21
375.021	307.11
375.402	316.38
375.783	319.09
376.163	316.83
376.544	317.28
376.925	318.86
377.305	304.62
377.686	320.22
378.066	321.8
378.447	328.58
378.827	321.35
379.208	326.77
379.588	311.4
379.968	327.22
380.349	330.61
380.729	315.25
381.109	324.51
381.489	348.01
381.87	324.51
382.25	322.48
382.63	326.32
383.01	325.19
383.39	334.68
383.77	322.93
384.15	317.51
384.53	335.13
384.91	360.22
385.29	333.32
385.67	317.28
386.049	334.23
386.429	340.56
386.809	345.75
387.189	355.92
387.568	338.07
387.948	358.86
388.328	362.02
388.707	331.97
389.087	361.8
389.466	363.83
389.846	350.05
390.225	373.55
390.605	345.53
390.984	345.3
391.363	357.73
391.743	355.24
392.122	350.05
392.501	348.01
392.881	364.28
393.26	356.37
393.639	357.05
394.018	358.63
394.397	356.83
394.776	355.24
395.155	352.08
395.534	369.26
395.913	385.3
396.292	372.42
396.671	357.28
397.05	356.37
397.429	376.71
397.808	383.72
398.186	370.61
398.565	368.8
398.944	364.96
399.323	368.13
399.701	377.39
400.08	393.89
400.458	380.33
400.837	376.26
401.215	393.21
401.594	368.35
401.972	397.28
402.351	386.66
402.729	392.76
403.107	395.92
403.486	388.92
403.864	370.39
404.242	389.37
404.62	406.77
404.999	394.34
405.377	376.04
405.755	408.35
406.133	404.28
406.511	386.2
406.889	394.34
407.267	410.16
407.645	391.63
408.023	408.58
408.401	411.29
408.779	415.81
409.156	425.98
409.534	449.48
409.912	423.72
410.29	421.01
410.667	397.05
411.045	430.72
411.422	405.41
411.8	418.97
412.178	416.49
412.555	445.41
412.933	453.1
413.31	426.66
413.687	437.73
414.065	460.78
414.442	428.46
414.819	451.74
415.197	439.31
415.574	443.38
415.951	467.78
416.328	463.04
416.705	478.86
417.082	467.11
417.46	454.9
417.837	481.57
418.214	478.41
418.591	478.18
418.967	467.78
419.344	472.53
419.721	479.31
420.098	478.86
420.475	492.87
420.852	487.44
421.228	493.77
421.605	510.95
421.982	497.16
422.358	516.6
422.735	508.91
423.111	501.68
423.488	491.96
423.864	512.08
424.241	524.96
424.617	513.21
424.994	508.24
425.37	532.19
425.746	544.17
426.123	521.57
426.499	535.13
426.875	538.52
427.251	546.2
427.627	543.71
428.003	545.75
428.379	539.87
428.756	550.95
429.132	564.96
429.507	570.38
429.883	550.04
430.259	566.99
430.635	571.51
431.011	559.31
431.387	579.87
431.763	580.55
432.138	571.28
432.514	580.55
432.89	612.87
433.265	587.33
433.641	579.87
434.016	600.44
434.392	607.67
434.767	599.53
435.143	618.97
435.518	609.02
435.894	615.13
436.269	621.9
436.644	622.81
437.02	654.9
437.395	647.44
437.77	646.54
438.145	648.57
438.52	656.93
438.895	660.1
439.271	656.93
439.646	680.43
440.021	682.47
440.395	661.45
440.77	648.34
441.145	680.43
441.52	703.94
441.895	712.98
442.27	682.69
442.645	692.86
443.019	721.11
443.394	728.57
443.769	719.53
444.143	702.58
444.518	740.55
444.892	727.89
445.267	724.95
445.641	732.41
446.016	716.59
446.39	720.43
446.764	725.86
447.139	733.54
447.513	756.82
447.887	729.92
448.262	749.58
448.636	743.48
449.01	775.12
449.384	753.65
449.758	741.68
450.132	743.94
450.506	762.47
450.88	797.04
451.254	788.23
451.628	789.81
452.002	792.75
452.376	792.75
452.75	828.23
453.123	816.48
453.497	820.54
453.871	815.35
454.244	842.92
454.618	822.13
454.992	863.03
455.365	856.7
455.739	881.56
456.112	859.64
456.486	886.08
456.859	903.25
457.232	912.07
457.606	896.25
457.979	900.32
458.352	933.76
458.725	955.23
459.099	940.31
459.472	964.04
459.845	966.98
460.218	979.64
460.591	968.56
460.964	988
461.337	1026.64
461.71	1037.03
462.083	1070.03
462.456	1026.64
462.829	1040.2
463.201	1056.47
463.574	1058.28
463.947	1079.97
464.32	1090.37
464.692	1114.55
465.065	1112.29
465.438	1115.45
465.81	1140.53
466.183	1160.87
466.555	1181.89
466.928	1197.93
467.3	1225.05
467.672	1230.7
468.045	1290.36
468.417	1256.01
468.789	1278.61
469.161	1284.71
469.534	1321.55
469.906	1329.91
470.278	1362.9
470.65	1400.19
471.022	1414.2
471.394	1449.91
471.766	1487.87
472.138	1503.69
472.51	1502.33
472.882	1548.21
473.253	1589.79
473.625	1612.84
473.997	1660.3
474.369	1680.18
474.74	1719.28
475.112	1773.51
475.484	1802.44
475.855	1837.24
476.227	1887.18
476.598	1935.54
476.97	1991.36
477.341	2054.41
477.713	2097.12
478.084	2120.85
478.455	2196.55
478.827	2222.31
479.198	2341.86
479.569	2368.98
479.94	2477.67
480.311	2516.54
480.682	2576.66
481.053	2689.87
481.424	2722.87
481.795	2834.95
482.166	2885.35
482.537	2946.82
482.908	3083.08
483.279	3138.22
483.65	3234.04
484.021	3347.26
484.391	3411.66
484.762	3505.22
485.133	3577.76
485.503	3698.43
485.874	3862.72
486.244	3887.13
486.615	4057.52
486.985	4128.7
487.356	4284.63
487.726	4380.22
488.097	4547.68
488.467	4628.35
488.837	4744.51
489.207	4868.35
489.578	4970.49
489.948	5088
490.318	5258.39
490.688	5359.63
491.058	5501.78
491.428	5645.73
491.798	5807.08
492.168	5945.83
492.538	6081.65
492.908	6177.46
493.278	6336.1
493.648	6451.58
494.017	6621.75
494.387	6740.84
494.757	6846.15
495.126	7015.63
495.496	7124.11
495.866	7228.74
496.235	7386.92
496.605	7541.27
496.974	7637.31
497.344	7805.22
497.713	8002.5
498.082	8104.19
498.452	8294.02
498.821	8305.32
499.19	8498.99
499.559	8577.4
499.928	8782.59
500.298	8818.07
500.667	8994.79
501.036	9122.7
501.405	9187.78
501.774	9325.63
502.143	9438.4
502.512	9510.48
502.88	9683.81
503.249	9762.68
503.618	9942.79
503.987	10011.71
504.356	10135.55
504.724	10293.51
505.093	10303.91
505.462	10415.77
505.83	10575.32
506.199	10739.15
506.567	10888.08
506.936	10882.88
507.304	11112.25
507.672	11216.88
508.041	11227.28
508.409	11444.22
508.777	11539.81
509.145	11642.41
509.514	11711.78
509.882	11813.93
510.25	11888.73
510.618	12057.99
510.986	12033.81
511.354	12182.96
511.722	12292.78
512.09	12468.15
512.458	12448.94
512.826	12557.86
513.193	12780
513.561	12816.84
513.929	12928.25
514.297	13050.5
514.664	13176.6
515.032	13227
515.4	13349.03
515.767	13402.81
516.135	13519.19
516.502	13401.46
516.869	13731.84
517.237	13777.94
517.604	13699.98
517.972	13870.6
518.339	14033.08
518.706	14096.8
519.073	14172.96
519.44	14204.82
519.808	14273.3
520.175	14328.21
520.542	14553.06
520.909	14626.73
521.276	14654.08
521.643	14803.68
522.009	14870.34
522.376	14898.37
522.743	15059.49
523.11	15170.67
523.477	15340.39
523.843	15391.01
524.21	15515.3
524.577	15615.41
524.943	15647.05
525.31	15772.01
525.676	15892.69
526.043	15978.34
526.409	16039.13
526.776	16144.21
527.142	16223.75
527.508	16269.4
527.874	16423.75
528.241	16516.4
528.607	16518.21
528.973	16631.43
529.339	16581.26
529.705	16704.87
530.071	16818.99
530.437	16921.36
530.803	16930.18
531.169	17062.38
531.535	17061.7
531.901	17079.55
532.267	17080.91
532.632	17144.18
532.998	17267.12
533.364	17299.88
533.73	17299.66
534.095	17520.44
534.461	17408.36
534.826	17496.72
535.192	17522.25
535.557	17654.9
535.923	17652.19
536.288	17685.18
536.653	17603.83
537.019	17696.48
537.384	17730.38
537.749	17758.18
538.114	17819.64
538.479	17863.26
538.845	17837.95
539.21	17787.78
539.575	17906.65
539.94	17908.46
540.305	18016.7
540.67	17878.17
541.034	18065.51
541.399	18072.52
541.764	18019.41
542.129	18049.47
542.494	18152.74
542.858	18114.33
543.223	18147.32
543.587	18276.81
543.952	18192.97
544.316	18205.85
544.681	18211.05
545.045	18305.06
545.41	18310.93
545.774	18299.86
546.138	18319.74
546.503	18328.11
546.867	18251.5
547.231	18527.65
547.595	18384.6
547.959	18512.51
548.324	18454.43
548.688	18441.55
549.052	18522.22
549.416	18555.67
549.779	18522.68
550.143	18478.38
550.507	18712.05
550.871	18549.57
551.235	18620.3
551.599	18684.93
551.962	18606.97
552.326	18719.28
552.689	18744.14
553.053	18663.92
553.417	18795.21
553.78	18923.12
554.143	18900.07
554.507	18843.8
554.87	18963.57
555.234	19061.19
555.597	18912.95
555.96	19021.65
556.323	19032.72
556.686	19105.94
557.05	19110.23
557.413	19202.66
557.776	19127.86
558.139	19328.31
558.502	19300.74
558.865	19360.62
559.228	19449.43
559.59	19364.46
559.953	19413.27
560.316	19669.54
560.679	19607.17
561.041	19691.23
561.404	19728.29
561.767	19880.16
562.129	19783.21
562.492	19891.68
562.854	19873.6
563.217	19940.94
563.579	19985.01
563.941	20140.26
564.304	20114.27
564.666	20337.54
565.028	20308.62
565.39	20261.16
565.753	20410.54
566.115	20388.84
566.477	20467.26
566.839	20522.85
567.201	20529.18
567.563	20648.5
567.925	20693.92
568.287	20700.92
568.648	20727.14
569.01	20765.56
569.372	20928.72
569.734	20949.96
570.095	21020.69
570.457	20965.1
570.819	21093.91
571.18	21064.76
571.542	21153.12
571.903	21188.6
572.265	21237.63
572.626	21386.1
572.987	21441.47
573.349	21383.84
573.71	21476.72
574.071	21440.57
574.432	21527.12
574.794	21618.19
575.155	21657.51
575.516	21591.3
575.877	21748.35
576.238	21686.21
576.599	21798.75
576.96	21793.1
577.32	21829.03
577.681	21860.22
578.042	21963.94
578.403	21838.3
578.763	21887.11
579.124	21913.77
579.485	22057.73
579.845	21992.87
580.206	21922.36
580.566	22063.37
580.927	22099.08
581.287	22142.92
581.648	22173.65
582.008	22158.51
582.368	22134.56
582.728	22144.05
583.089	22162.58
583.449	22122.36
583.809	22065.86
584.169	22118.97
584.529	22102.02
584.889	22294.1
585.249	22033.32
585.609	22078.52
585.969	22254.78
586.329	22105.41
586.688	22247.32
587.048	22200.55
587.408	22106.76
587.768	22062.7
588.127	22144.95
588.487	22077.39
588.846	22209.13
589.206	22109.25
589.565	22143.15
589.925	22141.11
590.284	22103.15
590.643	22156.48
591.003	22185.63
591.362	22231.28
591.721	22301.79
592.08	22124.84
592.44	22279.19
592.799	22285.06
593.158	22178.63
593.517	22254.78
593.876	22329.36
594.235	22226.99
594.593	22170.49
594.952	22182.47
595.311	22193.77
595.67	22258.17
596.029	22296.81
596.387	22344.27
596.746	22445.51
597.104	22219.98
597.463	22244.16
597.822	22331.84
598.18	22232.86
598.538	22205.74
598.897	22375.68
599.255	22207.55
599.613	22556.02
599.972	22383.82
600.33	22365.06
600.688	22213.2
601.046	22329.81
601.404	22406.19
601.762	22424.27
602.12	22473.08
602.478	22643.7
602.836	22450.94
603.194	22463.82
603.552	22521.44
603.91	22351.95
604.268	22548.56
604.625	22495
604.983	22523.25
605.341	22485.06
605.698	22613.87
606.056	22682.57
606.413	22613.19
606.771	22662.45
607.128	22644.38
607.485	22624.04
607.843	22592.85
608.2	22798.72
608.557	22806.41
608.914	22725.96
609.272	22788.55
609.629	22912.39
609.986	22882.56
610.343	22826.74
610.7	22966.63
611.057	22963.24
611.414	22926.18
611.771	22957.59
612.127	23122.33
612.484	23045.95
612.841	23083.23
613.198	23132.73
613.554	23080.98
613.911	23240.74
614.267	23281.42
614.624	23201.88
614.98	23334.3
615.337	23396
615.693	23326.39
616.05	23290.01
616.406	23492.04
616.762	23370.01
617.118	23326.17
617.475	23360.97
617.831	23360.52
618.187	23532.71
618.543	23427.18
618.899	23615.42
619.255	23588.53
619.611	23647.29
619.967	23756.66
620.323	23678.93
620.678	23569.1
621.034	23623.79
621.39	23567.06
621.746	23533.17
622.101	23866.49
622.457	23684.57
622.812	23758.02
623.168	23734.74
623.523	23825.59
623.879	23797.79
624.234	23700.39
624.589	23823.33
624.945	23824.01
625.3	23836.21
625.655	23845.25
626.01	23874.63
626.365	23860.84
626.72	23794.63
627.075	23801.18
627.43	23848.41
627.785	23749.66
628.14	23826.27
628.495	23795.53
628.85	23699.26
629.205	23817.45
629.559	23926.38
629.914	23750.79
630.269	23834.85
630.623	23694.52
630.978	23696.33
631.332	23768.87
631.687	23866.49
632.041	23727.74
632.396	23765.7
632.75	23675.76
633.104	23727.96
633.459	23572.04
633.813	23658.59
634.167	23551.7
634.521	23630.11
634.875	23670.11
635.229	23662.88
635.583	23426.5
635.937	23572.94
636.291	23453.39
636.645	23506.5
636.999	23404.36
637.352	23530.91
637.706	23382.44
638.06	23442.32
638.413	23337.24
638.767	23290.91
639.121	23334.53
639.474	23257.02
639.828	23254.3
640.181	23209.33
640.534	23250.91
640.888	23187.86
641.241	23095.66
641.594	23205.27
641.947	23130.24
642.301	23087.98
642.654	23257.92
643.007	23163.68
643.36	23137.24
643.713	23193.06
644.066	23208.66
644.419	23046.63
644.771	22966.63
645.124	22773.41
645.477	22491.84
645.83	22483.02
646.182	22474.21
646.535	22293.88
646.888	22496.81
647.24	22256.36
647.593	22447.77
647.945	22329.81
648.298	22203.94
648.65	22167.1
649.002	22193.99
649.355	22158.97
649.707	22265.86
650.059	22287.32
650.411	22608.9
650.763	22638.05
651.115	22936.8
651.467	22801.89
651.819	22736.8
652.171	22717.37
652.523	22725.73
652.875	22718.5
653.227	22650.48
653.578	22866.29
653.93	22826.97
654.282	22641.21
654.633	22512.18
654.985	22721.66
655.337	22659.07
655.688	22631.04
656.039	22761.89
656.391	22537.71
656.742	22685.73
657.094	22536.13
657.445	22660.87
657.796	22614.77
658.147	22630.59
658.498	22612.06
658.849	22704.94
659.2	22699.06
659.551	22530.71
659.902	22618.84
660.253	22704.26
660.604	22650.93
660.955	22620.87
661.306	22625.85
661.656	22628.11
662.007	22634.21
662.358	22613.42
662.708	22573.87
663.059	22599.86
663.409	22472.18
663.76	22629.91
664.11	22579.52
664.461	22558.5
664.811	22579.52
665.161	22549.24
665.511	22454.1
665.862	22542.23
666.212	22515.11
666.562	22527.09
666.912	22604.38
667.262	22541.78
667.612	22583.14
667.962	22643.25
668.312	22493.87
668.662	22617.03
669.011	22582.68
669.361	22545.17
669.711	22504.04
670.06	22470.6
670.41	22473.99
670.76	22428.34
671.109	22547.88
671.459	22517.37
671.808	22491.16
672.157	22480.31
672.507	22311.5
672.856	22389.92
673.205	22364.61
673.554	22535.23
673.904	22383.82
674.253	22487.32
674.602	22429.47
674.951	22032.42
675.3	21973.21
675.649	22277.38
675.998	22287.32
676.346	22284.16
676.695	22281
677.044	22266.76
677.393	22282.8
677.741	22237.16
678.09	22249.13
678.438	22086.88
678.787	22238.96
679.135	22248
679.484	22020.21
679.832	22194.44
680.181	21962.13
680.529	22097.05
680.877	22032.87
681.225	21912.64
681.573	22139.3
681.922	21912.87
682.27	21930.72
682.618	21917.39
682.966	21781.8
683.314	21850.5
683.661	21726.89
684.009	21663.61
684.357	21646.89
684.705	21552.2
685.053	21564.63
685.4	21530.73
685.748	21436.27
686.095	21436.05
686.443	21302.94
686.79	21374.58
687.138	21454.13
687.485	21387.69
687.832	21238.99
688.18	21237.41
688.527	21219.1
688.874	21131.42
689.221	21063.17
689.568	21027.92
689.915	21062.05
690.262	21021.37
690.609	20846.91
690.956	20945.21
691.303	20809.62
691.65	20768.04
691.997	20767.14
692.344	20570.08
692.69	20603.3
693.037	20448.28
693.383	20360.82
693.73	20494.15
694.077	20363.76
694.423	20232.46
694.769	20280.14
695.116	20086.03
695.462	20150.88
695.808	20038.57
696.155	20028.4
696.501	19978.23
696.847	19885.35
697.193	19822.3
697.539	19841.96
697.885	19639.03
698.231	19665.7
698.577	19549.99
698.923	19531.01
699.269	19449.21
699.614	19289.89
699.96	19244.24
700.306	19288.31
700.651	19174.86
700.997	19090.57
701.342	19135.09
701.688	19066.62
702.033	18960.86
702.379	19036.11
702.724	18962.44
703.069	18910.01
703.415	18717.47
703.76	18663.24
704.105	18637.25
704.45	18697.36
704.795	18531.04
705.14	18493.3
705.485	18405.84
705.83	18381.21
706.175	18453.3
706.52	18298.73
706.865	18190.26
707.209	18145.29
707.554	18152.97
707.899	18231.39
708.243	18094.21
708.588	18043.82
708.932	18073.2
709.277	17924.73
709.621	18010.83
709.966	17833.2
710.31	17859.19
710.654	17703.72
710.998	17760.44
711.342	17671.4
711.687	17575.36
712.031	17517.51
712.375	17503.49
712.719	17541.46
713.063	17510.05
713.407	17587.11
713.75	17465.98
714.094	17429.6
714.438	17430.28
714.782	17392.76
715.125	17297.85
715.469	17366.32
715.812	17203.62
716.156	17108.02
716.499	17063.05
716.843	17169.72
717.186	17061.25
717.53	17100.12
717.873	17178.31
718.216	17056.5
718.559	16979.44
718.902	16852.66
719.246	17030.96
719.589	16841.37
719.932	16821.03
720.275	16852.89
720.617	16799.78
720.96	16866.9
721.303	16656.74
721.646	16757.53
721.989	16617.42
722.331	16692.44
722.674	16605.44
723.016	16578.32
723.359	16647.02
723.701	16614.25
724.044	16505.78
724.386	16371.09
724.729	16615.83
725.071	16503.52
725.413	16474.14
725.755	16442.73
726.097	16275.28
726.439	16333.36
726.782	16334.26
727.124	16329.74
727.465	16285.67
727.807	16315.96
728.149	16210.2
728.491	16214.94
728.833	16320.47
729.175	16294.03
729.516	16256.3
729.858	16207.03
730.199	16143.98
730.541	16154.38
730.882	16242.06
731.224	16148.5
731.565	16102.85
731.906	16134.94
732.248	16138.11
732.589	16051.56
732.93	15990.54
733.271	16043.87
733.612	16068.73
733.953	16091.1
734.294	15982.86
734.635	15956.87
734.976	16033.25
735.317	15931.11
735.658	15960.94
735.999	15985.34
736.339	15967.49
736.68	15991.67
737.021	15933.82
737.361	15917.32
737.702	15993.25
738.042	15850.66
738.383	15908.06
738.723	15924.1
739.063	15881.62
739.404	15990.09
739.744	15849.07
740.084	15789.19
740.424	15874.16
740.764	15856.08
741.104	15938.56
741.444	15875.06
741.784	15779.47
742.124	15911.22
742.464	15800.26
742.804	15848.4
743.143	15881.16
743.483	15821.05
743.823	15792.35
744.162	15816.99
744.502	15898.34
744.841	15840.94
745.181	15941.5
745.52	15866.25
745.86	15971.33
746.199	16016.3
746.538	15988.05
746.877	16075.74
747.216	16077.32
747.556	15992.57
747.895	16073.02
748.234	16029.64
748.573	16020.14
748.911	16099.46
749.25	16177.43
749.589	16169.74
749.928	16164.32
750.267	16265.56
750.605	16218.56
750.944	16304.66
751.283	16317.76
751.621	16419
751.96	16436.18
752.298	16483.86
752.636	16570.19
752.975	16520.24
753.313	16585.55
753.651	16708.04
753.989	16681.37
754.327	16798.2
754.666	16814.47
755.004	16888.14
755.342	16929.72
755.679	16998.2
756.017	17027.35
756.355	17225.08
756.693	17186.44
757.031	17246.1
757.368	17280.22
757.706	17393.89
758.044	17357.28
758.381	17574
758.719	17466.89
759.056	17582.14
759.394	17721.12
759.731	17614.23
760.068	17832.98
760.405	17790.72
760.743	17832.75
761.08	17998.62
761.417	17939.64
761.754	18088.34
762.091	18035.01
762.428	18030.94
762.765	18165.85
763.102	18219.41
763.438	18127.88
763.775	18285.85
764.112	18246.98
764.449	18429.35
764.785	18397.71
765.122	18376.01
765.458	18393.19
765.795	18417.59
766.131	18488.78
766.467	18461.21
766.804	18461.66
767.14	18456.46
767.476	18477.71
767.812	18507.99
768.148	18518.61
768.485	18655.1
768.821	18457.59
769.157	18555.22
769.492	18524.94
769.828	18562.22
770.164	18368.1
770.5	18455.56
770.836	18456.24
771.171	18436.8
771.507	18383.7
771.842	18422.11
772.178	18488.33
772.513	18343.7
772.849	18281.55
773.184	18265.28
773.519	18375.79
773.855	18294.89
774.19	18357.71
774.525	18281.33
774.86	18291.27
775.195	18265.06
775.53	18139.86
775.865	18141.22
776.2	18061.67
776.535	17915.01
776.87	18005.85
777.205	17997.49
777.539	17920.88
777.874	18035.46
778.209	17719.08
778.543	17832.3
778.878	17734.67
779.212	17768.35
779.547	17618.97
779.881	17618.75
780.215	17552.08
780.55	17638.63
780.884	17406.55
781.218	17475.02
781.552	17439.77
781.886	17427.79
782.22	17323.84
782.554	17289.94
782.888	17138.53
783.222	17040
783.556	17021.47
783.889	17089.49
784.223	16918.2
784.557	16884.53
784.89	17009.72
785.224	16782.61
785.557	16734.02
785.891	16737.19
786.224	16746
786.558	16679.79
786.891	16572.67
787.224	16519.11
787.557	16513.24
787.891	16411.09
788.224	16522.73
788.557	16368.61
788.89	16348.04
789.223	16311.44
789.556	16291.32
789.888	16197.31
790.221	16210.65
790.554	16057.88
790.887	16094.94
791.219	16049.52
791.552	16018.79
791.884	15964.33
792.217	15813.14
792.549	15849.53
792.882	15731.11
793.214	15620.83
793.546	15613.6
793.879	15498.35
794.211	15523.21
794.543	15576.54
794.875	15497.22
795.207	15462.87
795.539	15464.45
795.871	15345.59
796.203	15267.62
796.535	15210.22
796.867	15112.37
797.198	15083.67
797.53	15140.84
797.862	15084.12
798.193	15009.55
798.525	14924.13
798.856	14881.64
799.188	14811.36
799.519	14706.51
799.85	14642.1
800.182	14697.47
800.513	14668.31
800.844	14539.73
801.175	14615.21
801.506	14563.23
801.837	14527.08
802.168	14540.41
802.499	14442.33
802.83	14311.94
803.161	14346.06
803.491	14330.47
803.822	14286.86
804.153	14240.53
804.483	14051.61
804.814	14147.2
805.145	14111.49
805.475	14074.21
805.805	14011.16
806.136	13971.16
806.466	13967.32
806.796	13897.71
807.126	13834.21
807.457	13801.67
807.787	13781.11
808.117	13686.19
808.447	13695.46
808.777	13721.45
809.107	13631.73
809.436	13595.8
809.766	13672.63
810.096	13556.25
810.426	13542.24
810.755	13582.69
811.085	13571.85
811.414	13461.11
811.744	13341.57
812.073	13436.03
812.403	13319.2
812.732	13237.62
813.061	13274.68
813.39	13203.04
813.719	13181.8
814.049	13234.45
814.378	13164.85
814.707	13160.56
815.036	13091.63
815.365	12987
815.693	12938.42
816.022	12975.48
816.351	12941.81
816.68	12841.47
817.008	12881.92
817.337	12749.5
817.665	12763.28
817.994	12740.91
818.322	12724.41
818.651	12695.49
818.979	12676.95
819.307	12678.31
819.636	12640.57
819.964	12636.96
820.292	12661.36
820.62	12556.96
820.948	12450.52
821.276	12589.05
821.604	12556.73
821.932	12528.94
822.259	12555.6
822.587	12534.13
822.915	12396.28
823.243	12457.07
823.57	12400.13
823.898	12501.14
824.225	12419.11
824.553	12454.14
824.88	12542.95
825.207	12555.6
825.535	12532.33
825.862	12560.57
826.189	12506.11
826.516	12481.93
826.843	12553.57
827.17	12529.61
827.497	12554.02
827.824	12503.17
828.151	12424.31
828.478	12481.48
828.805	12524.19
829.131	12433.8
829.458	12456.17
829.785	12469.73
830.111	12471.31
830.438	12476.96
830.764	12422.95
831.09	12477.86
831.417	12442.61
831.743	12409.39
832.069	12357.42
832.395	12415.49
832.722	12384.76
833.048	12381.6
833.374	12452.78
833.7	12294.59
834.026	12428.83
834.351	12348.6
834.677	12321.71
835.003	12347.47
835.329	12366.23
835.654	12203.29
835.98	12206.01
836.306	12315.61
836.631	12196.74
836.956	12192.45
837.282	12163.3
837.607	12138.44
837.932	12140.02
838.258	12108.83
838.583	12184.09
838.908	12094.6
839.233	12123.3
839.558	12051.66
839.883	12051.89
840.208	11943.87
840.533	11919.46
840.858	12008.05
841.182	11998.55
841.507	11982.74
841.832	11820.25
842.156	11902.51
842.481	11867.26
842.805	11910.65
843.13	11835.62
843.454	11768.28
843.778	11749.52
844.103	11661.16
844.427	11663.87
844.751	11709.07
845.075	11620.03
845.399	11621.62
845.723	11521.96
846.047	11531.67
846.371	11437.89
846.695	11514.73
847.019	11426.82
847.343	11377.33
847.666	11196.77
847.99	11272.02
848.313	11286.93
848.637	11056.88
848.96	11155.19
849.284	11177.79
849.607	10995.64
849.931	10963.78
850.254	10938.02
850.577	10893.27
850.9	10854.18
851.223	10800.62
851.546	10698.48
851.869	10684.69
852.192	10797
852.515	10649.89
852.838	10602.21
853.161	10599.72
853.483	10510.68
853.806	10391.14
854.129	10519.95
854.451	10385.72
854.774	10357.92
855.096	10320.41
855.419	10337.81
855.741	10302.78
856.063	10186.62
856.385	10145.04
856.708	10124.25
857.03	10150.02
857.352	10170.81
857.674	10112.05
857.996	10084.93
858.318	9979.4
858.64	9992.05
858.961	9997.03
859.283	9945.5
859.605	9882
859.926	9882.45
860.248	9908.21
860.57	9784.6
860.891	9822.57
861.212	9776.24
861.534	9694.43
861.855	9808.33
862.176	9759.07
862.498	9613.76
862.819	9742.57
863.14	9647.2
863.461	9679.97
863.782	9651.72
864.103	9648.11
864.424	9608.79
864.745	9667.99
865.065	9548.22
865.386	9448.11
865.707	9538.51
866.027	9559.3
866.348	9542.35
866.668	9448.57
866.989	9464.38
867.309	9381.67
867.63	9460.32
867.95	9414.22
868.27	9397.27
868.59	9436.36
868.91	9411.05
869.23	9361.11
869.55	9325.18
869.87	9373.09
870.19	9341
870.51	9375.8
870.83	9291.51
871.15	9196.59
871.469	9261.45
871.789	9303.26
872.109	9252.19
872.428	9201.79
872.748	9202.24
873.067	9221.68
873.386	9205.86
873.706	9177.16
874.025	9096.71
874.344	9067.56
874.663	9108.46
874.982	9042.47
875.301	9035.92
875.62	9074.56
875.939	9076.82
876.258	9011.29
876.577	8998.63
876.896	8954.79
877.214	8915.7
877.533	8923.61
877.852	8969.48
878.17	8968.13
878.489	8918.64
878.807	8918.18
879.125	8897.39
879.444	8873.89
879.762	8834.8
880.08	8882.7
880.398	8806.1
880.716	8819.43
881.034	8719.09
881.352	8785.31
881.67	8752.76
881.988	8809.71
882.306	8744.18
882.624	8695.36
882.941	8717.96
883.259	8670.28
883.577	8628.93
883.894	8555.26
884.212	8536.5
884.529	8578.31
884.846	8584.41
885.164	8563.39
885.481	8531.75
885.798	8526.1
886.115	8506.22
886.432	8426.9
886.75	8421.7
887.067	8423.51
887.383	8435.48
887.7	8363.62
888.017	8303.51
888.334	8375.82
888.651	8321.36
888.967	8267.58
889.284	8258.77
889.6	8220.8
889.917	8198.65
890.233	8246.79
890.55	8178.32
890.866	8154.81
891.182	8155.27
891.498	8119.11
891.815	8090.86
892.131	8063.74
892.447	8055.83
892.763	7970.41
893.079	8023.07
893.395	7990.75
893.71	7908.94
894.026	7933.35
894.342	7880.02
894.657	7922.73
894.973	7887.93
895.289	7744.43
895.604	7849.96
895.92	7762.28
896.235	7720.47
896.55	7723.86
896.865	7670.98
897.181	7689.52
897.496	7713.7
897.811	7670.76
898.126	7560.71
898.441	7578.56
898.756	7574.26
899.071	7531.33
899.386	7565
899.7	7413.36
900.015	7366.13
900.33	7384.21
900.644	7336.3
900.959	7340.6
901.273	7310.99
901.588	7328.39
901.902	7287.72
902.216	7198
902.531	7244.1
902.845	7187.16
903.159	7129.3
903.473	7092.24
903.787	7062.87
904.101	7083.88
904.415	7073.49
904.729	7001.17
905.042	7031.68
905.356	6927.28
905.67	6891.8
905.984	6934.96
906.297	6893.38
906.611	6865.36
906.924	6864.23
907.237	6806.15
907.551	6794.62
907.864	6784.23
908.177	6750.56
908.491	6709.65
908.804	6697.23
909.117	6630.79
909.43	6622.88
909.743	6621.52
910.056	6613.16
910.368	6565.25
910.681	6495.2
910.994	6501.3
911.307	6508.98
911.619	6414.07
911.932	6409.1
912.244	6379.27
912.557	6367.74
912.869	6326.61
913.181	6306.27
913.494	6306.05
913.806	6252.72
914.118	6240.29
914.43	6260.85
914.742	6214.53
915.054	6153.06
915.366	6179.27
915.678	6166.84
915.99	6040.97
916.302	6041.42
916.613	6082.33
916.925	6038.71
917.236	5964.81
917.548	5950.8
917.859	5981.99
918.171	5907.42
918.482	5901.99
918.794	5940.63
919.105	5864.7
919.416	5791.71
919.727	5817.93
920.038	5791.26
920.349	5718.04
920.66	5706.29
920.971	5705.16
921.282	5659.51
921.593	5665.16
921.903	5633.75
922.214	5647.54
922.525	5559.85
922.835	5580.42
923.146	5562.79
923.456	5503.13
923.767	5509.01
924.077	5470.36
924.387	5511.72
924.697	5370.93
925.008	5447.99
925.318	5424.49
925.628	5377.71
925.938	5389.91
926.248	5331.84
926.558	5303.14
926.867	5283.7
927.177	5276.7
927.487	5269.47
927.796	5163.03
928.106	5185.17
928.416	5172.75
928.725	5175.91
929.034	5110.15
929.344	5128.9
929.653	5058.85
929.962	5090.26
930.271	5012.07
930.581	4996.48
930.89	5033.31
931.199	4989.25
931.508	4997.61
931.817	4954.67
932.125	4919.19
932.434	4913.32
932.743	4838.06
933.051	4812.98
933.36	4836.93
933.669	4789.48
933.977	4807.11
934.286	4714.68
934.594	4764.62
934.902	4730.5
935.21	4740.21
935.519	4722.36
935.827	4693.66
936.135	4649.82
936.443	4639.88
936.751	4589.71
937.059	4623.38
937.367	4572.08
937.674	4610.95
937.982	4520.79
938.29	4479.66
938.597	4520.11
938.905	4444.63
939.213	4423.61
939.52	4451.86
939.827	4437.4
940.135	4424.29
940.442	4398.3
940.749	4388.13
941.056	4337.29
941.363	4332.54
941.67	4340
941.977	4289.38
942.284	4270.85
942.591	4255.93
942.898	4256.61
943.205	4291.64
943.511	4220
943.818	4211.64
944.125	4185.65
944.431	4150.85
944.738	4169.38
945.044	4123.96
945.35	4084.86
945.657	4050.74
945.963	4037.41
946.269	4061.81
946.575	4035.6
946.881	4020.01
947.187	4026.79
947.493	3955.6
947.799	3942.27
948.105	3917.41
948.41	3909.73
948.716	3964.64
949.022	3896.62
949.327	3890.97
949.633	3841.48
949.938	3852.1
950.244	3832.44
950.549	3816.17
950.854	3817.98
951.16	3751.31
951.465	3748.38
951.77	3724.87
952.075	3732.78
952.38	3701.82
952.685	3682.39
952.99	3654.59
953.294	3640.36
953.599	3662.5
953.904	3622.28
954.209	3614.37
954.513	3589.51
954.818	3572.79
955.122	3563.07
955.426	3541.38
955.731	3557.42
956.035	3506.57
956.339	3517.87
956.643	3509.29
956.948	3475.84
957.252	3503.64
957.556	3482.17
957.86	3423.41
958.163	3432.23
958.467	3434.03
958.771	3405.56
959.075	3424.09
959.378	3360.82
959.682	3380.25
959.985	3340.03
960.289	3330.53
960.592	3333.92
960.896	3285.11
961.199	3255.73
961.502	3265.68
961.805	3268.84
962.108	3266.58
962.411	3245.56
962.714	3208.5
963.017	3198.11
963.32	3192.46
963.623	3190.42
963.926	3155.4
964.228	3154.72
964.531	3144.78
964.833	3126.25
965.136	3119.69
965.438	3080.82
965.741	3030.88
966.043	3070.65
966.345	3059.81
966.648	3076.98
966.95	2990.2
967.252	3024.33
967.554	3005.34
967.856	3000.83
968.158	2984.78
968.46	2976.64
968.761	2924.67
969.063	2942.97
969.365	2928.51
969.666	2904.56
969.968	2887.83
970.269	2860.49
970.571	2872.47
970.872	2876.53
971.174	2838.34
971.475	2826.37
971.776	2824.11
972.077	2797.89
972.378	2830.66
972.679	2757.22
972.98	2814.16
973.281	2774.16
973.582	2752.92
973.883	2748.18
974.183	2737.33
974.484	2739.59
974.785	2692.58
975.085	2675.41
975.386	2705.24
975.686	2707.05
975.986	2664.56
976.287	2647.84
976.587	2628.18
976.887	2623.43
977.187	2620.95
977.487	2644
977.787	2578.01
978.087	2590.21
978.387	2582.98
978.687	2569.65
978.987	2521.74
979.286	2546.37
979.586	2531.91
979.885	2519.26
980.185	2475.19
980.484	2511.57
980.784	2499.14
981.083	2477.9
981.382	2452.36
981.682	2436.09
981.981	2422.54
982.28	2422.99
982.579	2412.59
982.878	2414.4
983.177	2409.2
983.475	2411.24
983.774	2381.63
984.073	2380.95
984.372	2350.9
984.67	2354.74
984.969	2358.36
985.267	2347.28
985.566	2329.66
985.864	2321.75
986.162	2274.97
986.461	2288.53
986.759	2250.56
987.057	2278.81
987.355	2270
987.653	2237.23
987.951	2219.15
988.249	2230.68
988.547	2243.78
988.844	2202.43
989.142	2187.51
989.44	2197
989.737	2178.7
990.035	2170.79
990.332	2191.81
990.63	2147.51
990.927	2130.34
991.224	2117.23
991.521	2112.03
991.819	2146.84
992.116	2119.04
992.413	2088.08
992.71	2070.91
993.006	2079.49
993.303	2068.87
993.6	2064.8
993.897	2062.32
994.193	2040.85
994.49	2052.83
994.787	2031.13
995.083	1994.3
995.379	1998.59
995.676	2001.53
995.972	2004.69
996.268	1956.33
996.565	1972.83
996.861	1934.19
997.157	1924.02
997.453	1958.14
997.749	1913.62
998.044	1940.51
998.34	1919.27
998.636	1889.67
998.932	1872.49
999.227	1876.11
999.523	1915.2
999.818	1826.62
1000.114	1877.24
1000.409	1822.32
1000.704	1825.49
1001	1848.31
1001.295	1783.46
1001.59	1811.48
1001.885	1814.19
1002.18	1797.69
1002.475	1755.89
1002.77	1773.74
1003.065	1773.29
1003.359	1741.42
1003.654	1774.19
1003.949	1738.94
1004.243	1690.13
1004.538	1684.7
1004.832	1667.3
1005.127	1699.39
1005.421	1667.98
1005.715	1664.81
1006.009	1653.06
1006.304	1682.44
1006.598	1648.09
1006.892	1644.02
1007.186	1621.88
1007.48	1616.68
1007.773	1599.05
1008.067	1574.65
1008.361	1567.64
1008.655	1587.08
1008.948	1566.51
1009.242	1576.23
1009.535	1540.75
1009.829	1545.72
1010.122	1522.22
1010.415	1523.12
1010.708	1527.42
1011.001	1520.41
1011.295	1500.3
1011.588	1479.06
1011.881	1495.55
1012.173	1485.38
1012.466	1483.12
1012.759	1437.25
1013.052	1461.66
1013.344	1433.18
1013.637	1458.94
1013.93	1436.12
1014.222	1401.77
1014.514	1437.02
1014.807	1417.14
1015.099	1395.9
1015.391	1379.85
1015.683	1379.4
1015.976	1400.87
1016.268	1391.15
1016.56	1374.65
1016.851	1344.6
1017.143	1347.99
1017.435	1347.76
1017.727	1332.62
1018.018	1325.16
1018.31	1315.22
1018.602	1311.15
1018.893	1298.04
1019.185	1282.23
1019.476	1269.8
1019.767	1289.68
1020.058	1264.6
1020.35	1288.78
1020.641	1263.92
1020.932	1257.14
1021.223	1261.89
1021.514	1242.45
1021.804	1237.26
1022.095	1189.8
1022.386	1212.17
1022.677	1211.27
1022.967	1184.83
1023.258	1170.82
1023.548	1178.05
1023.839	1157.71
1024.129	1180.31
1024.419	1128.78
1024.709	1166.52
1025	1137.82
1025.29	1123.13
1025.58	1090.14
1025.87	1114.77
1026.16	1119.29
1026.449	1117.26
1026.739	1107.77
1027.029	1101.89
1027.319	1055.57
1027.608	1102.12
1027.898	1078.62
1028.187	1061.67
1028.477	1042.46
1028.766	1074.32
1029.055	1027.09
1029.344	1052.18
1029.634	1028.45
1029.923	1036.13
1030.212	1027.77
1030.501	1010.14
1030.79	980.31
1031.078	1003.14
1031.367	983.93
1031.656	987.77
1031.945	990.26
1032.233	980.31
1032.522	966.98
1032.81	972.18
1033.099	940.31
1033.387	961.1
1033.675	956.13
1033.963	952.97
1034.251	958.39
1034.54	950.26
1034.828	929.24
1035.116	928.11
1035.403	891.05
1035.691	910.48
1035.979	897.38
1036.267	916.13
1036.554	911.61
1036.842	870.71
1037.129	879.3
1037.417	877.49
1037.704	875.91
1037.992	880.2
1038.279	844.05
1038.566	823.93
1038.853	823.93
1039.14	823.93
