Data from hue_180_FLMS001491_00081.txt Node
Date: Tue Feb 07 16:47:35 GMT 2017
User: dcchb
Spectrometer: FLMS00149
Trigger mode: 0
Integration Time (sec): 2.000000E-2
Scans to average: 10
Electric dark correction enabled: true
Nonlinearity correction enabled: false
Boxcar width: 0
XAxis mode: Wavelengths
Number of Pixels in Spectrum: 2048
>>>>>Begin Spectral Data<<<<<
341.393	-1.4
341.776	-1.4
342.16	-1.4
342.543	-55.18
342.927	-54.05
343.31	-73.03
343.693	-63.32
344.077	-80.04
344.46	-32.58
344.843	-72.13
345.226	-32.36
345.61	-26.03
345.993	-22.87
346.376	-20.15
346.759	7.42
347.142	28.66
347.525	36.79
347.908	66.4
348.291	81.09
348.674	86.51
349.057	115.66
349.44	111.37
349.823	133.06
350.206	160.18
350.588	201.53
350.971	205.15
351.354	225.04
351.737	249.67
352.119	244.92
352.502	256.9
352.884	284.02
353.267	281.76
353.65	301.19
354.032	291.25
354.414	293.74
354.797	322.21
355.179	303.23
355.562	316.79
355.944	301.42
356.326	334.64
356.709	328.08
357.091	345.71
357.473	322.66
357.855	351.59
358.238	335.32
358.62	340.51
359.002	312.94
359.384	334.19
359.766	328.31
360.148	335.09
360.53	343.45
360.912	311.59
361.294	318.14
361.676	338.25
362.057	316.33
362.439	339.84
362.821	336.9
363.203	323.79
363.584	313.85
363.966	320.4
364.348	315.88
364.729	334.64
365.111	324.47
365.493	343.9
365.874	305.71
366.256	322.66
366.637	323.56
367.019	314.75
367.4	310.23
367.781	306.16
368.163	311.36
368.544	314.07
368.925	306.16
369.306	312.27
369.688	292.61
370.069	300.29
370.45	312.49
370.831	301.87
371.212	308.65
371.593	305.71
371.974	304.36
372.355	308.42
372.736	312.49
373.117	313.62
373.498	289.22
373.879	302.77
374.26	319.05
374.641	330.34
375.021	314.53
375.402	303.23
375.783	319.27
376.163	315.2
376.544	317.46
376.925	316.56
377.305	335.32
377.686	327.18
378.066	295.32
378.447	332.15
378.827	323.79
379.208	333.73
379.588	345.94
379.968	309.1
380.349	318.82
380.729	336.9
381.109	336.22
381.489	302.55
381.87	341.42
382.25	312.49
382.63	314.53
383.01	347.52
383.39	359.27
383.77	329.89
384.15	337.35
384.53	326.5
384.91	361.3
385.29	331.25
385.67	338.25
386.049	357.24
386.429	333.06
386.809	353.39
387.189	346.84
387.568	357.91
387.948	347.29
388.328	368.08
388.707	336.67
389.087	324.02
389.466	367.41
389.846	360.63
390.225	333.96
390.605	370.34
390.984	372.15
391.363	340.97
391.743	341.87
392.122	362.89
392.501	347.29
392.881	357.69
393.26	374.86
393.639	396.56
394.018	367.41
394.397	377.35
394.776	391.36
395.155	401.08
395.534	402.66
395.913	363.79
396.292	380.74
396.671	381.87
397.05	415.31
397.429	407.4
397.808	399.72
398.186	386.84
398.565	383.22
398.944	406.95
399.323	386.61
399.701	383
400.08	390.91
400.458	410.12
400.837	404.92
401.215	416.67
401.594	395.65
401.972	419.38
402.351	392.04
402.729	425.03
403.107	419.61
403.486	432.71
403.864	434.3
404.242	418.03
404.62	431.58
404.999	406.27
405.377	439.72
405.755	454.18
406.133	428.65
406.511	441.08
406.889	453.05
407.267	465.03
407.645	469.78
408.023	493.28
408.401	468.42
408.779	473.17
409.156	500.96
409.534	464.58
409.912	498.93
410.29	488.53
410.667	541.64
411.045	503
411.422	507.29
411.8	542.32
412.178	544.8
412.555	545.25
412.933	562.43
413.31	550
413.687	571.24
414.065	556.78
414.442	549.32
414.819	570.34
415.197	575.54
415.574	595.42
415.951	610.34
416.328	609.66
416.705	606.27
417.082	637
417.46	627.74
417.837	632.48
418.214	653.5
418.591	661.41
418.967	669.54
419.344	658.02
419.721	661.41
420.098	659.6
420.475	698.02
420.852	697.34
421.228	696.21
421.605	722.88
421.982	706.61
422.358	741.86
422.735	759.94
423.111	766.49
423.488	771.69
423.864	775.08
424.241	795.64
424.617	811.01
424.994	794.96
425.37	836.09
425.746	815.3
426.123	853.27
426.499	863.44
426.875	886.04
427.251	884.45
427.627	889.43
428.003	904.79
428.379	904.79
428.756	918.58
429.132	921.29
429.507	923.78
429.883	926.94
430.259	967.84
430.635	942.76
431.011	957.22
431.387	974.62
431.763	1022.76
432.138	1008.07
432.514	997.22
432.89	1050.33
433.265	1068.86
433.641	1088.52
434.016	1102.53
434.392	1095.97
434.767	1114.28
435.143	1171.23
435.518	1169.64
435.894	1187.95
436.269	1202.86
436.644	1226.59
437.02	1249.87
437.395	1277.44
437.77	1241.05
438.145	1281.51
438.52	1291.22
438.895	1307.49
439.271	1349.07
439.646	1378.9
440.021	1383.88
440.395	1396.31
440.77	1412.8
441.145	1393.37
441.52	1425.23
441.895	1462.97
442.27	1466.81
442.645	1470.2
443.019	1493.7
443.394	1519.92
443.769	1557.88
444.143	1512.23
444.518	1560.14
444.892	1547.04
445.267	1589.52
445.641	1609.41
446.016	1597.66
446.39	1606.7
446.764	1615.51
447.139	1622.06
447.513	1644.89
447.887	1621.61
448.262	1672.23
448.636	1665.22
449.01	1701.16
449.384	1724.66
449.758	1731.89
450.132	1744.54
450.506	1769.63
450.88	1780.93
451.254	1792.9
451.628	1789.06
452.002	1825.9
452.376	1843.07
452.75	1835.84
453.123	1877.42
453.497	1897.31
453.871	1919
454.244	1936.18
454.618	1995.39
454.992	1987.93
455.365	2019.79
455.739	2081.48
456.112	2068.38
456.486	2077.64
456.859	2126.91
457.232	2135.95
457.606	2140.92
457.979	2155.16
458.352	2230.41
458.725	2231.54
459.099	2296.62
459.472	2315.83
459.845	2338.43
460.218	2315.15
460.591	2364.64
460.964	2415.04
461.337	2483.96
461.71	2493.45
462.083	2525.54
462.456	2499.33
462.829	2550.85
463.201	2581.36
463.574	2617.29
463.947	2653.22
464.32	2695.03
464.692	2735.25
465.065	2766.21
465.438	2811.41
465.81	2851.86
466.183	2811.86
466.555	2919.2
466.928	2946.09
467.3	2976.6
467.672	3014.57
468.045	3102.93
468.417	3118.07
468.789	3118.07
469.161	3172.53
469.534	3252.53
469.906	3334.11
470.278	3336.14
470.65	3406.42
471.022	3444.39
471.394	3509.7
471.766	3534.78
472.138	3615.46
472.51	3690.93
472.882	3750.37
473.253	3791.04
473.625	3839.18
473.997	3934.32
474.369	3977.25
474.74	4028.1
475.112	4146.52
475.484	4167.76
475.855	4258.38
476.227	4361.42
476.598	4407.98
476.97	4516.45
477.341	4623.56
477.713	4679.38
478.084	4712.6
478.455	4828.31
478.827	4871.47
479.198	5056.55
479.569	5091.8
479.94	5203.44
480.311	5277.33
480.682	5437.1
481.053	5508.06
481.424	5667.38
481.795	5748.06
482.166	5888.16
482.537	5878.22
482.908	5991.21
483.279	6143.75
483.65	6245.44
484.021	6339.45
484.391	6442.5
484.762	6550.07
485.133	6588.26
485.503	6740.12
485.874	6911.64
486.244	6962.03
486.615	7105.76
486.985	7274.79
487.356	7351.18
487.726	7394.11
488.097	7580.1
488.467	7641.11
488.837	7795.46
489.207	7906.19
489.578	8068.9
489.948	8096.02
490.318	8242.45
490.688	8268.89
491.058	8409.23
491.428	8526.97
491.798	8568.55
492.168	8834.3
492.538	8844.02
492.908	8923.56
493.278	9048.08
493.648	9096.89
494.017	9183.9
494.387	9330.79
494.757	9382.31
495.126	9510.44
495.496	9531.91
495.866	9570.78
496.235	9637.9
496.605	9780.27
496.974	9797.21
497.344	9825.46
497.713	9967.38
498.082	10060.26
498.452	10170.99
498.821	10201.05
499.19	10192.68
499.559	10316.75
499.928	10367.14
500.298	10403.98
500.667	10459.12
501.036	10466.8
501.405	10558.32
501.774	10563.97
502.143	10687.59
502.512	10734.82
502.88	10677.87
503.249	10768.26
503.618	10771.2
503.987	10845.32
504.356	10932.1
504.724	11015.04
505.093	11008.03
505.462	11017.97
505.83	11131.87
506.199	11143.62
506.567	11267.23
506.936	11256.16
507.304	11331.64
507.672	11341.81
508.041	11356.27
508.409	11400.11
508.777	11516.04
509.145	11467
509.514	11510.84
509.882	11578.86
510.25	11564.17
510.618	11581.8
510.986	11652.08
511.354	11672.65
511.722	11758.52
512.09	11828.57
512.458	11754.45
512.826	11858.85
513.193	11863.6
513.561	11873.09
513.929	11993.54
514.297	11982.47
514.664	12050.04
515.032	11986.54
515.4	12123.93
515.767	12054.33
516.135	12130.94
516.502	11996.25
516.869	12186.08
517.237	12181.78
517.604	12073.31
517.972	12258.62
518.339	12250.93
518.706	12138.85
519.073	12268.56
519.44	12234.21
519.808	12291.16
520.175	12257.04
520.542	12366.64
520.909	12435.79
521.276	12293.65
521.643	12374.55
522.009	12440.31
522.376	12446.64
522.743	12418.84
523.11	12514.66
523.477	12560.08
523.843	12566.18
524.21	12614.99
524.577	12610.93
524.943	12644.82
525.31	12637.14
525.676	12756.91
526.043	12676.91
526.409	12689.79
526.776	12720.98
527.142	12664.48
527.508	12651.38
527.874	12733.63
528.241	12801.65
528.607	12721.88
528.973	12764.37
529.339	12647.76
529.705	12734.76
530.071	12771.15
530.437	12709.91
530.803	12698.38
531.169	12753.75
531.535	12678.49
531.901	12613.41
532.267	12649.12
532.632	12649.34
532.998	12579.97
533.364	12659.96
533.73	12578.16
534.095	12647.31
534.461	12585.62
534.826	12562.57
535.192	12517.37
535.557	12493.64
535.923	12484.6
536.288	12453.64
536.653	12399.63
537.019	12314.66
537.384	12289.58
537.749	12240.31
538.114	12173.2
538.479	12160.32
538.845	12181.11
539.21	11990.83
539.575	12128.68
539.94	12067.89
540.305	11969.59
540.67	11902.7
541.034	11911.06
541.399	11875.8
541.764	11861.57
542.129	11809.36
542.494	11736.82
542.858	11763.94
543.223	11678.52
543.587	11690.27
543.952	11576.38
544.316	11597.39
544.681	11483.05
545.045	11512.42
545.41	11486.66
545.774	11457.96
546.138	11294.58
546.503	11303.62
546.867	11222.26
547.231	11256.38
547.595	11222.26
547.959	11158.31
548.324	11127.35
548.688	11052.77
549.052	10974.13
549.416	10991.98
549.779	10956.05
550.143	10955.15
550.507	10931.87
550.871	10850.29
551.235	10698.66
551.599	10838.54
551.962	10735.95
552.326	10710.86
552.689	10664.31
553.053	10559.45
553.417	10506.8
553.78	10615.5
554.143	10504.54
554.507	10532.11
554.87	10410.76
555.234	10501.6
555.597	10388.84
555.96	10366.92
556.323	10385.45
556.686	10283.08
557.05	10314.94
557.413	10335.28
557.776	10255.06
558.139	10241.04
558.502	10209.41
558.865	10164.21
559.228	10197.88
559.59	10148.62
559.953	10149.75
560.316	10184.55
560.679	10149.52
561.041	10174.38
561.404	10134.61
561.767	10178.67
562.129	10141.39
562.492	10093.7
562.854	10083.31
563.217	10070.88
563.579	10067.49
563.941	10025.46
564.304	10049.41
564.666	10081.05
565.028	10126.7
565.39	10077.43
565.753	10153.36
566.115	10065
566.477	10146.36
566.839	10074.27
567.201	10069.52
567.563	10061.84
567.925	10102.74
568.287	10075.85
568.648	10123.08
569.01	10075.4
569.372	10155.4
569.734	9996.76
570.095	10073.82
570.457	10061.84
570.819	10131.22
571.18	10061.16
571.542	10127.6
571.903	10148.39
572.265	10120.6
572.626	10114.04
572.987	10088.28
573.349	10062.52
573.71	10100.93
574.071	10091.22
574.432	10145
574.794	10142.97
575.155	10167.83
575.516	10108.17
575.877	10056.64
576.238	10135.74
576.599	10098.45
576.96	10089.86
577.32	10106.81
577.681	10144.55
578.042	10145
578.403	10076.53
578.763	10121.5
579.124	10118.56
579.485	10137.32
579.845	10142.97
580.206	10084.44
580.566	10043.54
580.927	10033.59
581.287	10130.54
581.648	10028.17
582.008	10120.14
582.368	10039.69
582.728	10014.16
583.089	10040.6
583.449	10037.89
583.809	10009.64
584.169	9985.68
584.529	9994.95
584.889	10040.15
585.249	9971.22
585.609	9952.69
585.969	10002.41
586.329	9911.11
586.688	9992.92
587.048	9946.59
587.408	9928.51
587.768	9935.29
588.127	9937.1
588.487	9834.05
588.846	9943.65
589.206	9869.98
589.565	9842.41
589.925	9885.12
590.284	9880.38
590.643	9868.17
591.003	9822.52
591.362	9880.83
591.721	9866.36
592.08	9804.67
592.44	9859.59
592.799	9815.07
593.158	9737.55
593.517	9834.95
593.876	9810.55
594.235	9814.39
594.593	9773.71
594.952	9693.49
595.311	9683.54
595.67	9706.14
596.029	9747.05
596.387	9779.14
596.746	9744.56
597.104	9647.84
597.463	9657.33
597.822	9707.05
598.18	9655.3
598.538	9647.61
598.897	9632.92
599.255	9591.57
599.613	9740.27
599.972	9710.21
600.33	9699.59
600.688	9748.63
601.046	9673.15
601.404	9762.19
601.762	9650.33
602.12	9685.13
602.478	9700.72
602.836	9656.65
603.194	9639.7
603.552	9665.92
603.91	9556.99
604.268	9643.77
604.625	9624.11
604.983	9639.25
605.341	9617.11
605.698	9608.74
606.056	9641.06
606.413	9611.23
606.771	9620.5
607.128	9621.4
607.485	9578.01
607.843	9620.5
608.2	9671.12
608.557	9688.52
608.914	9653.04
609.272	9704.79
609.629	9675.86
609.986	9745.46
610.343	9693.71
610.7	9705.92
611.057	9727.84
611.414	9731.23
611.771	9624.34
612.127	9720.83
612.484	9730.1
612.841	9765.58
613.198	9705.92
613.554	9703.66
613.911	9741.62
614.267	9778.23
614.624	9700.04
614.98	9678.57
615.337	9786.14
615.693	9778.68
616.05	9785.01
616.406	9773.03
616.762	9763.32
617.118	9746.37
617.475	9765.12
617.831	9758.57
618.187	9758.12
618.543	9760.83
618.899	9809.42
619.255	9855.97
619.611	9790.21
619.967	9875.63
620.323	9794.73
620.678	9835.86
621.034	9801.73
621.39	9784.33
621.746	9816.65
622.101	9929.19
622.457	9755.18
622.812	9787.95
623.168	9851.68
623.523	9835.18
623.879	9854.39
624.234	9794.5
624.589	9799.47
624.945	9876.53
625.3	9892.35
625.655	9906.82
626.01	9793.6
626.365	9818.68
626.72	9758.57
627.075	9845.8
627.43	9799.02
627.785	9793.82
628.14	9778.91
628.495	9776.42
628.85	9780.72
629.205	9768.29
629.559	9788.85
629.914	9714.5
630.269	9745.01
630.623	9749.53
630.978	9711.11
631.332	9707.72
631.687	9725.35
632.041	9697.1
632.396	9679.25
632.75	9665.69
633.104	9710.66
633.459	9665.01
633.813	9632.47
634.167	9626.37
634.521	9653.04
634.875	9580.5
635.229	9504.11
635.583	9546.37
635.937	9544.57
636.291	9553.15
636.645	9573.04
636.999	9554.73
637.352	9555.64
637.706	9446.71
638.06	9519.48
638.413	9501.18
638.767	9509.99
639.121	9472.48
639.474	9415.98
639.828	9408.52
640.181	9408.07
640.534	9478.58
640.888	9493.95
641.241	9389.77
641.594	9430.44
641.947	9426.83
642.301	9369.88
642.654	9383.21
643.007	9468.41
643.36	9404
643.713	9334.18
644.066	9389.32
644.419	9353.84
644.771	9267.74
645.124	9230.22
645.477	9124.46
645.83	9161.75
646.182	9088.31
646.535	9020.29
646.888	9095.31
647.24	9036.78
647.593	9079.72
647.945	9046.27
648.298	9027.74
648.65	9010.34
649.002	8994.75
649.355	9069.78
649.707	9128.98
650.059	9082.66
650.411	9205.37
650.763	9126.95
651.115	9224.8
651.467	9300.73
651.819	9267.06
652.171	9254.4
652.523	9191.58
652.875	9223.22
653.227	9151.13
653.578	9312.03
653.93	9306.83
654.282	9219.38
654.633	9229.55
654.985	9292.37
655.337	9264.12
655.688	9299.37
656.039	9201.52
656.391	9236.55
656.742	9261.64
657.094	9300.5
657.445	9308.41
657.796	9294.85
658.147	9273.39
658.498	9268.19
658.849	9254.63
659.2	9267.51
659.551	9197
659.902	9312.93
660.253	9260.05
660.604	9365.14
660.955	9293.05
661.306	9323.78
661.656	9335.31
662.007	9283.78
662.358	9359.94
662.708	9341.63
663.059	9312.71
663.409	9270.45
663.76	9368.3
664.11	9390.9
664.461	9316.55
664.811	9361.07
665.161	9380.5
665.511	9385.25
665.862	9315.87
666.212	9423.89
666.562	9378.69
666.912	9345.7
667.262	9412.82
667.612	9403.55
667.962	9374.4
668.312	9377.34
668.662	9418.02
669.011	9312.26
669.361	9379.15
669.711	9272.26
670.06	9300.5
670.41	9297.79
670.76	9314.51
671.109	9381.41
671.459	9360.16
671.808	9260.73
672.157	9311.35
672.507	9216.89
672.856	9245.36
673.205	9297.34
673.554	9305.48
673.904	9301.41
674.253	9317.45
674.602	9243.56
674.951	9133.05
675.3	9055.99
675.649	9232.03
675.998	9189.55
676.346	9227.74
676.695	9199.49
677.044	9169.43
677.393	9239.26
677.741	9172.15
678.09	9170.34
678.438	9144.35
678.787	9208.76
679.135	9162.65
679.484	9171.24
679.832	9118.81
680.181	9117.91
680.529	9059.61
680.877	9047.86
681.225	8995.43
681.573	9062.32
681.922	9032.26
682.27	8942.1
682.618	9035.88
682.966	8937.8
683.314	8925.6
683.661	8948.87
684.009	8924.92
684.357	8833.17
684.705	8846.5
685.053	8932.38
685.4	8837.47
685.748	8838.6
686.095	8773.96
686.443	8736.45
686.79	8713.85
687.138	8744.81
687.485	8754.98
687.832	8681.31
688.18	8747.75
688.527	8642.44
688.874	8626.62
689.221	8597.25
689.568	8562.67
689.915	8535.78
690.262	8521.99
690.609	8519.51
690.956	8494.88
691.303	8454.2
691.65	8400.87
691.997	8418.95
692.344	8359.74
692.69	8310.02
693.037	8312.73
693.383	8291.04
693.73	8235.9
694.077	8241.32
694.423	8204.04
694.769	8145.05
695.116	8141.21
695.462	8170.14
695.808	8087.2
696.155	8121.33
696.501	8061.67
696.847	8030.03
697.193	7963.36
697.539	7955.45
697.885	7896.93
698.231	7938.96
698.577	7867.55
698.923	7795.91
699.269	7832.29
699.614	7727.66
699.96	7786.42
700.306	7719.08
700.651	7676.14
700.997	7662.13
701.342	7705.07
701.688	7635.01
702.033	7587.33
702.379	7583.04
702.724	7540.78
703.069	7502.59
703.415	7400.44
703.76	7437.05
704.105	7484.96
704.45	7375.36
704.795	7374.9
705.14	7324.06
705.485	7342.82
705.83	7327.67
706.175	7340.1
706.52	7217.62
706.865	7213.78
707.209	7259.65
707.554	7191.63
707.899	7168.36
708.243	7145.08
708.588	7175.81
708.932	7109.38
709.277	7041.13
709.621	7054.91
709.966	7034.8
710.31	6964.07
710.654	6971.3
710.998	7009.94
711.342	6996.61
711.687	6946.67
712.031	6907.12
712.375	6869.61
712.719	6876.61
713.063	6882.04
713.407	6870.06
713.75	6821.25
714.094	6833.22
714.438	6830.51
714.782	6798.42
715.125	6775.6
715.469	6805.43
715.812	6785.54
716.156	6713.91
716.499	6722.27
716.843	6722.04
717.186	6701.02
717.53	6664.19
717.873	6757.97
718.216	6688.6
718.559	6709.84
718.902	6633.46
719.246	6655.38
719.589	6667.13
719.932	6628.48
720.275	6633.91
720.617	6579.45
720.96	6609.05
721.303	6619.67
721.646	6642.04
721.989	6576.73
722.331	6620.57
722.674	6570.86
723.016	6632.33
723.359	6580.35
723.701	6615.15
724.044	6557.07
724.386	6542.84
724.729	6517.98
725.071	6546.9
725.413	6527.92
725.755	6506.23
726.097	6511.42
726.439	6526.57
726.782	6490.41
727.124	6527.47
727.465	6529.96
727.807	6485.44
728.149	6492.44
728.491	6470.75
728.833	6509.84
729.175	6453.35
729.516	6475.49
729.858	6448.6
730.199	6489.96
730.541	6476.17
730.882	6471.65
731.224	6520.46
731.565	6476.4
731.906	6480.69
732.248	6506.45
732.589	6470.97
732.93	6493.35
733.271	6419.22
733.612	6480.01
733.953	6518.2
734.294	6494.7
734.635	6482.27
734.976	6468.71
735.317	6521.82
735.658	6478.21
735.999	6524.98
736.339	6451.77
736.68	6521.14
737.021	6511.65
737.361	6462.39
737.702	6463.97
738.042	6537.41
738.383	6530.41
738.723	6513.91
739.063	6534.7
739.404	6572.44
739.744	6573.34
740.084	6555.27
740.424	6626.22
740.764	6564.3
741.104	6607.24
741.444	6602.27
741.784	6593.68
742.124	6618.99
742.464	6665.32
742.804	6622.16
743.143	6700.35
743.483	6706.9
743.823	6716.17
744.162	6703.96
744.502	6830.29
744.841	6808.59
745.181	6874.13
745.52	6849.04
745.86	6907.57
746.199	6886.78
746.538	6960.23
746.877	7072.31
747.216	7086.55
747.556	7110.51
747.895	7124.74
748.234	7180.79
748.573	7234.57
748.911	7297.39
749.25	7369.71
749.589	7460.55
749.928	7472.98
750.267	7594.33
750.605	7660.77
750.944	7687.44
751.283	7781.9
751.621	7929.24
751.96	7915.23
752.298	8089.91
752.636	8132.4
752.975	8224.6
753.313	8272.73
753.651	8446.74
753.989	8550.69
754.327	8619.62
754.666	8676.79
755.004	8833.85
755.342	8977.35
755.679	9075.2
756.017	9109.55
756.355	9373.72
756.693	9492.59
757.031	9676.54
757.368	9740.49
757.706	9937.78
758.044	9969.86
758.381	10240.82
758.719	10358.56
759.056	10478.78
759.394	10583.63
759.731	10750.64
760.068	11024.07
760.405	11134.81
760.743	11244.18
761.08	11429.94
761.417	11605.3
761.754	11731.85
762.091	11956.25
762.428	12069.92
762.765	12279.18
763.102	12548.1
763.438	12565.5
763.775	12816.34
764.112	12918.71
764.449	13166.84
764.785	13293.39
765.122	13413.84
765.458	13567.96
765.795	13699.48
766.131	13844.11
766.467	13997.33
766.804	14191
767.14	14299.92
767.476	14442.74
767.812	14566.13
768.148	14781.49
768.485	14770.19
768.821	14919.34
769.157	15043.63
769.492	15232.33
769.828	15371.76
770.164	15425.09
770.5	15511.19
770.836	15644.07
771.171	15707.79
771.507	15837.28
771.842	15807.68
772.178	16027.78
772.513	16064.39
772.849	16198.63
773.184	16243.82
773.519	16305.97
773.855	16433.42
774.19	16466.64
774.525	16575.57
774.86	16629.8
775.195	16682.46
775.53	16713.42
775.865	16856.24
776.2	16852.62
776.535	16815.79
776.87	16943.92
777.205	16978.49
777.539	16937.37
777.874	17067.98
778.209	16968.78
778.543	17025.72
778.878	17003.58
779.212	17143.91
779.547	17101.88
779.881	17253.97
780.215	17199.05
780.55	17378.48
780.884	17284.7
781.218	17239.5
781.552	17373.06
781.886	17300.07
782.22	17279.28
782.554	17259.84
782.888	17180.52
783.222	17233.4
783.556	17103.01
783.889	17219.17
784.223	17214.42
784.557	17151.82
784.89	17213.97
785.224	17161.77
785.557	17117.02
785.891	17230.47
786.224	17180.3
786.558	17193.86
786.891	17090.81
787.224	17172.84
787.557	17089.23
787.891	17098.72
788.224	17193.63
788.557	17170.35
788.89	17039.96
789.223	17191.37
789.556	17019.17
789.888	17012.62
790.221	17046.97
790.554	16978.27
790.887	16944.6
791.219	16902.34
791.552	16886.75
791.884	16846.97
792.217	16851.72
792.549	16787.54
792.882	16770.14
793.214	16728.33
793.546	16680.2
793.879	16633.64
794.211	16561.33
794.543	16632.06
794.875	16612.63
795.207	16571.5
795.539	16520.2
795.871	16544.83
796.203	16369.24
796.535	16394.1
796.867	16378.51
797.198	16316.59
797.53	16325.63
797.862	16278.17
798.193	16293.54
798.525	16090.83
798.856	16164.28
799.188	15983.27
799.519	15954.79
799.85	15961.8
800.182	16042.47
800.513	16011.74
800.844	15942.82
801.175	15912.76
801.506	15956.37
801.837	15840.67
802.168	15809.49
802.499	15828.92
802.83	15658.98
803.161	15706.66
803.491	15617.4
803.822	15573.79
804.153	15586.89
804.483	15468.25
804.814	15540.11
805.145	15451.3
805.475	15520.91
805.805	15311.42
806.136	15388.03
806.466	15392.32
806.796	15302.61
807.126	15290.4
807.457	15255.15
807.787	15195.49
808.117	15184.64
808.447	15124.08
808.777	15183.97
809.107	15042.27
809.436	15047.92
809.766	15052.67
810.096	15091.54
810.426	14896.52
810.755	14918.89
811.085	15011.77
811.414	14887.25
811.744	14819.45
812.073	14817.42
812.403	14787.82
812.732	14710.31
813.061	14719.12
813.39	14710.08
813.719	14654.26
814.049	14656.97
814.378	14640.48
814.707	14531.78
815.036	14543.76
815.365	14464.21
815.693	14475.51
816.022	14394.38
816.351	14353.03
816.68	14332.01
817.008	14380.82
817.337	14264.44
817.665	14239.58
817.994	14261.73
818.322	14263.31
818.651	14096.54
818.979	14155.52
819.307	14238.68
819.636	14144.67
819.964	14113.71
820.292	14179.25
820.62	14183.09
820.948	14145.57
821.276	14173.37
821.604	14080.49
821.932	14127.04
822.259	14160.26
822.587	14094.05
822.915	14105.12
823.243	14131.34
823.57	14146.03
823.898	14101.06
824.225	14038.91
824.553	14084.11
824.88	14037.78
825.207	14165.23
825.535	14090.21
825.862	14050.44
826.189	14068.29
826.516	14006.14
826.843	14205.91
827.17	14143.99
827.497	14125.46
827.824	14114.39
828.151	14157.1
828.478	14180.38
828.805	14151.9
829.131	14165.91
829.458	14064.67
829.785	14010.44
830.111	14177.44
830.438	14169.98
830.764	14147.83
831.09	14088.63
831.417	14113.26
831.743	14140.6
832.069	14087.27
832.395	14000.72
832.722	14009.76
833.048	14056.54
833.374	14085.24
833.7	13915.07
834.026	14032.13
834.351	13992.13
834.677	14007.27
835.003	14050.89
835.329	13961.62
835.654	13976.31
835.98	13925.92
836.306	13965.47
836.631	13944.9
836.956	13871.23
837.282	13917.56
837.607	13892.93
837.932	13857.22
838.258	13868.75
838.583	13896.77
838.908	13714.4
839.233	13767.73
839.558	13713.5
839.883	13621.52
840.208	13699.48
840.533	13685.02
840.858	13649.09
841.182	13623.1
841.507	13717.56
841.832	13522.77
842.156	13474.63
842.481	13556.44
842.805	13480.06
843.13	13419.04
843.454	13471.92
843.778	13368.42
844.103	13321.64
844.427	13342.88
844.751	13307.18
845.075	13308.99
845.399	13247.97
845.723	13159.61
846.047	13188.31
846.371	13056.56
846.695	13041.2
847.019	12925.49
847.343	12933.85
847.666	12877.81
847.99	12887.75
848.313	12774.76
848.637	12679.4
848.96	12684.14
849.284	12667.87
849.607	12564.82
849.931	12570.7
850.254	12517.14
850.577	12463.81
850.9	12372.97
851.223	12309.01
851.546	12259.75
851.869	12186.98
852.192	12255.45
852.515	12115.8
852.838	12086.65
853.161	12109.02
853.483	12004.39
853.806	12016.36
854.129	12021.11
854.451	11925.29
854.774	11849.36
855.096	11800.1
855.419	11768.69
855.741	11736.15
856.063	11707.9
856.385	11697.5
856.708	11608.92
857.03	11533.21
857.352	11549.71
857.674	11544.74
857.996	11526.66
858.318	11360.34
858.64	11457.06
858.961	11415.93
859.283	11373.9
859.605	11229.72
859.926	11325.31
860.248	11304.97
860.57	11305.2
860.891	11278.98
861.212	11203.5
861.534	11171.64
861.855	11098.2
862.176	11113.34
862.498	11129.83
862.819	11129.38
863.14	11074.92
863.461	11076.5
863.782	11057.97
864.103	11050.29
864.424	10987.24
864.745	11008.03
865.065	10973.91
865.386	10887.35
865.707	10811.42
866.027	10942.49
866.348	10788.37
866.668	10850.75
866.989	10832.89
867.309	10753.8
867.63	10770.3
867.95	10775.49
868.27	10671.09
868.59	10685.1
868.91	10674.48
869.23	10701.37
869.55	10659.79
869.87	10699.34
870.19	10627.02
870.51	10674.48
870.83	10641.94
871.15	10583.86
871.469	10557.19
871.789	10646.23
872.109	10582.28
872.428	10495.05
872.748	10556.52
873.067	10464.99
873.386	10523.52
873.706	10456.63
874.025	10390.42
874.344	10421.15
874.663	10384.32
874.982	10393.81
875.301	10480.13
875.62	10371.44
875.939	10296.86
876.258	10397.42
876.577	10350.42
876.896	10294.38
877.214	10319.01
877.533	10316.75
877.852	10243.76
878.17	10205.56
878.489	10227.26
878.807	10199.24
879.125	10251.67
879.444	10216.41
879.762	10150.43
880.08	10184.32
880.398	10096.87
880.716	10175.96
881.034	10076.98
881.352	10046.47
881.67	10053.03
881.988	10040.15
882.306	9999.02
882.624	9921.28
882.941	9975.97
883.259	9896.65
883.577	9901.39
883.894	9884.67
884.212	9819.13
884.529	9871.11
884.846	9793.15
885.164	9826.59
885.481	9736.65
885.798	9772.13
886.115	9732.58
886.432	9730.78
886.75	9645.81
887.067	9631.34
887.383	9606.26
887.7	9653.26
888.017	9589.08
888.334	9607.16
888.651	9561.29
888.967	9580.04
889.284	9488.97
889.6	9482.87
889.917	9372.82
890.233	9408.75
890.55	9313.16
890.866	9358.36
891.182	9360.84
891.498	9289.2
891.815	9270
892.131	9241.07
892.447	9247.4
892.763	9183.22
893.079	9149.1
893.395	9175.31
893.71	9127.63
894.026	9110.23
894.342	9053.5
894.657	9019.16
894.973	8966.73
895.289	8888.31
895.604	8960.85
895.92	8863.91
896.235	8819.39
896.55	8852.38
896.865	8818.48
897.181	8767.41
897.496	8768.31
897.811	8710.69
898.126	8708.88
898.441	8674.53
898.756	8630.47
899.071	8614.42
899.386	8606.06
899.7	8560.64
900.015	8467.31
900.33	8442
900.644	8413.75
900.959	8404.71
901.273	8395.44
901.588	8356.35
901.902	8316.35
902.216	8305.95
902.531	8241.1
902.845	8253.07
903.159	8235.45
903.473	8118.61
903.787	8117.48
904.101	8095.56
904.415	8047.66
904.729	8069.58
905.042	8025.74
905.356	7944.38
905.67	7928.11
905.984	7962.69
906.297	7893.31
906.611	7879.3
906.924	7827.32
907.237	7819.41
907.551	7760.66
907.864	7757.72
908.177	7766.99
908.491	7675.69
908.804	7592.75
909.117	7571.74
909.43	7580.32
909.743	7516.14
910.056	7525.18
910.368	7474.11
910.681	7447.9
910.994	7442.25
911.307	7420.78
911.619	7371.06
911.932	7331.52
912.244	7322.02
912.557	7345.75
912.869	7267.79
913.181	7162.71
913.494	7242.25
913.806	7164.29
914.118	7072.09
914.43	7082.48
914.742	7070.96
915.054	7026.67
915.366	6981.47
915.678	6987.8
915.99	6968.36
916.302	6933.11
916.613	6859.21
916.925	6830.96
917.236	6869.83
917.548	6785.32
917.859	6801.36
918.171	6725.66
918.482	6705.32
918.794	6674.58
919.105	6654.47
919.416	6640.24
919.727	6653.79
920.038	6565.89
920.349	6584.19
920.66	6550.29
920.971	6528.83
921.282	6555.04
921.593	6497.19
921.903	6404.53
922.214	6390.52
922.525	6390.75
922.835	6392.56
923.146	6316.18
923.456	6265.33
923.767	6261.49
924.077	6271.43
924.387	6219.68
924.697	6182.62
925.008	6172.9
925.318	6099.68
925.628	6150.08
925.938	6148.72
926.248	6060.36
926.558	6043.19
926.867	6018.78
927.177	5978.56
927.487	5981.27
927.796	5931.55
928.106	5892.46
928.416	5875.28
928.725	5864.21
929.034	5801.39
929.344	5883.87
929.653	5841.84
929.962	5738.79
930.271	5713.93
930.581	5738.11
930.89	5731.33
931.199	5673.03
931.508	5671.9
931.817	5669.41
932.125	5619.02
932.434	5615.63
932.743	5538.12
933.051	5527.5
933.36	5535.41
933.669	5496.54
933.977	5471.9
934.286	5447.5
934.594	5538.34
934.902	5432.81
935.21	5362.75
935.519	5403.66
935.827	5374.51
936.135	5330.89
936.443	5279.59
936.751	5275.07
937.059	5277.56
937.367	5213.61
937.674	5271.46
937.982	5219.48
938.29	5210.89
938.597	5203.89
938.905	5095.19
939.213	5103.33
939.52	5075.3
939.827	5065.81
940.135	5046.83
940.442	5049.77
940.749	5022.65
941.056	5015.64
941.363	4993.5
941.67	4946.04
941.977	4902.2
942.284	4898.81
942.591	4859.94
942.898	4846.61
943.205	4801.41
943.511	4816.1
943.818	4830.57
944.125	4768.19
944.431	4793.5
944.738	4759.83
945.044	4687.74
945.35	4725.03
945.657	4655.65
945.963	4679.61
946.269	4588.54
946.575	4630.34
946.881	4546.73
947.187	4595.77
947.493	4525.26
947.799	4495.66
948.105	4478.26
948.41	4491.82
948.716	4473.06
949.022	4499.5
949.327	4434.42
949.633	4384.02
949.938	4393.29
950.244	4392.16
950.549	4378.37
950.854	4345.83
951.16	4342.44
951.465	4318.26
951.77	4265.16
952.075	4226.51
952.38	4237.81
952.685	4235.78
952.99	4197.81
953.294	4187.87
953.599	4189.68
953.904	4159.4
954.209	4138.83
954.513	4146.29
954.818	4099.74
955.122	4103.35
955.426	4052.73
955.731	4035.56
956.035	4054.54
956.339	4034.2
956.643	4019.74
956.948	3991.94
957.252	3954.88
957.556	3935.67
957.86	3918.5
958.163	3903.13
958.467	3930.02
958.771	3873.08
959.075	3914.88
959.378	3869.23
959.682	3842.79
959.985	3820.65
960.289	3836.24
960.592	3807.77
960.896	3797.6
961.199	3783.36
961.502	3766.64
961.805	3719.86
962.108	3723.25
962.411	3667.21
962.714	3657.26
963.017	3680.76
963.32	3653.65
963.623	3641.22
963.926	3618.17
964.228	3597.6
964.531	3563.03
964.833	3593.31
965.136	3545.85
965.438	3540.88
965.741	3507.66
966.043	3531.84
966.345	3467.89
966.648	3467.66
966.95	3500.43
967.252	3459.53
967.554	3442.58
967.856	3432.18
968.158	3380.21
968.46	3425.4
968.761	3366.2
969.063	3338.17
969.365	3332.07
969.666	3335.46
969.968	3308.8
970.269	3318.51
970.571	3318.06
970.872	3277.16
971.174	3283.04
971.475	3191.29
971.776	3217.27
972.077	3231.06
972.378	3183.83
972.679	3202.13
972.98	3190.61
973.281	3148.58
973.582	3130.5
973.883	3164.39
974.183	3128.69
974.484	3118.07
974.785	3105.64
975.085	3089.59
975.386	3072.87
975.686	3063.83
975.986	3027.45
976.287	3027.67
976.587	3008.24
976.887	2977.51
977.187	2986.77
977.487	2966.66
977.787	2950.16
978.087	2932.99
978.387	2944.29
978.687	2926.43
978.987	2910.39
979.286	2880.11
979.586	2899.54
979.885	2855.02
980.185	2857.06
980.484	2832.88
980.784	2839.21
981.083	2815.02
981.382	2818.41
981.682	2817.28
981.981	2776.83
982.28	2796.95
982.579	2778.42
982.878	2784.97
983.177	2755.14
983.475	2692.99
983.774	2686.67
984.073	2680.57
984.372	2687.12
984.67	2664.29
984.969	2685.76
985.267	2652.77
985.566	2670.17
985.864	2609.61
986.162	2644.18
986.461	2577.74
986.759	2599.66
987.057	2557.4
987.355	2569.38
987.653	2558.99
987.951	2559.89
988.249	2530.74
988.547	2515.82
988.844	2528.03
989.142	2514.24
989.44	2495.26
989.737	2469.27
990.035	2444.19
990.332	2447.58
990.63	2435.15
990.927	2432.89
991.224	2400.12
991.521	2408.71
991.819	2378.2
992.116	2405.77
992.413	2379.78
992.71	2363.74
993.006	2344.08
993.303	2356.96
993.6	2323.96
993.897	2321.93
994.193	2317.64
994.49	2282.16
994.787	2299.33
995.083	2269.5
995.379	2257.3
995.676	2271.31
995.972	2233.8
996.268	2253.91
996.565	2234.93
996.861	2209.84
997.157	2215.27
997.453	2187.92
997.749	2194.25
998.044	2165.55
998.34	2140.47
998.636	2131.2
998.932	2114.25
999.227	2142.73
999.523	2159.22
999.818	2114.03
1000.114	2101.6
1000.409	2093.46
1000.704	2062.73
1001	2084.65
1001.295	2052.79
1001.59	2038.1
1001.885	2012.11
1002.18	2013.01
1002.475	2025.22
1002.77	1989.74
1003.065	1984.31
1003.359	2000.81
1003.654	1959.91
1003.949	1950.64
1004.243	1927.82
1004.538	1924.43
1004.832	1917.2
1005.127	1892.11
1005.421	1889.85
1005.715	1876.52
1006.009	1846.69
1006.304	1888.04
1006.598	1849.85
1006.892	1850.08
1007.186	1828.84
1007.48	1841.94
1007.773	1803.3
1008.067	1838.78
1008.361	1784.54
1008.655	1784.32
1008.948	1767.37
1009.242	1766.01
1009.535	1765.11
1009.829	1745.45
1010.122	1735.05
1010.415	1717.65
1010.708	1678.33
1011.001	1688.27
1011.295	1692.12
1011.588	1685.79
1011.881	1671.1
1012.173	1655.96
1012.466	1664.32
1012.759	1653.7
1013.052	1644.21
1013.344	1620.48
1013.637	1616.19
1013.93	1612.34
1014.222	1582.06
1014.514	1611.67
1014.807	1585
1015.099	1559.24
1015.391	1599.46
1015.683	1523.99
1015.976	1565.79
1016.268	1515.62
1016.56	1516.08
1016.851	1507.71
1017.143	1509.3
1017.435	1505.23
1017.727	1497.09
1018.018	1467.26
1018.31	1496.87
1018.602	1457.09
1018.893	1438.79
1019.185	1452.8
1019.476	1406.93
1019.767	1408.28
1020.058	1417.77
1020.35	1426.59
1020.641	1382.52
1020.932	1383.88
1021.223	1344.33
1021.514	1352.01
1021.804	1324.67
1022.095	1346.81
1022.386	1335.29
1022.677	1341.62
1022.967	1325.8
1023.258	1301.84
1023.548	1313.82
1023.839	1298.45
1024.129	1286.48
1024.419	1279.92
1024.709	1296.87
1025	1261.17
1025.29	1253.26
1025.58	1246.25
1025.87	1216.65
1026.16	1237.67
1026.449	1243.99
1026.739	1206.93
1027.029	1222.98
1027.319	1194.5
1027.608	1187.72
1027.898	1183.43
1028.187	1208.51
1028.477	1161.28
1028.766	1164.22
1029.055	1154.05
1029.344	1166.71
1029.634	1152.92
1029.923	1123.77
1030.212	1130.55
1030.501	1119.48
1030.79	1111.34
1031.078	1069.53
1031.367	1103.66
1031.656	1088.74
1031.945	1093.26
1032.233	1092.58
1032.522	1097.56
1032.81	1057.56
1033.099	1056.88
1033.387	1074.51
1033.675	1058.69
1033.963	1067.27
1034.251	1012.13
1034.54	1027.28
1034.828	991.34
1035.116	1020.27
1035.403	1008.52
1035.691	992.93
1035.979	976.2
1036.267	987.5
1036.554	986.6
1036.842	986.15
1037.129	951.12
1037.417	970.33
1037.704	968.97
1037.992	928.75
1038.279	927.62
1038.566	906.83
1038.853	906.83
1039.14	906.83
