Data from hue_70_FLMS001491_13.txt Node
Date: Mon Feb 06 15:20:11 GMT 2017
User: dcchb
Spectrometer: FLMS00149
Trigger mode: 0
Integration Time (sec): 2.000000E-2
Scans to average: 10
Electric dark correction enabled: true
Nonlinearity correction enabled: false
Boxcar width: 0
XAxis mode: Wavelengths
Number of Pixels in Spectrum: 2048
>>>>>Begin Spectral Data<<<<<
341.393	-27.5
341.776	-27.5
342.16	-27.5
342.543	-59.59
342.927	-73.37
343.31	-66.59
343.693	-55.3
344.077	-72.47
344.46	-67.72
344.843	-64.56
345.226	-36.76
345.61	-42.19
345.993	-35.63
346.376	6.4
346.759	12.27
347.142	29.9
347.525	36.68
347.908	56.34
348.291	86.62
348.674	114.64
349.057	98.37
349.44	124.36
349.823	146.28
350.206	165.49
350.588	215.21
350.971	222.21
351.354	208.2
351.737	252.27
352.119	247.75
352.502	266.5
352.884	270.8
353.267	292.94
353.65	286.84
354.032	315.99
354.414	325.71
354.797	333.17
355.179	339.95
355.562	324.36
355.944	337.91
356.326	334.98
356.709	339.5
357.091	321.87
357.473	344.69
357.855	352.6
358.238	347.86
358.62	369.78
359.002	340.17
359.384	347.41
359.766	358.48
360.148	360.51
360.53	325.94
360.912	341.08
361.294	333.85
361.676	336.11
362.057	343.34
362.439	332.49
362.821	321.87
363.203	322.77
363.584	337.46
363.966	330.23
364.348	324.58
364.729	296.79
365.111	326.84
365.493	319.16
365.874	325.94
366.256	302.21
366.637	310.12
367.019	306.05
367.4	316.45
367.781	312.6
368.163	314.86
368.544	308.09
368.925	303.34
369.306	326.39
369.688	341.53
370.069	330.91
370.45	310.34
370.831	316.67
371.212	321.42
371.593	325.49
371.974	300.85
372.355	326.39
372.736	317.58
373.117	312.6
373.498	301.08
373.879	317.58
374.26	330.91
374.641	322.77
375.021	313.51
375.402	315.77
375.783	327.29
376.163	316.9
376.544	345.37
376.925	316.45
377.305	335.88
377.686	312.83
378.066	323.9
378.447	316.22
378.827	324.58
379.208	331.59
379.588	307.63
379.968	334.53
380.349	329.78
380.729	345.6
381.109	341.76
381.489	335.2
381.87	343.34
382.25	332.04
382.63	337.24
383.01	357.8
383.39	317.58
383.77	340.85
384.15	335.2
384.53	358.03
384.91	331.81
385.29	350.12
385.67	354.64
386.049	326.62
386.429	357.58
386.809	351.7
387.189	355.09
387.568	346.5
387.948	362.77
388.328	348.76
388.707	349.21
389.087	349.67
389.466	349.21
389.846	384.02
390.225	350.57
390.605	359.84
390.984	348.99
391.363	351.02
391.743	354.64
392.122	355.99
392.501	347.86
392.881	352.6
393.26	385.37
393.639	390.79
394.018	375.65
394.397	367.07
394.776	368.42
395.155	357.12
395.534	377.69
395.913	392.83
396.292	372.49
396.671	367.74
397.05	378.59
397.429	371.36
397.808	370.91
398.186	388.08
398.565	395.31
398.944	387.41
399.323	390.12
399.701	379.95
400.08	397.35
400.458	394.18
400.837	414.75
401.215	380.17
401.594	379.5
401.972	388.53
402.351	396.22
402.729	402.77
403.107	383.79
403.486	379.95
403.864	393.28
404.242	408.87
404.62	401.64
404.999	389.89
405.377	397.8
405.755	419.04
406.133	392.6
406.511	395.77
406.889	406.16
407.267	397.35
407.645	407.29
408.023	401.64
408.401	418.36
408.779	398.93
409.156	421.08
409.534	426.5
409.912	424.47
410.29	446.84
410.667	436.22
411.045	422.66
411.422	438.03
411.8	417.01
412.178	425.6
412.555	426.73
412.933	441.87
413.31	439.38
413.687	462.43
414.065	442.54
414.442	439.16
414.819	438.03
415.197	454.75
415.574	439.38
415.951	459.27
416.328	422.43
416.705	471.02
417.082	474.18
417.46	470.34
417.837	488.42
418.214	462.43
418.591	463.56
418.967	478.25
419.344	491.58
419.721	487.29
420.098	478.7
420.475	475.09
420.852	489.78
421.228	469.89
421.605	507.63
421.982	489.78
422.358	505.37
422.735	500.85
423.111	513.28
423.488	494.29
423.864	524.35
424.241	523.67
424.617	522.99
424.994	517.35
425.37	530
425.746	515.54
426.123	537.91
426.499	508.31
426.875	528.19
427.251	517.12
427.627	549.21
428.003	549.66
428.379	538.14
428.756	549.21
429.132	570
429.507	565.03
429.883	572.94
430.259	548.08
430.635	565.93
431.011	572.94
431.387	558.93
431.763	562.77
432.138	570.23
432.514	570.23
432.89	582.2
433.265	610.22
433.641	605.48
434.016	605.7
434.392	619.72
434.767	633.95
435.143	617.23
435.518	591.47
435.894	613.84
436.269	645.03
436.644	608.87
437.02	618.59
437.395	641.18
437.77	657.23
438.145	652.71
438.52	664.46
438.895	666.95
439.271	639.83
439.646	672.37
440.021	658.81
440.395	653.39
440.77	670.56
441.145	686.38
441.52	696.55
441.895	696.32
442.27	695.42
442.645	688.19
443.019	690.45
443.394	656.78
443.769	690.22
444.143	695.65
444.518	697.45
444.892	690.67
445.267	706.94
445.641	731.35
446.016	714.85
446.39	716.89
446.764	748.07
447.139	714.63
447.513	732.25
447.887	742.2
448.262	731.12
448.636	738.81
449.01	741.52
449.384	762.31
449.758	777.9
450.132	768.19
450.506	754.18
450.88	760.73
451.254	767.28
451.628	790.56
452.002	781.52
452.376	811.8
452.75	788.98
453.123	771.8
453.497	812.93
453.871	816.09
454.244	838.01
454.618	836.43
454.992	838.24
455.365	863.78
455.739	859.48
456.112	868.07
456.486	863.32
456.859	874.62
457.232	894.51
457.606	902.42
457.979	917.11
458.352	923.21
458.725	901.06
459.099	931.8
459.472	956.2
459.845	960.5
460.218	963.44
460.591	924.34
460.964	961.85
461.337	1016.09
461.71	1016.09
462.083	1020.38
462.456	1020.16
462.829	1035.3
463.201	1039.37
463.574	1064.22
463.947	1038.01
464.32	1089.08
464.692	1086.82
465.065	1102.41
465.438	1107.39
465.81	1097.89
466.183	1145.13
466.555	1179.25
466.928	1190.32
467.3	1187.84
467.672	1193.94
468.045	1236.2
468.417	1216.99
468.789	1270.55
469.161	1285.69
469.534	1312.13
469.906	1341.28
470.278	1353.26
470.65	1370.66
471.022	1385.34
471.394	1436.19
471.766	1432.35
472.138	1473.25
472.51	1507.15
472.882	1531.56
473.253	1534.95
473.625	1601.84
473.997	1619.01
474.369	1634.83
474.74	1686.58
475.112	1710.76
475.484	1760.02
475.855	1810.19
476.227	1863.98
476.598	1914.6
476.97	1950.3
477.341	2014.48
477.713	2067.81
478.084	2112.56
478.455	2148.71
478.827	2222.39
479.198	2291.99
479.569	2318.2
479.94	2402.72
480.311	2454.24
480.682	2541.25
481.053	2613.34
481.424	2658.08
481.795	2732.65
482.166	2848.81
482.537	2894.23
482.908	3019.2
483.279	3060.1
483.65	3195.24
484.021	3275.01
484.391	3350.72
484.762	3463.26
485.133	3526.98
485.503	3635.91
485.874	3779.18
486.244	3837.03
486.615	3948.67
486.985	4073.41
487.356	4211.71
487.726	4317.47
488.097	4435.43
488.467	4481.99
488.837	4641.76
489.207	4768.53
489.578	4913.61
489.948	5033.16
490.318	5158.13
490.688	5260.05
491.058	5412.13
491.428	5562.86
491.798	5648.51
492.168	5827.49
492.538	5956.3
492.908	6068.84
493.278	6228.61
493.648	6294.37
494.017	6407.81
494.387	6554.25
494.757	6773
495.126	6879.21
495.496	6944.29
495.866	7145.87
496.235	7273.78
496.605	7409.37
496.974	7526.2
497.344	7640.77
497.713	7805.29
498.082	7899.75
498.452	7987.43
498.821	8155.34
499.19	8292.73
499.559	8376.8
499.928	8482.11
500.298	8657.7
500.667	8794.42
501.036	8854.3
501.405	9004.13
501.774	9058.14
502.143	9262.43
502.512	9359.37
502.88	9522.31
503.249	9548.52
503.618	9747.84
503.987	9895.63
504.356	9885.23
504.724	10054.27
505.093	10096.08
505.462	10237.77
505.83	10423.53
506.199	10514.6
506.567	10646.34
506.936	10698.09
507.304	10842.72
507.672	10906.45
508.041	11060.34
508.409	11075.03
508.777	11296.27
509.145	11411.3
509.514	11429.83
509.882	11512.08
510.25	11661.91
510.618	11782.59
510.986	11898.74
511.354	11935.8
511.722	12087.89
512.09	12204.72
512.458	12248.56
512.826	12359.29
513.193	12514.54
513.561	12525.62
513.929	12652.17
514.297	12735.78
514.664	12790.92
515.032	12874.76
515.4	13063.46
515.767	13133.28
516.135	13218.71
516.502	13144.36
516.869	13382.77
517.237	13377.8
517.604	13485.59
517.972	13597.91
518.339	13692.82
518.706	13780.05
519.073	13794.51
519.44	13855.75
519.808	14058.01
520.175	14130.09
520.542	14199.25
520.909	14302.07
521.276	14290.77
521.643	14470.88
522.009	14479.92
522.376	14661.38
522.743	14813.01
523.11	14932.56
523.477	14935.5
523.843	15038.77
524.21	15190.41
524.577	15220.69
524.943	15301.14
525.31	15345.88
525.676	15472.43
526.043	15571.86
526.409	15713.78
526.776	15822.93
527.142	15802.37
527.508	15905.19
527.874	15880.56
528.241	16093.21
528.607	16069.93
528.973	16281.45
529.339	16211.62
529.705	16319.87
530.071	16470.6
530.437	16520.99
530.803	16587.43
531.169	16684.38
531.535	16602.12
531.901	16757.6
532.267	16770.7
532.632	16750.14
532.998	16857.93
533.364	16904.71
533.73	16957.14
534.095	17061.09
534.461	17010.47
534.826	17093.86
535.192	17236.91
535.557	17278.26
535.923	17187.87
536.288	17206.4
536.653	17295.44
537.019	17228.77
537.384	17351.25
537.749	17332.72
538.114	17393.06
538.479	17319.39
538.845	17429.44
539.21	17446.17
539.575	17478.93
539.94	17509.67
540.305	17573.17
540.67	17545.82
541.034	17520.29
541.399	17580.63
541.764	17687.97
542.129	17682.32
542.494	17693.39
542.858	17744.69
543.223	17691.13
543.587	17797.12
543.952	17731.81
544.316	17818.81
544.681	17772.03
545.045	17799.38
545.41	17934.97
545.774	17923.22
546.138	17896.1
546.503	17970.22
546.867	17890
547.231	17996.43
547.595	18002.08
547.959	18056.09
548.324	17989.43
548.688	17917.57
549.052	18138.8
549.416	18033.49
549.779	18021.74
550.143	18050.22
550.507	18166.82
550.871	18274.39
551.235	18192.13
551.599	18281.62
551.962	18269.42
552.326	18351.68
552.689	18317.33
553.053	18320.04
553.417	18308.97
553.78	18583.54
554.143	18372.69
554.507	18400.72
554.87	18470.55
555.234	18599.13
555.597	18471.45
555.96	18534.72
556.323	18645
556.686	18574.72
557.05	18776.75
557.413	18614.27
557.776	18774.72
558.139	18840.03
558.502	18760.48
558.865	18873.02
559.228	18909.63
559.59	18933.13
559.953	18985.11
560.316	19190.3
560.679	19037.54
561.041	19139.23
561.404	19256.51
561.767	19310.98
562.129	19336.51
562.492	19437.53
562.854	19409.05
563.217	19395.04
563.579	19441.82
563.941	19560.91
564.304	19623.06
564.666	19685.43
565.028	19650.63
565.39	19798.19
565.753	19863.05
566.115	19875.93
566.477	19975.14
566.839	20002.71
567.201	20113.67
567.563	20016.49
567.925	20223.95
568.287	20174.68
568.648	20244.74
569.01	20252.87
569.372	20371.06
569.734	20306.66
570.095	20446.54
570.457	20568.12
570.819	20537.16
571.18	20580.32
571.542	20663.03
571.903	20672.75
572.265	20782.8
572.626	20851.73
572.987	20871.84
573.349	20908.45
573.71	20953.42
574.071	20983.02
574.432	20944.6
574.794	21217.82
575.155	21064.15
575.516	21026.86
575.877	21121.78
576.238	21131.04
576.599	21246.74
576.96	21171.72
577.32	21216.69
577.681	21310.92
578.042	21376.68
578.403	21278.38
578.763	21342.11
579.124	21380.07
579.485	21429.34
579.845	21554.08
580.206	21500.75
580.566	21390.69
580.927	21481.54
581.287	21531.93
581.648	21463.24
582.008	21601.08
582.368	21509.34
582.728	21578.49
583.089	21460.3
583.449	21513.86
583.809	21580.52
584.169	21550.92
584.529	21392.05
584.889	21663.23
585.249	21514.99
585.609	21536.91
585.969	21635.21
586.329	21545.72
586.688	21576.23
587.048	21613.51
587.408	21640.41
587.768	21616.45
588.127	21637.69
588.487	21540.3
588.846	21634.3
589.206	21555.44
589.565	21554.31
589.925	21585.94
590.284	21460.52
590.643	21597.92
591.003	21516.34
591.362	21725.38
591.721	21578.71
592.08	21632.04
592.44	21700.74
592.799	21637.24
593.158	21650.57
593.517	21641.54
593.876	21681.08
594.235	21564.48
594.593	21662.55
594.952	21585.72
595.311	21667.75
595.67	21730.8
596.029	21751.36
596.387	21783.45
596.746	21867.07
597.104	21672.95
597.463	21700.97
597.822	21842.89
598.18	21698.71
598.538	21806.95
598.897	21764.7
599.255	21564.93
599.613	21938.02
599.972	21754.75
600.33	21754.98
600.688	21683.57
601.046	21805.82
601.404	21836.11
601.762	21805.37
602.12	21861.64
602.478	21895.09
602.836	21854.64
603.194	21858.03
603.552	21895.31
603.91	21797.01
604.268	21968.08
604.625	21814.64
604.983	22013.96
605.341	21871.59
605.698	21985.48
606.056	21940.06
606.413	22018.02
606.771	22127.17
607.128	22152.93
607.485	22026.84
607.843	22049.89
608.2	22092.6
608.557	22283.1
608.914	22144.8
609.272	22234.97
609.629	22303.66
609.986	22339.82
610.343	22246.27
610.7	22425.02
611.057	22356.77
611.414	22433.83
611.771	22327.62
612.127	22459.59
612.484	22383.21
612.841	22424.57
613.198	22469.99
613.554	22602.19
613.911	22656.2
614.267	22658.23
614.624	22594.73
614.98	22650.1
615.337	22766.03
615.693	22757.66
616.05	22606.03
616.406	22785.69
616.762	22733.71
617.118	22788.85
617.475	22827.94
617.831	22855.06
618.187	22986.36
618.543	22860.03
618.899	23141.16
619.255	23039.69
619.611	22898.45
619.967	23081.05
620.323	23129.18
620.678	23095.51
621.034	23068.16
621.39	23010.54
621.746	22910.2
622.101	23260.02
622.457	23051.67
622.812	23110.88
623.168	23203.08
623.523	23170.99
623.879	23251.89
624.234	23100.48
624.589	23201.49
624.945	23270.42
625.3	23261.83
625.655	23181.38
626.01	23293.7
626.365	23334.82
626.72	23189.29
627.075	23234.94
627.43	23210.08
627.785	23311.32
628.14	23222.28
628.495	23227.26
628.85	23079.69
629.205	23201.27
629.559	23263.87
629.914	23100.93
630.269	23179.8
630.623	23102.06
630.978	23238.56
631.332	23121.04
631.687	23245.79
632.041	23118.33
632.396	23192.23
632.75	23025.68
633.104	23093.47
633.459	22955.4
633.813	23072.91
634.167	22968.05
634.521	23083.76
634.875	23104.32
635.229	23074.94
635.583	22907.72
635.937	22934.38
636.291	22901.39
636.645	22936.87
636.999	22822.07
637.352	22934.38
637.706	22801.05
638.06	22938.22
638.413	22842.18
638.767	22773.71
639.121	22826.82
639.474	22617.56
639.828	22758.57
640.181	22795.86
640.534	22734.61
640.888	22683.09
641.241	22716.54
641.594	22781.39
641.947	22691.45
642.301	22591.34
642.654	22523.32
643.007	22730.32
643.36	22558.12
643.713	22552.47
644.066	22694.84
644.419	22406.71
644.771	22389.99
645.124	22241.97
645.477	22123.33
645.83	21917.01
646.182	21809.89
646.535	21959.27
646.888	21917.23
647.24	21748.88
647.593	22029.32
647.945	21878.82
648.298	21850.57
648.65	21728.09
649.002	21632.5
649.355	21797.01
649.707	21756.79
650.059	21900.74
650.411	22089.21
650.763	22184.57
651.115	22429.31
651.467	22380.95
651.819	22313.16
652.171	22245.14
652.523	22202.42
652.875	22262.31
653.227	22168.75
653.578	22275.19
653.93	22216.21
654.282	22182.76
654.633	22197.45
654.985	22117.68
655.337	22132.6
655.688	22125.82
656.039	22185.48
656.391	22189.77
656.742	22238.81
657.094	22151.8
657.445	22288.75
657.796	22239.03
658.147	22088.08
658.498	22125.14
658.849	22171.24
659.2	22292.37
659.551	22165.36
659.902	22247.17
660.253	22150.22
660.604	22207.4
660.955	22044.01
661.306	22132.14
661.656	22133.5
662.007	22150.67
662.358	22056.67
662.708	22167.85
663.059	22237.9
663.409	22127.85
663.76	22237
664.11	22070.45
664.461	22159.71
664.811	22277.45
665.161	22159.71
665.511	22134.63
665.862	22260.95
666.212	22225.25
666.562	22267.28
666.912	22145.25
667.262	22090.56
667.612	22111.81
667.962	22187.96
668.312	22138.92
668.662	22187.06
669.011	22201.75
669.361	22018.93
669.711	22075.2
670.06	22037.68
670.41	22081.07
670.76	21989.32
671.109	22117.46
671.459	22035.88
671.808	22026.16
672.157	22063.67
672.507	21973.28
672.856	21952.49
673.205	22002.2
673.554	22072.71
673.904	22038.14
674.253	21897.35
674.602	21925.6
674.951	21670.24
675.3	21550.46
675.649	21969.21
675.998	21799.05
676.346	21829.1
676.695	21950.23
677.044	21698.94
677.393	21805.6
677.741	21865.48
678.09	21833.17
678.438	21724.92
678.787	21825.49
679.135	21795.43
679.484	21628.43
679.832	21680.18
680.181	21558.37
680.529	21608.32
680.877	21517.47
681.225	21580.29
681.573	21716.56
681.922	21581.65
682.27	21416.91
682.618	21573.06
682.966	21358.61
683.314	21469.79
683.661	21304.14
684.009	21230.25
684.357	21260.75
684.705	21119.52
685.053	21201.55
685.4	21111.83
685.748	20981.89
686.095	21031.38
686.443	20959.97
686.79	20961.33
687.138	20930.14
687.485	20951.84
687.832	20854.21
688.18	20908
688.527	20749.13
688.874	20693.76
689.221	20729.02
689.568	20590.49
689.915	20556.82
690.262	20626.42
690.609	20442.47
690.956	20412.42
691.303	20376.26
691.65	20273.21
691.997	20324.06
692.344	20225.53
692.69	20055.14
693.037	20114.8
693.383	20012.2
693.73	20032.99
694.077	19886.33
694.423	19835.48
694.769	19853.33
695.116	19801.36
695.462	19783.28
695.808	19658.99
696.155	19745.54
696.501	19510.29
696.847	19499.9
697.193	19445.66
697.539	19386
697.885	19297.87
698.231	19146.69
698.577	19139.45
698.923	19224.88
699.269	19054.48
699.614	18946.01
699.96	18975.84
700.306	19006.12
700.651	18733.82
700.997	18877.09
701.342	18752.35
701.688	18580.82
702.033	18610.43
702.379	18553.71
702.724	18496.53
703.069	18646.36
703.415	18413.82
703.76	18393.26
704.105	18419.25
704.45	18303.09
704.795	18099.48
705.14	18123.66
705.485	18064.45
705.83	18018.58
706.175	18003.21
706.52	17998.69
706.865	17891.8
707.209	17857.91
707.554	17715.99
707.899	17861.07
708.243	17695.42
708.588	17654.3
708.932	17599.16
709.277	17464.02
709.621	17588.99
709.966	17537.24
710.31	17420.63
710.654	17298.6
710.998	17341.54
711.342	17375.43
711.687	17324.36
712.031	17227.41
712.375	17159.62
712.719	17227.41
713.063	17263.57
713.407	17281.2
713.75	17015.67
714.094	17103.8
714.438	16983.58
714.782	17080.3
715.125	16951.04
715.469	16938.61
715.812	16772.51
716.156	16825.39
716.499	16753.98
716.843	16793.08
717.186	16709.24
717.53	16770.03
717.873	16688.22
718.216	16683.02
718.559	16727.54
718.902	16475.8
719.246	16480.77
719.589	16501.78
719.932	16455.68
720.275	16504.95
720.617	16442.35
720.96	16334.78
721.303	16443.03
721.646	16402.8
721.989	16338.17
722.331	16406.19
722.674	16207.78
723.016	16361.22
723.359	16266.08
723.701	16329.36
724.044	16222.47
724.386	16133.88
724.729	16265.18
725.071	16101.34
725.413	16097.05
725.755	16153.54
726.097	16036.94
726.439	15941.12
726.782	16037.16
727.124	16099.08
727.465	15925.08
727.807	15939.99
728.149	15892.53
728.491	15992.87
728.833	15924.85
729.175	15827.9
729.516	15852.31
729.858	15874.91
730.199	15848.24
730.541	15845.3
730.882	15811.86
731.224	15874.68
731.565	15777.96
731.906	15723.5
732.248	15827.68
732.589	15688.47
732.93	15678.75
733.271	15730.96
733.612	15737.51
733.953	15736.83
734.294	15658.42
734.635	15666.1
734.976	15679.66
735.317	15619.32
735.658	15660.45
735.999	15692.54
736.339	15661.13
736.68	15619.77
737.021	15622.48
737.361	15531.41
737.702	15703.84
738.042	15668.36
738.383	15628.59
738.723	15604.18
739.063	15568.25
739.404	15733.44
739.744	15623.84
740.084	15610.28
740.424	15595.82
740.764	15512.21
741.104	15653.44
741.444	15587.46
741.784	15574.35
742.124	15613.45
742.464	15542.26
742.804	15610.06
743.143	15525.54
743.483	15605.08
743.823	15511.53
744.162	15560.57
744.502	15612.09
744.841	15481.02
745.181	15689.38
745.52	15666.55
745.86	15734.12
746.199	15686.89
746.538	15744.29
746.877	15793.78
747.216	15766.89
747.556	15832.2
747.895	15952.19
748.234	15867.45
748.573	15817.06
748.911	15923.72
749.25	15960.33
749.589	15938.63
749.928	16018.41
750.267	16003.94
750.605	16089.59
750.944	16075.35
751.283	16170.72
751.621	16305.18
751.96	16236.03
752.298	16296.14
752.636	16307.21
752.975	16341.34
753.313	16347.89
753.651	16576.36
753.989	16516.02
754.327	16536.81
754.666	16656.13
755.004	16698.39
755.342	16802.79
755.679	16814.54
756.017	16762.12
756.355	16916.01
756.693	16890.93
757.031	17130.69
757.368	17116.46
757.706	17193.74
758.044	17294.31
758.381	17346.73
758.719	17284.81
759.056	17435.32
759.394	17587.86
759.731	17480.29
760.068	17578.82
760.405	17567.29
760.743	17672.83
761.08	17823.78
761.417	17711.7
761.754	17790.56
762.091	17921.86
762.428	17875.76
762.765	17854.52
763.102	17998.69
763.438	18092.48
763.775	18011.35
764.112	18163.89
764.449	18066.49
764.785	18141.97
765.122	18176.99
765.458	18152.59
765.795	18255.41
766.131	18259.03
766.467	18235.3
766.804	18216.54
767.14	18296.09
767.476	18375.63
767.812	18296.54
768.148	18418.34
768.485	18330.21
768.821	18174.51
769.157	18256.77
769.492	18259.25
769.828	18337.44
770.164	18251.79
770.5	18201.4
770.836	18290.66
771.171	18213.6
771.507	18223.32
771.842	18123.89
772.178	18178.8
772.513	18214.51
772.849	18183.1
773.184	18170.21
773.519	18272.13
773.855	18165.24
774.19	18120.05
774.525	18044.57
774.86	18050.22
775.195	17956.89
775.53	18004.12
775.865	17888.41
776.2	17848.41
776.535	17797.12
776.87	17821.3
777.205	17727.51
777.539	17678.93
777.874	17768.42
778.209	17666.05
778.543	17620.4
778.878	17583.79
779.212	17585.37
779.547	17488.2
779.881	17491.59
780.215	17433.96
780.55	17458.37
780.884	17293.18
781.218	17280.97
781.552	17245.94
781.886	17264.7
782.22	17144.93
782.554	17066.06
782.888	16971.38
783.222	16979.74
783.556	16875.33
783.889	16936.35
784.223	16800.53
784.557	16712.4
784.89	16766.64
785.224	16692.74
785.557	16556.7
785.891	16590.82
786.224	16533.42
786.558	16563.7
786.891	16354.89
787.224	16389.92
787.557	16363.26
787.891	16267.89
788.224	16287.78
788.557	16324.16
788.89	16193.32
789.223	16233.09
789.556	16026.54
789.888	16028.8
790.221	15953.32
790.554	15945.41
790.887	15865.19
791.219	15850.95
791.552	15808.47
791.884	15671.52
792.217	15620
792.549	15629.04
792.882	15529.61
793.214	15481.92
793.546	15584.29
793.879	15348.37
794.211	15324.19
794.543	15347.01
794.875	15210.52
795.207	15371.87
795.539	15121.25
795.871	15205.55
796.203	15095.94
796.535	15034.48
796.867	14980.02
797.198	14994.7
797.53	14951.77
797.862	14865.22
798.193	14792.68
798.525	14771.21
798.856	14832.9
799.188	14738.67
799.519	14599.69
799.85	14611.44
800.182	14561.27
800.513	14573.7
800.844	14388.17
801.175	14527.82
801.506	14391.33
801.837	14350.65
802.168	14369.18
802.499	14299.36
802.83	14259.58
803.161	14248.96
803.491	14182.3
803.822	14161.73
804.153	14063.66
804.483	13972.81
804.814	13947.95
805.145	13914.06
805.475	13937.11
805.805	13849.2
806.136	13883.1
806.466	13837.9
806.796	13811.23
807.126	13725.13
807.457	13648.07
807.787	13696.89
808.117	13626.15
808.447	13538.47
808.777	13581.63
809.107	13577.79
809.436	13469.77
809.766	13472.26
810.096	13465.03
810.426	13383
810.755	13362.21
811.085	13432.94
811.414	13233.85
811.744	13274.3
812.073	13190.46
812.403	13091.93
812.732	13182.32
813.061	13118.82
813.39	13020.29
813.719	13013.97
814.049	13076.56
814.378	13029.78
814.707	12958.15
815.036	12996.11
815.365	12841.09
815.693	12803.35
816.022	12791.37
816.351	12732.17
816.68	12703.24
817.008	12795.44
817.337	12599.06
817.665	12539.18
817.994	12680.87
818.322	12547.31
818.651	12567.65
818.979	12500.98
819.307	12643.35
819.636	12573.53
819.964	12435.45
820.292	12441.78
820.62	12378.5
820.948	12371.72
821.276	12482
821.604	12440.65
821.932	12427.31
822.259	12400.87
822.587	12406.52
822.915	12377.15
823.243	12420.76
823.57	12312.74
823.898	12312.06
824.225	12352.51
824.553	12310.71
824.88	12359.75
825.207	12393.42
825.535	12258.73
825.862	12370.14
826.189	12312.29
826.516	12396.13
826.843	12402.68
827.17	12362.91
827.497	12427.99
827.824	12418.73
828.151	12397.26
828.478	12369.24
828.805	12352.29
829.131	12316.81
829.458	12254.21
829.785	12246.08
830.111	12244.04
830.438	12301.44
830.764	12327.88
831.09	12311.84
831.417	12298.73
831.743	12332.4
832.069	12355.45
832.395	12261.9
832.722	12310.03
833.048	12192.97
833.374	12182.8
833.7	12199.3
834.026	12234.1
834.351	12257.6
834.677	12248.34
835.003	12206.3
835.329	12243.14
835.654	12162.69
835.98	12108
836.306	12098.96
836.631	12068.45
836.956	12184.38
837.282	12113.42
837.607	12013.31
837.932	11968.8
838.258	11990.94
838.583	12023.03
838.908	11939.42
839.233	11927.44
839.558	11918.4
839.883	11894.45
840.208	11850.61
840.533	11795.24
840.858	11905.07
841.182	11774.45
841.507	11887.22
841.832	11692.42
842.156	11784.17
842.481	11722.93
842.805	11731.74
843.13	11672.53
843.454	11665.53
843.778	11642.25
844.103	11568.81
844.427	11527.23
844.751	11580.56
845.075	11543.95
845.399	11423.27
845.723	11391.86
846.047	11502.37
846.371	11388.25
846.695	11328.59
847.019	11255.82
847.343	11202.71
847.666	11137.86
847.99	11146.44
848.313	11158.65
848.637	11018.54
848.96	11056.5
849.284	10993.23
849.607	10960.23
849.931	10925.21
850.254	10748.94
850.577	10800.92
850.9	10700.13
851.223	10621.71
851.546	10662.62
851.869	10557.08
852.192	10596.63
852.515	10483.64
852.838	10450.42
853.161	10461.94
853.483	10419.68
853.806	10393.7
854.129	10383.53
854.451	10313.47
854.774	10241.84
855.096	10265.79
855.419	10224.89
855.741	10177.2
856.063	10119.8
856.385	10133.36
856.708	10073.7
857.03	10082.97
857.352	10001.16
857.674	9973.59
857.996	9957.1
858.318	9941.96
858.64	9932.24
858.961	9881.39
859.283	9830.32
859.605	9755.52
859.926	9805.24
860.248	9783.54
860.57	9765.24
860.891	9698.8
861.212	9723.66
861.534	9675.97
861.855	9632.13
862.176	9654.96
862.498	9670.1
862.819	9598.24
863.14	9600.5
863.461	9552.81
863.782	9522.31
864.103	9495.87
864.424	9447.05
864.745	9476.43
865.065	9446.15
865.386	9454.06
865.707	9440.73
866.027	9410.44
866.348	9383.55
866.668	9412.03
866.989	9368.41
867.309	9329.54
867.63	9343.1
867.95	9375.19
868.27	9253.16
868.59	9306.04
868.91	9313.27
869.23	9206.83
869.55	9206.38
869.87	9211.81
870.19	9224.23
870.51	9263.1
870.83	9239.83
871.15	9125.71
871.469	9172.03
871.789	9220.17
872.109	9136.33
872.428	9033.96
872.748	9090.23
873.067	9014.3
873.386	9100.62
873.706	9080.06
874.025	9087.97
874.344	9033.51
874.663	9037.12
874.982	8932.49
875.301	9073.5
875.62	8942.89
875.939	8932.94
876.258	8916.45
876.577	8899.27
876.896	8916.9
877.214	8875.77
877.533	8883
877.852	8823.57
878.17	8866.5
878.489	8846.84
878.807	8848.65
879.125	8821.08
879.444	8795.32
879.762	8750.12
880.08	8752.61
880.398	8737.02
880.716	8779.05
881.034	8608.43
881.352	8708.99
881.67	8658.6
881.988	8644.59
882.306	8652.5
882.624	8589.22
882.941	8573.63
883.259	8534.08
883.577	8584.7
883.894	8535.44
884.212	8475.1
884.529	8475.1
884.846	8450.92
885.164	8453.18
885.481	8364.82
885.798	8476.68
886.115	8385.39
886.432	8358.95
886.75	8392.39
887.067	8333.41
887.383	8283.47
887.7	8307.42
888.017	8236.92
888.334	8283.92
888.651	8252.06
888.967	8267.2
889.284	8139.29
889.6	8106.07
889.917	8123.47
890.233	8100.42
890.55	8056.13
890.866	8069.46
891.182	8032.4
891.498	8012.97
891.815	8004.15
892.131	7942.91
892.447	7933.65
892.763	7917.83
893.079	7925.06
893.395	7892.52
893.71	7840.77
894.026	7833.76
894.342	7839.19
894.657	7758.74
894.973	7740.88
895.289	7783.14
895.604	7782.46
895.92	7619.98
896.235	7621.34
896.55	7613.66
896.865	7572.07
897.181	7586.99
897.496	7601.68
897.811	7574.11
898.126	7502.25
898.441	7437.16
898.756	7417.28
899.071	7396.71
899.386	7427.67
899.7	7379.54
900.015	7365.75
900.33	7333.89
900.644	7271.29
900.959	7276.49
901.273	7257.96
901.588	7185.87
901.902	7198.53
902.216	7154.01
902.531	7202.14
902.845	7109.94
903.159	7067.68
903.473	7059.77
903.787	7047.34
904.101	6989.49
904.415	7013.22
904.729	7043.5
905.042	6966.22
905.356	6946.55
905.67	6867.46
905.984	6884.41
906.297	6862.04
906.611	6827.91
906.924	6793.11
907.237	6801.7
907.551	6736.16
907.864	6762.38
908.177	6729.16
908.491	6679.89
908.804	6665.21
909.117	6606.68
909.43	6605.77
909.743	6525.77
910.056	6547.92
910.368	6444.87
910.681	6488.49
910.994	6436.29
911.307	6436.74
911.619	6373.24
911.932	6416.63
912.244	6309.06
912.557	6337.53
912.869	6236.97
913.181	6288.49
913.494	6231.32
913.806	6199.46
914.118	6163.52
914.43	6131.21
914.742	6126.24
915.054	6105.22
915.366	6094.37
915.678	6086.46
915.99	6069.29
916.302	6015.51
916.613	6008.05
916.925	5969.41
917.236	5970.31
917.548	5897.77
917.859	5910.2
918.171	5828.84
918.482	5841.95
918.794	5872.01
919.105	5818.22
919.416	5797.21
919.727	5761.28
920.038	5728.73
920.349	5727.15
920.66	5703.2
920.971	5666.36
921.282	5653.71
921.593	5656.65
921.903	5547.27
922.214	5580.49
922.525	5558.12
922.835	5447.16
923.146	5545.69
923.456	5518.12
923.767	5455.07
924.077	5403.09
924.387	5456.88
924.697	5366.48
925.008	5381.4
925.318	5328.74
925.628	5339.14
925.938	5307.5
926.248	5217.33
926.558	5208.75
926.867	5236.32
927.177	5192.93
927.487	5194.51
927.796	5154.51
928.106	5168.3
928.416	5102.08
928.725	5120.39
929.034	5097.11
929.344	5062.76
929.653	5071.12
929.962	5006.72
930.271	5001.07
930.581	4970.79
930.89	4971.69
931.199	4901.18
931.508	4944.8
931.817	4895.99
932.125	4896.67
932.434	4864.58
932.743	4822.09
933.051	4797.23
933.36	4809.44
933.669	4772.37
933.977	4726.95
934.286	4758.82
934.594	4748.19
934.902	4698.7
935.21	4671.13
935.519	4682.43
935.827	4672.49
936.135	4662.77
936.443	4578.71
936.751	4601.31
937.059	4592.94
937.367	4541.65
937.674	4560.85
937.982	4510.46
938.29	4479.95
938.597	4437.02
938.905	4423.23
939.213	4405.38
939.52	4423.01
939.827	4406.06
940.135	4329.22
940.442	4391.14
940.749	4362.89
941.056	4350.92
941.363	4291.03
941.67	4278.83
941.977	4274.53
942.284	4209.23
942.591	4236.57
942.898	4250.35
943.205	4211.94
943.511	4157.7
943.818	4163.12
944.125	4120.41
944.431	4114.76
944.738	4078.61
945.044	4076.35
945.35	4044.03
945.657	4080.64
945.963	4037.7
946.269	3977.14
946.575	3986.63
946.881	3996.8
947.187	3978.72
947.493	3949.8
947.799	3924.26
948.105	3902.79
948.41	3940.53
948.716	3944.15
949.022	3865.51
949.327	3858.05
949.633	3847.2
949.938	3820.31
950.244	3809.69
950.549	3766.07
950.854	3769.46
951.16	3778.73
951.465	3735.34
951.77	3708
952.075	3726.53
952.38	3664.16
952.685	3677.26
952.99	3599.3
953.294	3614.21
953.599	3613.99
953.904	3624.38
954.209	3584.16
954.513	3554.78
954.818	3541.45
955.122	3512.75
955.426	3526.08
955.731	3491.96
956.035	3485.18
956.339	3500.54
956.643	3465.06
956.948	3461
957.252	3400.21
957.556	3410.6
957.86	3432.3
958.163	3418.96
958.467	3350.72
958.771	3323.83
959.075	3360.43
959.378	3325.41
959.682	3322.02
959.985	3352.3
960.289	3317.27
960.592	3273.66
960.896	3260.1
961.199	3237.27
961.502	3270.95
961.805	3230.95
962.108	3195.47
962.411	3207.67
962.714	3191.63
963.017	3179.2
963.32	3179.65
963.623	3189.59
963.926	3158.63
964.228	3109.14
964.531	3073.89
964.833	3102.81
965.136	3063.04
965.438	3069.14
965.741	3016.94
966.043	3027.56
966.345	3023.49
966.648	2972.87
966.95	2996.38
967.252	2976.49
967.554	2970.61
967.856	2983.72
968.158	2936.26
968.46	2935.13
968.761	2945.98
969.063	2947.56
969.365	2891.07
969.666	2905.08
969.968	2885.64
970.269	2843.39
970.571	2839.32
970.872	2862.14
971.174	2845.42
971.475	2810.84
971.776	2817.4
972.077	2759.77
972.378	2786.21
972.679	2743.95
972.98	2764.52
973.281	2731.75
973.582	2761.35
973.883	2728.81
974.183	2701.69
974.484	2673.67
974.785	2704.41
975.085	2691.53
975.386	2699.21
975.686	2652.88
975.986	2619.21
976.287	2611.08
976.587	2628.02
976.887	2619.66
977.187	2611.98
977.487	2603.17
977.787	2582.15
978.087	2577.4
978.387	2595.48
978.687	2531.98
978.987	2530.63
979.286	2561.36
979.586	2513
979.885	2507.58
980.185	2469.16
980.484	2496.95
980.784	2486.78
981.083	2440.91
981.382	2439.55
981.682	2440.23
981.981	2414.02
982.28	2433.68
982.579	2369.95
982.878	2391.65
983.177	2394.81
983.475	2366.79
983.774	2397.97
984.073	2354.58
984.372	2303.51
984.67	2357.07
984.969	2350.97
985.267	2339.67
985.566	2298.77
985.864	2288.37
986.162	2291.76
986.461	2270.97
986.759	2249.73
987.057	2222.84
987.355	2238.88
987.653	2241.37
987.951	2187.36
988.249	2234.36
988.547	2183.06
988.844	2181.48
989.142	2162.27
989.44	2155.95
989.737	2189.17
990.035	2153.46
990.332	2154.82
990.63	2137.19
990.927	2087.93
991.224	2123.4
991.521	2085.21
991.819	2104.2
992.116	2073.46
992.413	2104.42
992.71	2079.79
993.006	2056.51
993.303	2037.53
993.6	2061.03
993.897	2009.28
994.193	2009.51
994.49	2021.71
994.787	2005.22
995.083	1998.44
995.379	1966.35
995.676	2005.44
995.972	1978.55
996.268	1988.04
996.565	1936.29
996.861	1944.43
997.157	1960.02
997.453	1960.47
997.749	1915.05
998.044	1882.28
998.34	1879.57
998.636	1883.41
998.932	1869.4
999.227	1877.76
999.523	1880.7
999.818	1852
1000.114	1858.1
1000.409	1846.35
1000.704	1788.27
1001	1816.29
1001.295	1799.57
1001.59	1758.22
1001.885	1774.04
1002.18	1770.87
1002.475	1735.84
1002.77	1739.91
1003.065	1740.82
1003.359	1753.7
1003.654	1727.71
1003.949	1753.24
1004.243	1722.29
1004.538	1719.57
1004.832	1723.19
1005.127	1668.95
1005.421	1649.29
1005.715	1669.86
1006.009	1677.54
1006.304	1666.47
1006.598	1649.29
1006.892	1645.45
1007.186	1606.13
1007.48	1596.41
1007.773	1584.21
1008.067	1587.37
1008.361	1582.85
1008.655	1550.31
1008.948	1559.35
1009.242	1567.04
1009.535	1547.6
1009.829	1554.38
1010.122	1547.37
1010.415	1520.48
1010.708	1522.29
1011.001	1486.81
1011.295	1500.14
1011.588	1504.89
1011.881	1497.43
1012.173	1465.12
1012.466	1482.29
1012.759	1453.82
1013.052	1476.64
1013.344	1450.2
1013.637	1435.51
1013.93	1407.72
1014.222	1411.56
1014.514	1401.16
1014.807	1431.22
1015.099	1395.97
1015.391	1406.36
1015.683	1363.88
1015.976	1363.42
1016.268	1345.35
1016.56	1373.59
1016.851	1362.97
1017.143	1333.14
1017.435	1348.51
1017.727	1335.4
1018.018	1322.07
1018.31	1294.5
1018.602	1282.3
1018.893	1288.4
1019.185	1278.23
1019.476	1263.31
1019.767	1286.14
1020.058	1298.57
1020.35	1244.78
1020.641	1241.17
1020.932	1224.22
1021.223	1253.6
1021.514	1242.07
1021.804	1185.12
1022.095	1217.44
1022.386	1214.28
1022.677	1217.44
1022.967	1180.15
1023.258	1191.23
1023.548	1185.8
1023.839	1166.14
1024.129	1170.89
1024.419	1150.77
1024.709	1163.88
1025	1120.04
1025.29	1123.66
1025.58	1141.06
1025.87	1117.1
1026.16	1099.48
1026.449	1098.57
1026.739	1087.27
1027.029	1082.98
1027.319	1080.27
1027.608	1098.8
1027.898	1067.84
1028.187	1077.1
1028.477	1049.76
1028.766	1054.96
1029.055	1042.3
1029.344	1021.06
1029.634	1041.17
1029.923	1019.03
1030.212	1001.4
1030.501	1065.58
1030.79	1009.31
1031.078	1013.15
1031.367	967.28
1031.656	984.23
1031.945	961.85
1032.233	965.92
1032.522	964.57
1032.81	964.79
1033.099	949.88
1033.387	967.28
1033.675	946.03
1033.963	925.24
1034.251	953.72
1034.54	951.68
1034.828	932.02
1035.116	936.09
1035.403	905.58
1035.691	916.2
1035.979	909.43
1036.267	899.03
1036.554	915.3
1036.842	875.3
1037.129	878.24
1037.417	853.61
1037.704	876.43
1037.992	852.93
1038.279	892.25
1038.566	866.71
1038.853	866.71
1039.14	866.71
