Data from hue_24_FLMS001491_00076.txt Node
Date: Tue Feb 07 17:12:44 GMT 2017
User: dcchb
Spectrometer: FLMS00149
Trigger mode: 0
Integration Time (sec): 2.000000E-2
Scans to average: 10
Electric dark correction enabled: true
Nonlinearity correction enabled: false
Boxcar width: 0
XAxis mode: Wavelengths
Number of Pixels in Spectrum: 2048
>>>>>Begin Spectral Data<<<<<
341.393	7.82
341.776	7.82
342.16	7.82
342.543	-60.42
342.927	-92.51
343.31	-56.13
343.693	-71.5
344.077	-57.94
344.46	-69.01
344.843	-49.8
345.226	-28.11
345.61	-17.49
345.993	-47.54
346.376	-3.93
346.759	31.78
347.142	19.58
347.525	42.85
347.908	49.18
348.291	76.75
348.674	79.24
349.057	102.06
349.44	138.67
349.823	128.73
350.206	152.68
350.588	175.73
350.971	199.01
351.354	227.48
351.737	232
352.119	249.85
352.502	257.99
352.884	291.43
353.267	292.11
353.65	309.74
354.032	287.59
354.414	295.73
354.797	317.65
355.179	312.45
355.562	321.71
355.944	325.33
356.326	323.52
356.709	357.42
357.091	356.06
357.473	335.95
357.855	309.29
358.238	333.92
358.62	336.86
359.002	342.73
359.384	344.31
359.766	331.21
360.148	342.05
360.53	356.97
360.912	366.01
361.294	342.51
361.676	352.45
362.057	333.01
362.439	326.69
362.821	331.88
363.203	329.4
363.584	332.34
363.966	314.03
364.348	345.89
364.729	324.43
365.111	328.27
365.493	312.45
365.874	330.3
366.256	303.18
366.637	315.16
367.019	304.77
367.4	341.83
367.781	316.52
368.163	322.17
368.544	322.62
368.925	315.16
369.306	332.79
369.688	337.31
370.069	325.56
370.45	295.73
370.831	322.39
371.212	319.91
371.593	307.48
371.974	319
372.355	318.55
372.736	315.84
373.117	319
373.498	311.77
373.879	304.77
374.26	309.74
374.641	309.51
375.021	311.55
375.402	313.58
375.783	330.75
376.163	333.24
376.544	334.37
376.925	313.13
377.305	318.32
377.686	318.55
378.066	328.95
378.447	359.45
378.827	326.91
379.208	326.91
379.588	326.69
379.968	361.26
380.349	320.36
380.729	333.24
381.109	332.11
381.489	342.28
381.87	331.43
382.25	350.19
382.63	348.83
383.01	330.08
383.39	352.22
383.77	359.68
384.15	356.29
384.53	358.1
384.91	364.43
385.29	357.19
385.67	340.02
386.049	332.79
386.429	348.61
386.809	347.7
387.189	346.12
387.568	356.06
387.948	358.78
388.328	340.47
388.707	361.49
389.087	353.35
389.466	379.11
389.846	384.09
390.225	357.65
390.605	370.75
390.984	377.76
391.363	379.79
391.743	376.85
392.122	373.92
392.501	373.92
392.881	375.27
393.26	390.41
393.639	376.18
394.018	381.6
394.397	373.92
394.776	368.95
395.155	384.76
395.534	375.05
395.913	406.23
396.292	395.39
396.671	396.29
397.05	393.8
397.429	401.03
397.808	382.73
398.186	405.55
398.565	384.99
398.944	385.44
399.323	383.86
399.701	401.94
400.08	391.77
400.458	409.85
400.837	399.23
401.215	424.31
401.594	397.64
401.972	412.79
402.351	392
402.729	393.58
403.107	409.62
403.486	412.79
403.864	415.27
404.242	405.78
404.62	420.7
404.999	426.34
405.377	417.53
405.755	403.97
406.133	433.58
406.511	415.95
406.889	417.08
407.267	426.8
407.645	436.74
408.023	447.36
408.401	424.99
408.779	450.98
409.156	443.07
409.534	462.95
409.912	443.97
410.29	453.01
410.667	445.1
411.045	442.62
411.422	432.67
411.8	483.74
412.178	449.85
412.555	482.61
412.933	449.17
413.31	488.94
413.687	478.32
414.065	490.52
414.442	463.86
414.819	484.42
415.197	480.58
415.574	484.2
415.951	495.95
416.328	497.76
416.705	515.38
417.082	493.01
417.46	521.03
417.837	512.22
418.214	501.6
418.591	503.18
418.967	511.99
419.344	522.16
419.721	532.56
420.098	526.91
420.475	555.61
420.852	549.05
421.228	539.56
421.605	530.07
421.982	526.46
422.358	510.18
422.735	545.44
423.111	560.8
423.488	559.22
423.864	558.32
424.241	561.26
424.617	574.59
424.994	574.14
425.37	574.82
425.746	590.18
426.123	570.97
426.499	584.53
426.875	555.83
427.251	584.76
427.627	600.13
428.003	574.59
428.379	608.49
428.756	590.41
429.132	596.96
429.507	624.76
429.883	616.4
430.259	610.75
430.635	643.74
431.011	624.31
431.387	655.94
431.763	654.36
432.138	652.55
432.514	658.65
432.89	642.38
433.265	655.94
433.641	669.05
434.016	665.66
434.392	668.6
434.767	684.64
435.143	674.47
435.518	703.17
435.894	703.17
436.269	696.39
436.644	699.56
437.02	735.26
437.395	744.75
437.77	746.34
438.145	740.23
438.52	741.14
438.895	752.21
439.271	718.09
439.646	768.48
440.021	778.65
440.395	746.11
440.77	760.35
441.145	762.38
441.52	775.49
441.895	749.5
442.27	767.35
442.645	783.85
443.019	813.91
443.394	797.18
443.769	807.13
444.143	825.88
444.518	814.36
444.892	795.6
445.267	806.9
445.641	837.63
446.016	828.82
446.39	811.42
446.764	854.81
447.139	822.27
447.513	835.83
447.887	807.13
448.262	846.9
448.636	867.92
449.01	843.06
449.384	872.43
449.758	873.34
450.132	888.25
450.506	893.68
450.88	891.19
451.254	890.29
451.628	890.06
452.002	919.21
452.376	915.6
452.75	916.73
453.123	924.64
453.497	933.9
453.871	935.94
454.244	956.73
454.618	954.24
454.992	975.48
455.365	971.64
455.739	979.1
456.112	996.5
456.486	996.5
456.859	997.63
457.232	1038.08
457.606	1025.88
457.979	1041.02
458.352	1053.67
458.725	1070.85
459.099	1055.71
459.472	1114.91
459.845	1112.43
460.218	1088.02
460.591	1111.52
460.964	1094.35
461.337	1150.39
461.71	1125.31
462.083	1145.2
462.456	1160.79
462.829	1174.35
463.201	1217.06
463.574	1192.88
463.947	1223.61
464.32	1243.72
464.692	1236.72
465.065	1287.34
465.438	1235.36
465.81	1291.86
466.183	1279.66
466.555	1343.61
466.928	1333.21
467.3	1325.98
467.672	1359.88
468.045	1388.58
468.417	1356.72
468.789	1408.24
469.161	1443.72
469.534	1466.32
469.906	1474.68
470.278	1490.5
470.65	1523.27
471.022	1517.62
471.394	1549.03
471.766	1566.2
472.138	1596.94
472.51	1598.74
472.882	1646.2
473.253	1645.75
473.625	1692.98
473.997	1724.39
474.369	1762.35
474.74	1760.77
475.112	1774.78
475.484	1816.36
475.855	1857.27
476.227	1884.16
476.598	1928.68
476.97	1909.7
477.341	1986.98
477.713	2034.66
478.084	2043.48
478.455	2102.01
478.827	2121.67
479.198	2173.19
479.569	2167.09
479.94	2238.73
480.311	2265.17
480.682	2332.74
481.053	2399.17
481.424	2403.69
481.795	2439.63
482.166	2509
482.537	2516.23
482.908	2578.15
483.279	2639.39
483.65	2705.38
484.021	2709
484.391	2752.61
484.762	2783.12
485.133	2841.2
485.503	2901.53
485.874	2950.35
486.244	2967.75
486.615	3024.92
486.985	3057.46
487.356	3138.59
487.726	3212.26
488.097	3250.23
488.467	3257.68
488.837	3372.48
489.207	3349.66
489.578	3429.88
489.948	3466.49
490.318	3535.42
490.688	3530.9
491.058	3606.15
491.428	3687.95
491.798	3723.66
492.168	3782.41
492.538	3780.61
492.908	3835.07
493.278	3884.11
493.648	3973.14
494.017	3937.21
494.387	4006.82
494.757	4046.14
495.126	4127.49
495.496	4160.03
495.866	4163.87
496.235	4179.24
496.605	4283.64
496.974	4264.66
497.344	4312.8
497.713	4357.09
498.082	4376.07
498.452	4442.51
498.821	4474.37
499.19	4495.39
499.559	4553.02
499.928	4592.34
500.298	4570.42
500.667	4612.45
501.036	4644.76
501.405	4703.75
501.774	4671.2
502.143	4742.62
502.512	4785.33
502.88	4747.81
503.249	4841.14
503.618	4846.12
503.987	4868.04
504.356	4875.27
504.724	4961.59
505.093	4918.88
505.462	4932.21
505.83	5033
506.199	5040.23
506.567	5092.89
506.936	5096.73
507.304	5121.81
507.672	5216.5
508.041	5194.13
508.409	5251.53
508.777	5316.39
509.145	5301.7
509.514	5345.54
509.882	5366.33
510.25	5356.61
510.618	5364.75
510.986	5407.23
511.354	5413.33
511.722	5447.46
512.09	5479.32
512.458	5489.04
512.826	5554.57
513.193	5545.53
513.561	5576.49
513.929	5609.94
514.297	5668.47
514.664	5720.44
515.032	5701.23
515.4	5753.89
515.767	5762.48
516.135	5825.75
516.502	5758.63
516.869	5844.06
517.237	5896.94
517.604	5837.28
517.972	5929.7
518.339	5884.51
518.706	5964.96
519.073	5960.89
519.44	5979.42
519.808	6021.68
520.175	6011.96
520.542	6085.18
520.909	6066.87
521.276	6143.48
521.643	6194.1
522.009	6155.69
522.376	6221.45
522.743	6262.35
523.11	6331.27
523.477	6409.46
523.843	6379.63
524.21	6451.72
524.577	6502.8
524.943	6522.68
525.31	6524.04
525.676	6593.41
526.043	6597.71
526.409	6646.07
526.776	6665.95
527.142	6722.68
527.508	6742.11
527.874	6825.95
528.241	6799.96
528.607	6813.52
528.973	6844.26
529.339	6879.06
529.705	6935.55
530.071	7060.07
530.437	7007.19
530.803	7088.77
531.169	7128.32
531.535	7112.27
531.901	7157.69
532.267	7150.46
532.632	7239.95
532.998	7213.74
533.364	7276.33
533.73	7288.31
534.095	7371.25
534.461	7419.16
534.826	7406.73
535.192	7502.09
535.557	7483.11
535.923	7492.83
536.288	7480.17
536.653	7626.16
537.019	7583.44
537.384	7552.94
537.749	7610.79
538.114	7621.86
538.479	7681.07
538.845	7681.75
539.21	7671.35
539.575	7823.89
539.94	7764.23
540.305	7835.42
540.67	7882.19
541.034	7918.58
541.399	7931.01
541.764	7957.9
542.129	7959.03
542.494	8056.88
542.858	8050.1
543.223	8069.31
543.587	8150.21
543.952	8174.62
544.316	8186.37
544.681	8138.91
545.045	8226.59
545.41	8320.37
545.774	8318.11
546.138	8275.63
546.503	8342.75
546.867	8381.84
547.231	8491.44
547.595	8477.21
547.959	8496.42
548.324	8517.88
548.688	8509.3
549.052	8607.6
549.416	8565.57
549.779	8633.36
550.143	8657.31
550.507	8667.71
550.871	8640.82
551.235	8659.8
551.599	8787.93
551.962	8777.54
552.326	8838.33
552.689	8895.27
553.053	8799.01
553.417	8847.14
553.78	9003.52
554.143	8919
554.507	9003.97
554.87	9011.43
555.234	9050.98
555.597	9022.95
555.96	9137.75
556.323	9147.25
556.686	9187.24
557.05	9236.06
557.413	9191.54
557.776	9275.6
558.139	9271.31
558.502	9279.45
558.865	9325.32
559.228	9339.78
559.59	9398.31
559.953	9478.54
560.316	9452.1
560.679	9474.92
561.041	9574.8
561.404	9707.23
561.767	9649.38
562.129	9576.16
562.492	9678.98
562.854	9709.94
563.217	9772.99
563.579	9785.19
563.941	9839.2
564.304	9932.54
564.666	9883.95
565.028	9993.32
565.39	9942.03
565.753	9996.94
566.115	10067.67
566.477	10087.33
566.839	10096.15
567.201	10173.66
567.563	10163.94
567.925	10278.29
568.287	10283.94
568.648	10313.32
569.01	10313.09
569.372	10363.03
569.734	10432.41
570.095	10455.91
570.457	10473.31
570.819	10468.57
571.18	10507.66
571.542	10627.21
571.903	10601.44
572.265	10690.93
572.626	10797.82
572.987	10808.9
573.349	10778.61
573.71	10847.31
574.071	10975.45
574.432	10999.4
574.794	11078.49
575.155	11102
575.516	11166.63
575.877	11238.26
576.238	11253.63
576.599	11371.82
576.96	11421.76
577.32	11476.9
577.681	11584.7
578.042	11694.3
578.403	11742.21
578.763	11819.49
579.124	11989.2
579.485	12143.32
579.845	12193.72
580.206	12256.32
580.566	12353.94
580.927	12491.56
581.287	12691.33
581.648	12795.06
582.008	12919.8
582.368	13072.11
582.728	13217.19
583.089	13233.24
583.449	13506.68
583.809	13606.34
584.169	13828.25
584.529	14016.04
584.889	14170.62
585.249	14213.55
585.609	14543.49
585.969	14742.8
586.329	14887.89
586.688	15108.67
587.048	15303.92
587.408	15455.78
587.768	15613.29
588.127	16020.51
588.487	16187.29
588.846	16446.71
589.206	16633.15
589.565	16858.46
589.925	17197.66
590.284	17408.27
590.643	17742.95
591.003	18012.1
591.362	18345.2
591.721	18549.26
592.08	18777.27
592.44	19181.11
592.799	19348.56
593.158	19691.6
593.517	19956.23
593.876	20248.65
594.235	20522.09
594.593	20833.72
594.952	21144.67
595.311	21402.29
595.67	21682.06
596.029	22183.29
596.387	22440.46
596.746	22667.12
597.104	23007.22
597.463	23225.75
597.822	23655.79
598.18	23810.59
598.538	24143.24
598.897	24635.43
599.255	24528.76
599.613	25309.76
599.972	25472.01
600.33	25826.58
600.688	25952.68
601.046	26323.97
601.404	26678.76
601.762	26936.16
602.12	27385.41
602.478	27557.16
602.836	27941.33
603.194	28006.86
603.552	28360.07
603.91	28437.81
604.268	28931.36
604.625	29144.01
604.983	29507.16
605.341	29666.48
605.698	30043.87
606.056	30284.77
606.413	30459.91
606.771	30935.6
607.128	31249.49
607.485	31329.03
607.843	31489.03
608.2	31856.7
608.557	32264.83
608.914	32390.7
609.272	32651.71
609.629	33065.03
609.986	33265.93
610.343	33323.78
610.7	33596.55
611.057	33848.74
611.414	34078.12
611.771	34360.14
612.127	34551.78
612.484	34694.14
612.841	34957.87
613.198	34984.76
613.554	35211.42
613.911	35644.63
614.267	35736.83
614.624	35893.43
614.98	36173.43
615.337	36290.71
615.693	36507.88
616.05	36637.14
616.406	36996.46
616.762	36951.94
617.118	37031.94
617.475	37220.63
617.831	37534.75
618.187	37530
618.543	37864
618.899	38155.3
619.255	37949.43
619.611	38314.39
619.967	38462.18
620.323	38688.39
620.678	38607.26
621.034	38637.32
621.39	38917.31
621.746	38843.64
622.101	39444.08
622.457	39178.77
622.812	39294.48
623.168	39509.38
623.523	39534.69
623.879	39864.86
624.234	39693.33
624.589	40026.43
624.945	40052.2
625.3	40111.18
625.655	40154.79
626.01	40207.9
626.365	40486.53
626.72	40406.76
627.075	40421.23
627.43	40600.88
627.785	40372.86
628.14	40683.37
628.495	40837.49
628.85	40709.81
629.205	40617.15
629.559	40869.12
629.914	40696.47
630.269	40912.29
630.623	40837.71
630.978	40890.14
631.332	40971.49
631.687	41196.8
632.041	40929.69
632.396	41133.52
632.75	41089
633.104	41055.11
633.459	41124.48
633.813	41061.43
634.167	41209.68
634.521	41268.43
634.875	41370.35
635.229	41319.73
635.583	41080.19
635.937	41180.08
636.291	41147.76
636.645	41154.54
636.999	41085.39
637.352	41262.33
637.706	40991.38
638.06	41222.56
638.413	41145.05
638.767	41123.35
639.121	40953.19
639.474	40909.57
639.828	40985.96
640.181	41089.91
640.534	41207.87
640.888	41029.8
641.241	40807.66
641.594	41070.25
641.947	41109.12
642.301	40954.32
642.654	41107.99
643.007	40928.1
643.36	41018.5
643.713	41094.2
644.066	40986.86
644.419	41032.96
644.771	40622.58
645.124	40291.29
645.477	40215.58
645.83	40101.91
646.182	39988.02
646.535	40058.75
646.888	39978.75
647.24	39870.28
647.593	39985.98
647.945	39923.84
648.298	39805.65
648.65	39617.18
649.002	39618.76
649.355	39680.23
649.707	39908.92
650.059	39987.56
650.411	40358.63
650.763	40390.72
651.115	40790.48
651.467	40737.38
651.819	40632.29
652.171	40583.48
652.523	40502.81
652.875	40591.62
653.227	40467.1
653.578	40681.11
653.93	40583.03
654.282	40465.52
654.633	40345.07
654.985	40327.44
655.337	40446.08
655.688	40541.22
656.039	40651.73
656.391	40359.31
656.742	40292.42
657.094	40317.05
657.445	40574.67
657.796	40394.56
658.147	40388.68
658.498	40386.88
658.849	40521.34
659.2	40392.75
659.551	40336.03
659.902	40423.03
660.253	40270.27
660.604	40530.15
660.955	40343.26
661.306	40473.43
661.656	40402.69
662.007	40324.28
662.358	40327.44
662.708	40390.27
663.059	40220.1
663.409	40069.14
663.76	40420.55
664.11	40385.07
664.461	40351.4
664.811	40201.34
665.161	40234.34
665.511	40194.79
665.862	40278.63
666.212	40369.02
666.562	40325.18
666.912	40145.53
667.262	40330.61
667.612	40171.97
667.962	40381.45
668.312	40262.36
668.662	40444.95
669.011	40146.2
669.361	40278.4
669.711	40118.41
670.06	40104.4
670.41	40181.01
670.76	40141.68
671.109	40252.42
671.459	40129.71
671.808	40041.12
672.157	40101.46
672.507	39778.53
672.856	39896.27
673.205	39959.54
673.554	40178.52
673.904	39925.87
674.253	40172.87
674.602	40071.63
674.951	39494.7
675.3	39307.13
675.649	39890.62
675.998	39826.89
676.346	39811.98
676.695	39884.97
677.044	39781.47
677.393	39758.87
677.741	39677.97
678.09	39709.15
678.438	39663.51
678.787	39560.91
679.135	39670.28
679.484	39549.16
679.832	39575.6
680.181	39337.86
680.529	39440.23
680.877	39317.98
681.225	39311.65
681.573	39632.77
681.922	39192.33
682.27	39290.18
682.618	39210.86
682.966	39131.99
683.314	39323.63
683.661	39040.02
684.009	38959.12
684.357	38842.74
684.705	38920.47
685.053	38840.02
685.4	38862.85
685.748	38614.72
686.095	38517.55
686.443	38568.17
686.79	38547.38
687.138	38536.53
687.485	38609.52
687.832	38433.25
688.18	38489.98
688.527	38112.13
688.874	38146.93
689.221	38127.5
689.568	38026.26
689.915	37957.34
690.262	38018.8
690.609	37901.29
690.956	37731.58
691.303	37702.2
691.65	37596.67
691.997	37681.41
692.344	37244.13
692.69	37210.24
693.037	37405.49
693.383	37011.37
693.73	37029.9
694.077	36873.75
694.423	36836.69
694.769	36796.91
695.116	36708.1
695.462	36670.14
695.808	36532.97
696.155	36820.64
696.501	36384.95
696.847	36433.08
697.193	36100.89
697.539	36257.04
697.885	35986.77
698.231	35848.01
698.577	35919.42
698.923	35850.72
699.269	35699.09
699.614	35442.83
699.96	35505.87
700.306	35519.21
700.651	35240.12
700.997	35169.39
701.342	35069.5
701.688	35145.66
702.033	34948.6
702.379	34880.81
702.724	34785.44
703.069	34927.36
703.415	34472.91
703.76	34625.67
704.105	34637.42
704.45	34549.29
704.795	34448.73
705.14	34215.74
705.485	34210.54
705.83	34095.29
706.175	34123.54
706.52	34015.52
706.865	33917.22
707.209	33902.3
707.554	33738.01
707.899	33821.17
708.243	33640.61
708.588	33481.07
708.932	33351.58
709.277	33322.2
709.621	33480.16
709.966	33210.34
710.31	33331.69
710.654	32894.64
710.998	33004.25
711.342	32991.59
711.687	32885.83
712.031	32813.29
712.375	32685.16
712.719	32692.61
713.063	32706.4
713.407	32764.93
713.75	32518.16
714.094	32417.14
714.438	32417.82
714.782	32425.73
715.125	32280.42
715.469	32286.07
715.812	32278.61
716.156	32058.28
716.499	32065.29
716.843	31963.82
717.186	31801.79
717.53	31977.38
717.873	32014.21
718.216	31883.82
718.559	31787.33
718.902	31621.23
719.246	31663.72
719.589	31571.97
719.932	31373.78
720.275	31468.01
720.617	31534.91
720.96	31381.69
721.303	31309.15
721.646	31442.93
721.989	31124.75
722.331	31220.79
722.674	30967.69
723.016	31048.59
723.359	30983.96
723.701	30979.44
724.044	30811.76
724.386	30714.59
724.729	30962.26
725.071	30644.99
725.413	30796.85
725.755	30657.64
726.097	30492.22
726.439	30461.04
726.782	30413.35
727.124	30596.62
727.465	30326.8
727.807	30341.04
728.149	30194.15
728.491	30207.48
728.833	30300.59
729.175	30165.9
729.516	30211.55
729.858	30141.95
730.199	30050.65
730.541	29988.73
730.882	30006.13
731.224	30032.8
731.565	29840.71
731.906	29757.55
732.248	29795.06
732.589	29584
732.93	29519.82
733.271	29691.11
733.612	29721.39
733.953	29625.58
734.294	29468.52
734.635	29504.45
734.976	29537.9
735.317	29294.74
735.658	29267.85
735.999	29462.87
736.339	29317.11
736.68	29359.6
737.021	29281.18
737.361	29035.31
737.702	29217.45
738.042	29200.73
738.383	29135.87
738.723	29035.99
739.063	29078.92
739.404	29162.31
739.744	28916.44
740.084	28710.35
740.424	28928.19
740.764	28790.34
741.104	28859.95
741.444	28782.66
741.784	28604.81
742.124	28635.32
742.464	28617.69
742.804	28715.09
743.143	28535.21
743.483	28497.02
743.823	28413.63
744.162	28390.81
744.502	28476.23
744.841	28354.42
745.181	28413.63
745.52	28355.1
745.86	28416.34
746.199	28207.54
746.538	28100.42
746.877	28228.78
747.216	28391.49
747.556	28102.68
747.895	28154.88
748.234	28054.09
748.573	28039.18
748.911	28060.87
749.25	28110.81
749.589	27897.26
749.928	27873.76
750.267	27815.46
750.605	27899.75
750.944	27790.6
751.283	27689.81
751.621	27808.9
751.96	27579.53
752.298	27627.89
752.636	27640.77
752.975	27439.42
753.313	27389.7
753.651	27664.95
753.989	27342.93
754.327	27360.78
754.666	27207.11
755.004	27170.5
755.342	27306.32
755.679	27201.46
756.017	26979.54
756.355	27146.55
756.693	27027.45
757.031	27021.8
757.368	26741.13
757.706	26760.34
758.044	26773.9
758.381	26796.27
758.719	26631.76
759.056	26605.54
759.394	26601.48
759.731	26431.54
760.068	26422.05
760.405	26319.9
760.743	26269.73
761.08	26202.62
761.417	26155.16
761.754	26153.13
762.091	26104.31
762.428	26074.26
762.765	25932.34
763.102	25858.22
763.438	25730.76
763.775	25703.65
764.112	25628.85
764.449	25705.91
764.785	25532.58
765.122	25401.96
765.458	25237.67
765.795	25288.52
766.131	25169.87
766.467	25179.37
766.804	24997.9
767.14	24930.11
767.476	25006.94
767.812	24779.6
768.148	24835.19
768.485	24696.22
768.821	24417.35
769.157	24528.31
769.492	24403.79
769.828	24399.95
770.164	24115.44
770.5	24223.91
770.836	24233.18
771.171	23963.8
771.507	23926.97
771.842	23764.49
772.178	23663.02
772.513	23650.59
772.849	23552.52
773.184	23536.7
773.519	23491.73
773.855	23460.32
774.19	23301.68
774.525	23298.29
774.86	23320.43
775.195	23181.45
775.53	23011.06
775.865	22984.62
776.2	22877.05
776.535	22627.79
776.87	22703.27
777.205	22587.34
777.539	22525.88
777.874	22513.9
778.209	22399.55
778.543	22221.7
778.878	22068.26
779.212	22094.48
779.547	22169.73
779.881	22017.42
780.215	21866.68
780.55	21858.32
780.884	21588.05
781.218	21609.52
781.552	21605.45
781.886	21554.83
782.22	21468.28
782.554	21371.78
782.888	21158.23
783.222	21185.12
783.556	20983.77
783.889	21051.34
784.223	20886.6
784.557	20823.1
784.89	20831.01
785.224	20757.56
785.557	20540.84
785.891	20442.09
786.224	20490.45
786.558	20477.34
786.891	20326.39
787.224	20246.16
787.557	20217.91
787.891	20142.44
788.224	20075.55
788.557	20024.47
788.89	20028.32
789.223	19961.88
789.556	19793.29
789.888	19810.69
790.221	19652.73
790.554	19563.24
790.887	19509.46
791.219	19423.59
791.552	19403.7
791.884	19294.78
792.217	19337.26
792.549	19231.5
792.882	19158.73
793.214	19026.76
793.546	18954.67
793.879	18989.7
794.211	18808.23
794.543	18924.62
794.875	18882.81
795.207	18890.49
795.539	18735.69
795.871	18734.11
796.203	18528.69
796.535	18424.74
796.867	18336.16
797.198	18296.84
797.53	18325.99
797.862	18206.67
798.193	18120.57
798.525	18091.42
798.856	18090.06
799.188	17993.79
799.519	17875.38
799.85	17782.72
800.182	17808.03
800.513	17854.59
800.844	17655.5
801.175	17618.66
801.506	17726
801.837	17468.38
802.168	17417.76
802.499	17434.71
802.83	17456.86
803.161	17322.62
803.491	17307.48
803.822	17288.27
804.153	17158.79
804.483	17105.23
804.814	17061.61
805.145	16969.41
805.475	16972.8
805.805	16830.43
806.136	16991.78
806.466	16870.43
806.796	16838.12
807.126	16719.25
807.457	16653.71
807.787	16639.25
808.117	16574.39
808.447	16576.88
808.777	16544.56
809.107	16453.04
809.436	16336.66
809.766	16447.39
810.096	16332.59
810.426	16220.96
810.755	16316.32
811.085	16214.4
811.414	16167.63
811.744	16005.37
812.073	16013.96
812.403	16091.47
812.732	15973.51
813.061	15947.07
813.39	15795.66
813.719	15802.44
814.049	15924.69
814.378	15772.38
814.707	15647.87
815.036	15675.66
815.365	15622.1
815.693	15515.67
816.022	15513.63
816.351	15425.95
816.68	15303.92
817.008	15427.98
817.337	15285.84
817.665	15315.44
817.994	15362.45
818.322	15406.52
818.651	15177.6
818.979	15206.52
819.307	15201.32
819.636	15222.57
819.964	15064.38
820.292	15079.07
820.62	15131.27
820.948	15025.06
821.276	15063.93
821.604	15012.4
821.932	15021.67
822.259	15064.6
822.587	14990.71
822.915	14989.35
823.243	14999.75
823.57	14946.64
823.898	15054.43
824.225	14927.88
824.553	14933.99
824.88	14907.55
825.207	14996.36
825.535	14931.27
825.862	14941.67
826.189	14964.27
826.516	14982.35
826.843	14938.28
827.17	14922.46
827.497	14978.5
827.824	14900.54
828.151	14978.73
828.478	14895.34
828.805	14899.18
829.131	14858.73
829.458	14909.35
829.785	14845.4
830.111	14844.72
830.438	14889.47
830.764	14903.48
831.09	14919.52
831.417	14848.56
831.743	14946.64
832.069	14831.39
832.395	14745.74
832.722	14859.41
833.048	14813.54
833.374	14796.14
833.7	14731.96
834.026	14743.48
834.351	14698.74
834.677	14729.92
835.003	14778.28
835.329	14747.1
835.654	14671.39
835.98	14623.49
836.306	14620.55
836.631	14569.7
836.956	14602.24
837.282	14582.81
837.607	14534.9
837.932	14502.13
838.258	14590.27
838.583	14523.38
838.908	14425.3
839.233	14472.98
839.558	14378.29
839.883	14388.46
840.208	14312.76
840.533	14340.33
840.858	14308.92
841.182	14295.36
841.507	14300.1
841.832	14169.94
842.156	14161.12
842.481	14167.45
842.805	14154.57
843.13	14104.4
843.454	14159.77
843.778	13933.33
844.103	13972.2
844.427	14044.29
844.751	13922.04
845.075	13915.03
845.399	13867.57
845.723	13829.16
846.047	13882.71
846.371	13670.97
846.695	13754.81
847.019	13646.11
847.343	13605.89
847.666	13460.13
847.99	13382.84
848.313	13445.44
848.637	13277.53
848.96	13324.31
849.284	13243.63
849.607	13146.24
849.931	13149.17
850.254	13043.19
850.577	13011.32
850.9	12941.5
851.223	12885
851.546	12732.24
851.869	12752.8
852.192	12843.87
852.515	12699.02
852.838	12649.98
853.161	12622.86
853.483	12499.25
853.806	12539.7
854.129	12471
854.451	12443.66
854.774	12385.35
855.096	12339.93
855.419	12362.3
855.741	12321.63
856.063	12207.96
856.385	12186.71
856.708	12180.84
857.03	12181.29
857.352	12123.89
857.674	12110.78
857.996	12024.46
858.318	11919.83
858.64	11958.02
858.961	11872.15
859.283	11888.19
859.605	11791.24
859.926	11767.74
860.248	11856.1
860.57	11751.24
860.891	11779.72
861.212	11574.98
861.534	11651.36
861.855	11652.94
862.176	11566.84
862.498	11633.73
862.819	11581.76
863.14	11508.99
863.461	11473.51
863.782	11471.25
864.103	11570.46
864.424	11439.39
864.745	11410.01
865.065	11374.76
865.386	11345.15
865.707	11335.44
866.027	11341.31
866.348	11339.96
866.668	11349.45
866.989	11257.7
867.309	11197.13
867.63	11224.93
867.95	11209.56
868.27	11143.35
868.59	11152.39
868.91	11177.93
869.23	11103.58
869.55	11117.14
869.87	11151.71
870.19	11140.19
870.51	11075.33
870.83	11043.69
871.15	11014.54
871.469	11056.8
871.789	11025.16
872.109	11002.34
872.428	11011.6
872.748	10981.55
873.067	10864.49
873.386	10853.42
873.706	10847.31
874.025	10877.6
874.344	10769.12
874.663	10835.34
874.982	10790.14
875.301	10854.55
875.62	10815.9
875.939	10713.53
876.258	10728.9
876.577	10763.7
876.896	10737.49
877.214	10565.74
877.533	10669.47
877.852	10663.82
878.17	10608.68
878.489	10617.72
878.807	10652.52
879.125	10525.06
879.444	10544.5
879.762	10475.57
880.08	10516.93
880.398	10531.39
880.716	10566.64
881.034	10445.06
881.352	10480.54
881.67	10384.73
881.988	10401
882.306	10369.59
882.624	10316.71
882.941	10349.47
883.259	10365.07
883.577	10227.44
883.894	10242.13
884.212	10200.1
884.529	10174.11
884.846	10182.02
885.164	10185.18
885.481	10124.85
885.798	10128.69
886.115	10048.69
886.432	10112.87
886.75	10043.49
887.067	10023.38
887.383	10019.31
887.7	9968.01
888.017	9907.68
888.334	9991.06
888.651	9926.89
888.967	9919.65
889.284	9868.58
889.6	9892.54
889.917	9753.11
890.233	9740.9
890.55	9794.91
890.866	9725.31
891.182	9701.13
891.498	9652.32
891.815	9620.68
892.131	9599.44
892.447	9544.75
892.763	9435.83
893.079	9528.93
893.395	9501.13
893.71	9477.63
894.026	9448.48
894.342	9374.81
894.657	9335.04
894.973	9344.98
895.289	9320.35
895.604	9300.69
895.92	9220.46
896.235	9190.41
896.55	9173.23
896.865	9100.69
897.181	9177.98
897.496	9079.22
897.811	9077.64
898.126	9037.64
898.441	9025.21
898.756	8994.48
899.071	8892.11
899.386	8918.78
899.7	8824.32
900.015	8843.75
900.33	8764.43
900.644	8824.09
900.959	8816.18
901.273	8719.23
901.588	8736.86
901.902	8712.23
902.216	8614.38
902.531	8642.17
902.845	8577.32
903.159	8541.16
903.473	8534.61
903.787	8476.75
904.101	8467.49
904.415	8354.27
904.729	8335.29
905.042	8355.4
905.356	8330.09
905.67	8255.74
905.984	8342.07
906.297	8236.53
906.611	8155.18
906.924	8191.11
907.237	8268.62
907.551	8121.28
907.864	8048.29
908.177	8176.2
908.491	8122.41
908.804	7997.67
909.117	7951.12
909.43	7938.69
909.743	7870.44
910.056	7902.76
910.368	7815.08
910.681	7853.72
910.994	7767.62
911.307	7782.99
911.619	7685.81
911.932	7639.71
912.244	7643.56
912.557	7625.25
912.869	7569.89
913.181	7551.13
913.494	7533.28
913.806	7477.46
914.118	7473.39
914.43	7400.17
914.742	7394.75
915.054	7384.58
915.366	7323.56
915.678	7295.32
915.99	7250.57
916.302	7179.39
916.613	7177.13
916.925	7151.59
917.236	7087.64
917.548	7105.94
917.859	7087.41
918.171	7110.01
918.482	7060.97
918.794	6958.15
919.105	6952.95
919.416	6942.78
919.727	6912.28
920.038	6878.38
920.349	6831.83
920.66	6817.36
920.971	6813.52
921.282	6780.75
921.593	6710.02
921.903	6692.17
922.214	6719.29
922.525	6644.03
922.835	6609.01
923.146	6554.09
923.456	6580.99
923.767	6561.78
924.077	6540.99
924.387	6466.64
924.697	6386.41
925.008	6415.11
925.318	6388.45
925.628	6389.13
925.938	6375.34
926.248	6287.66
926.558	6257.38
926.867	6290.6
927.177	6260.09
927.487	6229.13
927.796	6185.06
928.106	6149.58
928.416	6136.25
928.725	6102.81
929.034	6078.17
929.344	6077.72
929.653	6062.81
929.962	5962.7
930.271	5929.25
930.581	5940.1
930.89	5886.54
931.199	5862.13
931.508	5884.73
931.817	5852.42
932.125	5817.84
932.434	5751.85
932.743	5792.53
933.051	5752.31
933.36	5734.91
933.669	5671.63
933.977	5683.16
934.286	5660.33
934.594	5644.96
934.902	5593.44
935.21	5557.28
935.519	5525.87
935.827	5568.81
936.135	5545.53
936.443	5468.7
936.751	5456.95
937.059	5409.49
937.367	5391.86
937.674	5411.3
937.982	5382.82
938.29	5357.51
938.597	5336.27
938.905	5251.98
939.213	5255.14
939.52	5214.69
939.827	5272.32
940.135	5183.51
940.442	5167.24
940.749	5143.51
941.056	5165.66
941.363	5053.57
941.67	5046.11
941.977	5049.5
942.284	5025.77
942.591	5020.8
942.898	5012.44
943.205	4998.2
943.511	4953.91
943.818	4965.89
944.125	4881.37
944.431	4904.42
944.738	4867.36
945.044	4848.83
945.35	4836.17
945.657	4729.28
945.963	4827.81
946.269	4696.51
946.575	4726.34
946.881	4701.26
947.187	4690.19
947.493	4680.24
947.799	4664.2
948.105	4712.56
948.41	4684.54
948.716	4586.69
949.022	4634.82
949.327	4553.69
949.633	4518.89
949.938	4553.69
950.244	4537.42
950.549	4451.55
950.854	4460.81
951.16	4461.27
951.465	4415.84
951.77	4420.36
952.075	4373.36
952.38	4374.94
952.685	4379.01
952.99	4327.71
953.294	4363.19
953.599	4277.54
953.904	4273.93
954.209	4230.09
954.513	4251.33
954.818	4243.87
955.122	4211.78
955.426	4202.74
955.731	4186.7
956.035	4135.85
956.339	4146.47
956.643	4097.43
956.948	4089.07
957.252	4062.41
957.556	4108.28
957.86	4066.7
958.163	4028.06
958.467	4027.83
958.771	3983.54
959.075	4026.48
959.378	4002.97
959.682	3948.51
959.985	3897.44
960.289	3887.27
960.592	3874.39
960.896	3864.67
961.199	3888.85
961.502	3890.89
961.805	3828.06
962.108	3803.66
962.411	3809.08
962.714	3762.3
963.017	3762.08
963.32	3780.61
963.623	3741.29
963.926	3738.8
964.228	3713.94
964.531	3670.78
964.833	3683.21
965.136	3640.27
965.438	3638.46
965.741	3632.81
966.043	3614.51
966.345	3551.91
966.648	3566.83
966.95	3534.06
967.252	3534.06
967.554	3533.38
967.856	3520.73
968.158	3499.94
968.46	3452.25
968.761	3468.3
969.063	3490.22
969.365	3425.36
969.666	3389.43
969.968	3358.7
970.269	3370.67
970.571	3378.81
970.872	3338.13
971.174	3309.88
971.475	3276.89
971.776	3314.86
972.077	3239.15
972.378	3260.85
972.679	3249.32
972.98	3262.65
973.281	3248.87
973.582	3231.69
973.883	3190.34
974.183	3213.62
974.484	3191.7
974.785	3154.63
975.085	3180.4
975.386	3122.32
975.686	3152.83
975.986	3116.22
976.287	3117.12
976.587	3102.88
976.887	3080.74
977.187	3061.08
977.487	3074.64
977.787	3072.38
978.087	3014.07
978.387	3009.1
978.687	3029.44
978.987	2938.14
979.286	2949.22
979.586	2957.8
979.885	2944.47
980.185	2911.7
980.484	2906.28
980.784	2926.62
981.083	2884.36
981.382	2870.12
981.682	2832.38
981.981	2849.11
982.28	2850.69
982.579	2838.03
982.878	2875.77
983.177	2810.69
983.475	2807.53
983.774	2753.52
984.073	2779.05
984.372	2731.14
984.67	2749
984.969	2748.54
985.267	2731.37
985.566	2705.15
985.864	2695.89
986.162	2691.82
986.461	2693.86
986.759	2641.43
987.057	2628.32
987.355	2648.89
987.653	2610.02
987.951	2624.25
988.249	2599.62
988.547	2613.86
988.844	2556.46
989.142	2570.7
989.44	2534.76
989.737	2539.06
990.035	2510.58
990.332	2499.74
990.63	2494.99
990.927	2492.73
991.224	2473.75
991.521	2487.08
991.819	2459.51
992.116	2427.65
992.413	2407.54
992.71	2394.43
993.006	2399.17
993.303	2392.17
993.6	2421.55
993.897	2359.63
994.193	2384.49
994.49	2351.27
994.787	2353.98
995.083	2305.84
995.379	2314.66
995.676	2288.89
995.972	2305.17
996.268	2311.27
996.565	2255.45
996.861	2305.84
997.157	2276.47
997.453	2264.26
997.749	2239.4
998.044	2224.04
998.34	2228.56
998.636	2210.7
998.932	2182.23
999.227	2181.78
999.523	2194.43
999.818	2162.34
1000.114	2123.48
1000.409	2123.7
1000.704	2126.64
1001	2104.27
1001.295	2092.97
1001.59	2101.33
1001.885	2120.31
1002.18	2057.49
1002.475	2063.14
1002.77	2064.04
1003.065	2062.01
1003.359	2052.29
1003.654	1997.83
1003.949	1987.21
1004.243	1976.13
1004.538	1963.93
1004.832	1995.12
1005.127	1977.72
1005.421	1996.25
1005.715	1960.99
1006.009	1945.85
1006.304	1948.56
1006.598	1932.29
1006.892	1874.22
1007.186	1892.97
1007.48	1881.9
1007.773	1849.13
1008.067	1836.93
1008.361	1847.1
1008.655	1825.4
1008.948	1806.42
1009.242	1810.04
1009.535	1808.46
1009.829	1808.91
1010.122	1777.95
1010.415	1766.65
1010.708	1784.28
1011.001	1766.42
1011.295	1740.43
1011.588	1732.75
1011.881	1697.05
1012.173	1705.63
1012.466	1719.64
1012.759	1677.61
1013.052	1681.68
1013.344	1676.71
1013.637	1680.1
1013.93	1655.92
1014.222	1639.65
1014.514	1608.23
1014.807	1629.48
1015.099	1612.08
1015.391	1603.04
1015.683	1600.55
1015.976	1607.56
1016.268	1575.92
1016.56	1561.23
1016.851	1571.85
1017.143	1542.47
1017.435	1538.86
1017.727	1531.4
1018.018	1533.21
1018.31	1532.53
1018.602	1496.6
1018.893	1476.26
1019.185	1478.97
1019.476	1478.97
1019.767	1480.33
1020.058	1470.16
1020.35	1442.82
1020.641	1453.66
1020.932	1432.87
1021.223	1401.46
1021.514	1403.95
1021.804	1388.35
1022.095	1398.07
1022.386	1398.52
1022.677	1376.38
1022.967	1347
1023.258	1320.33
1023.548	1340.67
1023.839	1357.62
1024.129	1343.16
1024.419	1343.16
1024.709	1317.17
1025	1309.03
1025.29	1298.64
1025.58	1295.25
1025.87	1260.22
1026.16	1274.23
1026.449	1253.67
1026.739	1218.19
1027.029	1245.31
1027.319	1254.12
1027.608	1248.7
1027.898	1212.76
1028.187	1212.09
1028.477	1205.31
1028.766	1200.56
1029.055	1167.79
1029.344	1188.36
1029.634	1170.28
1029.923	1168.92
1030.212	1145.2
1030.501	1181.81
1030.79	1142.48
1031.078	1137.96
1031.367	1118.53
1031.656	1124.41
1031.945	1115.82
1032.233	1098.42
1032.522	1109.72
1032.81	1072.2
1033.099	1114.24
1033.387	1088.93
1033.675	1086.67
1033.963	1086.44
1034.251	1061.81
1034.54	1050.96
1034.828	1059.55
1035.116	1037.4
1035.403	1052.77
1035.691	1016.84
1035.979	1019.32
1036.267	1003.73
1036.554	1000.11
1036.842	1006.44
1037.129	1002.83
1037.417	994.92
1037.704	989.04
1037.992	978.65
1038.279	956.95
1038.566	951.75
1038.853	951.75
1039.14	951.75
