Data from hue_38_FLMS001491_00039.txt Node
Date: Tue Feb 07 17:31:26 GMT 2017
User: dcchb
Spectrometer: FLMS00149
Trigger mode: 0
Integration Time (sec): 2.000000E-2
Scans to average: 10
Electric dark correction enabled: true
Nonlinearity correction enabled: false
Boxcar width: 0
XAxis mode: Wavelengths
Number of Pixels in Spectrum: 2048
>>>>>Begin Spectral Data<<<<<
341.393	1.89
341.776	1.89
342.16	1.89
342.543	-72.46
342.927	-87.6
343.31	-84.88
343.693	-88.73
344.077	-51.67
344.46	-69.74
344.843	-57.99
345.226	-22.51
345.61	-25
345.993	-25.9
346.376	1.67
346.759	17.94
347.142	31.5
347.525	45.73
347.908	67.2
348.291	68.78
348.674	97.48
349.057	96.13
349.44	123.7
349.823	149.46
350.206	173.87
350.588	217.03
350.971	221.77
351.354	244.15
351.737	233.07
352.119	260.87
352.502	263.35
352.884	269.68
353.267	283.92
353.65	299.06
354.032	311.94
354.414	342.22
354.797	317.14
355.179	330.92
355.562	335.9
355.944	318.49
356.326	328.21
356.709	332.96
357.091	327.53
357.473	327.76
357.855	350.13
358.238	342.22
358.62	342.67
359.002	341.09
359.384	359.4
359.766	332.51
360.148	379.51
360.53	337.48
360.912	317.59
361.294	334.99
361.676	328.66
362.057	346.29
362.439	338.83
362.821	347.19
363.203	335.44
363.584	330.92
363.966	320.98
364.348	338.15
364.729	310.13
365.111	330.7
365.493	322.34
365.874	308.33
366.256	323.24
366.637	318.04
367.019	313.75
367.4	319.62
367.781	315.56
368.163	337.93
368.544	322.79
368.925	335.67
369.306	338.61
369.688	321.66
370.069	331.15
370.45	313.07
370.831	317.14
371.212	315.56
371.593	340.87
371.974	314.43
372.355	330.92
372.736	312.84
373.117	336.35
373.498	326.63
373.879	324.6
374.26	314.65
374.641	298.16
375.021	305.84
375.402	331.38
375.783	317.82
376.163	335.67
376.544	336.12
376.925	353.52
377.305	348.78
377.686	343.35
378.066	330.25
378.447	320.08
378.827	333.41
379.208	346.74
379.588	356.01
379.968	320.3
380.349	327.76
380.729	350.36
381.109	347.65
381.489	354.65
381.87	353.3
382.25	355.78
382.63	346.74
383.01	346.29
383.39	355.1
383.77	359.85
384.15	357.36
384.53	341.77
384.91	360.08
385.29	373.86
385.67	353.97
386.049	358.95
386.429	354.65
386.809	374.09
387.189	341.77
387.568	342
387.948	349.23
388.328	362.56
388.707	355.33
389.087	353.3
389.466	353.75
389.846	335.22
390.225	370.47
390.605	374.76
390.984	369.57
391.363	375.44
391.743	362.79
392.122	357.59
392.501	383.58
392.881	388.55
393.26	398.94
393.639	388.55
394.018	374.76
394.397	386.74
394.776	357.36
395.155	383.13
395.534	401.43
395.913	374.31
396.292	380.19
396.671	392.39
397.05	394.42
397.429	402.79
397.808	371.37
398.186	403.01
398.565	403.24
398.944	398.49
399.323	396.01
399.701	387.42
400.08	383.58
400.458	404.37
400.837	408.66
401.215	403.69
401.594	411.6
401.972	392.84
402.351	422.45
402.729	409.57
403.107	421.77
403.486	406.18
403.864	396.68
404.242	426.06
404.62	413.41
404.999	405.95
405.377	410.7
405.755	407.31
406.133	398.49
406.511	420.86
406.889	437.14
407.267	428.55
407.645	423.8
408.023	421.77
408.401	429.9
408.779	445.95
409.156	444.37
409.534	445.95
409.912	460.19
410.29	471.94
410.667	468.55
411.045	444.59
411.422	455.67
411.8	476.46
412.178	473.97
412.555	473.52
412.933	476.91
413.31	474.87
413.687	477.81
414.065	489.79
414.442	485.27
414.819	488.43
415.197	498.6
415.574	505.61
415.951	487.53
416.328	491.37
416.705	500.86
417.082	508.55
417.46	485.5
417.837	514.2
418.214	501.09
418.591	503.12
418.967	527.53
419.344	499.73
419.721	547.41
420.098	527.3
420.475	545.61
420.852	514.2
421.228	531.14
421.605	533.86
421.982	558.04
422.358	553.06
422.735	546.51
423.111	534.99
423.488	540.86
423.864	518.94
424.241	570.47
424.617	541.09
424.994	561.2
425.37	565.72
425.746	561.43
426.123	584.25
426.499	570.69
426.875	565.04
427.251	606.85
427.627	600.29
428.003	585.83
428.379	591.93
428.756	624.02
429.132	617.24
429.507	612.27
429.883	612.5
430.259	628.32
430.635	612.27
431.011	624.25
431.387	622.89
431.763	628.32
432.138	638.71
432.514	651.59
432.89	666.51
433.265	652.95
433.641	647.98
434.016	661.76
434.392	655.43
434.767	692.5
435.143	687.52
435.518	712.83
435.894	702.67
436.269	681.2
436.644	716.9
437.02	712.16
437.395	712.16
437.77	722.78
438.145	731.59
438.52	749.22
438.895	734.98
439.271	721.42
439.646	740.4
440.021	732.04
440.395	763
440.77	770.46
441.145	759.61
441.52	759.61
441.895	774.75
442.27	780.86
442.645	791.25
443.019	780.86
443.394	757.58
443.769	802.32
444.143	789.89
444.518	787.41
444.892	810.46
445.267	796
445.641	801.19
446.016	803.68
446.39	834.87
446.764	820.85
447.139	833.96
447.513	819.72
447.887	805.71
448.262	821.53
448.636	835.77
449.01	860.85
449.384	836.67
449.758	854.98
450.132	884.81
450.506	863.79
450.88	891.81
451.254	876.22
451.628	864.47
452.002	910.57
452.376	902.66
452.75	905.82
453.123	935.65
453.497	924.58
453.871	918.7
454.244	942.43
454.618	939.72
454.992	958.03
455.365	977.23
455.739	981.53
456.112	997.8
456.486	986.05
456.859	1015.43
457.232	1039.61
457.606	1026.72
457.979	1025.82
458.352	1062.2
458.725	1045.03
459.099	1078.7
459.472	1092.49
459.845	1090.9
460.218	1095.42
460.591	1102.2
460.964	1099.94
461.337	1123.9
461.71	1149.66
462.083	1173.16
462.456	1180.62
462.829	1168.19
463.201	1177.91
463.574	1210
463.947	1239.15
464.32	1263.78
464.692	1239.6
465.065	1233.05
465.438	1296.55
465.81	1310.78
466.183	1321.63
466.555	1346.49
466.928	1355.76
467.3	1351.46
467.672	1405.25
468.045	1409.54
468.417	1416.09
468.789	1441.63
469.161	1449.09
469.534	1458.58
469.906	1543.1
470.278	1529.08
470.65	1547.84
471.022	1595.97
471.394	1621.96
471.766	1626.71
472.138	1656.54
472.51	1719.81
472.882	1739.93
473.253	1759.36
473.625	1788.74
473.997	1795.07
474.369	1819.7
474.74	1865.57
475.112	1925.68
475.484	1958
475.855	2009.98
476.227	2050.2
476.598	2109.86
476.97	2150.31
477.341	2198.22
477.713	2263.53
478.084	2277.76
478.455	2338.1
478.827	2407.93
479.198	2470.98
479.569	2511.88
479.94	2623.97
480.311	2640.92
480.682	2738.77
481.053	2803.85
481.424	2870.74
481.795	2910.06
482.166	3000.23
482.537	3066.9
482.908	3108.7
483.279	3198.19
483.65	3299.88
484.021	3378.75
484.391	3476.38
484.762	3526.77
485.133	3583.95
485.503	3691.97
485.874	3814.67
486.244	3857.61
486.615	3955.46
486.985	4030.49
487.356	4131.28
487.726	4279.07
488.097	4337.15
488.467	4453.3
488.837	4536.91
489.207	4623.69
489.578	4754.54
489.948	4822.1
490.318	4933.97
490.688	5028.65
491.058	5127.86
491.428	5217.12
491.798	5341.64
492.168	5456.44
492.538	5534.18
492.908	5631.12
493.278	5760.39
493.648	5831.34
494.017	5962.41
494.387	6067.04
494.757	6131.9
495.126	6259.13
495.496	6276.76
495.866	6440.59
496.235	6579.57
496.605	6599.91
496.974	6716.07
497.344	6829.74
497.713	6885.55
498.082	7015.04
498.452	7110.18
498.821	7204.64
499.19	7240.8
499.559	7333
499.928	7435.6
500.298	7487.35
500.667	7588.36
501.036	7682.82
501.405	7747.9
501.774	7779.54
502.143	7884.62
502.512	7954.45
502.88	8003.04
503.249	8121.68
503.618	8225.41
503.987	8330.71
504.356	8389.92
504.724	8455
505.093	8541.1
505.462	8560.99
505.83	8704.49
506.199	8768.44
506.567	8900.42
506.936	8958.95
507.304	9037.36
507.672	9141.99
508.041	9200.75
508.409	9190.58
508.777	9311.03
509.145	9447.07
509.514	9445.03
509.882	9532.94
510.25	9525.94
510.618	9645.93
510.986	9724.8
511.354	9775.42
511.722	9894.29
512.09	9974.51
512.458	9952.14
512.826	10131.8
513.193	10171.79
513.561	10183.09
513.929	10322.07
514.297	10336.08
514.664	10417.44
515.032	10527.27
515.4	10528.62
515.767	10579.47
516.135	10605.91
516.502	10589.18
516.869	10824.21
517.237	10827.82
517.604	10834.15
517.972	10954.82
518.339	11001.15
518.706	11003.86
519.073	11162.5
519.44	11183.97
519.808	11353.68
520.175	11293.12
520.542	11548.26
520.909	11500.12
521.276	11579.67
521.643	11727.23
522.009	11740.34
522.376	11743.73
522.743	11883.39
523.11	11984.4
523.477	12081.12
523.843	12149.14
524.21	12270.95
524.577	12308.46
524.943	12426.65
525.31	12426.88
525.676	12562.47
526.043	12599.08
526.409	12624.61
526.776	12871.38
527.142	12859.18
527.508	12940.08
527.874	13018.05
528.241	13030.25
528.607	13094.88
528.973	13234.99
529.339	13221.43
529.705	13390.47
530.071	13453.97
530.437	13505.27
530.803	13614.87
531.169	13744.81
531.535	13657.35
531.901	13711.36
532.267	13786.84
532.632	13898.02
532.998	13913.84
533.364	14074.29
533.73	14106.83
534.095	14202.42
534.461	14247.17
534.826	14263.44
535.192	14350.67
535.557	14507.27
535.923	14493.49
536.288	14584.33
536.653	14655.29
537.019	14552.92
537.384	14644.67
537.749	14711.11
538.114	14828.4
538.479	14845.8
538.845	14895.74
539.21	14893.93
539.575	14921.95
539.94	15000.14
540.305	15130.99
540.67	15090.54
541.034	15240.81
541.399	15276.52
541.764	15247.59
542.129	15366.23
542.494	15429.06
542.858	15542.5
543.223	15490.75
543.587	15617.08
543.952	15606.91
544.316	15733.91
544.681	15768.94
545.045	15805.09
545.41	15979.55
545.774	15967.35
546.138	16002.15
546.503	16132.99
546.867	16060
547.231	16256.38
547.595	16242.14
547.959	16233.33
548.324	16323.05
548.688	16335.47
549.052	16432.42
549.416	16460.67
549.779	16427.45
550.143	16519.2
550.507	16728.91
550.871	16742.92
551.235	16675.58
551.599	16871.51
551.962	16899.75
552.326	16939.3
552.689	17052.74
553.053	16961.67
553.417	17076.92
553.78	17275.56
554.143	17190.59
554.507	17341.78
554.87	17360.53
555.234	17534.31
555.597	17500.42
555.96	17525.27
556.323	17495.44
556.686	17742.22
557.05	17710.13
557.413	17716.91
557.776	17734.99
558.139	18046.16
558.502	17840.75
558.865	17944.92
559.228	18103.56
559.59	18168.87
559.953	18204.8
560.316	18421.97
560.679	18433.95
561.041	18533.38
561.404	18533.61
561.767	18692.93
562.129	18599.6
562.492	18794.17
562.854	18784.68
563.217	18788.52
563.579	18893.15
563.941	19051.56
564.304	19007.04
564.666	19147.15
565.028	19156.19
565.39	19289.07
565.753	19340.14
566.115	19423.08
566.477	19459.46
566.839	19501.72
567.201	19672.34
567.563	19691.77
567.925	19871.65
568.287	19873.23
568.648	19857.42
569.01	20030.74
569.372	20066.9
569.734	20015.83
570.095	20228.93
570.457	20317.97
570.819	20377.4
571.18	20355.26
571.542	20605.64
571.903	20540.34
572.265	20685.42
572.626	20686.09
572.987	20777.17
573.349	20861.01
573.71	20961.79
574.071	21079.53
574.432	21191.39
574.794	21386.87
575.155	21404.04
575.516	21364.04
575.877	21589.35
576.238	21768.78
576.599	21753.86
576.96	22025.72
577.32	22003.8
577.681	22249.67
578.042	22330.12
578.403	22410.57
578.763	22460.96
579.124	22682.2
579.485	22916.32
579.845	23082.64
580.206	23069.53
580.566	23253.26
580.927	23361.73
581.287	23626.36
581.648	23745
582.008	23946.12
582.368	23994.03
582.728	24168.26
583.089	24256.17
583.449	24359.67
583.809	24721.24
584.169	24924.63
584.529	24885.53
584.889	25336.59
585.249	25316.03
585.609	25380.21
585.969	25787.66
586.329	25868.78
586.688	26118.49
587.048	26279.17
587.408	26369.11
587.768	26664.47
588.127	26908.3
588.487	27015.19
588.846	27440.95
589.206	27290.21
589.565	27586.7
589.925	27975.85
590.284	27971.55
590.643	28292
591.003	28604.08
591.362	28874.81
591.721	28885.43
592.08	29123.84
592.44	29465.75
592.799	29558.86
593.158	29625.97
593.517	29988.67
593.876	30253.75
594.235	30296.69
594.593	30541.88
594.952	30754.3
595.311	30870.23
595.67	31166.72
596.029	31483.55
596.387	31677.22
596.746	31863.2
597.104	31827.95
597.463	31994.05
597.822	32276.07
598.18	32599.23
598.538	32562.17
598.897	33068.59
599.255	32814.36
599.613	33434.69
599.972	33419.77
600.33	33627.9
600.688	33660.22
601.046	33972.98
601.404	34299.3
601.762	34306.75
602.12	34526.63
602.478	34749.91
602.836	34837.36
603.194	34806.4
603.552	34998.71
603.91	35133.85
604.268	35477.8
604.625	35473.05
604.983	35779.48
605.341	35760.95
605.698	35983.09
606.056	36288.62
606.413	36349.41
606.771	36490.2
607.128	36511.22
607.485	36553.02
607.843	36695.17
608.2	37010.19
608.557	37203.17
608.914	37169.73
609.272	37416.73
609.629	37457.4
609.986	37788.92
610.343	37717.96
610.7	37958.41
611.057	38024.85
611.414	38143.94
611.771	38272.98
612.127	38541.22
612.484	38560.65
612.841	38810.59
613.198	38702.12
613.554	38898.72
613.911	39172.61
614.267	39044.48
614.624	39222.56
614.98	39380.07
615.337	39581.19
615.693	39526.96
616.05	39529.89
616.406	39892.14
616.762	39887.85
617.118	39839.72
617.475	39940.5
617.831	40095.75
618.187	40353.6
618.543	40327.39
618.899	40683.31
619.255	40575.97
619.611	40456.42
619.967	40758.56
620.323	40948.61
620.678	40924.88
621.034	40791.33
621.39	40907.03
621.746	40766.92
622.101	41341.14
622.457	41173.01
622.812	41217.08
623.168	41340.69
623.523	41299.11
623.879	41518.77
624.234	41364.87
624.589	41488.49
624.945	41513.34
625.3	41572.78
625.655	41419.11
626.01	41495.49
626.365	41649.61
626.72	41641.93
627.075	41674.02
627.43	41673.34
627.785	41700.01
628.14	41726.67
628.495	41860.9
628.85	41820.23
629.205	41795.14
629.559	41975.7
629.914	41869.94
630.269	41822.94
630.623	41740.91
630.978	41825.43
631.332	41911.3
631.687	42132.54
632.041	41988.36
632.396	41985.42
632.75	41775.71
633.104	41992.65
633.459	41720.34
633.813	41783.62
634.167	41765.31
634.521	41907.23
634.875	41937.97
635.229	42001.92
635.583	41746.56
635.937	41973.9
636.291	41840.34
636.645	41817.74
636.999	41853.67
637.352	41851.19
637.706	41542.5
638.06	41701.81
638.413	41733
638.767	41551.31
639.121	41815.26
639.474	41454.59
639.828	41453.23
640.181	41725.99
640.534	41672.89
640.888	41449.16
641.241	41337.98
641.594	41472.21
641.947	41549.73
642.301	41409.84
642.654	41503.4
643.007	41626.79
643.36	41481.71
643.713	41375.95
644.066	41490.29
644.419	41199.23
644.771	40991.55
645.124	40683.76
645.477	40677.43
645.83	40350.21
646.182	40350.89
646.535	40145.24
646.888	40291.45
647.24	40014.4
647.593	40356.54
647.945	40214.85
648.298	39973.72
648.65	39945.25
649.002	40010.56
649.355	40159.93
649.707	40058.01
650.059	40204.23
650.411	40682.86
650.763	40817.32
651.115	41152.9
651.467	40930.99
651.819	40927.37
652.171	40897.54
652.523	40828.62
652.875	40655.96
653.227	40683.99
653.578	40872.68
653.93	40848.95
654.282	40684.44
654.633	40639.02
654.985	40637.43
655.337	40587.72
655.688	40788.84
656.039	40733.03
656.391	40440.15
656.742	40554.05
657.094	40632.69
657.445	40764.89
657.796	40645.12
658.147	40481.73
658.498	40559.02
658.849	40579.81
659.2	40618.23
659.551	40484.67
659.902	40667.04
660.253	40528.96
660.604	40539.81
660.955	40340.04
661.306	40527.61
661.656	40551.79
662.007	40426.59
662.358	40464.56
662.708	40448.74
663.059	40441.06
663.409	40161.97
663.76	40477.44
664.11	40466.14
664.461	40475.63
664.811	40453.71
665.161	40460.72
665.511	40305.69
665.862	40436.08
666.212	40415.07
666.562	40357.22
666.912	40363.77
667.262	40372.13
667.612	40321.28
667.962	40390.21
668.312	40077.68
668.662	40479.25
669.011	40201.97
669.361	40209.42
669.711	40295.75
670.06	40127.17
670.41	40066.38
670.76	40153.61
671.109	40309.76
671.459	40153.83
671.808	40116.32
672.157	40215.98
672.507	39996.1
672.856	40100.73
673.205	40017.11
673.554	40210.55
673.904	39893.27
674.253	40283.32
674.602	39889.66
674.951	39501.42
675.3	39451.48
675.649	40017.79
675.998	39824.35
676.346	39931.92
676.695	40194.51
677.044	39755.65
677.393	40000.84
677.741	39898.47
678.09	39726.72
678.438	39736.67
678.787	39869.32
679.135	39839.26
679.484	39580.29
679.832	39708.65
680.181	39567.86
680.529	39595.65
680.877	39444.92
681.225	39512.04
681.573	39698.02
681.922	39355.89
682.27	39344.13
682.618	39285.38
682.966	39240.86
683.314	39151.82
683.661	39168.09
684.009	38931.94
684.357	38864.15
684.705	38784.15
685.053	38942.56
685.4	38799.52
685.748	38514.78
686.095	38559.75
686.443	38552.07
686.79	38435.23
687.138	38703.7
687.485	38472.07
687.832	38334.22
688.18	38373.77
688.527	38126.77
688.874	38236.59
689.221	38157.5
689.568	38003.61
689.915	38058.97
690.262	37989.59
690.609	37873.67
690.956	37816.72
691.303	37706.89
691.65	37597.97
691.997	37623.73
692.344	37253.12
692.69	37386.9
693.037	37336.96
693.383	37052.22
693.73	37168.37
694.077	36998.21
694.423	36868.27
694.769	36837.31
695.116	36781.49
695.462	36790.3
695.808	36623.75
696.155	36660.82
696.501	36296.08
696.847	36393.48
697.193	36074.39
697.539	36269.41
697.885	35972.7
698.231	35932.47
698.577	35929.54
698.923	36034.17
699.269	35709.43
699.614	35581.07
699.96	35400.74
700.306	35478.93
700.651	35410.91
700.997	35231.93
701.342	35195.77
701.688	35198.93
702.033	35028.32
702.379	35002.78
702.724	34916.91
703.069	34994.64
703.415	34668.78
703.76	34711.49
704.105	34651.6
704.45	34488.9
704.795	34367.77
705.14	34171.84
705.485	34309.69
705.83	34111.28
706.175	34088.68
706.52	33944.5
706.865	33918.97
707.209	33805.75
707.554	33700.22
707.899	34055.23
708.243	33688.01
708.588	33664.96
708.932	33440.79
709.277	33451.41
709.621	33534.34
709.966	33156.28
710.31	33363.73
710.654	33058.88
710.998	33046.45
711.342	33026.34
711.687	32881.93
712.031	32870.63
712.375	32617.31
712.719	32759.68
713.063	32726.23
713.407	32686.91
713.75	32490.53
714.094	32551.09
714.438	32474.94
714.782	32361.27
715.125	32208.28
715.469	32293.25
715.812	32187.49
716.156	31960.83
716.499	31953.82
716.843	32062.74
717.186	31815.75
717.53	31968.28
717.873	31884.9
718.216	31758.8
718.559	31719.93
718.902	31457.56
719.246	31603.55
719.589	31531.46
719.932	31447.39
720.275	31409.2
720.617	31312.48
720.96	31219.15
721.303	31239.26
721.646	31185.93
721.989	31159.49
722.331	31164.46
722.674	31036.78
723.016	31122.88
723.359	31078.36
723.701	31035.88
724.044	30873.4
724.386	30660.52
724.729	30884.24
725.071	30721.99
725.413	30798.6
725.755	30606.29
726.097	30521.99
726.439	30433.86
726.782	30450.58
727.124	30597.7
727.465	30333.52
727.807	30383.01
728.149	30254.88
728.491	30268.67
728.833	30216.24
729.175	30173.75
729.516	30125.39
729.858	29999.07
730.199	29988
730.541	30127.2
730.882	29925.4
731.224	29933.31
731.565	29792.75
731.906	29695.8
732.248	29849.47
732.589	29654.9
732.93	29619.42
733.271	29613.32
733.612	29537.16
733.953	29649.02
734.294	29478.41
734.635	29425.07
734.976	29456.03
735.317	29332.42
735.658	29370.39
735.999	29255.13
736.339	29257.17
736.68	29260.56
737.021	29271.18
737.361	29027.34
737.702	29226.89
738.042	29174.91
738.383	29045.65
738.723	29151.41
739.063	28985.99
739.404	29084.52
739.744	28747.13
740.084	28743.74
740.424	28727.46
740.764	28650.4
741.104	28909.38
741.444	28672.1
741.784	28479.11
742.124	28707.58
742.464	28530.41
742.804	28459
743.143	28438.21
743.483	28588.94
743.823	28200.25
744.162	28339.68
744.502	28333.58
744.841	28233.24
745.181	28370.64
745.52	28214.03
745.86	28159.57
746.199	28129.51
746.538	28142.62
746.877	28128.16
747.216	28210.19
747.556	27965.9
747.895	27978.11
748.234	27764.33
748.573	27748.28
748.911	27732.01
749.25	27790.09
749.589	27722.97
749.928	27679.58
750.267	27674.61
750.605	27639.13
750.944	27556.2
751.283	27440.04
751.621	27433.49
751.96	27308.75
752.298	27376.54
752.636	27325.24
752.975	27157.56
753.313	27079.15
753.651	27234.4
753.989	26986.95
754.327	27108.3
754.666	27010.67
755.004	27014.97
755.342	26911.47
755.679	26923.44
756.017	26748.53
756.355	26724.58
756.693	26677.8
757.031	26798.02
757.368	26478.94
757.706	26563.23
758.044	26498.6
758.381	26523.23
758.719	26321.2
759.056	26307.64
759.394	26256.8
759.731	26058.83
760.068	26007.31
760.405	25964.83
760.743	25814.1
761.08	25937.93
761.417	25634.44
761.754	25696.36
762.091	25628.34
762.428	25622.46
762.765	25403.03
763.102	25451.17
763.438	25223.15
763.775	25178.86
764.112	25257.95
764.449	25201.46
764.785	25033.78
765.122	24891.86
765.458	24856.61
765.795	24815.7
766.131	24822.71
766.467	24611.19
766.804	24575.48
767.14	24406
767.476	24568.7
767.812	24345.66
768.148	24461.14
768.485	24289.84
768.821	24141.37
769.157	24117.64
769.492	23988.15
769.828	24020.02
770.164	23843.53
770.5	23769.4
770.836	23690.99
771.171	23542.06
771.507	23473.59
771.842	23306.14
772.178	23356.76
772.513	23280.38
772.849	23311.11
773.184	23108.86
773.519	23098.69
773.855	22915.19
774.19	22820.5
774.525	22857.79
774.86	22846.04
775.195	22782.08
775.53	22634.07
775.865	22489.89
776.2	22345.71
776.535	22238.6
776.87	22297.58
777.205	22128.09
777.539	22019.17
777.874	22142.33
778.209	21811.94
778.543	21726.97
778.878	21705.5
779.212	21744.37
779.547	21622.12
779.881	21525.17
780.215	21372.18
780.55	21512.06
780.884	21264.61
781.218	21239.75
781.552	21268.68
781.886	21093.32
782.22	20969.02
782.554	20905.75
782.888	20804.51
783.222	20646.77
783.556	20606.77
783.889	20541.01
784.223	20429.15
784.557	20377.63
784.89	20392.99
785.224	20195.49
785.557	20150.29
785.891	20126.34
786.224	20115.49
786.558	20065.32
786.891	19910.07
787.224	19761.83
787.557	19732.67
787.891	19690.64
788.224	19796.4
788.557	19757.31
788.89	19643.64
789.223	19574.71
789.556	19458.1
789.888	19416.07
790.221	19334.72
790.554	19162.52
790.887	19261.27
791.219	19013.37
791.552	19077.32
791.884	18923.88
792.217	18919.14
792.549	18808.18
792.882	18670.33
793.214	18656.77
793.546	18733.6
793.879	18594.4
794.211	18393.95
794.543	18433.27
794.875	18348.53
795.207	18416.55
795.539	18296.78
795.871	18311.69
796.203	18111.25
796.535	18029.22
796.867	18025.83
797.198	17938.82
797.53	17935.88
797.862	17812.05
798.193	17866.51
798.525	17780.41
798.856	17749.9
799.188	17526.18
799.519	17556.91
799.85	17374.77
800.182	17437.82
800.513	17519.85
800.844	17308.1
801.175	17375.45
801.506	17238.28
801.837	17173.19
802.168	17120.09
802.499	17157.15
802.83	16978.17
803.161	17026.3
803.491	16968.9
803.822	16932.07
804.153	16763.26
804.483	16616.37
804.814	16681.45
805.145	16638.74
805.475	16613.89
805.805	16512.19
806.136	16528.24
806.466	16459.31
806.796	16493.89
807.126	16267.68
807.457	16359.65
807.787	16373.44
808.117	16244.4
808.447	16180.45
808.777	16165.08
809.107	16094.35
809.436	16076.5
809.766	15970.51
810.096	16015.71
810.426	15933.9
810.755	15930.29
811.085	15952.66
811.414	15803.06
811.744	15685.55
812.073	15701.59
812.403	15711.99
812.732	15582.27
813.061	15661.37
813.39	15580.47
813.719	15550.41
814.049	15486.46
814.378	15458.44
814.707	15467.93
815.036	15499.56
815.365	15305.67
815.693	15195.39
816.022	15175.73
816.351	15212.34
816.68	15059.12
817.008	15196.75
817.337	15014.38
817.665	15018.22
817.994	15035.17
818.322	14973.48
818.651	14933.7
818.979	14874.5
819.307	14922.86
819.636	14843.31
819.964	14736.19
820.292	14870.2
820.62	14759.47
820.948	14712.69
821.276	14765.35
821.604	14761.73
821.932	14639.02
822.259	14792.01
822.587	14683.54
822.915	14606.25
823.243	14734.39
823.57	14641.28
823.898	14665.24
824.225	14613.26
824.553	14625.69
824.88	14551.34
825.207	14655.74
825.535	14546.82
825.862	14622.98
826.189	14568.97
826.516	14697.1
826.843	14705.23
827.17	14736.42
827.497	14617.33
827.824	14665.69
828.151	14686.25
828.478	14679.92
828.805	14727.38
829.131	14556.99
829.458	14534.39
829.785	14548.85
830.111	14577.1
830.438	14634.5
830.764	14617.78
831.09	14544.11
831.417	14616.65
831.743	14549.53
832.069	14526.26
832.395	14460.72
832.722	14522.41
833.048	14492.13
833.374	14445.81
833.7	14346.15
834.026	14433.15
834.351	14490.33
834.677	14407.62
835.003	14461.85
835.329	14373.04
835.654	14343.89
835.98	14391.34
836.306	14365.81
836.631	14284.91
836.956	14321.06
837.282	14304.12
837.607	14317.67
837.932	14159.03
838.258	14229.77
838.583	14204.68
838.908	14128.98
839.233	14185.7
839.558	14074.74
839.883	14059.83
840.208	14037
840.533	13955.88
840.858	14030.45
841.182	14001.75
841.507	13984.58
841.832	13907.52
842.156	13827.74
842.481	13861.19
842.805	13862.77
843.13	13804.92
843.454	13711.36
843.778	13752.27
844.103	13682.21
844.427	13622.55
844.751	13655.54
845.075	13605.38
845.399	13524.93
845.723	13526.96
846.047	13601.76
846.371	13367.64
846.695	13425.95
847.019	13274.76
847.343	13305.95
847.666	13125.16
847.99	13123.36
848.313	13098.95
848.637	13037.26
848.96	13018.95
849.284	13037.93
849.607	12806.53
849.931	12876.13
850.254	12778.28
850.577	12643.59
850.9	12576.7
851.223	12703.25
851.546	12522.47
851.869	12492.86
852.192	12531.28
852.515	12280.89
852.838	12317.73
853.161	12363.15
853.483	12204.51
853.806	12308.24
854.129	12145.08
854.451	12151.86
854.774	12094.46
855.096	12019.2
855.419	11969.04
855.741	11942.14
856.063	11927.45
856.385	11900.79
856.708	11871.64
857.03	11818.08
857.352	11777.18
857.674	11822.82
857.996	11765.43
858.318	11701.47
858.64	11726.33
858.961	11649.27
859.283	11609.5
859.605	11487.92
859.926	11607.69
860.248	11524.75
860.57	11489.05
860.891	11438.43
861.212	11444.98
861.534	11430.07
861.855	11285.66
862.176	11373.12
862.498	11289.96
862.819	11320.47
863.14	11258.09
863.461	11254.93
863.782	11203.86
864.103	11174.03
864.424	11194.59
864.745	11233.69
865.065	11116.85
865.386	11059.91
865.707	11097.87
866.027	11117.53
866.348	11170.19
866.668	11063.52
866.989	11047.03
867.309	11004.77
867.63	10977.65
867.95	10953.24
868.27	10887.71
868.59	10957.76
868.91	10888.39
869.23	10865.34
869.55	10840.93
869.87	10868.05
870.19	10814.04
870.51	10842.51
870.83	10919.57
871.15	10844.09
871.469	10718.22
871.789	10838.67
872.109	10728.16
872.428	10737.88
872.748	10735.85
873.067	10672.12
873.386	10660.6
873.706	10655.17
874.025	10675.06
874.344	10594.61
874.663	10582.86
874.982	10547.38
875.301	10581.95
875.62	10509.64
875.939	10529.75
876.258	10527.04
876.577	10483.65
876.896	10483.42
877.214	10422.18
877.533	10475.52
877.852	10416.53
878.17	10388.74
878.489	10407.95
878.807	10404.33
879.125	10362.07
879.444	10375.63
879.762	10287.95
880.08	10345.58
880.398	10264.22
880.716	10293.83
881.034	10201.62
881.352	10256.54
881.67	10241.17
881.988	10202.53
882.306	10188.29
882.624	10129.08
882.941	10036.88
883.259	10121.17
883.577	10092.7
883.894	10061.97
884.212	10013.83
884.529	9991.69
884.846	9942.87
885.164	9987.17
885.481	9945.81
885.798	9958.24
886.115	9889.54
886.432	9812.03
886.75	9819.71
887.067	9911.46
887.383	9724.35
887.7	9797.34
888.017	9713.95
888.334	9803.22
888.651	9670.11
888.967	9645.03
889.284	9617.91
889.6	9565.03
889.917	9547.18
890.233	9581.53
890.55	9450.46
890.866	9509.67
891.182	9496.11
891.498	9402.1
891.815	9403.45
892.131	9456.11
892.447	9342.44
892.763	9343.12
893.079	9218.83
893.395	9226.06
893.71	9222.67
894.026	9238.94
894.342	9207.53
894.657	9125.04
894.973	9080.52
895.289	9139.05
895.604	9094.76
895.92	9084.37
896.235	8980.19
896.55	9002.56
896.865	8951.94
897.181	8896.35
897.496	8918.95
897.811	8848.67
898.126	8850.93
898.441	8785.39
898.756	8738.39
899.071	8735.45
899.386	8723.92
899.7	8675.79
900.015	8654.77
900.33	8528.9
900.644	8563.7
900.959	8596.69
901.273	8584.72
901.588	8538.17
901.902	8532.06
902.216	8436.7
902.531	8464.49
902.845	8367.55
903.159	8373.42
903.473	8328.91
903.787	8252.98
904.101	8212.98
904.415	8259.75
904.729	8197.61
905.042	8142.92
905.356	8152.41
905.67	8120.1
905.984	8088.23
906.297	8054.56
906.611	8037.16
906.924	7974.34
907.237	7983.83
907.551	7937.96
907.864	7888.46
908.177	7908.35
908.491	7832.87
908.804	7762.14
909.117	7739.77
909.43	7714.23
909.743	7664.97
910.056	7707.9
910.368	7618.42
910.681	7587
910.994	7600.79
911.307	7556.04
911.619	7498.42
911.932	7514.01
912.244	7446.89
912.557	7480.34
912.869	7371.19
913.181	7366.44
913.494	7309.95
913.806	7263.62
914.118	7226.79
914.43	7216.84
914.742	7252.78
915.054	7198.09
915.366	7154.02
915.678	7157.64
915.99	7092.78
916.302	7046.91
916.613	7034.48
916.925	7039.22
917.236	6996.06
917.548	6954.25
917.859	6961.71
918.171	6936.85
918.482	6893.01
918.794	6856.85
919.105	6818.66
919.416	6798.55
919.727	6739.34
920.038	6723.98
920.349	6706.8
920.66	6659.34
920.971	6712.22
921.282	6688.72
921.593	6547.71
921.903	6550.2
922.214	6464.1
922.525	6469.75
922.835	6458.67
923.146	6436.53
923.456	6382.06
923.767	6378.45
924.077	6397.88
924.387	6326.02
924.697	6283.54
925.008	6270.2
925.318	6252.35
925.628	6274.72
925.938	6149.3
926.248	6146.82
926.558	6126.48
926.867	6106.36
927.177	6098.46
927.487	6058.68
927.796	5977.33
928.106	6067.27
928.416	5989.98
928.725	5961.74
929.034	5937.56
929.344	5938.23
929.653	5907.05
929.962	5873.83
930.271	5793.83
930.581	5805.81
930.89	5756.09
931.199	5745.92
931.508	5722.42
931.817	5705.47
932.125	5746.83
932.434	5712.7
932.743	5653.95
933.051	5597.9
933.36	5554.29
933.669	5535.76
933.977	5551.13
934.286	5544.35
934.594	5531.92
934.902	5472.94
935.21	5462.09
935.519	5455.99
935.827	5425.48
936.135	5360.62
936.443	5394.75
936.751	5339.15
937.059	5300.96
937.367	5271.36
937.674	5227.29
937.982	5220.74
938.29	5228.2
938.597	5248.31
938.905	5139.84
939.213	5112.04
939.52	5142.1
939.827	5169.44
940.135	5116.11
940.442	5087.18
940.749	5057.8
941.056	5043.57
941.363	5004.47
941.67	4941.88
941.977	5004.25
942.284	4954.98
942.591	4915.66
942.898	4894.19
943.205	4884.7
943.511	4856.91
943.818	4829.34
944.125	4827.53
944.431	4814.2
944.738	4797.02
945.044	4733.75
945.35	4689.9
945.657	4694.65
945.963	4718.15
946.269	4649
946.575	4633.41
946.881	4630.92
947.187	4662.34
947.493	4591.15
947.799	4535.33
948.105	4539.17
948.41	4535.78
948.716	4500.76
949.022	4487.88
949.327	4458.27
949.633	4440.42
949.938	4467.99
950.244	4444.71
950.549	4389.8
950.854	4380.76
951.16	4411.04
951.465	4351.38
951.77	4353.64
952.075	4326.3
952.38	4290.37
952.685	4284.49
952.99	4223.02
953.294	4210.82
953.599	4197.04
953.904	4175.57
954.209	4221.67
954.513	4159.3
954.818	4172.86
955.122	4102.8
955.426	4121.33
955.731	4068.45
956.035	4073.88
956.339	4078.85
956.643	4029.36
956.948	4025.29
957.252	3985.52
957.556	3982.35
957.86	3959.98
958.163	3936.25
958.467	3955.69
958.771	3926.99
959.075	3868.01
959.378	3881.11
959.682	3856.03
959.985	3868.46
960.289	3857.84
960.592	3802.02
960.896	3778.52
961.199	3764.73
961.502	3759.08
961.805	3725.18
962.108	3722.92
962.411	3713.89
962.714	3684.06
963.017	3650.16
963.32	3692.42
963.623	3638.18
963.926	3660.78
964.228	3617.62
964.531	3616.03
964.833	3569.71
965.136	3587.34
965.438	3567.9
965.741	3530.39
966.043	3524.06
966.345	3458.07
966.648	3483.83
966.95	3484.51
967.252	3445.19
967.554	3471.18
967.856	3413.33
968.158	3419.2
968.46	3441.35
968.761	3421.24
969.063	3388.92
969.365	3348.7
969.666	3319.77
969.968	3329.94
970.269	3316.38
970.571	3292.43
970.872	3289.72
971.174	3256.5
971.475	3270.73
971.776	3237.51
972.077	3278.42
972.378	3246.1
972.679	3212.2
972.98	3178.76
973.281	3152.09
973.582	3153.67
973.883	3128.82
974.183	3153
974.484	3130.62
974.785	3098.53
975.085	3084.75
975.386	3093.56
975.686	3060.8
975.986	3028.25
976.287	3066.44
976.587	3023.96
976.887	2998.65
977.187	3031.19
977.487	3009.27
977.787	3005.88
978.087	2987.12
978.387	2953.91
978.687	2909.16
978.987	2908.71
979.286	2941.02
979.586	2888.37
979.885	2846.11
980.185	2854.02
980.484	2880.69
980.784	2868.71
981.083	2854.7
981.382	2833.46
981.682	2761.14
981.981	2798.2
982.28	2774.02
982.579	2786.9
982.878	2770.63
983.177	2738.32
983.475	2749.62
983.774	2735.83
984.073	2722.05
984.372	2649.51
984.67	2688.6
984.969	2666
985.267	2671.65
985.566	2678.66
985.864	2642.5
986.162	2609.73
986.461	2596.4
986.759	2604.08
987.057	2583.52
987.355	2589.4
987.653	2593.69
987.951	2567.02
988.249	2520.24
988.547	2562.28
988.844	2524.54
989.142	2555.5
989.44	2493.13
989.737	2503.07
990.035	2503.3
990.332	2460.59
990.63	2411.32
990.927	2455.39
991.224	2434.15
991.521	2442.96
991.819	2420.36
992.116	2406.35
992.413	2398.21
992.71	2382.85
993.006	2339.91
993.303	2353.02
993.6	2367.48
993.897	2356.86
994.193	2341.72
994.49	2307.14
994.787	2287.03
995.083	2248.39
995.379	2288.84
995.676	2274.38
995.972	2249.97
996.268	2221.27
996.565	2223.53
996.861	2233.7
997.157	2204.77
997.453	2224.66
997.749	2159.8
998.044	2184.43
998.34	2175.62
998.636	2174.72
998.932	2147.82
999.227	2170.88
999.523	2114.38
999.818	2114.38
1000.114	2108.96
1000.409	2099.24
1000.704	2100.37
1001	2093.82
1001.295	2042.29
1001.59	2058.11
1001.885	2026.47
1002.18	2018.56
1002.475	2025.57
1002.77	2007.94
1003.065	2026.92
1003.359	2003.65
1003.654	1987.6
1003.949	1975.85
1004.243	1939.24
1004.538	1943.99
1004.832	1958.23
1005.127	1913.25
1005.421	1886.14
1005.715	1892.69
1006.009	1891.79
1006.304	1893.37
1006.598	1898.79
1006.892	1856.08
1007.186	1840.94
1007.48	1839.81
1007.773	1817.89
1008.067	1795.07
1008.361	1790.77
1008.655	1807.27
1008.948	1793.03
1009.242	1763.2
1009.535	1773.82
1009.829	1749.42
1010.122	1765.46
1010.415	1741.96
1010.708	1709.64
1011.001	1701.51
1011.295	1713.94
1011.588	1678.46
1011.881	1688.63
1012.173	1676.42
1012.466	1659.93
1012.759	1663.32
1013.052	1657.67
1013.344	1648.4
1013.637	1633.94
1013.93	1609.76
1014.222	1588.97
1014.514	1630.1
1014.807	1583.09
1015.099	1582.19
1015.391	1583.55
1015.683	1585.13
1015.976	1569.31
1016.268	1566.82
1016.56	1503.77
1016.851	1515.75
1017.143	1510.1
1017.435	1517.11
1017.727	1505.13
1018.018	1494.28
1018.31	1491.8
1018.602	1465.36
1018.893	1457.22
1019.185	1450.44
1019.476	1455.64
1019.767	1442.98
1020.058	1463.1
1020.35	1417.45
1020.641	1395.98
1020.932	1418.13
1021.223	1416.54
1021.514	1412.03
1021.804	1402.53
1022.095	1369.31
1022.386	1342.65
1022.677	1348.3
1022.967	1317.11
1023.258	1348.07
1023.548	1328.19
1023.839	1304.68
1024.129	1287.51
1024.419	1294.51
1024.709	1307.62
1025	1294.06
1025.29	1279.6
1025.58	1276.21
1025.87	1257.68
1026.16	1240.5
1026.449	1231.69
1026.739	1238.7
1027.029	1227.62
1027.319	1197.57
1027.608	1238.47
1027.898	1217.45
1028.187	1190.79
1028.477	1173.16
1028.766	1185.36
1029.055	1137.68
1029.344	1172.71
1029.634	1174.74
1029.923	1151.47
1030.212	1148.76
1030.501	1125.93
1030.79	1128.42
1031.078	1123.45
1031.367	1114.41
1031.656	1107.4
1031.945	1121.19
1032.233	1098.59
1032.522	1081.86
1032.81	1076.44
1033.099	1086.61
1033.387	1071.92
1033.675	1058.81
1033.963	1026.72
1034.251	1047.97
1034.54	1026.05
1034.828	1045.71
1035.116	1012.94
1035.403	1012.26
1035.691	1031.47
1035.979	1018.59
1036.267	1013.62
1036.554	998.93
1036.842	1021.98
1037.129	986.27
1037.417	972.26
1037.704	967.52
1037.992	966.16
1038.279	952.38
1038.566	948.76
1038.853	948.76
1039.14	948.76
