Data from hue_290_FLMS001491_00026.txt Node
Date: Tue Feb 07 15:52:31 GMT 2017
User: dcchb
Spectrometer: FLMS00149
Trigger mode: 0
Integration Time (sec): 2.000000E-2
Scans to average: 10
Electric dark correction enabled: true
Nonlinearity correction enabled: false
Boxcar width: 0
XAxis mode: Wavelengths
Number of Pixels in Spectrum: 2048
>>>>>Begin Spectral Data<<<<<
341.393	-0.4
341.776	-0.4
342.16	-0.4
342.543	-53.5
342.927	-85.14
343.31	-72.03
343.693	-78.59
344.077	-67.74
344.46	-59.15
344.843	-68.64
345.226	-29.55
345.61	-32.49
345.993	-33.39
346.376	14.97
346.759	-1.75
347.142	25.14
347.525	49.77
347.908	64.24
348.291	94.52
348.674	93.16
349.057	101.52
349.44	141.97
349.823	165.7
350.206	165.93
350.588	187.85
350.971	191.92
351.354	217.23
351.737	231.91
352.119	243.44
352.502	269.65
352.884	254.29
353.267	265.36
353.65	288.64
354.032	306.49
354.414	305.13
354.797	313.95
355.179	330.9
355.562	312.14
355.944	321.4
356.326	334.06
356.709	320.73
357.091	342.65
357.473	334.28
357.855	355.3
358.238	313.49
358.62	331.12
359.002	348.75
359.384	350.78
359.766	339.26
360.148	345.13
360.53	322.76
360.912	347.62
361.294	336.54
361.676	327.51
362.057	360.27
362.439	351.46
362.821	331.8
363.203	322.76
363.584	325.92
363.966	323.89
364.348	314.85
364.729	328.18
365.111	324.57
365.493	345.81
365.874	292.25
366.256	327.05
366.637	339.71
367.019	307.39
367.4	310.78
367.781	302.65
368.163	317.34
368.544	315.53
368.925	312.36
369.306	322.99
369.688	298.81
370.069	328.41
370.45	332.25
370.831	329.09
371.212	314.85
371.593	300.61
371.974	302.65
372.355	307.17
372.736	307.17
373.117	330.9
373.498	295.87
373.879	320.73
374.26	309.43
374.641	327.05
375.021	313.49
375.402	318.47
375.783	335.87
376.163	331.8
376.544	306.04
376.925	341.52
377.305	346.49
377.686	331.12
378.066	315.53
378.447	319.37
378.827	341.06
379.208	311.91
379.588	340.84
379.968	327.28
380.349	341.97
380.729	332.7
381.109	332.93
381.489	348.75
381.87	329.09
382.25	331.35
382.63	325.7
383.01	336.77
383.39	347.17
383.77	329.54
384.15	358.24
384.53	348.75
384.91	353.27
385.29	351.01
385.67	363.66
386.049	369.54
386.429	359.14
386.809	366.6
387.189	359.37
387.568	357.11
387.948	360.95
388.328	359.14
388.707	353.27
389.087	383.32
389.466	376.32
389.846	363.44
390.225	359.82
390.605	383.55
390.984	380.16
391.363	381.97
391.743	376.54
392.122	367.28
392.501	387.16
392.881	380.39
393.26	368.18
393.639	385.58
394.018	386.49
394.397	385.58
394.776	412.25
395.155	399.82
395.534	401.18
395.913	397.11
396.292	404.79
396.671	410.67
397.05	396.2
397.429	418.35
397.808	418.12
398.186	412.48
398.565	407.73
398.944	428.52
399.323	416.77
399.701	414.96
400.08	411.57
400.458	424.68
400.837	423.32
401.215	451.34
401.594	431.23
401.972	415.64
402.351	440.04
402.729	436.43
403.107	456.09
403.486	445.47
403.864	443.66
404.242	428.75
404.62	447.95
404.999	450.21
405.377	454.28
405.755	433.94
406.133	468.97
406.511	467.39
406.889	470.78
407.267	472.81
407.645	478.46
408.023	488.63
408.401	472.59
408.779	502.42
409.156	486.6
409.534	498.57
409.912	510.55
410.29	511.23
410.667	520.72
411.045	525.92
411.422	540.83
411.8	555.07
412.178	558.69
412.555	563.43
412.933	566.6
413.31	567.95
413.687	594.17
414.065	577.22
414.442	596.88
414.819	607.5
415.197	599.14
415.574	616.31
415.951	613.6
416.328	642.98
416.705	627.61
417.082	638.68
417.46	660.15
417.837	669.64
418.214	689.3
418.591	686.37
418.967	688.85
419.344	681.17
419.721	703.54
420.098	711.9
420.475	718
420.852	716.87
421.228	763.2
421.605	730.66
421.982	744.9
422.358	773.6
422.735	751.22
423.111	791.67
423.488	768.17
423.864	785.12
424.241	816.98
424.617	807.27
424.994	809.53
425.37	807.94
425.746	849.3
426.123	840.71
426.499	856.98
426.875	863.76
427.251	888.85
427.627	886.81
428.003	902.63
428.379	902.63
428.756	929.98
429.132	938.11
429.507	933.59
429.883	945.12
430.259	937.43
430.635	975.85
431.011	967.04
431.387	1008.62
431.763	994.83
432.138	1031.44
432.514	1005.23
432.89	1038.45
433.265	1064.44
433.641	1097.43
434.016	1082.97
434.392	1065.34
434.767	1100.82
435.143	1118.22
435.518	1137.88
435.894	1146.69
436.269	1174.26
436.644	1193.02
437.02	1192.12
437.395	1176.75
437.77	1225.11
438.145	1214.71
438.52	1224.21
438.895	1244.09
439.271	1248.61
439.646	1269.4
440.021	1293.58
440.395	1290.64
440.77	1272.57
441.145	1275.73
441.52	1305.78
441.895	1323.41
442.27	1350.76
442.645	1344.2
443.019	1331.32
443.394	1342.85
443.769	1390.98
444.143	1353.92
444.518	1373.58
444.892	1380.36
445.267	1377.87
445.641	1402.73
446.016	1392.11
446.39	1401.15
446.764	1399.79
447.139	1392.11
447.513	1458.1
447.887	1432.34
448.262	1437.53
448.636	1468.04
449.01	1452.22
449.384	1454.71
449.758	1455.16
450.132	1469.62
450.506	1481.15
450.88	1504.2
451.254	1472.79
451.628	1492.67
452.002	1505.33
452.376	1555.72
452.75	1580.58
453.123	1530.64
453.497	1539.45
453.871	1577.64
454.244	1575.61
454.618	1586.68
454.992	1611.09
455.365	1609.05
455.739	1614.03
456.112	1623.97
456.486	1638.21
456.859	1689.96
457.232	1705.77
457.606	1705.32
457.979	1698.32
458.352	1743.51
458.725	1740.8
459.099	1757.98
459.472	1764.53
459.845	1780.57
460.218	1780.12
460.591	1790.52
460.964	1802.27
461.337	1846.34
461.71	1863.51
462.083	1877.75
462.456	1870.97
462.829	1880.91
463.201	1891.08
463.574	1919.1
463.947	1929.72
464.32	1981.7
464.692	1959.1
465.065	1984.64
465.438	2006.78
465.81	2043.17
466.183	2023.73
466.555	2074.35
466.928	2095.14
467.3	2080
467.672	2076.61
468.045	2155.03
468.417	2142.83
468.789	2170.62
469.161	2186.67
469.534	2189.6
469.906	2206.33
470.278	2262.6
470.65	2268.25
471.022	2300.79
471.394	2320.22
471.766	2350.5
472.138	2363.38
472.51	2407.45
472.882	2417.39
473.253	2440.44
473.625	2474.34
473.997	2495.81
474.369	2514.11
474.74	2476.15
475.112	2583.94
475.484	2587.79
475.855	2636.82
476.227	2642.02
476.598	2675.24
476.97	2710.49
477.341	2773.77
477.713	2798.4
478.084	2809.02
478.455	2839.76
478.827	2884.05
479.198	2936.02
479.569	2906.87
479.94	2959.07
480.311	2977.83
480.682	3059.86
481.053	3107.32
481.424	3161.33
481.795	3127.66
482.166	3192.51
482.537	3218.5
482.908	3264.15
483.279	3272.74
483.65	3353.19
484.021	3408.55
484.391	3423.47
484.762	3400.42
485.133	3451.72
485.503	3475.45
485.874	3526.52
486.244	3600.41
486.615	3643.8
486.985	3622.79
487.356	3714.31
487.726	3695.1
488.097	3758.15
488.467	3766.96
488.837	3832.95
489.207	3850.35
489.578	3918.15
489.948	3924.47
490.318	3926.96
490.688	3947.75
491.058	3985.49
491.428	4046.73
491.798	4111.59
492.168	4191.36
492.538	4155.2
492.908	4146.16
493.278	4292.15
493.648	4175.31
494.017	4269.77
494.387	4324.01
494.757	4334.18
495.126	4366.95
495.496	4417.57
495.866	4390.22
496.235	4384.35
496.605	4491.01
496.974	4473.61
497.344	4531.46
497.713	4545.25
498.082	4521.29
498.452	4611.23
498.821	4620.27
499.19	4590.22
499.559	4641.74
499.928	4637.9
500.298	4697.56
500.667	4717.67
501.036	4716.54
501.405	4773.72
501.774	4725.58
502.143	4796.54
502.512	4757.67
502.88	4809.65
503.249	4787.28
503.618	4849.65
503.987	4894.84
504.356	4889.65
504.724	4862.98
505.093	4911.79
505.462	4962.41
505.83	4930.55
506.199	4981.85
506.567	5010.32
506.936	5032.69
507.304	5122.41
507.672	5085.35
508.041	5071.11
508.409	5107.49
508.777	5107.27
509.145	5163.76
509.514	5178.45
509.882	5210.09
510.25	5170.54
510.618	5220.48
510.986	5203.54
511.354	5274.72
511.722	5261.16
512.09	5247.6
512.458	5293.7
512.826	5327.6
513.193	5325.79
513.561	5344.1
513.929	5318.11
514.297	5406.47
514.664	5467.94
515.032	5421.83
515.4	5397.88
515.767	5462.96
516.135	5490.99
516.502	5462.51
516.869	5533.7
517.237	5515.39
517.604	5533.47
517.972	5589.74
518.339	5587.71
518.706	5567.82
519.073	5636.74
519.44	5601.94
519.808	5653.69
520.175	5634.03
520.542	5739.11
520.909	5684.43
521.276	5697.08
521.643	5662.96
522.009	5744.09
522.376	5860.47
522.743	5841.26
523.11	5824.31
523.477	5908.15
523.843	5879.68
524.21	5952.44
524.577	5937.53
524.943	5980.24
525.31	5980.92
525.676	6056.85
526.043	6079.9
526.409	6085.77
526.776	6102.95
527.142	6123.29
527.508	6194.92
527.874	6218.65
528.241	6194.7
528.607	6194.47
528.973	6267.91
529.339	6264.52
529.705	6314.24
530.071	6388.59
530.437	6333.68
530.803	6416.84
531.169	6386.1
531.535	6413.22
531.901	6450.96
532.267	6437.63
532.632	6452.77
532.998	6506.33
533.364	6542.26
533.73	6558.53
534.095	6618.41
534.461	6664.29
534.826	6664.74
535.192	6638.98
535.557	6721.01
535.923	6622.26
536.288	6751.97
536.653	6747.45
537.019	6722.59
537.384	6741.35
537.749	6786.77
538.114	6769.14
538.479	6834.23
538.845	6878.97
539.21	6834.45
539.575	6871.29
539.94	6899.99
540.305	6931.85
540.67	6927.11
541.034	6903.15
541.399	6976.82
541.764	6958.52
542.129	7048.46
542.494	7013.66
542.858	7041.68
543.223	7114.22
543.587	7073.09
543.952	7073.77
544.316	7073.77
544.681	7119.19
545.045	7128.46
545.41	7135.46
545.774	7206.65
546.138	7198.06
546.503	7225.4
546.867	7175.01
547.231	7247.1
547.595	7270.37
547.959	7255.23
548.324	7335.23
548.688	7340.65
549.052	7314.67
549.416	7387.21
549.779	7374.1
550.143	7411.16
550.507	7414.78
550.871	7382.46
551.235	7434.21
551.599	7485.74
551.962	7484.61
552.326	7506.07
552.689	7546.07
553.053	7549.69
553.417	7539.52
553.78	7603.7
554.143	7613.87
554.507	7585.85
554.87	7626.52
555.234	7686.86
555.597	7659.29
555.96	7683.7
556.323	7692.06
556.686	7651.61
557.05	7757.82
557.413	7822.22
557.776	7749.46
558.139	7826.07
558.502	7882.79
558.865	7822.9
559.228	7943.35
559.59	7880.98
559.953	7892.28
560.316	7963.69
560.679	7987.42
561.041	8059.96
561.404	8072.61
561.767	8090.47
562.129	8023.35
562.492	8122.55
562.854	8126.62
563.217	8146.51
563.579	8108.54
563.941	8170.46
564.304	8191.25
564.666	8231.25
565.028	8310.8
565.39	8319.39
565.753	8348.54
566.115	8327.97
566.477	8395.77
566.839	8395.99
567.201	8440.74
567.563	8512.38
567.925	8518.48
568.287	8485.71
568.648	8518.48
569.01	8555.76
569.372	8556.22
569.734	8556.22
570.095	8630.34
570.457	8683.9
570.819	8735.65
571.18	8752.14
571.542	8822.42
571.903	8812.48
572.265	8855.87
572.626	8825.81
572.987	8905.36
573.349	8903.55
573.71	8938.35
574.071	9005.92
574.432	9000.05
574.794	9113.49
575.155	9188.29
575.516	9118.91
575.877	9269.87
576.238	9278.68
576.599	9313.48
576.96	9338.34
577.32	9363.43
577.681	9392.58
578.042	9463.76
578.403	9465.34
578.763	9647.26
579.124	9722.06
579.485	9689.97
579.845	9790.08
580.206	9920.02
580.566	9885.22
580.927	9985.56
581.287	10143.29
581.648	10149.39
582.008	10292.89
582.368	10375.15
582.728	10437.52
583.089	10564.07
583.449	10594.58
583.809	10669.15
584.169	10819.66
584.529	10807.23
584.889	11026.43
585.249	11017.39
585.609	11094.45
585.969	11252.87
586.329	11379.42
586.688	11501.45
587.048	11520.43
587.408	11705.96
587.768	11785.06
588.127	11975.79
588.487	12037.25
588.846	12190.24
589.206	12323.35
589.565	12383.23
589.925	12661.87
590.284	12685.37
590.643	12816.67
591.003	12989.09
591.362	13190.9
591.721	13331.91
592.08	13324.23
592.44	13522.19
592.799	13652.8
593.158	13804.21
593.517	13933.48
593.876	14085.56
594.235	14158.33
594.593	14353.8
594.952	14581.82
595.311	14634.93
595.67	14771.42
596.029	14972.09
596.387	15049.6
596.746	15250.5
597.104	15253.89
597.463	15376.15
597.822	15593.54
598.18	15699.53
598.538	15814.33
598.897	16017.71
599.255	15950.15
599.613	16402.34
599.972	16251.61
600.33	16574.08
600.688	16557.36
601.046	16707.41
601.404	16838.48
601.762	16928.65
602.12	17095.43
602.478	17211.36
602.836	17272.37
603.194	17306.49
603.552	17496.09
603.91	17457.9
604.268	17721.85
604.625	17711.23
604.983	17833.03
605.341	17852.47
605.698	17960.71
606.056	18190.31
606.413	18217.66
606.771	18336.52
607.128	18478.89
607.485	18463.3
607.843	18630.75
608.2	18728.83
608.557	18840.69
608.914	18912.33
609.272	19031.42
609.629	19016.28
609.986	19221.02
610.343	19212.66
610.7	19401.81
611.057	19434.12
611.414	19394.35
611.771	19525.64
612.127	19610.39
612.484	19552.54
612.841	19816.94
613.198	19829.14
613.554	19809.71
613.911	19911.17
614.267	20003.15
614.624	20171.96
614.98	20190.94
615.337	20277.26
615.693	20297.38
616.05	20405.85
616.406	20535.11
616.762	20402.23
617.118	20500.99
617.475	20559.74
617.831	20658.95
618.187	20729
618.543	20771.94
618.899	20889.22
619.255	20845.61
619.611	20893.07
619.967	21033.63
620.323	21141.2
620.678	21022.1
621.034	21025.04
621.39	21060.75
621.746	21146.85
622.101	21279.5
622.457	21190.69
622.812	21266.39
623.168	21293.28
623.523	21438.36
623.879	21470.45
624.234	21335.31
624.589	21404.24
624.945	21386.84
625.3	21503.45
625.655	21617.12
626.01	21524.24
626.365	21590.68
626.72	21557.23
627.075	21605.36
627.43	21566.95
627.785	21531.92
628.14	21655.08
628.495	21543.67
628.85	21593.16
629.205	21528.53
629.559	21611.24
629.914	21590.45
630.269	21645.36
630.623	21550
630.978	21496.21
631.332	21552.03
631.687	21660.73
632.041	21608.08
632.396	21639.94
632.75	21575.08
633.104	21573.27
633.459	21507.29
633.813	21439.49
634.167	21519.94
634.521	21452.37
634.875	21675.64
635.229	21526.5
635.583	21510
635.937	21469.32
636.291	21501.64
636.645	21508.42
636.999	21550.22
637.352	21648.07
637.706	21312.49
638.06	21577.12
638.413	21375.09
638.767	21315.88
639.121	21447.4
639.474	21280.85
639.828	21289.67
640.181	21364.69
640.534	21277.01
640.888	21279.05
641.241	21227.75
641.594	21292.15
641.947	21357.24
642.301	21260.29
642.654	21339.83
643.007	21366.5
643.36	21317.24
643.713	21183.45
644.066	21256.9
644.419	21142.33
644.771	21110.91
645.124	20811.71
645.477	20804.26
645.83	20677.25
646.182	20655.78
646.535	20621.21
646.888	20623.24
647.24	20455.79
647.593	20636.35
647.945	20602.45
648.298	20530.82
648.65	20547.54
649.002	20437.03
649.355	20586.86
649.707	20586.63
650.059	20720.42
650.411	21044.7
650.763	20898.26
651.115	21236.11
651.467	21108.65
651.819	21196.56
652.171	21121.76
652.523	20918.15
652.875	20988.43
653.227	21014.65
653.578	21197.92
653.93	21043.57
654.282	21061.2
654.633	20959.73
654.985	21079.05
655.337	21132.83
655.688	21016.45
656.039	21143
656.391	21072.27
656.742	21046.28
657.094	21084.7
657.445	21041.99
657.796	21009.67
658.147	21009.22
658.498	21147.75
658.849	21031.82
659.2	21108.88
659.551	20986.62
659.902	21038.6
660.253	21060.52
660.604	21044.7
660.955	20932.84
661.306	21034.08
661.656	21074.3
662.007	21101.87
662.358	21035.89
662.708	21141.42
663.059	21163.57
663.409	21023.01
663.76	21145.04
664.11	21136.22
664.461	21190.01
664.811	21182.78
665.161	21063.01
665.511	20993.4
665.862	21105.49
666.212	21133.06
666.562	21202.66
666.912	21186.17
667.262	21146.85
667.612	21136.22
667.962	21163.79
668.312	21084.47
668.662	21145.72
669.011	21100.29
669.361	21064.59
669.711	21133.96
670.06	21020.97
670.41	21017.13
670.76	21004.02
671.109	21011.26
671.459	20989.79
671.808	21043.34
672.157	21108.88
672.507	20822.33
672.856	20956.34
673.205	20898.04
673.554	21023.23
673.904	20907.08
674.253	21020.07
674.602	20967.41
674.951	20615.33
675.3	20565.84
675.649	20833.18
675.998	20820.75
676.346	20864.14
676.695	21052.84
677.044	20767.42
677.393	20849.23
677.741	20788.44
678.09	20817.14
678.438	20726.97
678.787	20787.53
679.135	20770.81
679.484	20598.84
679.832	20747.08
680.181	20626.63
680.529	20540.76
680.877	20566.52
681.225	20423.25
681.573	20589.8
681.922	20503.92
682.27	20373.98
682.618	20534.88
682.966	20493.08
683.314	20435.23
683.661	20291.27
684.009	20307.32
684.357	20299.18
684.705	20192.97
685.053	20209.24
685.4	20143.71
685.748	20122.47
686.095	19994.78
686.443	19973.32
686.79	19939.19
687.138	19998.85
687.485	19902.58
687.832	19801.12
688.18	19812.19
688.527	19638.64
688.874	19721.12
689.221	19670.27
689.568	19579.43
689.915	19615.36
690.262	19533.78
690.609	19410.17
690.956	19459.66
691.303	19409.26
691.65	19269.15
691.997	19341.47
692.344	19169.5
692.69	19141.25
693.037	19135.82
693.383	18934.7
693.73	18958.43
694.077	18944.64
694.423	18886.11
694.769	18886.79
695.116	18662.39
695.462	18634.82
695.808	18668.04
696.155	18668.94
696.501	18513.02
696.847	18517.99
697.193	18323.19
697.539	18288.84
697.885	18364.77
698.231	18164.78
698.577	18207.71
698.923	18180.6
699.269	18041.16
699.614	17896.31
699.96	17862.86
700.306	17874.84
700.651	17816.54
700.997	17745.35
701.342	17813.15
701.688	17691.34
702.033	17635.52
702.379	17590.78
702.724	17574.96
703.069	17515.53
703.415	17409.32
703.76	17412.25
704.105	17458.35
704.45	17245.25
704.795	17262.43
705.14	17099.72
705.485	17069.89
705.83	17164.58
706.175	16987.41
706.52	16921.42
706.865	16831.48
707.209	16811.37
707.554	16768.43
707.899	16971.81
708.243	16685.95
708.588	16737.24
708.932	16564.37
709.277	16628.77
709.621	16564.59
709.966	16420.87
710.31	16488.44
710.654	16327.99
710.998	16346.07
711.342	16311.94
711.687	16214.09
712.031	16316.46
712.375	16169.8
712.719	16203.7
713.063	16215.22
713.407	16194.21
713.75	16156.69
714.094	16047.77
714.438	16047.09
714.782	16030.6
715.125	15926.64
715.469	15928.9
715.812	15852.07
716.156	15759.19
716.499	15730.94
716.843	15872.41
717.186	15705.86
717.53	15738.17
717.873	15796.03
718.216	15676.25
718.559	15745.41
718.902	15587.22
719.246	15654.33
719.589	15593.54
719.932	15580.44
720.275	15498.41
720.617	15505.64
720.96	15505.19
721.303	15501.57
721.646	15508.12
721.989	15461.12
722.331	15486.2
722.674	15446.43
723.016	15446.66
723.359	15439.2
723.701	15419.54
724.044	15329.82
724.386	15277.85
724.729	15272.42
725.071	15241.24
725.413	15315.36
725.755	15285.3
726.097	15176.15
726.439	15177.96
726.782	15155.14
727.124	15195.59
727.465	15085.76
727.807	15033.79
728.149	15026.33
728.491	15073.33
728.833	15127.34
729.175	15104.52
729.516	15095.03
729.858	15009.83
730.199	15140.22
730.541	15018.87
730.882	14990.4
731.224	15091.41
731.565	14963.05
731.906	14917.18
732.248	15001.02
732.589	14977.29
732.93	14910.85
733.271	14959.44
733.612	14936.61
733.953	15001.7
734.294	14852.1
734.635	14889.61
734.976	14918.08
735.317	14910.62
735.658	14860.91
735.999	14971.64
736.339	14862.94
736.68	15012.54
737.021	14961.92
737.361	14851.19
737.702	14887.8
738.042	14970.28
738.383	14838.99
738.723	14901.81
739.063	14874.92
739.404	14970.96
739.744	14887.35
740.084	14889.83
740.424	14894.58
740.764	14856.62
741.104	14991.75
741.444	14906.78
741.784	14857.29
742.124	15021.13
742.464	15093.9
742.804	14993.79
743.143	15016.38
743.483	15047.12
743.823	15048.93
744.162	15022.71
744.502	15099.09
744.841	14989.04
745.181	15248.47
745.52	15149.71
745.86	15158.98
746.199	15127.79
746.538	15223.16
746.877	15319.43
747.216	15345.64
747.556	15387.22
747.895	15385.41
748.234	15398.07
748.573	15465.19
748.911	15479.88
749.25	15659.98
749.589	15643.49
749.928	15750.6
750.267	15785.86
750.605	15879.19
750.944	15891.39
751.283	16033.08
751.621	16112.18
751.96	16160.99
752.298	16264.26
752.636	16319.85
752.975	16343.58
753.313	16281.21
753.651	16598.04
753.989	16565.72
754.327	16708.77
754.666	16730.01
755.004	16927.97
755.342	17004.81
755.679	17146.72
756.017	17119.83
756.355	17311.69
756.693	17354.4
757.031	17467.85
757.368	17538.13
757.706	17608.86
758.044	17678.91
758.381	17889.98
758.719	17849.53
759.056	18053.59
759.394	18111.44
759.731	18103.76
760.068	18299.01
760.405	18376.07
760.743	18449.06
761.08	18629.85
761.417	18669.62
761.754	18789.17
762.091	18906.68
762.428	18891.99
762.765	18975.38
763.102	19137.18
763.438	19182.15
763.775	19213.56
764.112	19299.21
764.449	19576.04
764.785	19503.72
765.122	19444.97
765.458	19589.15
765.795	19701.91
766.131	19798.63
766.467	19785.3
766.804	19900.1
767.14	19870.04
767.476	19993.66
767.812	19963.6
768.148	20011.73
768.485	20057.38
768.821	20064.84
769.157	20196.36
769.492	20202.24
769.828	20252.63
770.164	20143.71
770.5	20218.28
770.836	20224.16
771.171	20163.14
771.507	20239.75
771.842	20192.75
772.178	20247.21
772.513	20309.8
772.849	20312.29
773.184	20175.57
773.519	20209.47
773.855	20244.04
774.19	20204.95
774.525	20227.32
774.86	20243.59
775.195	20281.78
775.53	20137.61
775.865	20089.02
776.2	19945.29
776.535	19991.17
776.87	20002.47
777.205	20058.96
777.539	19902.13
777.874	20075.69
778.209	19855.81
778.543	19911.4
778.878	19774.68
779.212	19781.46
779.547	19729.26
779.881	19751.85
780.215	19685.19
780.55	19771.97
780.884	19574.68
781.218	19631.18
781.552	19607.22
781.886	19529.26
782.22	19427.79
782.554	19425.08
782.888	19332.2
783.222	19230.74
783.556	19288.81
783.889	19170.63
784.223	19102.61
784.557	19094.02
784.89	19238.42
785.224	19001.59
785.557	18975.6
785.891	18869.84
786.224	18896.73
786.558	19004.98
786.891	18772.44
787.224	18708.04
787.557	18667.59
787.891	18658.77
788.224	18765.66
788.557	18651.54
788.89	18538.55
789.223	18636.18
789.556	18494.94
789.888	18351.66
790.221	18262.18
790.554	18156.42
790.887	18289.97
791.219	18209.52
791.552	18125.91
791.884	18035.74
792.217	18047.94
792.549	18047.27
792.882	17866.25
793.214	17876.42
793.546	17851.79
793.879	17746.48
794.211	17647.28
794.543	17715.52
794.875	17635.52
795.207	17578.13
795.539	17546.04
795.871	17544.23
796.203	17374.06
796.535	17289.77
796.867	17282.99
797.198	17245.93
797.53	17181.75
797.862	17158.93
798.193	17244.12
798.525	17014.98
798.856	17097.69
799.188	16985.15
799.519	16850.91
799.85	16785.15
800.182	16796.9
800.513	16801.65
800.844	16546.74
801.175	16747.19
801.506	16649.11
801.837	16586.51
802.168	16485.72
802.499	16493.18
802.83	16396.01
803.161	16386.97
803.491	16374.09
803.822	16325.95
804.153	16247.31
804.483	16132.29
804.814	16116.24
805.145	16133.64
805.475	16053.42
805.805	15977.49
806.136	16046.41
806.466	15950.37
806.796	15880.32
807.126	15849.81
807.457	15792.41
807.787	15793.09
808.117	15721.45
808.447	15619.53
808.777	15643.71
809.107	15654.79
809.436	15584.96
809.766	15543.15
810.096	15519.42
810.426	15470.16
810.755	15465.64
811.085	15362.36
811.414	15396.71
811.744	15242.14
812.073	15267.45
812.403	15264.06
812.732	15133.9
813.061	15107
813.39	15103.84
813.719	14923.51
814.049	15121.47
814.378	14994.92
814.707	15004.63
815.036	14974.58
815.365	14889.61
815.693	14794.02
816.022	14815.26
816.351	14791.76
816.68	14705.43
817.008	14724.42
817.337	14624.08
817.665	14660.01
817.994	14631.31
818.322	14563.06
818.651	14588.37
818.979	14436.06
819.307	14613.46
819.636	14488.04
819.964	14322.17
820.292	14534.36
820.62	14441.03
820.948	14383.63
821.276	14428.15
821.604	14391.99
821.932	14443.74
822.259	14371.66
822.587	14339.11
822.915	14309.74
823.243	14422.05
823.57	14239.91
823.898	14297.53
824.225	14253.24
824.553	14312
824.88	14319.45
825.207	14402.84
825.535	14327.36
825.862	14375.05
826.189	14230.19
826.516	14370.53
826.843	14348.15
827.17	14400.13
827.497	14411.43
827.824	14349.51
828.151	14268.61
828.478	14280.36
828.805	14371.88
829.131	14307.02
829.458	14223.41
829.785	14159.68
830.111	14259.34
830.438	14306.8
830.764	14312.22
831.09	14306.57
831.417	14221.83
831.743	14296.86
832.069	14201.04
832.395	14174.6
832.722	14363.07
833.048	14202.17
833.374	14187.71
833.7	14115.62
834.026	14081.27
834.351	14135.28
834.677	14146.8
835.003	14188.61
835.329	14104.54
835.654	14121.27
835.98	14069.97
836.306	14087.37
836.631	14012.8
836.956	14033.36
837.282	14069.52
837.607	14041.5
837.932	13928.5
838.258	13914.94
838.583	13981.61
838.908	13864.1
839.233	13894.61
839.558	13833.14
839.883	13759.92
840.208	13768.06
840.533	13708.62
840.858	13730.54
841.182	13800.6
841.507	13742.97
841.832	13599.25
842.156	13614.39
842.481	13615.52
842.805	13535.75
843.13	13527.16
843.454	13549.98
843.778	13448.29
844.103	13512.02
844.427	13454.84
844.751	13413.72
845.075	13400.83
845.399	13301.85
845.723	13317.9
846.047	13263.66
846.371	13147.73
846.695	13167.39
847.019	13087.85
847.343	13053.27
847.666	12941.41
847.99	12895.08
848.313	12841.75
848.637	12802.43
848.96	12715.88
849.284	12732.83
849.607	12582.32
849.931	12545.49
850.254	12561.08
850.577	12473.4
850.9	12357.02
851.223	12427.98
851.546	12350.69
851.869	12284.71
852.192	12342.78
852.515	12197.02
852.838	12225.27
853.161	12199.74
853.483	12088.78
853.806	12034.09
854.129	12053.07
854.451	11944.15
854.774	11857.37
855.096	11908.67
855.419	11833.42
855.741	11811.5
856.063	11809.69
856.385	11725.85
856.708	11686.53
857.03	11693.31
857.352	11621.45
857.674	11596.59
857.996	11604.27
858.318	11514.1
858.64	11421.9
858.961	11414.9
859.283	11433.65
859.605	11383.26
859.926	11390.72
860.248	11367.22
860.57	11283.6
860.891	11275.24
861.212	11324.28
861.534	11143.72
861.855	11211.97
862.176	11192.76
862.498	11153.21
862.819	11129.93
863.14	11073.21
863.461	11004.51
863.782	11029.6
864.103	11102.82
864.424	10996.38
864.745	11050.61
865.065	10929.03
865.386	10958.64
865.707	10949.6
866.027	10931.29
866.348	10905.08
866.668	10890.84
866.989	10836.16
867.309	10794.35
867.63	10816.27
867.95	10823.95
868.27	10769.94
868.59	10768.81
868.91	10687.23
869.23	10736.5
869.55	10654.69
869.87	10753.9
870.19	10687.46
870.51	10706.67
870.83	10746.89
871.15	10663.5
871.469	10590.51
871.789	10659.44
872.109	10541.93
872.428	10495.83
872.748	10536.95
873.067	10565.2
873.386	10487.69
873.706	10542.6
874.025	10447.01
874.344	10375.38
874.663	10446.34
874.982	10383.51
875.301	10434.13
875.62	10373.12
875.939	10346.23
876.258	10353.23
876.577	10334.02
876.896	10335.38
877.214	10293.35
877.533	10277.75
877.852	10212.44
878.17	10280.92
878.489	10202.27
878.807	10201.6
879.125	10197.3
879.444	10180.81
879.762	10170.64
880.08	10216.51
880.398	10140.35
880.716	10101.71
881.034	10107.14
881.352	10074.59
881.67	10084.76
881.988	10029.85
882.306	9978.55
882.624	9968.16
882.941	9944.88
883.259	9833.02
883.577	9860.36
883.894	9871.89
884.212	9826.46
884.529	9801.61
884.846	9796.41
885.164	9776.75
885.481	9748.5
885.798	9807.26
886.115	9716.86
886.432	9722.96
886.75	9621.27
887.067	9577.43
887.383	9575.17
887.7	9594.61
888.017	9567.71
888.334	9577.43
888.651	9572.91
888.967	9534.27
889.284	9508.73
889.6	9463.31
889.917	9423.54
890.233	9418.57
890.55	9391.22
890.866	9415.18
891.182	9326.59
891.498	9251.34
891.815	9302.41
892.131	9249.08
892.447	9255.63
892.763	9206.59
893.079	9207.72
893.395	9077.11
893.71	9172.02
894.026	9126.82
894.342	9099.48
894.657	9002.76
894.973	9019.25
895.289	8943.55
895.604	8977.45
895.92	8890.67
896.235	8856.77
896.55	8819.03
896.865	8817
897.181	8807.28
897.496	8788.3
897.811	8762.09
898.126	8651.35
898.441	8607.97
898.756	8662.65
899.071	8583.11
899.386	8579.49
899.7	8520.51
900.015	8491.36
900.33	8475.31
900.644	8433.06
900.959	8388.08
901.273	8419.5
901.588	8420.4
901.902	8300.86
902.216	8279.61
902.531	8307.63
902.845	8234.64
903.159	8237.58
903.473	8096.34
903.787	8137.7
904.101	8066.06
904.415	8099.28
904.729	8072.39
905.042	8021.54
905.356	7946.97
905.67	7975.44
905.984	7888.21
906.297	7968.21
906.611	7826.07
906.924	7849.34
907.237	7819.74
907.551	7815.22
907.864	7765.5
908.177	7755.11
908.491	7644.6
908.804	7659.52
909.117	7646.18
909.43	7549.46
909.743	7556.69
910.056	7523.47
910.368	7502.91
910.681	7449.13
910.994	7465.85
911.307	7506.98
911.619	7361.44
911.932	7349.24
912.244	7242.35
912.557	7304.05
912.869	7297.49
913.181	7214.78
913.494	7180.66
913.806	7164.16
914.118	7116.03
914.43	7109.02
914.742	7137.72
915.054	7038.52
915.366	7033.77
915.678	6968.69
915.99	6921.91
916.302	6976.82
916.613	6922.13
916.925	6831.29
917.236	6814.34
917.548	6809.37
917.859	6819.54
918.171	6782.25
918.482	6667
918.794	6656.15
919.105	6709.26
919.416	6646.66
919.727	6609.83
920.038	6641.24
920.349	6582.93
920.66	6551.75
920.971	6518.53
921.282	6485.08
921.593	6481.47
921.903	6428.59
922.214	6412.32
922.525	6377.29
922.835	6332.55
923.146	6322.6
923.456	6323.96
923.767	6319.66
924.077	6256.39
924.387	6283.06
924.697	6200.57
925.008	6161.7
925.318	6147.69
925.628	6171.42
925.938	6088.71
926.248	6049.61
926.558	6068.82
926.867	6038.54
927.177	6008.49
927.487	5974.36
927.796	5908.38
928.106	5916.96
928.416	5912.44
928.725	5899.56
929.034	5852.56
929.344	5878.55
929.653	5814.82
929.962	5784.54
930.271	5749.51
930.581	5738.89
930.89	5679.68
931.199	5665.22
931.508	5610.53
931.817	5616.86
932.125	5599.68
932.434	5559.01
932.743	5496.64
933.051	5463.87
933.36	5497.31
933.669	5508.61
933.977	5458.44
934.286	5462.96
934.594	5429.07
934.902	5360.14
935.21	5373.93
935.519	5332.12
935.827	5341.61
936.135	5306.58
936.443	5306.36
936.751	5255.29
937.059	5194.27
937.367	5212.12
937.674	5185.91
937.982	5151.79
938.29	5166.93
938.597	5103.65
938.905	5061.62
939.213	5079.24
939.52	5037.66
939.827	5060.04
940.135	4994.05
940.442	4964.22
940.749	5011.9
941.056	4961.28
941.363	4933.26
941.67	4888.74
941.977	4888.97
942.284	4881.06
942.591	4796.77
942.898	4861.4
943.205	4822.98
943.511	4740.27
943.818	4774.85
944.125	4735.53
944.431	4757.67
944.738	4729.42
945.044	4662.98
945.35	4695.07
945.657	4645.13
945.963	4637.67
946.269	4621.4
946.575	4570.56
946.881	4559.26
947.187	4522.65
947.493	4496.89
947.799	4508.19
948.105	4477.9
948.41	4463.89
948.716	4448.75
949.022	4459.83
949.327	4420.96
949.633	4326.72
949.938	4373.5
950.244	4354.29
950.549	4353.61
950.854	4265.03
951.16	4325.14
951.465	4270.45
951.77	4249.21
952.075	4219.83
952.38	4208.08
952.685	4231.81
952.99	4164.01
953.294	4173.96
953.599	4174.64
953.904	4147.97
954.209	4111.59
954.513	4114.3
954.818	4112.04
955.122	4079.05
955.426	4067.97
955.731	3993.62
956.035	3999.5
956.339	3980.97
956.643	3952.04
956.948	3962.66
957.252	3959.95
957.556	3919.5
957.86	3895.32
958.163	3914.53
958.467	3851.25
958.771	3862.55
959.075	3853.97
959.378	3830.24
959.682	3820.3
959.985	3833.4
960.289	3783.69
960.592	3760.64
960.896	3744.14
961.199	3718.15
961.502	3705.95
961.805	3689
962.108	3655.78
962.411	3658.72
962.714	3641.99
963.017	3659.85
963.32	3628.44
963.623	3576.23
963.926	3597.02
964.228	3586.85
964.531	3509.57
964.833	3587.08
965.136	3477.93
965.438	3493.98
965.741	3471.6
966.043	3433.41
966.345	3470.02
966.648	3441.1
966.95	3472.51
967.252	3419.63
967.554	3402.23
967.856	3402.9
968.158	3368.56
968.46	3387.09
968.761	3333.75
969.063	3329.46
969.365	3303.02
969.666	3287.2
969.968	3293.53
970.269	3251.72
970.571	3246.07
970.872	3231.61
971.174	3212.85
971.475	3233.42
971.776	3190.93
972.077	3167.2
972.378	3177.6
972.679	3122.46
972.98	3156.13
973.281	3146.87
973.582	3123.36
973.883	3067.77
974.183	3081.11
974.484	3049.47
974.785	3066.64
975.085	3042.01
975.386	3046.76
975.686	3030.71
975.986	3017.38
976.287	2963.14
976.587	2953.43
976.887	2941.67
977.187	2935.12
977.487	2929.25
977.787	2928.34
978.087	2898.51
978.387	2916.59
978.687	2894.44
978.987	2884.27
979.286	2857.61
979.586	2829.59
979.885	2838.85
980.185	2832.52
980.484	2815.12
980.784	2804.28
981.083	2809.25
981.382	2786.2
981.682	2773.09
981.981	2755.69
982.28	2708.46
982.579	2724.28
982.878	2716.37
983.177	2676.6
983.475	2716.6
983.774	2663.49
984.073	2658.74
984.372	2661.91
984.67	2597.95
984.969	2654.9
985.267	2612.42
985.566	2589.59
985.864	2601.8
986.162	2599.99
986.461	2569.25
986.759	2561.57
987.057	2565.86
987.355	2515.92
987.653	2507.34
987.951	2525.64
988.249	2508.47
988.547	2511.4
988.844	2493.1
989.142	2457.84
989.44	2446.55
989.737	2433.21
990.035	2399.54
990.332	2415.81
990.63	2401.12
990.927	2427.11
991.224	2380.11
991.521	2364.06
991.819	2347.79
992.116	2367.68
992.413	2333.33
992.71	2303.95
993.006	2313.67
993.303	2313.67
993.6	2308.92
993.897	2300.11
994.193	2301.46
994.49	2258.08
994.787	2261.01
995.083	2199.32
995.379	2240.45
995.676	2227.79
995.972	2193.22
996.268	2195.03
996.565	2192.99
996.861	2161.36
997.157	2179.43
997.453	2170.39
997.749	2158.19
998.044	2147.34
998.34	2131.3
998.636	2127.68
998.932	2090.4
999.227	2089.04
999.523	2089.72
999.818	2068.02
1000.114	2063.28
1000.409	2052.88
1000.704	2055.14
1001	2007.01
1001.295	2015.6
1001.59	2008.59
1001.885	2002.26
1002.18	2005.2
1002.475	1983.06
1002.77	2007.01
1003.065	1956.62
1003.359	1957.75
1003.654	1905.77
1003.949	1904.64
1004.243	1901.93
1004.538	1898.76
1004.832	1875.04
1005.127	1898.09
1005.421	1861.25
1005.715	1859.67
1006.009	1895.15
1006.304	1851.99
1006.598	1837.3
1006.892	1812.21
1007.186	1800.91
1007.48	1790.07
1007.773	1775.15
1008.067	1750.97
1008.361	1745.32
1008.655	1764.53
1008.948	1746.68
1009.242	1725.89
1009.535	1691.99
1009.829	1713.01
1010.122	1695.38
1010.415	1687.24
1010.708	1690.18
1011.001	1677.53
1011.295	1664.87
1011.588	1667.13
1011.881	1655.15
1012.173	1630.3
1012.466	1586.23
1012.759	1625.1
1013.052	1610.64
1013.344	1607.47
1013.637	1600.92
1013.93	1604.76
1014.222	1575.16
1014.514	1547.36
1014.807	1545.78
1015.099	1572.22
1015.391	1546.46
1015.683	1540.81
1015.976	1524.31
1016.268	1528.83
1016.56	1489.96
1016.851	1476.4
1017.143	1484.54
1017.435	1472.33
1017.727	1452.9
1018.018	1449.51
1018.31	1474.14
1018.602	1443.86
1018.893	1439.57
1019.185	1408.61
1019.476	1392.34
1019.767	1393.92
1020.058	1391.88
1020.35	1383.52
1020.641	1358.44
1020.932	1353.47
1021.223	1381.04
1021.514	1353.02
1021.804	1353.24
1022.095	1304.88
1022.386	1357.76
1022.677	1327.93
1022.967	1289.29
1023.258	1305.33
1023.548	1292.68
1023.839	1298.55
1024.129	1273.24
1024.419	1301.04
1024.709	1249.74
1025	1249.74
1025.29	1241.61
1025.58	1216.75
1025.87	1256.07
1026.16	1247.03
1026.449	1226.24
1026.739	1211.55
1027.029	1189.86
1027.319	1195.05
1027.608	1196.18
1027.898	1180.14
1028.187	1167.71
1028.477	1155.51
1028.766	1152.34
1029.055	1157.99
1029.344	1154.6
1029.634	1107.37
1029.923	1088.84
1030.212	1139.69
1030.501	1093.36
1030.79	1085.45
1031.078	1091.55
1031.367	1094.27
1031.656	1060.14
1031.945	1094.27
1032.233	1097.88
1032.522	1054.94
1032.81	1039.58
1033.099	1057.43
1033.387	1036.19
1033.675	1031.89
1033.963	1032.35
1034.251	1014.04
1034.54	1030.31
1034.828	1004.32
1035.116	1000.48
1035.403	1005.45
1035.691	969.52
1035.979	972.01
1036.267	983.53
1036.554	959.58
1036.842	970.43
1037.129	975.62
1037.417	930.43
1037.704	953.25
1037.992	956.42
1038.279	917.09
1038.566	941.05
1038.853	941.05
1039.14	941.05
