Data from hue_120_FLMS001491_00094.txt Node
Date: Tue Feb 07 17:00:16 GMT 2017
User: dcchb
Spectrometer: FLMS00149
Trigger mode: 0
Integration Time (sec): 2.000000E-2
Scans to average: 10
Electric dark correction enabled: true
Nonlinearity correction enabled: false
Boxcar width: 0
XAxis mode: Wavelengths
Number of Pixels in Spectrum: 2048
>>>>>Begin Spectral Data<<<<<
341.393	-9.49
341.776	-9.49
342.16	-9.49
342.543	-69.38
342.927	-71.18
343.31	-72.54
343.693	-78.64
344.077	-91.75
344.46	-54.01
344.843	-54.01
345.226	-46.55
345.61	-14.01
345.993	-26.89
346.376	-4.75
346.759	7.46
347.142	21.47
347.525	49.04
347.908	64.18
348.291	65.76
348.674	107.34
349.057	127.91
349.44	117.51
349.823	144.63
350.206	146.89
350.588	201.35
350.971	202.71
351.354	222.59
351.737	245.64
352.119	275.47
352.502	256.94
352.884	285.64
353.267	280.44
353.65	279.31
354.032	309.37
354.414	316.38
354.797	318.41
355.179	337.84
355.562	333.1
355.944	320.9
356.326	333.32
356.709	328.13
357.091	323.16
357.473	357.96
357.855	340.1
358.238	345.98
358.62	339.88
359.002	347.79
359.384	338.3
359.766	331.06
360.148	352.08
360.53	334.91
360.912	349.82
361.294	318.86
361.676	317.73
362.057	350.05
362.439	337.84
362.821	342.82
363.203	320.67
363.584	325.42
363.966	333.1
364.348	332.87
364.729	319.09
365.111	319.54
365.493	329.93
365.874	322.03
366.256	317.51
366.637	311.18
367.019	312.76
367.4	335.81
367.781	333.55
368.163	306.21
368.544	302.59
368.925	304.4
369.306	313.44
369.688	319.31
370.069	327.67
370.45	304.4
370.831	326.77
371.212	312.53
371.593	310.05
371.974	313.89
372.355	305.75
372.736	306.43
373.117	316.38
373.498	305.98
373.879	327.9
374.26	321.57
374.641	310.73
375.021	345.98
375.402	316.6
375.783	318.41
376.163	331.97
376.544	335.58
376.925	329.26
377.305	346.43
377.686	329.48
378.066	315.47
378.447	320.67
378.827	336.71
379.208	322.03
379.588	319.77
379.968	317.05
380.349	305.3
380.729	348.47
381.109	353.89
381.489	328.8
381.87	321.57
382.25	359.54
382.63	327
383.01	354.57
383.39	361.12
383.77	342.59
384.15	343.49
384.53	341.23
384.91	357.96
385.29	343.95
385.67	354.79
386.049	343.27
386.429	372.65
386.809	346.66
387.189	361.57
387.568	381.23
387.948	338.97
388.328	373.1
388.707	355.24
389.087	377.62
389.466	366.32
389.846	348.47
390.225	366.32
390.605	355.92
390.984	374.23
391.363	377.39
391.743	376.71
392.122	351.86
392.501	370.39
392.881	390.5
393.26	375.58
393.639	380.1
394.018	381.01
394.397	402.02
394.776	386.2
395.155	377.84
395.534	390.27
395.913	372.42
396.292	375.13
396.671	386.66
397.05	415.58
397.429	392.08
397.808	399.09
398.186	392.31
398.565	403.15
398.944	389.59
399.323	380.1
399.701	409.25
400.08	405.87
400.458	388.01
400.837	384.85
401.215	411.51
401.594	413.77
401.972	422.81
402.351	391.4
402.729	418.75
403.107	418.75
403.486	426.66
403.864	410.84
404.242	406.99
404.62	451.06
404.999	437.95
405.377	444.51
405.755	416.94
406.133	436.82
406.511	425.53
406.889	437.73
407.267	432.98
407.645	432.53
408.023	461.23
408.401	451.97
408.779	429.14
409.156	449.25
409.534	451.74
409.912	450.16
410.29	450.16
410.667	458.07
411.045	465.98
411.422	436.15
411.8	493.09
412.178	475.24
412.555	476.82
412.933	487.22
413.31	470.04
413.687	505.3
414.065	493.32
414.442	466.2
414.819	491.74
415.197	515.24
415.574	522.7
415.951	479.31
416.328	505.75
416.705	508.01
417.082	512.3
417.46	515.01
417.837	512.75
418.214	514.56
418.591	527.44
418.967	538.74
419.344	545.52
419.721	544.62
420.098	541.68
420.475	516.37
420.852	516.6
421.228	548.23
421.605	529.48
421.982	542.36
422.358	562.47
422.735	596.37
423.111	568.12
423.488	577.39
423.864	589.81
424.241	586.88
424.617	570.38
424.994	573.32
425.37	569.02
425.746	593.2
426.123	582.81
426.499	587.1
426.875	614.45
427.251	585.52
427.627	580.1
428.003	629.59
428.379	602.24
428.756	631.17
429.132	637.27
429.507	631.17
429.883	642.69
430.259	653.54
430.635	652.86
431.011	648.57
431.387	672.07
431.763	669.36
432.138	681.34
432.514	679.08
432.89	665.07
433.265	689.93
433.641	693.09
434.016	694.9
434.392	713.65
434.767	714.11
435.143	719.98
435.518	722.24
435.894	733.31
436.269	720.66
436.644	742.13
437.02	749.36
437.395	741.22
437.77	797.27
438.145	771.28
438.52	762.47
438.895	801.79
439.271	785.06
439.646	804.5
440.021	786.19
440.395	792.52
440.77	829.58
441.145	838.62
441.52	832.52
441.895	824.84
442.27	828.45
442.645	827.77
443.019	855.34
443.394	853.08
443.769	852.86
444.143	853.54
444.518	871.62
444.892	864.61
445.267	857.6
445.641	884.72
446.016	868.23
446.39	896.02
446.764	900.32
447.139	903.03
447.513	915.91
447.887	894.89
448.262	911.84
448.636	930.82
449.01	937.15
449.384	936.47
449.758	945.74
450.132	943.48
450.506	952.97
450.88	964.27
451.254	976.02
451.628	949.35
452.002	971.5
452.376	974.44
452.75	985.74
453.123	994.78
453.497	1019.63
453.871	1021.44
454.244	1041.33
454.618	1029.13
454.992	1080.42
455.365	1053.08
455.739	1076.13
456.112	1095.56
456.486	1093.98
456.859	1129.91
457.232	1145.96
457.606	1128.33
457.979	1147.09
458.352	1150.25
458.725	1175.34
459.099	1200.42
459.472	1219.4
459.845	1233.87
460.218	1223.47
460.591	1214.21
460.964	1224.6
461.337	1274.77
461.71	1298.5
462.083	1307.08
462.456	1325.16
462.829	1354.99
463.201	1332.62
463.574	1352.73
463.947	1368.1
464.32	1422.11
464.692	1431.15
465.065	1426.86
465.438	1439.74
465.81	1484.71
466.183	1484.71
466.555	1536.46
466.928	1522.67
467.3	1541.65
467.672	1611.26
468.045	1622.78
468.417	1639.73
468.789	1659.39
469.161	1696
469.534	1707.75
469.906	1758.37
470.278	1736.23
470.65	1796.34
471.022	1841.76
471.394	1896.67
471.766	1898.26
472.138	1943.9
472.51	1944.81
472.882	2003.79
473.253	2075.88
473.625	2061.87
473.997	2151.13
474.369	2208.76
474.74	2210.56
475.112	2264.35
475.484	2307.28
475.855	2389.32
476.227	2420.05
476.598	2516.09
476.97	2555.64
477.341	2616.88
477.713	2680.83
478.084	2711.79
478.455	2844.67
478.827	2841.51
479.198	2981.39
479.569	3021.84
479.94	3127.83
480.311	3161.95
480.682	3321.72
481.053	3407.14
481.424	3488.27
481.795	3542.05
482.166	3649.17
482.537	3712.44
482.908	3850.29
483.279	3925.09
483.65	4049.61
484.021	4177.29
484.391	4273.11
484.762	4338.87
485.133	4404.86
485.503	4519.88
485.874	4691.18
486.244	4784.73
486.615	4944.05
486.985	5022.92
487.356	5212.29
487.726	5349.46
488.097	5431.95
488.467	5502.45
488.837	5671.49
489.207	5806.4
489.578	5979.05
489.948	6071.03
490.318	6232.38
490.688	6341.98
491.058	6452.26
491.428	6665.36
491.798	6728.86
492.168	6925.69
492.538	7061.51
492.908	7231.9
493.278	7320.26
493.648	7439.8
494.017	7645.22
494.387	7712.11
494.757	7860.81
495.126	7943.29
495.496	8020.58
495.866	8181.93
496.235	8324.3
496.605	8477.97
496.974	8544.63
497.344	8711.86
497.713	8791.41
498.082	8928.13
498.452	9092.87
498.821	9159.08
499.19	9237.95
499.559	9476.36
499.928	9449.24
500.298	9600.88
500.667	9688.11
501.036	9771.04
501.405	9965.39
501.774	9920.64
502.143	10062.79
502.512	10147.98
502.88	10311.82
503.249	10286.06
503.618	10361.54
503.987	10513.85
504.356	10520.85
504.724	10676.33
505.093	10747.51
505.462	10838.36
505.83	10910.22
506.199	10998.81
506.567	11163.55
506.936	11163.32
507.304	11218.91
507.672	11335.07
508.041	11453.26
508.409	11478.12
508.777	11691.67
509.145	11598.34
509.514	11629.75
509.882	11766.7
510.25	11814.15
510.618	11857.32
510.986	11863.42
511.354	11992.45
511.722	12077.2
512.09	12167.36
512.458	12170.75
512.826	12383.63
513.193	12304.31
513.561	12337.08
513.929	12438.77
514.297	12496.39
514.664	12575.26
515.032	12664.07
515.4	12648.25
515.767	12721.25
516.135	12809.38
516.502	12653
516.869	12860.68
517.237	12900
517.604	12856.84
517.972	12913.56
518.339	12883.5
518.706	12963.5
519.073	13064.97
519.44	12991.07
519.808	13171.86
520.175	13109.49
520.542	13269.03
520.909	13335.69
521.276	13197.39
521.643	13351.51
522.009	13360.55
522.376	13425.64
522.743	13441.91
523.11	13569.59
523.477	13635.35
523.843	13673.76
524.21	13711.05
524.577	13714.22
524.943	13777.49
525.31	13777.94
525.676	13895.68
526.043	13819.75
526.409	13852.97
526.776	14041.21
527.142	13921.44
527.508	13937.26
527.874	14117.59
528.241	14105.62
528.607	14006.41
528.973	14135
529.339	14097.93
529.705	14160.76
530.071	14175.45
530.437	14126.63
530.803	14273.52
531.169	14214.09
531.535	14145.16
531.901	14181.77
532.267	14080.53
532.632	14135.9
532.998	14150.81
533.364	14197.14
533.73	14202.79
534.095	14227.65
534.461	14260.87
534.826	14150.14
535.192	14175.9
535.557	14230.81
535.923	14125.28
536.288	14130.93
536.653	14149.68
537.019	14065.84
537.384	14113.98
537.749	14019.29
538.114	14052.74
538.479	14047.31
538.845	13995.34
539.21	13971.84
539.575	13894.78
539.94	13900.2
540.305	13888.22
540.67	13891.84
541.034	13906.75
541.399	13864.95
541.764	13822.46
542.129	13896.58
542.494	13811.16
542.858	13818.17
543.223	13744.5
543.587	13754.44
543.952	13682.35
544.316	13693.43
544.681	13664.95
545.045	13601.22
545.41	13656.36
545.774	13597.61
546.138	13575.69
546.503	13550.6
546.867	13488.01
547.231	13633.99
547.595	13492.75
547.959	13443.04
548.324	13474
548.688	13416.82
549.052	13367.56
549.416	13318.29
549.779	13266.32
550.143	13296.15
550.507	13345.64
550.871	13244.17
551.235	13293.89
551.599	13289.37
551.962	13223.38
552.326	13215.02
552.689	13196.94
553.053	13128.02
553.417	13160.78
553.78	13219.09
554.143	13032.2
554.507	13122.82
554.87	13128.47
555.234	13148.58
555.597	13025.19
555.96	13077.4
556.323	13077.62
556.686	12932.99
557.05	13070.84
557.413	13049.83
557.776	13061.35
558.139	13057.28
558.502	13047.11
558.865	13007.12
559.228	13023.84
559.59	13093.22
559.953	13061.35
560.316	13043.05
560.679	13043.5
561.041	13022.48
561.404	13096.6
561.767	13028.81
562.129	12969.15
562.492	13096.6
562.854	13097.73
563.217	13108.13
563.579	13077.17
563.941	13039.21
564.304	13139.09
564.666	13122.37
565.028	13135.25
565.39	13159.65
565.753	13197.85
566.115	13129.6
566.477	13276.94
566.839	13260.67
567.201	13208.69
567.563	13291.4
567.925	13357.39
568.287	13354
568.648	13332.53
569.01	13353.32
569.372	13354.45
569.734	13272.19
570.095	13375.92
570.457	13389.93
570.819	13424.96
571.18	13432.64
571.542	13360.1
571.903	13476.93
572.265	13472.41
572.626	13507.44
572.987	13490.04
573.349	13506.31
573.71	13455.47
574.071	13535.24
574.432	13450.72
574.794	13560.77
575.155	13519.19
575.516	13537.72
575.877	13652.52
576.238	13551.96
576.599	13585.63
576.96	13540.89
577.32	13564.39
577.681	13654.1
578.042	13622.69
578.403	13636.48
578.763	13606.42
579.124	13611.17
579.485	13609.13
579.845	13752.41
580.206	13633.99
580.566	13609.13
580.927	13690.04
581.287	13657.95
581.648	13615.46
582.008	13705.4
582.368	13523.71
582.728	13670.6
583.089	13578.17
583.449	13603.94
583.809	13671.05
584.169	13606.2
584.529	13585.63
584.889	13644.39
585.249	13583.6
585.609	13492.3
585.969	13573.88
586.329	13508.57
586.688	13538.4
587.048	13517.61
587.408	13544.28
587.768	13502.92
588.127	13505.86
588.487	13466.76
588.846	13517.38
589.206	13506.54
589.565	13474.45
589.925	13506.54
590.284	13448.69
590.643	13460.44
591.003	13443.94
591.362	13455.24
591.721	13423.38
592.08	13432.42
592.44	13415.47
592.799	13483.49
593.158	13431.51
593.517	13409.14
593.876	13382.7
594.235	13390.38
594.593	13349.25
594.952	13421.79
595.311	13298.18
595.67	13322.81
596.029	13445.07
596.387	13421.79
596.746	13375.02
597.104	13347.22
597.463	13304.96
597.822	13397.61
598.18	13331.17
598.538	13322.14
598.897	13416.82
599.255	13275.81
599.613	13446.88
599.972	13355.81
600.33	13358.74
600.688	13336.6
601.046	13417.5
601.404	13405.3
601.762	13356.94
602.12	13456.37
602.478	13412.3
602.836	13451.17
603.194	13300.44
603.552	13365.3
603.91	13282.14
604.268	13381.57
604.625	13260.89
604.983	13410.04
605.341	13284.4
605.698	13409.36
606.056	13345.41
606.413	13392.64
606.771	13445.3
607.128	13400.55
607.485	13296.37
607.843	13394
608.2	13497.27
608.557	13346.99
608.914	13475.13
609.272	13408.91
609.629	13503.83
609.986	13576.14
610.343	13486.43
610.7	13522.13
611.057	13473.09
611.414	13459.99
611.771	13461.79
612.127	13520.32
612.484	13494.33
612.841	13544.95
613.198	13535.01
613.554	13541.56
613.911	13578.4
614.267	13519.42
614.624	13540.21
614.98	13554.45
615.337	13633.99
615.693	13646.87
616.05	13633.09
616.406	13719.87
616.762	13684.39
617.118	13750.82
617.475	13633.54
617.831	13715.57
618.187	13686.65
618.543	13695.69
618.899	13732.07
619.255	13703.37
619.611	13795.12
619.967	13771.62
620.323	13716.7
620.678	13788.11
621.034	13671.73
621.39	13703.82
621.746	13744.27
622.101	13864.27
622.457	13744.27
622.812	13669.25
623.168	13763.48
623.523	13712.18
623.879	13793.54
624.234	13686.87
624.589	13804.83
624.945	13694.33
625.3	13726.64
625.655	13812.97
626.01	13699.53
626.365	13774.33
626.72	13758.06
627.075	13824.72
627.43	13764.16
627.785	13746.76
628.14	13753.99
628.495	13724.61
628.85	13781.33
629.205	13720.09
629.559	13818.85
629.914	13645.74
630.269	13660.43
630.623	13667.44
630.978	13709.92
631.332	13753.31
631.687	13732.52
632.041	13670.38
632.396	13609.59
632.75	13577.72
633.104	13691.84
633.459	13578.85
633.813	13579.53
634.167	13565.07
634.521	13555.58
634.875	13551.73
635.229	13554.22
635.583	13506.99
635.937	13519.87
636.291	13516.71
636.645	13477.84
636.999	13471.74
637.352	13394.68
637.706	13329.82
638.06	13483.04
638.413	13312.19
638.767	13292.76
639.121	13343.15
639.474	13198.75
639.828	13259.99
640.181	13310.84
640.534	13261.35
640.888	13217.05
641.241	13198.3
641.594	13237.62
641.947	13299.31
642.301	13207.56
642.654	13180.44
643.007	13262.48
643.36	13216.15
643.713	13255.47
644.066	13192.87
644.419	13096.38
644.771	13147
645.124	13005.76
645.477	12986.1
645.83	12888.25
646.182	12798.53
646.535	12820.91
646.888	12836.05
647.24	12791.08
647.593	12855.48
647.945	12744.3
648.298	12823.39
648.65	12704.75
649.002	12692.55
649.355	12744.3
649.707	12796.95
650.059	12788.59
650.411	12937.29
650.763	12973.44
651.115	13040.56
651.467	13008.02
651.819	12989.49
652.171	12991.75
652.523	13022.93
652.875	12965.99
653.227	12925.76
653.578	13008.25
653.93	12975.7
654.282	12930.96
654.633	12972.09
654.985	12902.03
655.337	12939.09
655.688	12998.53
656.039	13001.01
656.391	12916.95
656.742	12958.98
657.094	12941.13
657.445	13042.37
657.796	12942.71
658.147	12942.03
658.498	12923.28
658.849	12985.2
659.2	13013.22
659.551	12942.26
659.902	12994.01
660.253	13053.67
660.604	13017.51
660.955	12980.9
661.306	13026.78
661.656	13004.63
662.007	13027.23
662.358	12973.67
662.708	12987.23
663.059	13029.26
663.409	12944.97
663.76	12987.23
664.11	13032.43
664.461	13135.7
664.811	13036.72
665.161	13010.51
665.511	13060
665.862	13044.18
666.212	13096.83
666.562	13102.48
666.912	13103.16
667.262	13046.89
667.612	13042.59
667.962	13048.92
668.312	13079.2
668.662	13032.88
669.011	13022.71
669.361	13029.49
669.711	13032.2
670.06	12945.87
670.41	12986.55
670.76	12996.95
671.109	12953.56
671.459	12928.93
671.808	12948.36
672.157	12960.11
672.507	12902.49
672.856	12897.51
673.205	12989.71
673.554	12974.8
673.904	12903.16
674.253	13003.5
674.602	12972.09
674.951	12707.24
675.3	12616.84
675.649	12949.72
675.998	12818.42
676.346	12812.09
676.695	12888.25
677.044	12738.65
677.393	12752.89
677.741	12833.56
678.09	12727.35
678.438	12684.86
678.787	12831.75
679.135	12737.97
679.484	12718.08
679.832	12689.61
680.181	12681.93
680.529	12671.98
680.877	12631.76
681.225	12591.31
681.573	12706.78
681.922	12573
682.27	12544.3
682.618	12558.99
682.966	12410.75
683.314	12548.6
683.661	12502.27
684.009	12415.94
684.357	12392.44
684.705	12354.25
685.053	12377.53
685.4	12324.65
685.748	12241.49
686.095	12291.88
686.443	12209.85
686.79	12223.63
687.138	12260.24
687.485	12178.44
687.832	12109.51
688.18	12184.99
688.527	12053.02
688.874	12088.5
689.221	12052.11
689.568	12009.18
689.915	11964.88
690.262	11998.33
690.609	11941.83
690.956	11856.64
691.303	11879.24
691.65	11919.46
691.997	11823.19
692.344	11697.55
692.69	11671.11
693.037	11664.33
693.383	11577.32
693.73	11495.97
694.077	11519.7
694.423	11542.52
694.769	11454.16
695.116	11500.49
695.462	11363.09
695.808	11445.35
696.155	11395.63
696.501	11250.1
696.847	11200.16
697.193	11134.17
697.539	11223.89
697.885	11107.96
698.231	11032.03
698.577	11096.88
698.923	11075.19
699.269	10999.26
699.614	10938.92
699.96	10861.18
700.306	10965.36
700.651	10775.08
700.997	10832.26
701.342	10701.41
701.688	10750.9
702.033	10674.07
702.379	10692.37
702.724	10652.6
703.069	10616.22
703.415	10514.75
703.76	10477.46
704.105	10512.72
704.45	10545.03
704.795	10385.04
705.14	10363.12
705.485	10365.38
705.83	10303.46
706.175	10292.61
706.52	10254.87
706.865	10159.51
707.209	10165.38
707.554	10147.3
707.899	10236.57
708.243	10176.23
708.588	10052.17
708.932	10042.22
709.277	9999.96
709.621	10042.22
709.966	10006.52
710.31	9957.48
710.654	9893.53
710.998	9897.14
711.342	9893.3
711.687	9801.78
712.031	9845.16
712.375	9722.91
712.719	9790.93
713.063	9736.92
713.407	9738.28
713.75	9685.62
714.094	9667.77
714.438	9668.22
714.782	9702.12
715.125	9632.74
715.469	9694.43
715.812	9587.54
716.156	9556.13
716.499	9584.38
716.843	9573.08
717.186	9470.03
717.53	9548.22
717.873	9587.09
718.216	9545.51
718.559	9484.5
718.902	9477.26
719.246	9437.49
719.589	9454.67
719.932	9397.72
720.275	9362.01
720.617	9411.96
720.96	9416.25
721.303	9408.57
721.646	9336.7
721.989	9358.4
722.331	9339.19
722.674	9312.98
723.016	9333.09
723.359	9268.68
723.701	9256.93
724.044	9297.61
724.386	9232.3
724.729	9278.63
725.071	9236.82
725.413	9247.21
725.755	9212.87
726.097	9209.7
726.439	9163.15
726.782	9162.7
727.124	9185.3
727.465	9112.98
727.807	9170.83
728.149	9144.84
728.491	9117.5
728.833	9189.81
729.175	9096.94
729.516	9103.04
729.858	9123.6
730.199	9189.14
730.541	9078.18
730.882	9098.07
731.224	9098.52
731.565	9051.29
731.906	9030.95
732.248	9100.78
732.589	9065.3
732.93	8952.98
733.271	9053.1
733.612	9081.8
733.953	9059.2
734.294	9009.93
734.635	9100.78
734.976	9088.57
735.317	9023.49
735.658	9052.19
735.999	9036.6
736.339	9023.49
736.68	9139.19
737.021	9129.25
737.361	9066.2
737.702	9104.85
738.042	9059.65
738.383	9057.61
738.723	9104.17
739.063	9119.08
739.404	9150.72
739.744	9133.77
740.084	9155.47
740.424	9109.59
740.764	9176.48
741.104	9178.74
741.444	9152.3
741.784	9119.99
742.124	9207.44
742.464	9206.09
742.804	9268.91
743.143	9283.15
743.483	9269.36
743.823	9317.72
744.162	9260.1
744.502	9294.67
744.841	9328.79
745.181	9384.61
745.52	9361.11
745.86	9459.64
746.199	9449.47
746.538	9504.16
746.877	9568.56
747.216	9570.14
747.556	9597.26
747.895	9736.24
748.234	9706.64
748.573	9778.05
748.911	9840.42
749.25	9894.43
749.589	9898.72
749.928	9971.26
750.267	10054.65
750.605	10137.81
750.944	10199.96
751.283	10240.18
751.621	10307.98
751.96	10379.84
752.298	10485.37
752.636	10597.01
752.975	10660.51
753.313	10731.24
753.651	10761.07
753.989	10905.25
754.327	11027.51
754.666	11088.07
755.004	11293.71
755.342	11418.46
755.679	11487.61
756.017	11590.66
756.355	11736.41
756.693	11830.88
757.031	11982.51
757.368	12068.16
757.706	12239.9
758.044	12425.44
758.381	12574.13
758.719	12620.91
759.056	12887.57
759.394	13008.92
759.731	13083.27
760.068	13212.53
760.405	13305.41
760.743	13546.31
761.08	13635.8
761.417	13765.74
761.754	13991.27
762.091	14163.92
762.428	14287.76
762.765	14388.77
763.102	14736.34
763.438	14714.64
763.775	14888.42
764.112	14968.42
764.449	15235.31
764.785	15313.5
765.122	15429.65
765.458	15544.45
765.795	15714.16
766.131	15772.24
766.467	16029.64
766.804	16130.65
767.14	16250.42
767.476	16341.27
767.812	16440.25
768.148	16527.25
768.485	16657.42
768.821	16670.52
769.157	16918.2
769.492	17054.69
769.828	17129.49
770.164	17184.86
770.5	17293.78
770.836	17384.18
771.171	17418.07
771.507	17527.45
771.842	17606.32
772.178	17610.61
772.513	17650.84
772.849	17791.17
773.184	17929.25
773.519	17922.69
773.855	17995.23
774.19	18111.39
774.525	18171.73
774.86	18221.67
775.195	18280.65
775.53	18225.74
775.865	18346.41
776.2	18303.02
776.535	18274.32
776.87	18256.7
777.205	18392.51
777.539	18422.11
777.874	18568.1
778.209	18487.88
778.543	18522.45
778.878	18410.36
779.212	18482.9
779.547	18480.87
779.881	18518.38
780.215	18479.97
780.55	18553.18
780.884	18493.3
781.218	18526.74
781.552	18552.28
781.886	18515.22
782.22	18477.71
782.554	18467.09
782.888	18351.38
783.222	18397.71
783.556	18406.97
783.889	18305.73
784.223	18318.84
784.557	18332.17
784.89	18368.33
785.224	18322.68
785.557	18284.27
785.891	18257.6
786.224	18216.47
786.558	18229.13
786.891	18246.3
787.224	18183.48
787.557	18040.88
787.891	18096.7
788.224	18261.89
788.557	18157.94
788.89	18157.26
789.223	18160.65
789.556	17981.67
789.888	17939.19
790.221	17930.6
790.554	17828.68
790.887	17788.46
791.219	17923.6
791.552	17736.71
791.884	17749.36
792.217	17754.79
792.549	17721.79
792.882	17512.31
793.214	17523.16
793.546	17585.07
793.879	17479.77
794.211	17353.22
794.543	17482.93
794.875	17382.37
795.207	17421.91
795.539	17453.78
795.871	17431.86
796.203	17217.63
796.535	17141.7
796.867	17187.8
797.198	17174.46
797.53	17142.6
797.862	17081.36
798.193	17099.44
798.525	17027.57
798.856	17075.03
799.188	16832.33
799.519	16693.12
799.85	16693.35
800.182	16705.32
800.513	16846.34
800.844	16643.4
801.175	16770.63
801.506	16574.03
801.837	16583.52
802.168	16573.8
802.499	16464.65
802.83	16522.73
803.161	16416.07
803.491	16380.59
803.822	16364.09
804.153	16226.01
804.483	16285
804.814	16238.67
805.145	16186.92
805.475	16094.04
805.805	16136.75
806.136	16183.98
806.466	16060.59
806.796	16048.84
807.126	15867.38
807.457	15952.57
807.787	15883.42
808.117	15946.93
808.447	15851.56
808.777	15909.86
809.107	15721.39
809.436	15688.4
809.766	15609.53
810.096	15586.26
810.426	15530.44
810.755	15622.19
811.085	15581.51
811.414	15579.48
811.744	15418.13
812.073	15430.78
812.403	15442.08
812.732	15376.09
813.061	15368.41
813.39	15160.05
813.719	15208.19
814.049	15303.33
814.378	15200.28
814.707	15181.97
815.036	15183.33
815.365	15132.71
815.693	14948.53
816.022	15062.43
816.351	14910.34
816.68	14818.59
817.008	14935.43
817.337	14824.92
817.665	14822.44
817.994	14917.12
818.322	14772.27
818.651	14726.62
818.979	14715.77
819.307	14818.82
819.636	14655.43
819.964	14646.85
820.292	14739.95
820.62	14680.29
820.948	14669.22
821.276	14659.95
821.604	14644.59
821.932	14679.84
822.259	14708.99
822.587	14705.38
822.915	14618.15
823.243	14673.74
823.57	14581.76
823.898	14586.51
824.225	14612.5
824.553	14560.07
824.88	14594.64
825.207	14578.83
825.535	14590.58
825.862	14636.9
826.189	14520.07
826.516	14571.37
826.843	14678.26
827.17	14703.12
827.497	14682.78
827.824	14585.83
828.151	14614.08
828.478	14601.2
828.805	14648.65
829.131	14592.38
829.458	14556.23
829.785	14514.19
830.111	14595.1
830.438	14691.59
830.764	14591.93
831.09	14621.99
831.417	14577.47
831.743	14627.41
832.069	14613.4
832.395	14522.78
832.722	14593.74
833.048	14550.8
833.374	14576.34
833.7	14528.21
834.026	14538.6
834.351	14525.27
834.677	14487.53
835.003	14483.01
835.329	14482.78
835.654	14566.17
835.98	14425.84
836.306	14485.04
836.631	14325.27
836.956	14370.47
837.282	14443.91
837.607	14297.7
837.932	14332.28
838.258	14346.06
838.583	14205.5
838.908	14159.85
839.233	14230.59
839.558	14165.05
839.883	14152.62
840.208	14111.95
840.533	14132.28
840.858	14063.36
841.182	14101.78
841.507	14083.25
841.832	13985.62
842.156	13985.17
842.481	13902.01
842.805	13904.27
843.13	13923.93
843.454	13854.55
843.778	13798.06
844.103	13790.6
844.427	13725.29
844.751	13853.2
845.075	13758.96
845.399	13627.89
845.723	13547.67
846.047	13681.67
846.371	13559.19
846.695	13510.83
847.019	13460.44
847.343	13361.23
847.666	13314.68
847.99	13285.3
848.313	13285.3
848.637	13187.68
848.96	13160.33
849.284	13160.33
849.607	13050.5
849.931	13022.48
850.254	12916.04
850.577	12839.89
850.9	12734.13
851.223	12780.23
851.546	12695.71
851.869	12574.13
852.192	12647.35
852.515	12497.07
852.838	12527.58
853.161	12482.38
853.483	12385.66
853.806	12383.18
854.129	12309.05
854.451	12240.58
854.774	12184.09
855.096	12204.2
855.419	12151.09
855.741	12104.09
856.063	12061.83
856.385	12054.6
856.708	11963.3
857.03	11975.73
857.352	11927.6
857.674	11892.12
857.996	11889.86
858.318	11825.45
858.64	11807.6
858.961	11769.18
859.283	11668.85
859.605	11664.55
859.926	11747.49
860.248	11709.52
860.57	11620.26
860.891	11609.86
861.212	11591.79
861.534	11488.96
861.855	11510.43
862.176	11476.76
862.498	11518.34
862.819	11447.38
863.14	11374.16
863.461	11427.72
863.782	11345.01
864.103	11331.45
864.424	11302.75
864.745	11320.61
865.065	11250.78
865.386	11239.93
865.707	11226.82
866.027	11295.52
866.348	11148.86
866.668	11212.59
866.989	11192.02
867.309	11080.84
867.63	11080.39
867.95	11094.17
868.27	10978.92
868.59	11021.41
868.91	10991.8
869.23	11016.43
869.55	10893.72
869.87	11057.56
870.19	10980.05
870.51	10961.75
870.83	10945.93
871.15	10952.71
871.469	10894.85
871.789	10910
872.109	10863.22
872.428	10778.93
872.748	10807.63
873.067	10830.45
873.386	10812.15
873.706	10806.72
874.025	10775.76
874.344	10705.48
874.663	10741.64
874.982	10767.85
875.301	10698.7
875.62	10677.01
875.939	10687.4
876.258	10693.05
876.577	10613.28
876.896	10605.14
877.214	10568.54
877.533	10606.5
877.852	10629.78
878.17	10509.33
878.489	10525.37
878.807	10495.32
879.125	10481.53
879.444	10474.53
879.762	10432.49
880.08	10465.94
880.398	10424.36
880.716	10456.67
881.034	10376.68
881.352	10431.82
881.67	10332.38
881.988	10374.64
882.306	10288.54
882.624	10268.66
882.941	10216.23
883.259	10192.5
883.577	10161.09
883.894	10169.22
884.212	10179.39
884.529	10169.68
884.846	10097.14
885.164	10075.22
885.481	10046.97
885.798	10077.25
886.115	9989.12
886.432	9994.09
886.75	9904.82
887.067	10030.24
887.383	9874.09
887.7	9885.62
888.017	9888.78
888.334	9871.15
888.651	9820.76
888.967	9834.54
889.284	9738.5
889.6	9753.87
889.917	9665.96
890.233	9717.48
890.55	9701.44
890.866	9633.19
891.182	9596.58
891.498	9575.79
891.815	9514.1
892.131	9528.11
892.447	9494.67
892.763	9430.71
893.079	9420.54
893.395	9408.57
893.71	9416.93
894.026	9306.87
894.342	9319.75
894.657	9238.4
894.973	9238.63
895.289	9306.2
895.604	9224.39
895.92	9127.9
896.235	9183.26
896.55	9168.57
896.865	9051.06
897.181	9030.05
897.496	9031.63
897.811	9025.07
898.126	8885.42
898.441	8924.96
898.756	8894.46
899.071	8827.11
899.386	8818.07
899.7	8750.28
900.015	8816.04
900.33	8682.48
900.644	8656.72
900.959	8611.98
901.273	8629.15
901.588	8571.98
901.902	8486.56
902.216	8513.22
902.531	8509.61
902.845	8465.77
903.159	8463.96
903.473	8371.08
903.787	8372.66
904.101	8327.92
904.415	8332.89
904.729	8271.65
905.042	8259.67
905.356	8149.84
905.67	8173.34
905.984	8153.46
906.297	8144.64
906.611	8057.19
906.924	8073.69
907.237	8010.18
907.551	7999.34
907.864	7986
908.177	7933.8
908.491	7931.32
908.804	7844.09
909.117	7832.34
909.43	7796.86
909.743	7737.65
910.056	7786.91
910.368	7734.26
910.681	7618.33
910.994	7684.32
911.307	7602.29
911.619	7560.71
911.932	7625.56
912.244	7498.11
912.557	7536.3
912.869	7473.25
913.181	7369.07
913.494	7344.44
913.806	7358.68
914.118	7369.52
914.43	7265.35
914.742	7241.39
915.054	7245.46
915.366	7240.26
915.678	7232.35
915.99	7129.08
916.302	7104.22
916.613	7103.32
916.925	7055.41
917.236	7033.71
917.548	7032.58
917.859	6964.34
918.171	6924.56
918.482	6907.61
918.794	6863.55
919.105	6826.26
919.416	6841.4
919.727	6860.84
920.038	6815.41
920.349	6791.46
920.66	6741.29
920.971	6736.09
921.282	6688.64
921.593	6637.79
921.903	6621.07
922.214	6629.66
922.525	6582.88
922.835	6541.07
923.146	6503.33
923.456	6451.13
923.767	6477.12
924.077	6472.15
924.387	6434.86
924.697	6386.95
925.008	6338.14
925.318	6319.16
925.628	6328.42
925.938	6326.84
926.248	6200.29
926.558	6266.5
926.867	6216.33
927.177	6174.98
927.487	6123.91
927.796	6144.25
928.106	6102.21
928.416	6168.43
928.725	6028.99
929.034	5952.16
929.344	6010.46
929.653	6011.14
929.962	5920.97
930.271	5918.71
930.581	5892.5
930.89	5848.43
931.199	5847.98
931.508	5812.05
931.817	5758.27
932.125	5781.54
932.434	5770.92
932.743	5715.1
933.051	5670.36
933.36	5669
933.669	5673.3
933.977	5610.25
934.286	5640.76
934.594	5619.97
934.902	5560.08
935.21	5528.22
935.519	5528.89
935.827	5507.2
936.135	5460.87
936.443	5406.64
936.751	5425.85
937.059	5424.04
937.367	5415.22
937.674	5373.64
937.982	5370.93
938.29	5303.82
938.597	5288.22
938.905	5236.47
939.213	5209.35
939.52	5212.74
939.827	5215.68
940.135	5190.15
940.442	5099.3
940.749	5130.71
941.056	5138.17
941.363	5052.07
941.67	5085.97
941.977	5013.2
942.284	4990.83
942.591	4977.5
942.898	4964.39
943.205	5016.59
943.511	4913.77
943.818	4947.44
944.125	4883.49
944.431	4894.11
944.738	4878.29
945.044	4852.08
945.35	4839.19
945.657	4791.51
945.963	4763.26
946.269	4753.32
946.575	4728.46
946.881	4692.08
947.187	4690.5
947.493	4670.16
947.799	4610.95
948.105	4611.63
948.41	4601.46
948.716	4647.79
949.022	4579.99
949.327	4571.63
949.633	4516.94
949.938	4488.92
950.244	4521.92
950.549	4469.71
950.854	4433.56
951.16	4479.2
951.465	4450.96
951.77	4399.66
952.075	4379.77
952.38	4383.61
952.685	4370.73
952.99	4304.52
953.294	4300.68
953.599	4304.29
953.904	4277.85
954.209	4203.73
954.513	4228.36
954.818	4222.49
955.122	4196.5
955.426	4176.84
955.731	4203.28
956.035	4164.86
956.339	4141.59
956.643	4147.46
956.948	4063.62
957.252	4098.2
957.556	4032.66
957.86	4021.82
958.163	4029.05
958.467	4023.4
958.771	3994.47
959.075	3980.01
959.378	3976.39
959.682	3976.17
959.985	3913.34
960.289	3888.71
960.592	3888.71
960.896	3906.11
961.199	3884.19
961.502	3853.68
961.805	3782.5
962.108	3824.08
962.411	3798.09
962.714	3777.98
963.017	3777.98
963.32	3759.22
963.623	3737.75
963.926	3701.6
964.228	3667.25
964.531	3683.29
964.833	3666.34
965.136	3646.68
965.438	3648.49
965.741	3597.87
966.043	3590.87
966.345	3572.56
966.648	3595.61
966.95	3577.31
967.252	3551.77
967.554	3496.86
967.856	3459.34
968.158	3514.26
968.46	3480.81
968.761	3490.08
969.063	3459.8
969.365	3425.9
969.666	3468.38
969.968	3404.2
970.269	3411.44
970.571	3377.54
970.872	3354.71
971.174	3328.5
971.475	3333.25
971.776	3337.54
972.077	3293.02
972.378	3264.77
972.679	3254.38
972.98	3252.8
973.281	3214.38
973.582	3219.35
973.883	3227.94
974.183	3198.33
974.484	3186.81
974.785	3198.56
975.085	3183.87
975.386	3163.31
975.686	3121.05
975.986	3121.5
976.287	3128.05
976.587	3115.85
976.887	3072.91
977.187	3042.63
977.487	3071.33
977.787	3028.39
978.087	3015.51
978.387	3021.84
978.687	2981.84
978.987	3004.44
979.286	2978.45
979.586	2962.63
979.885	2919.02
980.185	2933.48
980.484	2895.29
980.784	2891
981.083	2877.66
981.382	2869.53
981.682	2836.54
981.981	2826.14
982.28	2832.69
982.579	2819.81
982.878	2806.71
983.177	2809.19
983.475	2792.47
983.774	2765.58
984.073	2784.79
984.372	2727.84
984.67	2719.02
984.969	2726.03
985.267	2756.54
985.566	2687.16
985.864	2687.84
986.162	2699.36
986.461	2643.55
986.759	2648.74
987.057	2613.26
987.355	2605.58
987.653	2654.62
987.951	2588.86
988.249	2610.78
988.547	2594.73
988.844	2569.65
989.142	2569.42
989.44	2555.41
989.737	2545.02
990.035	2524
990.332	2519.71
990.63	2496.66
990.927	2446.04
991.224	2484.45
991.521	2462.76
991.819	2453.95
992.116	2451.69
992.413	2425.47
992.71	2413.72
993.006	2389.32
993.303	2415.53
993.6	2387.96
993.897	2373.27
994.193	2385.47
994.49	2378.69
994.787	2351.35
995.083	2345.02
995.379	2321.52
995.676	2300.28
995.972	2303.67
996.268	2293.5
996.565	2274.52
996.861	2275.19
997.157	2250.34
997.453	2240.62
997.749	2220.05
998.044	2216.89
998.34	2191.35
998.636	2182.77
998.932	2199.49
999.227	2195.65
999.523	2160.4
999.818	2175.31
1000.114	2134.63
1000.409	2100.06
1000.704	2079.72
1001	2093.73
1001.295	2091.02
1001.59	2061.64
1001.885	2095.54
1002.18	2060.06
1002.475	2026.39
1002.77	2065.93
1003.065	2046.05
1003.359	2012.15
1003.654	2002.43
1003.949	1980.96
1004.243	1986.39
1004.538	1987.74
1004.832	1980.51
1005.127	1939.61
1005.421	1934.64
1005.715	1940.51
1006.009	1891.25
1006.304	1920.18
1006.598	1905.49
1006.892	1864.58
1007.186	1870.91
1007.48	1873.62
1007.773	1864.81
1008.067	1870.69
1008.361	1814.19
1008.655	1841.08
1008.948	1820.52
1009.242	1789.56
1009.535	1787.52
1009.829	1783.68
1010.122	1801.31
1010.415	1778.48
1010.708	1755.89
1011.001	1746.17
1011.295	1733.74
1011.588	1716.79
1011.881	1692.38
1012.173	1687.41
1012.466	1698.49
1012.759	1689.45
1013.052	1689.67
1013.344	1671.37
1013.637	1643.35
1013.93	1640.86
1014.222	1653.52
1014.514	1634.08
1014.807	1629.11
1015.099	1605.61
1015.391	1581.88
1015.683	1594.76
1015.976	1592.5
1016.268	1566.74
1016.56	1557.02
1016.851	1545.72
1017.143	1539.17
1017.435	1568.77
1017.727	1530.36
1018.018	1512.5
1018.31	1521.32
1018.602	1513.86
1018.893	1489.45
1019.185	1486.29
1019.476	1459.85
1019.767	1430.02
1020.058	1460.3
1020.35	1449
1020.641	1437.48
1020.932	1412.17
1021.223	1397.48
1021.514	1381.21
1021.804	1377.82
1022.095	1359.51
1022.386	1351.38
1022.677	1358.83
1022.967	1354.77
1023.258	1333.52
1023.548	1342.34
1023.839	1323.81
1024.129	1331.04
1024.419	1329.68
1024.709	1299.4
1025	1271.6
1025.29	1281.77
1025.58	1286.07
1025.87	1262.11
1026.16	1248.1
1026.449	1270.25
1026.739	1224.83
1027.029	1240.87
1027.319	1247.65
1027.608	1209.91
1027.898	1223.7
1028.187	1207.65
1028.477	1178.27
1028.766	1200.42
1029.055	1175.56
1029.344	1203.81
1029.634	1176.69
1029.923	1151.83
1030.212	1159.07
1030.501	1152.29
1030.79	1126.3
1031.078	1107.32
1031.367	1103.02
1031.656	1132.63
1031.945	1113.42
1032.233	1115
1032.522	1106.64
1032.81	1082.46
1033.099	1070.93
1033.387	1064.38
1033.675	1090.59
1033.963	1028.22
1034.251	1088.33
1034.54	1048.33
1034.828	1033.19
1035.116	1037.49
1035.403	1053.08
1035.691	1027.54
1035.979	1010.82
1036.267	1011.27
1036.554	1003.82
1036.842	964.95
1037.129	1017.15
1037.417	995.91
1037.704	989.35
1037.992	960.88
1038.279	956.13
1038.566	976.47
1038.853	976.47
1039.14	976.47
