Data from hue_20_FLMS001491_10.txt Node
Date: Mon Feb 06 15:33:33 GMT 2017
User: dcchb
Spectrometer: FLMS00149
Trigger mode: 0
Integration Time (sec): 2.000000E-2
Scans to average: 10
Electric dark correction enabled: true
Nonlinearity correction enabled: false
Boxcar width: 0
XAxis mode: Wavelengths
Number of Pixels in Spectrum: 2048
>>>>>Begin Spectral Data<<<<<
341.393	-16.96
341.776	-16.96
342.16	-16.96
342.543	-43.63
342.927	-57.87
343.31	-63.74
343.693	-68.71
344.077	-61.03
344.46	-48.15
344.843	-49.28
345.226	-34.59
345.61	-47.47
345.993	-19.67
346.376	-21.93
346.759	-2.27
347.142	32.98
347.525	52.19
347.908	45.86
348.291	75.69
348.674	95.58
349.057	114.56
349.44	104.62
349.823	164.73
350.206	147.1
350.588	171.96
350.971	198.17
351.354	207.44
351.737	229.13
352.119	236.82
352.502	245.18
352.884	286.08
353.267	278.17
353.65	283.82
354.032	270.71
354.414	295.57
354.797	308
355.179	301.22
355.562	322.24
355.944	333.31
356.326	309.58
356.709	324.5
357.091	332.41
357.473	329.24
357.855	351.39
358.238	332.41
358.62	339.19
359.002	360.88
359.384	314.33
359.766	357.94
360.148	339.41
360.53	352.07
360.912	319.98
361.294	333.76
361.676	330.82
362.057	310.03
362.439	335.57
362.821	320.43
363.203	326.3
363.584	307.32
363.966	326.98
364.348	307.55
364.729	328.11
365.111	316.14
365.493	325.18
365.874	302.35
366.256	315.46
366.637	319.3
367.019	319.3
367.4	319.3
367.781	301.67
368.163	305.97
368.544	288.79
368.925	300.09
369.306	313.88
369.688	319.53
370.069	289.47
370.45	309.81
370.831	318.85
371.212	307.55
371.593	301.22
371.974	305.06
372.355	300.99
372.736	311.84
373.117	311.16
373.498	329.69
373.879	323.82
374.26	311.16
374.641	296.48
375.021	340.09
375.402	316.36
375.783	311.84
376.163	320.2
376.544	322.69
376.925	324.95
377.305	305.97
377.686	328.11
378.066	308.9
378.447	329.92
378.827	333.76
379.208	329.47
379.588	323.82
379.968	311.62
380.349	311.39
380.729	316.36
381.109	321.33
381.489	320.88
381.87	331.28
382.25	324.05
382.63	326.53
383.01	332.18
383.39	346.87
383.77	325.4
384.15	342.8
384.53	341.45
384.91	347.77
385.29	318.4
385.67	349.36
386.049	360.88
386.429	351.62
386.809	350.94
387.189	333.08
387.568	356.13
387.948	342.58
388.328	343.25
388.707	346.42
389.087	349.81
389.466	350.71
389.846	358.62
390.225	358.17
390.605	358.17
390.984	364.72
391.363	355
391.743	342.58
392.122	357.94
392.501	344.84
392.881	355
393.26	362.46
393.639	341.9
394.018	362.91
394.397	360.43
394.776	377.38
395.155	371.05
395.534	343.03
395.913	351.84
396.292	358.39
396.671	379.64
397.05	389.58
397.429	387.09
397.808	362.01
398.186	364.5
398.565	356.13
398.944	372.86
399.323	386.42
399.701	362.69
400.08	377.83
400.458	391.16
400.837	376.93
401.215	372.86
401.594	373.08
401.972	388.68
402.351	378.73
402.729	391.39
403.107	385.51
403.486	400.2
403.864	396.81
404.242	406.75
404.62	397.04
404.999	397.04
405.377	413.53
405.755	398.17
406.133	400.65
406.511	406.75
406.889	385.96
407.267	419.18
407.645	400.43
408.023	423.03
408.401	402.46
408.779	414.44
409.156	416.25
409.534	420.54
409.912	420.99
410.29	422.35
410.667	437.71
411.045	443.36
411.422	448.56
411.8	431.16
412.178	431.39
412.555	453.08
412.933	427.77
413.31	459.18
413.687	431.39
414.065	456.02
414.442	450.82
414.819	454.44
415.197	461.22
415.574	460.76
415.951	443.59
416.328	440.88
416.705	455.34
417.082	443.59
417.46	472.52
417.837	457.6
418.214	472.29
418.591	485.85
418.967	470.71
419.344	479.52
419.721	472.52
420.098	473.19
420.475	478.17
420.852	500.09
421.228	490.82
421.605	481.78
421.982	485.62
422.358	515.23
422.735	495.34
423.111	503.7
423.488	508.9
423.864	494.21
424.241	513.64
424.617	502.35
424.994	513.19
425.37	502.8
425.746	505.96
426.123	526.75
426.499	526.53
426.875	541.89
427.251	533.98
427.627	519.07
428.003	552.74
428.379	562.23
428.756	541.21
429.132	552.06
429.507	568.78
429.883	540.76
430.259	578.73
430.635	575.11
431.011	574.21
431.387	547.09
431.763	558.84
432.138	594.32
432.514	580.54
432.89	591.16
433.265	606.3
433.641	623.47
434.016	596.35
434.392	599.07
434.767	598.84
435.143	596.58
435.518	618.5
435.894	628.22
436.269	632.96
436.644	638.16
437.02	658.27
437.395	645.84
437.77	656.69
438.145	635.22
438.52	651.04
438.895	632.96
439.271	651.95
439.646	689.01
440.021	673.64
440.395	676.13
440.77	676.35
441.145	684.71
441.52	666.18
441.895	692.62
442.27	698.27
442.645	671.83
443.019	697.82
443.394	711.38
443.769	702.57
444.143	711.15
444.518	721.77
444.892	720.42
445.267	719.51
445.641	693.75
446.016	722
446.39	729.23
446.764	709.12
447.139	739.4
447.513	742.79
447.887	768.55
448.262	741.44
448.636	729.46
449.01	736.01
449.384	770.59
449.758	764.94
450.132	767.2
450.506	773.98
450.88	734.88
451.254	779.17
451.628	780.76
452.002	799.74
452.376	772.39
452.75	816.91
453.123	816.24
453.497	797.71
453.871	811.49
454.244	818.95
454.618	848.78
454.992	847.65
455.365	839.29
455.739	855.78
456.112	857.82
456.486	874.99
456.859	892.62
457.232	901.43
457.606	899.85
457.979	897.14
458.352	889.68
458.725	917.93
459.099	901.66
459.472	964.48
459.845	940.75
460.218	948.66
460.591	959.28
460.964	950.7
461.337	994.31
461.71	969.68
462.083	985.95
462.456	1017.59
462.829	1004.93
463.201	1026.17
463.574	1031.15
463.947	1035.89
464.32	1033.63
464.692	1044.25
465.065	1066.17
465.438	1075.21
465.81	1082.67
466.183	1103.01
466.555	1131.48
466.928	1122.89
467.3	1113.4
467.672	1157.92
468.045	1161.09
468.417	1181.65
468.789	1178.71
469.161	1197.02
469.534	1210.58
469.906	1234.53
470.278	1241.76
470.65	1264.13
471.022	1294.64
471.394	1294.64
471.766	1301.87
472.138	1315.21
472.51	1358.14
472.882	1370.12
473.253	1369.22
473.625	1405.82
473.997	1423.9
474.369	1453.06
474.74	1443.11
475.112	1469.55
475.484	1485.37
475.855	1529.89
476.227	1555.2
476.598	1592.03
476.97	1609.21
477.341	1646.5
477.713	1664.8
478.084	1694.86
478.455	1720.84
478.827	1743.22
479.198	1795.87
479.569	1784.12
479.94	1855.3
480.311	1887.39
480.682	1891.91
481.053	1944.12
481.424	1987.73
481.795	2004
482.166	2039.03
482.537	2031.12
482.908	2117.9
483.279	2134.39
483.65	2160.83
484.021	2249.19
484.391	2211.45
484.762	2265.01
485.133	2307.72
485.503	2331.9
485.874	2414.16
486.244	2436.53
486.615	2464.55
486.985	2480.82
487.356	2516.08
487.726	2563.31
488.097	2648.73
488.467	2618.67
488.837	2702.74
489.207	2740.25
489.578	2787.48
489.948	2812.34
490.318	2881.94
490.688	2870.64
491.058	2929.85
491.428	2940.7
491.798	2993.13
492.168	3067.02
492.538	3072.9
492.908	3124.42
493.278	3178.21
493.648	3203.97
494.017	3228.15
494.387	3289.16
494.757	3310.18
495.126	3315.6
495.496	3347.47
495.866	3363.97
496.235	3432.21
496.605	3466.34
496.974	3443.96
497.344	3467.92
497.713	3561.02
498.082	3554.24
498.452	3601.25
498.821	3593.79
499.19	3648.93
499.559	3707.23
499.928	3719.89
500.298	3757.63
500.667	3817.29
501.036	3754.46
501.405	3789.04
501.774	3815.25
502.143	3852.54
502.512	3859.77
502.88	3897.96
503.249	3913.56
503.618	3968.02
503.987	3970.28
504.356	4015.02
504.724	4010.05
505.093	4070.61
505.462	4047.11
505.83	4030.61
506.199	4112.19
506.567	4142.93
506.936	4109.71
507.304	4168.92
507.672	4204.17
508.041	4231.06
508.409	4255.24
508.777	4261.57
509.145	4294.11
509.514	4332.98
509.882	4328.01
510.25	4307.44
510.618	4381.79
510.986	4379.76
511.354	4420.89
511.722	4430.6
512.09	4442.13
512.458	4462.69
512.826	4508.57
513.193	4554.22
513.561	4483.71
513.929	4553.54
514.297	4600.77
514.664	4615.23
515.032	4607.55
515.4	4626.3
515.767	4631.73
516.135	4701.33
516.502	4679.86
516.869	4742.69
517.237	4751.95
517.604	4774.78
517.972	4745.85
518.339	4736.13
518.706	4784.72
519.073	4772.29
519.44	4852.51
519.808	4851.16
520.175	4859.75
520.542	4923.25
520.909	4925.05
521.276	4931.16
521.643	4973.87
522.009	4988.78
522.376	5029.68
522.743	5027.42
523.11	5124.37
523.477	5099.51
523.843	5143.35
524.21	5176.35
524.577	5222.45
524.943	5251.83
525.31	5238.49
525.676	5304.93
526.043	5302.22
526.409	5341.09
526.776	5361.43
527.142	5407.75
527.508	5395.1
527.874	5467.64
528.241	5496.34
528.607	5471.93
528.973	5541.99
529.339	5548.99
529.705	5634.41
530.071	5611.36
530.437	5624.47
530.803	5719.16
531.169	5724.81
531.535	5715.99
531.901	5729.55
532.267	5778.59
532.632	5821.53
532.998	5815.2
533.364	5841.19
533.73	5879.15
534.095	5893.62
534.461	5950.79
534.826	5986.5
535.192	6024.23
535.557	6014.74
535.923	6052.93
536.288	6031.69
536.653	6054.29
537.019	6087.51
537.384	6092.93
537.749	6112.37
538.114	6108.3
538.479	6142.42
538.845	6195.08
539.21	6165.93
539.575	6224
539.94	6275.75
540.305	6321.85
540.67	6257.45
541.034	6366.37
541.399	6345.13
541.764	6383.55
542.129	6402.53
542.494	6418.8
542.858	6448.18
543.223	6450.66
543.587	6424.22
543.952	6559.14
544.316	6511
544.681	6548.97
545.045	6582.86
545.41	6595.07
545.774	6642.07
546.138	6647.27
546.503	6684.1
546.867	6681.62
547.231	6730.2
547.595	6747.38
547.959	6741.96
548.324	6811.78
548.688	6817.66
549.052	6804.33
549.416	6826.93
549.779	6822.18
550.143	6936.98
550.507	6901.27
550.871	6950.54
551.235	6998.67
551.599	7000.25
551.962	7052
552.326	7029.41
552.689	7090.65
553.053	7105.34
553.417	7048.61
553.78	7155.28
554.143	7186.69
554.507	7188.72
554.87	7173.13
555.234	7282.51
555.597	7272.79
555.96	7286.12
556.323	7310.98
556.686	7308.72
557.05	7426.46
557.413	7444.76
557.776	7449.51
558.139	7503.07
558.502	7490.86
558.865	7478.89
559.228	7541.93
559.59	7515.04
559.953	7565.89
560.316	7678.2
560.679	7586.91
561.041	7691.76
561.404	7670.74
561.767	7716.62
562.129	7757.75
562.492	7815.15
562.854	7813.11
563.217	7727.01
563.579	7846.33
563.941	7853.56
564.304	7873
564.666	7954.58
565.028	7955.48
565.39	7994.58
565.753	7991.19
566.115	8043.16
566.477	8114.35
566.839	8115.7
567.201	8156.83
567.563	8198.64
567.925	8228.02
568.287	8198.19
568.648	8269.82
569.01	8245.64
569.372	8278.64
569.734	8377.84
570.095	8361.12
570.457	8366.32
570.819	8538.97
571.18	8476.37
571.542	8515.24
571.903	8585.97
572.265	8622.36
572.626	8635.24
572.987	8689.47
573.349	8658.97
573.71	8755.69
574.071	8771.96
574.432	8827.1
574.794	8998.62
575.155	8935.8
575.516	8977.83
575.877	9037.94
576.238	9115.68
576.599	9226.41
576.96	9242.91
577.32	9275.45
577.681	9377.14
578.042	9467.31
578.403	9477.02
578.763	9564.03
579.124	9583.69
579.485	9814.42
579.845	9821.87
580.206	9883.79
580.566	10052.6
580.927	10134.63
581.287	10189.32
581.648	10277.23
582.008	10434.06
582.368	10541.4
582.728	10693.94
583.089	10819.14
583.449	10971.9
583.809	11096.87
584.169	11264.1
584.529	11441.72
584.889	11657.53
585.249	11739.79
585.609	11891.65
585.969	12058.43
586.329	12258.42
586.688	12541.58
587.048	12690.73
587.408	12831.74
587.768	13042.35
588.127	13215.68
588.487	13447.09
588.846	13734.54
589.206	13951.94
589.565	13954.65
589.925	14392.38
590.284	14635.31
590.643	14867.17
591.003	15108.97
591.362	15393.03
591.721	15601.84
592.08	15813.81
592.44	16143.74
592.799	16428.48
593.158	16687.91
593.517	16970.84
593.876	17292.86
594.235	17472.97
594.593	17774.21
594.952	18063.92
595.311	18313.18
595.67	18650.12
596.029	19081.52
596.387	19312.92
596.746	19548.4
597.104	19840.59
597.463	19992.45
597.822	20413.46
598.18	20674.02
598.538	20821.36
598.897	21328.69
599.255	21461.12
599.613	21945.17
599.972	22219.97
600.33	22493.18
600.688	22693.4
601.046	23123.22
601.404	23370.44
601.762	23612.02
602.12	23946.7
602.478	24206.36
602.836	24546.46
603.194	24658.55
603.552	24955.04
603.91	25213.79
604.268	25566.55
604.625	25781.45
604.983	26163.82
605.341	26238.84
605.698	26691.94
606.056	26870.47
606.413	27118.59
606.771	27343.67
607.128	27671.12
607.485	27768.3
607.843	28049.19
608.2	28365.34
608.557	28674.03
608.914	28754.48
609.272	29140.24
609.629	29427.01
609.986	29595.82
610.343	29764.63
610.7	30190.38
611.057	30281.9
611.414	30465.17
611.771	30641.44
612.127	30926.4
612.484	31086.63
612.841	31403.23
613.198	31436.45
613.554	31613.17
613.911	31950.33
614.267	32023.55
614.624	32239.36
614.98	32516.65
615.337	32725.45
615.693	32782.17
616.05	32992.34
616.406	33290.64
616.762	33264.65
617.118	33481.59
617.475	33699.66
617.831	33826.89
618.187	33878.42
618.543	34058.07
618.899	34377.61
619.255	34357.27
619.611	34488.8
619.967	34675.46
620.323	34828.22
620.678	34951.84
621.034	34820.31
621.39	35028.44
621.746	35026.41
622.101	35691.02
622.457	35409.68
622.812	35425.27
623.168	35742.55
623.523	35785.94
623.879	35915.43
624.234	35825.94
624.589	36014.41
624.945	36053.28
625.3	36157.45
625.655	36308.86
626.01	36364.45
626.365	36491.46
626.72	36610.1
627.075	36555.86
627.43	36733.26
627.785	36653.71
628.14	36693.03
628.495	36927.38
628.85	36897.55
629.205	36897.77
629.559	37209.63
629.914	37125.79
630.269	36951.33
630.623	37025
630.978	37022.52
631.332	37207.14
631.687	37430.87
632.041	37139.35
632.396	37296.18
632.75	37190.65
633.104	37308.38
633.459	37076.53
633.813	37161.04
634.167	37266.58
634.521	37280.81
634.875	37476.51
635.229	37327.59
635.583	37203.53
635.937	37247.82
636.291	37301.6
636.645	37429.51
636.999	37331.66
637.352	37459.34
637.706	37156.75
638.06	37485.55
638.413	37324.65
638.767	37267.25
639.121	37319.91
639.474	37159.01
639.828	37137.09
640.181	37312.23
640.534	37191.32
640.888	37151.33
641.241	37091.67
641.594	37283.98
641.947	37348.61
642.301	37184.77
642.654	37108.39
643.007	37217.31
643.36	37109.74
643.713	37094.83
644.066	37391.09
644.419	37098.45
644.771	36788.17
645.124	36575.52
645.477	36529.65
645.83	36357
646.182	36127.17
646.535	36066.83
646.888	36262.54
647.24	36061.41
647.593	36204.46
647.945	36284.46
648.298	35963.33
648.65	36002.66
649.002	35876.78
649.355	36022.32
649.707	35951.13
650.059	36149.77
650.411	36568.06
650.763	36583.88
651.115	36840.83
651.467	36858.9
651.819	36891.22
652.171	36624.79
652.523	36720.38
652.875	36782.75
653.227	36549.53
653.578	36938
653.93	36730.55
654.282	36590.89
654.633	36507.27
654.985	36563.09
655.337	36640.83
655.688	36594.28
656.039	36786.14
656.391	36404.9
656.742	36503.21
657.094	36526.48
657.445	36655.97
657.796	36533.94
658.147	36593.83
658.498	36433.15
658.849	36528.97
659.2	36456.43
659.551	36393.83
659.902	36559.25
660.253	36456.43
660.604	36537.56
660.955	36395.41
661.306	36454.62
661.656	36502.08
662.007	36487.61
662.358	36442.19
662.708	36390.89
663.059	36338.92
663.409	36158.13
663.76	36505.24
664.11	36458.46
664.461	36362.87
664.811	36507.95
665.161	36355.19
665.511	36342.76
665.862	36304.79
666.212	36470.21
666.562	36479.25
666.912	36331.91
667.262	36269.09
667.612	36351.8
667.962	36374.85
668.312	36188.64
668.662	36390.89
669.011	36336.88
669.361	36333.49
669.711	36340.05
670.06	36333.95
670.41	36199.49
670.76	36181.86
671.109	36340.27
671.459	36263.21
671.808	36143.22
672.157	36349.99
672.507	36067.96
672.856	36097.12
673.205	36099.38
673.554	36200.16
673.904	36005.37
674.253	36283.55
674.602	36194.97
674.951	35632.72
675.3	35576.68
675.649	36037.68
675.998	35964.01
676.346	36087.62
676.695	36091.92
677.044	35777.58
677.393	36068.19
677.741	35920.4
678.09	35946.16
678.438	35795.43
678.787	35821.64
679.135	35810.8
679.484	35673.17
679.832	35873.84
680.181	35517.92
680.529	35725.37
680.877	35514.98
681.225	35595.43
681.573	35713.17
681.922	35610.8
682.27	35324.25
682.618	35315.67
682.966	35263.01
683.314	35414.87
683.661	35288.32
684.009	35128.55
684.357	35068.67
684.705	35147.54
685.053	34962
685.4	34941.89
685.748	34839.07
686.095	34788.22
686.443	34883.14
686.79	34756.59
687.138	34733.99
687.485	34736.25
687.832	34521.79
688.18	34639.98
688.527	34501
688.874	34469.14
689.221	34389.82
689.568	34195.47
689.915	34199.54
690.262	34216.49
690.609	34109.37
690.956	33934.01
691.303	33934.91
691.65	33634.36
691.997	33859.66
692.344	33596.84
692.69	33675.03
693.037	33541.25
693.383	33419.22
693.73	33450.86
694.077	33327.25
694.423	33252.9
694.769	33225.55
695.116	33122.96
695.462	33024.2
695.808	33047.93
696.155	33056.29
696.501	32809.07
696.847	32772.01
697.193	32490.21
697.539	32562.75
697.885	32425.35
698.231	32298.8
698.577	32292.47
698.923	32268.29
699.269	32158.46
699.614	31962.08
699.96	31822.2
700.306	32020.61
700.651	31742.88
700.997	31729.1
701.342	31725.93
701.688	31558.03
702.033	31476.45
702.379	31437.8
702.724	31309.22
703.069	31438.48
703.415	31133.86
703.76	31077.13
704.105	30986.06
704.45	31095.67
704.795	30899.06
705.14	30707.65
705.485	30733.87
705.83	30654.1
706.175	30612.29
706.52	30580.88
706.865	30428.56
707.209	30368.68
707.554	30240.77
707.899	30362.35
708.243	30229.47
708.588	30163.03
708.932	29911.74
709.277	30048.69
709.621	29922.14
709.966	29678.75
710.31	29761.01
710.654	29431.3
710.998	29570.73
711.342	29665.65
711.687	29563.28
712.031	29390.4
712.375	29305.66
712.719	29318.31
713.063	29305.43
713.407	29342.27
713.75	29180.91
714.094	29146.79
714.438	29062.95
714.782	29090.07
715.125	28945.21
715.469	28968.72
715.812	28851.88
716.156	28660.7
716.499	28781.38
716.843	28680.59
717.186	28646.69
717.53	28590.87
717.873	28584.09
718.216	28638.55
718.559	28362.4
718.902	28162.64
719.246	28328.96
719.589	28260.71
719.932	28151.56
720.275	28113.37
720.617	28254.84
720.96	28111.11
721.303	28024.33
721.646	28042.41
721.989	27691.69
722.331	27915.86
722.674	27807.84
723.016	27804.9
723.359	27739.6
723.701	27799.93
724.044	27621.86
724.386	27485.14
724.729	27580.5
725.071	27533.73
725.413	27477.23
725.755	27579.15
726.097	27436.1
726.439	27300.06
726.782	27110.91
727.124	27318.82
727.465	27178.03
727.807	27139.84
728.149	27156.11
728.491	27119.27
728.833	27127.18
729.175	26954.08
729.516	26921.09
729.858	26978.03
730.199	26978.94
730.541	26885.61
730.882	26899.39
731.224	26959.28
731.565	26768.32
731.906	26795.44
732.248	26685.39
732.589	26592.51
732.93	26677.7
733.271	26578.5
733.612	26588.44
733.953	26590.25
734.294	26507.99
734.635	26330.59
734.976	26495.79
735.317	26274.78
735.658	26245.85
735.999	26261.22
736.339	26200.65
736.68	26227.32
737.021	26220.31
737.361	26098.96
737.702	26057.38
738.042	26182.8
738.383	25919.98
738.723	26014.67
739.063	26002.92
739.404	26052.41
739.744	26003.6
740.084	25882.92
740.424	25774.68
740.764	25751.63
741.104	25886.08
741.444	25799.08
741.784	25566.09
742.124	25762.47
742.464	25480.22
742.804	25547.11
743.143	25642.25
743.483	25618.07
743.823	25365.87
744.162	25388.02
744.502	25452.42
744.841	25277.29
745.181	25442.71
745.52	25204.97
745.86	25321.58
746.199	25280.68
746.538	25211.75
746.877	25230.73
747.216	25183.96
747.556	25110.29
747.895	25094.02
748.234	25052.89
748.573	24921.59
748.911	24914.36
749.25	24952.1
749.589	24763.18
749.928	24965.66
750.267	24863.29
750.605	24901.7
750.944	24776.51
751.283	24732.22
751.621	24636.63
751.96	24576.51
752.298	24626.01
752.636	24478.66
752.975	24401.15
753.313	24392.79
753.651	24518.21
753.989	24336.75
754.327	24294.71
754.666	24198.45
755.004	24224.89
755.342	24208.16
755.679	24192.57
756.017	24114.15
756.355	24135.4
756.693	23955.74
757.031	24114.15
757.368	23864.22
757.706	23853.82
758.044	23774.28
758.381	23799.59
758.719	23770.43
759.056	23726.82
759.394	23599.82
759.731	23518.24
760.068	23385.13
760.405	23401.63
760.743	23342.42
761.08	23336.77
761.417	23245.48
761.754	23227.62
762.091	23047.97
762.428	23039.83
762.765	22925.48
763.102	22970.91
763.438	22847.52
763.775	22753.96
764.112	22751.25
764.449	22674.87
764.785	22616.57
765.122	22509.22
765.458	22398.72
765.795	22427.64
766.131	22351.49
766.467	22315.56
766.804	22126.18
767.14	22002.35
767.476	21994.66
767.812	21946.53
768.148	21965.74
768.485	21829.69
768.821	21742.69
769.157	21718.96
769.492	21675.57
769.828	21562.13
770.164	21478.29
770.5	21393.77
770.836	21423.15
771.171	21184.97
771.507	21208.69
771.842	21097.51
772.178	21007.57
772.513	20985.2
772.849	20986.78
773.184	20826.33
773.519	20869.27
773.855	20805.54
774.19	20658.2
774.525	20729.38
774.86	20583.17
775.195	20573
775.53	20377.53
775.865	20210.3
776.2	20193.13
776.535	20155.16
776.87	19997.43
777.205	19994.94
777.539	19878.79
777.874	19942.51
778.209	19695.29
778.543	19672.91
778.878	19578.23
779.212	19607.61
779.547	19500.49
779.881	19497.33
780.215	19366.93
780.55	19376.43
780.884	19282.64
781.218	19206.49
781.552	19202.42
781.886	19045.81
782.22	18998.58
782.554	18918.81
782.888	18818.47
783.222	18562.44
783.556	18654.41
783.889	18515.88
784.223	18428.65
784.557	18330.35
784.89	18469.56
785.224	18327.64
785.557	18250.13
785.891	18119.74
786.224	18101.43
786.558	18143.46
786.891	17983.24
787.224	17876.35
787.557	17832.29
787.891	17794.32
788.224	17906.18
788.557	17736.69
788.89	17625.06
789.223	17688.79
789.556	17537.38
789.888	17539.86
790.221	17454.22
790.554	17350.26
790.887	17279.31
791.219	17289.47
791.552	17181.68
791.884	16986.88
792.217	16978.52
792.549	17043.61
792.882	16854.68
793.214	16795.7
793.546	16903.04
793.879	16788.02
794.211	16667.8
794.543	16689.04
794.875	16516.61
795.207	16657.4
795.539	16517.29
795.871	16466.45
796.203	16327.24
796.535	16237.53
796.867	16183.74
797.198	16205.21
797.53	16097.42
797.862	16083.86
798.193	16111.65
798.525	16014.93
798.856	16016.06
799.188	15769.74
799.519	15808.61
799.85	15777.65
800.182	15692.68
800.513	15802.51
800.844	15557.77
801.175	15654.72
801.506	15536.98
801.837	15568.84
802.168	15500.14
802.499	15428.05
802.83	15381.05
803.161	15264.9
803.491	15377.21
803.822	15271.22
804.153	15161.62
804.483	15084.56
804.814	15072.81
805.145	15002.3
805.475	14981.06
805.805	14964.11
806.136	14933.6
806.466	14901.74
806.796	14911.68
807.126	14762.99
807.457	14723.67
807.787	14676.21
808.117	14674.4
808.447	14572.03
808.777	14639.6
809.107	14576.33
809.436	14442.77
809.766	14491.58
810.096	14471.02
810.426	14325.03
810.755	14382.88
811.085	14320.74
811.414	14274.86
811.744	14236.9
812.073	14151.25
812.403	14107.19
812.732	14064.02
813.061	14068.77
813.39	14025.61
813.719	13947.19
814.049	14076.68
814.378	13942.22
814.707	13954.2
815.036	13927.08
815.365	13830.81
815.693	13730.7
816.022	13587.65
816.351	13639.63
816.68	13638.27
817.008	13653.41
817.337	13523.47
817.665	13471.72
817.994	13496.13
818.322	13525.51
818.651	13415.9
818.979	13404.15
819.307	13389.24
819.636	13417.26
819.964	13226.3
820.292	13360.54
820.62	13272.41
820.948	13193.76
821.276	13249.36
821.604	13205.97
821.932	13294.55
822.259	13327.32
822.587	13212.75
822.915	13224.95
823.243	13266.76
823.57	13184.95
823.898	13243.93
824.225	13219.53
824.553	13219.3
824.88	13232.63
825.207	13282.57
825.535	13239.86
825.862	13217.72
826.189	13246.64
826.516	13250.26
826.843	13284.83
827.17	13293.65
827.497	13228.56
827.824	13166.65
828.151	13215.23
828.478	13214.33
828.805	13165.52
829.131	13102.69
829.458	13118.74
829.785	13041.68
830.111	13118.06
830.438	13078.29
830.764	13161.22
831.09	13097.27
831.417	13015.69
831.743	13078.29
832.069	13103.14
832.395	13051.85
832.722	13126.42
833.048	13019.53
833.374	13017.04
833.7	12997.38
834.026	12957.84
834.351	13089.59
834.677	13010.04
835.003	13037.38
835.329	12958.29
835.654	12887.78
835.98	12916.71
836.306	12931.4
836.631	12890.49
836.956	12917.39
837.282	12948.12
837.607	12763.04
837.932	12821.34
838.258	12793.55
838.583	12797.84
838.908	12792.42
839.233	12743.83
839.558	12750.16
839.883	12653.66
840.208	12657.96
840.533	12678.75
840.858	12641.46
841.182	12579.99
841.507	12575.47
841.832	12531.41
842.156	12552.65
842.481	12564.63
842.805	12486.89
843.13	12520.11
843.454	12393.33
843.778	12350.62
844.103	12354.01
844.427	12359.21
844.751	12381.36
845.075	12280.34
845.399	12281.47
845.723	12133.68
846.047	12181.13
846.371	12120.12
846.695	12155.6
847.019	12027.92
847.343	11945.66
847.666	11939.78
847.99	11879.67
848.313	11758.77
848.637	11805.33
848.96	11678.32
849.284	11714.93
849.607	11616.63
849.931	11579.34
850.254	11506.8
850.577	11477.42
850.9	11383.64
851.223	11314.49
851.546	11313.59
851.869	11272.23
852.192	11283.98
852.515	11144.33
852.838	11136.19
853.161	11192.91
853.483	11093.71
853.806	11069.53
854.129	10940.04
854.451	10952.24
854.774	10845.8
855.096	10885.8
855.419	10848.51
855.741	10832.7
856.063	10733.71
856.385	10771.91
856.708	10711.12
857.03	10758.35
857.352	10716.09
857.674	10661.17
857.996	10573.04
858.318	10477
858.64	10590.44
858.961	10476.09
859.283	10453.95
859.605	10394.29
859.926	10425.25
860.248	10397.45
860.57	10417.57
860.891	10407.4
861.212	10306.61
861.534	10260.28
861.855	10291.47
862.176	10268.87
862.498	10214.86
862.819	10300.96
863.14	10233.84
863.461	10196.78
863.782	10143.22
864.103	10134.86
864.424	10130.34
864.745	10162.43
865.065	10067.29
865.386	9989.1
865.707	10020.97
866.027	10032.72
866.348	9986.39
866.668	9950.68
866.989	9957.69
867.309	9909.1
867.63	9958.14
867.95	9928.76
868.27	9869.78
868.59	9849.44
868.91	9821.65
869.23	9817.13
869.55	9784.14
869.87	9798.37
870.19	9755.21
870.51	9831.37
870.83	9821.87
871.15	9755.44
871.469	9761.76
871.789	9734.87
872.109	9721.31
872.428	9657.13
872.748	9680.86
873.067	9645.83
873.386	9601.32
873.706	9686.06
874.025	9614.87
874.344	9562.9
874.663	9564.48
874.982	9609.45
875.301	9576.91
875.62	9565.38
875.939	9420.08
876.258	9468.21
876.577	9465.05
876.896	9412.17
877.214	9481.54
877.533	9394.54
877.852	9383.47
878.17	9464.14
878.489	9374.43
878.807	9350.25
879.125	9360.64
879.444	9359.29
879.762	9303.24
880.08	9310.7
880.398	9250.82
880.716	9277.48
881.034	9260.76
881.352	9285.39
881.67	9179.63
881.988	9197.26
882.306	9224.38
882.624	9155.23
882.941	9143.93
883.259	9099.86
883.577	9130.37
883.894	9043.82
884.212	9016.7
884.529	9043.14
884.846	8940.77
885.164	9016.7
885.481	8971.5
885.798	8966.08
886.115	8909.81
886.432	8893.76
886.75	8872.75
887.067	8882.46
887.383	8823.03
887.7	8830.26
888.017	8773.09
888.334	8804.73
888.651	8805.18
888.967	8739.64
889.284	8701.45
889.6	8670.27
889.917	8652.64
890.233	8640.66
890.55	8561.79
890.866	8551.63
891.182	8558.63
891.498	8520.21
891.815	8498.52
892.131	8447.45
892.447	8430.05
892.763	8374.68
893.079	8402.93
893.395	8364.29
893.71	8290.84
894.026	8375.81
894.342	8346.43
894.657	8284.74
894.973	8243.61
895.289	8237.51
895.604	8279.54
895.92	8243.61
896.235	8157.06
896.55	8160.22
896.865	8055.37
897.181	8043.16
897.496	8087.68
897.811	8026.44
898.126	7968.59
898.441	7972.88
898.756	7880
899.071	7940.34
899.386	7944.18
899.7	7877.52
900.015	7826.22
900.33	7799.55
900.644	7739.44
900.959	7752.78
901.273	7698.31
901.588	7697.86
901.902	7671.65
902.216	7613.57
902.531	7648.6
902.845	7631.65
903.159	7582.39
903.473	7536.28
903.787	7492.22
904.101	7487.92
904.415	7401.37
904.729	7422.39
905.042	7348.72
905.356	7304.43
905.67	7285.9
905.984	7348.95
906.297	7301.49
906.611	7206.58
906.924	7151.89
907.237	7170.19
907.551	7156.41
907.864	7117.54
908.177	7121.38
908.491	7057.2
908.804	7041.16
909.117	7078.67
909.43	6984.89
909.743	6933.14
910.056	6966.36
910.368	6937.66
910.681	6870.77
910.994	6877.32
911.307	6897.88
911.619	6762.29
911.932	6759.36
912.244	6745.12
912.557	6728.62
912.869	6657.89
913.181	6702.18
913.494	6654.73
913.806	6597.1
914.118	6570.66
914.43	6526.14
914.742	6596.2
915.054	6502.19
915.366	6498.8
915.678	6476.43
915.99	6402.08
916.302	6406.37
916.613	6365.69
916.925	6370.44
917.236	6330.67
917.548	6255.87
917.859	6286.6
918.171	6209.77
918.482	6188.52
918.794	6173.16
919.105	6203.89
919.416	6144.01
919.727	6098.81
920.038	6076.44
920.349	6031.47
920.66	6024.23
920.971	6038.92
921.282	6012.94
921.593	5934.07
921.903	5970.9
922.214	5899.49
922.525	5938.59
922.835	5880.06
923.146	5833.96
923.456	5818.36
923.767	5798.93
924.077	5806.39
924.387	5733.85
924.697	5720.97
925.008	5730.46
925.318	5670.12
925.628	5670.12
925.938	5637.13
926.248	5600.29
926.558	5573.17
926.867	5565.72
927.177	5502.44
927.487	5447.3
927.796	5454.98
928.106	5453.63
928.416	5438.03
928.725	5428.09
929.034	5399.39
929.344	5379.51
929.653	5337.47
929.962	5302.67
930.271	5317.13
930.581	5251.83
930.89	5243.01
931.199	5196.01
931.508	5178.15
931.817	5172.05
932.125	5200.08
932.434	5163.24
932.743	5103.13
933.051	5095.45
933.36	5059.29
933.669	5027.42
933.977	5017.26
934.286	5001.44
934.594	4954.66
934.902	4919.4
935.21	4973.41
935.519	4928.22
935.827	4935.22
936.135	4909.69
936.443	4829.69
936.751	4831.72
937.059	4835.34
937.367	4803.48
937.674	4830.37
937.982	4780.2
938.29	4759.86
938.597	4745.4
938.905	4629.24
939.213	4674.44
939.52	4632.18
939.827	4687.77
940.135	4626.98
940.442	4630.37
940.749	4634.21
941.056	4591.28
941.363	4517.16
941.67	4549.02
941.977	4539.3
942.284	4491.17
942.591	4490.94
942.898	4433.99
943.205	4449.81
943.511	4433.99
943.818	4412.07
944.125	4345.86
944.431	4361.68
944.738	4346.76
945.044	4323.94
945.35	4283.49
945.657	4296.14
945.963	4283.04
946.269	4223.6
946.575	4233.09
946.881	4207.11
947.187	4177.73
947.493	4157.16
947.799	4157.39
948.105	4114.68
948.41	4084.4
948.716	4122.59
949.022	4063.61
949.327	4093.44
949.633	4038.52
949.938	4055.92
950.244	4018.64
950.549	3988.13
950.854	3944.51
951.16	3965.31
951.465	3944.74
951.77	3928.92
952.075	3916.49
952.38	3869.94
952.685	3925.31
952.99	3878.3
953.294	3833.11
953.599	3860.9
953.904	3752.2
954.209	3826.1
954.513	3779.1
954.818	3755.82
955.122	3756.5
955.426	3722.6
955.731	3672.88
956.035	3687.35
956.339	3728.48
956.643	3649.38
956.948	3622.49
957.252	3676.73
957.556	3649.61
957.86	3623.62
958.163	3596.5
958.467	3563.73
958.771	3588.37
959.075	3554.69
959.378	3560.8
959.682	3544.75
959.985	3518.54
960.289	3473.34
960.592	3500.23
960.896	3473.79
961.199	3435.6
961.502	3464.53
961.805	3424.3
962.108	3409.39
962.411	3403.29
962.714	3293.23
963.017	3337.07
963.32	3365.55
963.623	3334.59
963.926	3344.53
964.228	3315.6
964.531	3282.16
964.833	3255.04
965.136	3276.06
965.438	3231.77
965.741	3216.17
966.043	3206.68
966.345	3164.65
966.648	3182.95
966.95	3167.81
967.252	3137.98
967.554	3150.41
967.856	3125.33
968.158	3090.3
968.46	3133.46
968.761	3083.52
969.063	3090.53
969.365	3062.73
969.666	3065.89
969.968	3039.45
970.269	3057.98
970.571	3007.36
970.872	3033.13
971.174	2975.95
971.475	2983.18
971.776	2992.45
972.077	2941.83
972.378	2914.94
972.679	2915.16
972.98	2930.53
973.281	2908.84
973.582	2852.11
973.883	2827.71
974.183	2848.05
974.484	2862.06
974.785	2812.57
975.085	2813.47
975.386	2812.12
975.686	2815.73
975.986	2792.23
976.287	2768.95
976.587	2730.99
976.887	2707.71
977.187	2736.19
977.487	2720.14
977.787	2713.13
978.087	2715.39
978.387	2682.63
978.687	2685.11
978.987	2678.11
979.286	2619.8
979.586	2638.33
979.885	2632.69
980.185	2602.4
980.484	2595.62
980.784	2589.3
981.083	2603.08
981.382	2606.47
981.682	2559.47
981.981	2549.52
982.28	2527.6
982.579	2518.56
982.878	2512.46
983.177	2520.15
983.475	2515.4
983.774	2493.93
984.073	2473.37
984.372	2445.8
984.67	2416.42
984.969	2438.57
985.267	2466.59
985.566	2431.56
985.864	2415.97
986.162	2405.35
986.461	2422.52
986.759	2375.97
987.057	2379.58
987.355	2325.57
987.653	2356.53
987.951	2348.17
988.249	2337.33
988.547	2336.2
988.844	2318.12
989.142	2276.54
989.44	2290.77
989.737	2267.5
990.035	2289.87
990.332	2245.58
990.63	2253.49
990.927	2240.15
991.224	2261.62
991.521	2199.48
991.819	2235.63
992.116	2208.74
992.413	2199.93
992.71	2146.82
993.006	2159.25
993.303	2148.63
993.6	2157.44
993.897	2135.07
994.193	2141.17
994.49	2105.24
994.787	2110.89
995.083	2089.2
995.379	2084
995.676	2074.06
995.972	2083.55
996.268	2080.61
996.565	2039.25
996.861	2041.74
997.157	2025.02
997.453	2036.77
997.749	2009.88
998.044	2008.97
998.34	1995.19
998.636	2008.75
998.932	1962.19
999.227	1943.89
999.523	1961.52
999.818	1914.51
1000.114	1938.92
1000.409	1926.71
1000.704	1904.12
1001	1896.43
1001.295	1862.99
1001.59	1884.91
1001.885	1897.56
1002.18	1859.37
1002.475	1832.25
1002.77	1833.61
1003.065	1800.39
1003.359	1846.27
1003.654	1814.4
1003.949	1811.92
1004.243	1767.17
1004.538	1793.84
1004.832	1779.6
1005.127	1774.85
1005.421	1768.98
1005.715	1760.84
1006.009	1728.3
1006.304	1738.25
1006.598	1713.16
1006.892	1703.67
1007.186	1702.31
1007.48	1716.32
1007.773	1720.39
1008.067	1663.67
1008.361	1668.19
1008.655	1644.91
1008.948	1655.99
1009.242	1628.42
1009.535	1644.24
1009.829	1614.18
1010.122	1621.64
1010.415	1602.2
1010.708	1580.74
1011.001	1598.14
1011.295	1566.5
1011.588	1566.72
1011.881	1545.93
1012.173	1560.17
1012.466	1540.96
1012.759	1543.22
1013.052	1531.25
1013.344	1503.22
1013.637	1498.25
1013.93	1482.66
1014.222	1482.66
1014.514	1486.5
1014.807	1485.6
1015.099	1460.06
1015.391	1460.06
1015.683	1459.16
1015.976	1453.96
1016.268	1435.43
1016.56	1402.21
1016.851	1422.1
1017.143	1389.55
1017.435	1399.95
1017.727	1380.97
1018.018	1362.44
1018.31	1347.75
1018.602	1357.92
1018.893	1358.82
1019.185	1337.13
1019.476	1352.49
1019.767	1312.04
1020.058	1321.08
1020.35	1307.52
1020.641	1315.21
1020.932	1288.77
1021.223	1296.22
1021.514	1256.68
1021.804	1249.22
1022.095	1238.37
1022.386	1239.73
1022.677	1228.88
1022.967	1219.16
1023.258	1222.55
1023.548	1227.98
1023.839	1224.59
1024.129	1225.49
1024.419	1175.77
1024.709	1193.17
1025	1176.23
1025.29	1188.43
1025.58	1168.77
1025.87	1156.34
1026.16	1162.44
1026.449	1156.11
1026.739	1133.97
1027.029	1143.68
1027.319	1129.9
1027.608	1099.39
1027.898	1108.21
1028.187	1124.02
1028.477	1123.8
1028.766	1096.91
1029.055	1092.61
1029.344	1085.16
1029.634	1060.07
1029.923	1067.3
1030.212	1050.13
1030.501	1094.19
1030.79	1050.81
1031.078	1039.96
1031.367	1024.37
1031.656	1001.77
1031.945	1023.91
1032.233	1019.85
1032.522	1030.47
1032.81	985.95
1033.099	1000.19
1033.387	1006.97
1033.675	996.34
1033.963	980.3
1034.251	957.25
1034.54	962.9
1034.828	984.59
1035.116	969.23
1035.403	925.61
1035.691	959.96
1035.979	943.69
1036.267	911.37
1036.554	940.07
1036.842	911.15
1037.129	900.75
1037.417	927.42
1037.704	889.45
1037.992	872.73
1038.279	907.08
1038.566	884.71
1038.853	884.71
1039.14	884.71
