Data from hue_120_FLMS001491_00017.txt Node
Date: Tue Feb 07 16:59:00 GMT 2017
User: dcchb
Spectrometer: FLMS00149
Trigger mode: 0
Integration Time (sec): 2.000000E-2
Scans to average: 10
Electric dark correction enabled: true
Nonlinearity correction enabled: false
Boxcar width: 0
XAxis mode: Wavelengths
Number of Pixels in Spectrum: 2048
>>>>>Begin Spectral Data<<<<<
341.393	-10.04
341.776	-10.04
342.16	-10.04
342.543	-84.84
342.927	-54.79
343.31	-61.11
343.693	-57.95
344.077	-44.39
344.46	-44.39
344.843	-67.22
345.226	-51.85
345.61	-43.26
345.993	-20.66
346.376	-15.69
346.759	5.78
347.142	38.77
347.525	25.89
347.908	49.62
348.291	84.64
348.674	90.97
349.057	110.86
349.44	129.16
349.823	153.34
350.206	175.04
350.588	194.7
350.971	209.16
351.354	222.27
351.737	232.44
352.119	242.61
352.502	269.05
352.884	280.35
353.267	260.69
353.65	294.13
354.032	285.09
354.414	312.44
354.797	309.72
355.179	327.58
355.562	322.15
355.944	353.56
356.326	335.94
356.709	329.38
357.091	316.5
357.473	347.91
357.855	339.33
358.238	320.12
358.62	359.44
359.002	341.81
359.384	333.45
359.766	339.33
360.148	329.84
360.53	369.83
360.912	354.69
361.294	333.23
361.676	332.32
362.057	340.68
362.439	328.03
362.821	334.36
363.203	316.73
363.584	321.93
363.966	320.34
364.348	328.71
364.729	318.54
365.111	323.73
365.493	328.25
365.874	329.38
366.256	307.92
366.637	316.5
367.019	315.83
367.4	342.04
367.781	316.73
368.163	305.88
368.544	301.36
368.925	318.54
369.306	316.05
369.688	316.73
370.069	316.95
370.45	317.86
370.831	304.07
371.212	298.2
371.593	303.4
371.974	321.7
372.355	333.23
372.736	303.17
373.117	318.08
373.498	322.15
373.879	328.25
374.26	314.24
374.641	325.99
375.021	324.64
375.402	339.1
375.783	328.48
376.163	341.59
376.544	334.13
376.925	344.07
377.305	326.45
377.686	314.47
378.066	336.84
378.447	335.26
378.827	325.99
379.208	329.16
379.588	334.36
379.968	331.42
380.349	345.88
380.729	331.64
381.109	349.27
381.489	349.04
381.87	335.71
382.25	334.81
382.63	350.17
383.01	350.63
383.39	356.28
383.77	327.8
384.15	343.85
384.53	350.17
384.91	349.95
385.29	346.56
385.67	358.76
386.049	374.13
386.429	381.13
386.809	361.47
387.189	368.7
387.568	360.34
387.948	368.48
388.328	368.48
388.707	359.44
389.087	398.31
389.466	389.5
389.846	391.08
390.225	379.78
390.605	357.18
390.984	374.13
391.363	369.83
391.743	395.82
392.122	404.41
392.501	382.94
392.881	396.73
393.26	404.18
393.639	406.44
394.018	392.89
394.397	367.35
394.776	401.25
395.155	402.38
395.534	370.74
395.913	409.61
396.292	385.43
396.671	398.08
397.05	404.64
397.429	382.49
397.808	400.34
398.186	435.82
398.565	426.78
398.944	422.49
399.323	420.23
399.701	407.35
400.08	415.71
400.458	413.68
400.837	419.1
401.215	419.55
401.594	426.56
401.972	422.71
402.351	442.38
402.729	425.65
403.107	431.08
403.486	440.79
403.864	428.36
404.242	445.99
404.62	439.21
404.999	427.46
405.377	438.53
405.755	440.57
406.133	472.88
406.511	454.35
406.889	472.88
407.267	470.62
407.645	464.07
408.023	448.93
408.401	477.4
408.779	459.1
409.156	458.87
409.534	487.12
409.912	468.59
410.29	479.66
410.667	514.24
411.045	499.1
411.422	496.61
411.8	498.87
412.178	523.96
412.555	481.47
412.933	528.7
413.31	497.74
413.687	520.57
414.065	515.37
414.442	525.99
414.819	520.79
415.197	542.26
415.574	526.67
415.951	546.33
416.328	543.84
416.705	554.24
417.082	545.2
417.46	555.59
417.837	537.74
418.214	538.87
418.591	551.53
418.967	564.18
419.344	547.68
419.721	548.14
420.098	557.85
420.475	565.08
420.852	554.91
421.228	560.56
421.605	582.71
421.982	591.52
422.358	587.91
422.735	607.79
423.111	599.21
423.488	590.17
423.864	599.66
424.241	630.84
424.617	613.22
424.994	641.92
425.37	608.25
425.746	616.61
426.123	613.22
426.499	631.97
426.875	683.95
427.251	647.57
427.627	642.6
428.003	665.19
428.379	662.26
428.756	684.63
429.132	697.96
429.507	685.76
429.883	700.67
430.259	688.02
430.635	715.36
431.011	694.12
431.387	719.2
431.763	714.23
432.138	711.52
432.514	734.12
432.89	737.28
433.265	747
433.641	760.79
434.016	771.86
434.392	765.98
434.767	787.23
435.143	791.52
435.518	802.37
435.894	779.09
436.269	822.48
436.644	810.73
437.02	820.44
437.395	823.83
437.77	839.43
438.145	851.4
438.52	838.52
438.895	848.69
439.271	854.12
439.646	861.12
440.021	872.19
440.395	869.93
440.77	853.44
441.145	879.2
441.52	913.78
441.895	911.74
442.27	913.32
442.645	911.74
443.019	913.78
443.394	921.01
443.769	940.89
444.143	919.88
444.518	958.97
444.892	937.28
445.267	947.22
445.641	958.29
446.016	960.78
446.39	943.15
446.764	997.39
447.139	952.64
447.513	996.71
447.887	998.97
448.262	970.05
448.636	1003.49
449.01	1021.57
449.384	1013.21
449.758	1026.09
450.132	1035.58
450.506	1039.42
450.88	1052.53
451.254	1060.21
451.628	1077.16
452.002	1080.55
452.376	1067.44
452.75	1082.13
453.123	1090.27
453.497	1110.38
453.871	1134.79
454.244	1154.9
454.618	1149.48
454.992	1182.69
455.365	1172.98
455.739	1185.41
456.112	1222.02
456.486	1226.99
456.859	1237.61
457.232	1268.79
457.606	1253.65
457.979	1238.06
458.352	1295.01
458.725	1301.79
459.099	1308.34
459.472	1325.52
459.845	1392.41
460.218	1385.4
460.591	1375.01
460.964	1369.13
461.337	1425.4
461.71	1414.78
462.083	1456.13
462.456	1483.93
462.829	1462.46
463.201	1529.13
463.574	1531.39
463.947	1519.86
464.32	1567.09
464.692	1620.65
465.065	1589.46
465.438	1615.68
465.81	1662.46
466.183	1684.15
466.555	1717.14
466.928	1714.66
467.3	1714.66
467.672	1758.05
468.045	1806.41
468.417	1786.07
468.789	1816.8
469.161	1881.43
469.534	1899.06
469.906	1944.03
470.278	1990.81
470.65	2000.3
471.022	2013.86
471.394	2058.15
471.766	2076.91
472.138	2112.61
472.51	2206.62
472.882	2249.33
473.253	2264.93
473.625	2321.2
473.997	2385.83
474.369	2388.99
474.74	2469.89
475.112	2506.5
475.484	2596.44
475.855	2665.59
476.227	2685.25
476.598	2778.81
476.97	2801.41
477.341	2901.29
477.713	2988.07
478.084	3066.49
478.455	3100.61
478.827	3186.03
479.198	3306.03
479.569	3352.81
479.94	3456.08
480.311	3543.31
480.682	3638.68
481.053	3722.29
481.424	3873.92
481.795	3926.13
482.166	4025.78
482.537	4075.73
482.908	4245.44
483.279	4321.37
483.65	4452.44
484.021	4600.68
484.391	4649.72
484.762	4802.94
485.133	4882.48
485.503	4978.53
485.874	5204.96
486.244	5244.06
486.615	5454.9
486.985	5524.5
487.356	5679.53
487.726	5859.41
488.097	5902.57
488.467	6067.31
488.837	6237.03
489.207	6371.03
489.578	6518.6
489.948	6649.9
490.318	6756.79
490.688	6914.07
491.058	7065.93
491.428	7218.92
491.798	7342.53
492.168	7538.91
492.538	7640.83
492.908	7803.09
493.278	7938.22
493.648	8018.22
494.017	8181.83
494.387	8427.02
494.757	8555.38
495.126	8645.32
495.496	8769.84
495.866	8877.63
496.235	9031.53
496.605	9115.82
496.974	9196.5
497.344	9367.34
497.713	9465.41
498.082	9629.48
498.452	9815.69
498.821	9793.32
499.19	9967.55
499.559	10054.78
499.928	10221.78
500.298	10401.44
500.667	10485.95
501.036	10435.56
501.405	10620.19
501.774	10675.1
502.143	10914.19
502.512	10982.21
502.88	11067.63
503.249	11141.3
503.618	11144.47
503.987	11265.37
504.356	11357.34
504.724	11440.05
505.093	11463.55
505.462	11603.89
505.83	11651.12
506.199	11757.11
506.567	11952.81
506.936	11972.92
507.304	12063.09
507.672	12130.88
508.041	12249.3
508.409	12265.57
508.777	12409.74
509.145	12547.59
509.514	12449.97
509.882	12627.82
510.25	12618.55
510.618	12703.97
510.986	12744.42
511.354	12881.37
511.722	12979.67
512.09	13145.77
512.458	13051.08
512.826	13113.91
513.193	13204.07
513.561	13243.39
513.929	13287.46
514.297	13393.45
514.664	13500.79
515.032	13492.65
515.4	13509.83
515.767	13571.75
516.135	13643.84
516.502	13595.7
516.869	13795.02
517.237	13815.36
517.604	13733.1
517.972	13896.94
518.339	13879.54
518.706	13934.22
519.073	13953.66
519.44	14051.06
519.808	14233.43
520.175	14051.28
520.542	14272.07
520.909	14302.58
521.276	14287.21
521.643	14390.03
522.009	14419.63
522.376	14417.38
522.743	14436.58
523.11	14550.25
523.477	14728.1
523.843	14599.52
524.21	14691.04
524.577	14868.89
524.943	14872.05
525.31	14880.41
525.676	14980.07
526.043	14949.11
526.409	14999.05
526.776	15094.42
527.142	15063.01
527.508	15146.62
527.874	15154.08
528.241	15188.88
528.607	15178.94
528.973	15247.18
529.339	15135.1
529.705	15347.52
530.071	15350.23
530.437	15347.07
530.803	15279.73
531.169	15393.62
531.535	15237.01
531.901	15334.64
532.267	15297.13
532.632	15431.36
532.998	15348.88
533.364	15371.93
533.73	15415.32
534.095	15477.91
534.461	15466.16
534.826	15346.62
535.192	15333.06
535.557	15445.37
535.923	15379.16
536.288	15362.21
536.653	15420.06
537.019	15319.05
537.384	15219.16
537.749	15306.84
538.114	15229.11
538.479	15274.3
538.845	15277.47
539.21	15105.27
539.575	15131.25
539.94	15135.77
540.305	15172.38
540.67	15180.74
541.034	15118.15
541.399	15203.57
541.764	15112.72
542.129	15050.8
542.494	15067.08
542.858	15049.67
543.223	15025.04
543.587	14967.87
543.952	14905.5
544.316	14964.03
544.681	14839.06
545.045	14831.83
545.41	14885.39
545.774	14793.64
546.138	14780.3
546.503	14760.87
546.867	14749.57
547.231	14771.26
547.595	14747.08
547.959	14746.18
548.324	14605.62
548.688	14576.24
549.052	14669.12
549.416	14567.43
549.779	14578.5
550.143	14534.89
550.507	14638.84
550.871	14525.62
551.235	14491.95
551.599	14528.33
551.962	14481.55
552.326	14393.42
552.689	14461.22
553.053	14334.21
553.417	14372.63
553.78	14442.91
554.143	14406.53
554.507	14316.36
554.87	14352.97
555.234	14397.04
555.597	14365.17
555.96	14277.49
556.323	14383.7
556.686	14258.74
557.05	14353.87
557.413	14326.3
557.776	14310.71
558.139	14213.99
558.502	14303.48
558.865	14267.32
559.228	14368.11
559.59	14402.23
559.953	14375.12
560.316	14333.31
560.679	14319.98
561.041	14351.39
561.404	14428.67
561.767	14372.4
562.129	14308.9
562.492	14441.1
562.854	14456.7
563.217	14369.01
563.579	14415.12
563.941	14482.46
564.304	14482.68
564.666	14476.81
565.028	14501.44
565.39	14500.99
565.753	14558.84
566.115	14480.88
566.477	14529.24
566.839	14524.94
567.201	14665.05
567.563	14614.66
567.925	14657.14
568.287	14666.41
568.648	14724.71
569.01	14698.72
569.372	14774.88
569.734	14667.76
570.095	14760.42
570.457	14789.57
570.819	14868.21
571.18	14830.92
571.542	14830.7
571.903	14793.41
572.265	14888.1
572.626	14904.37
572.987	14938.94
573.349	14899.4
573.71	14935.1
574.071	15047.64
574.432	14987.98
574.794	15004.93
575.155	15007.87
575.516	14958.83
575.877	14979.85
576.238	15046.96
576.599	15056.23
576.96	14973.74
577.32	15016.23
577.681	15014.42
578.042	15039.96
578.403	15071.6
578.763	15041.77
579.124	15117.47
579.485	15044.25
579.845	15132.61
580.206	15059.39
580.566	15164.02
580.927	15065.95
581.287	15109.79
581.648	15032.95
582.008	15154.3
582.368	15121.09
582.728	15105.04
583.089	15117.92
583.449	15082.89
583.809	15153.85
584.169	15104.59
584.529	15018.72
584.889	15110.92
585.249	15018.49
585.609	14971.26
585.969	15053.52
586.329	15088.77
586.688	14951.37
587.048	15018.72
587.408	14964.93
587.768	14933.07
588.127	14935.55
588.487	14913.63
588.846	14947.3
589.206	14885.84
589.565	14906.4
589.925	14945.04
590.284	14882.9
590.643	14893.52
591.003	14821.66
591.362	14973.07
591.721	14878.38
592.08	14841.54
592.44	14948.43
592.799	14951.6
593.158	14882.67
593.517	14794.31
593.876	14850.81
594.235	14878.15
594.593	14828.66
594.952	14938.49
595.311	14778.5
595.67	14855.56
596.029	14914.09
596.387	14897.59
596.746	14964.48
597.104	14826.86
597.463	14799.29
597.822	14856.69
598.18	14798.61
598.538	14740.76
598.897	14838.61
599.255	14736.69
599.613	14909.79
599.972	14786.63
600.33	14873.63
600.688	14706.63
601.046	14845.84
601.404	14827.31
601.762	14877.48
602.12	14913.63
602.478	14887.42
602.836	14952.5
603.194	14856.91
603.552	14846.97
603.91	14827.76
604.268	14803.13
604.625	14801.09
604.983	14847.65
605.341	14864.14
605.698	14832.96
606.056	14807.2
606.413	14836.12
606.771	14842.67
607.128	14904.14
607.485	14952.5
607.843	14842.67
608.2	14945.72
608.557	14868.21
608.914	14890.58
609.272	15004.7
609.629	14998.6
609.986	14997.25
610.343	14943.46
610.7	15091.71
611.057	14958.15
611.414	14993.86
611.771	15031.6
612.127	15144.14
612.484	15016.46
612.841	15139.62
613.198	15025.27
613.554	15058.49
613.911	15166.06
614.267	15084.48
614.624	15128.99
614.98	15146.62
615.337	15165.15
615.693	15118.83
616.05	15118.83
616.406	15114.08
616.762	15177.58
617.118	15184.59
617.475	15186.85
617.831	15196.56
618.187	15272.27
618.543	15225.04
618.899	15343.23
619.255	15270.91
619.611	15300.06
619.967	15334.19
620.323	15357.92
620.678	15242.21
621.034	15249.9
621.39	15286.05
621.746	15213.51
622.101	15385.49
622.457	15204.25
622.812	15324.02
623.168	15277.24
623.523	15218.03
623.879	15287.18
624.234	15241.31
624.589	15365.15
624.945	15294.87
625.3	15267.52
625.655	15401.76
626.01	15338.03
626.365	15390.23
626.72	15304.81
627.075	15231.82
627.43	15341.64
627.785	15258.48
628.14	15388.42
628.495	15330.35
628.85	15307.07
629.205	15209.22
629.559	15275.88
629.914	15225.94
630.269	15233.62
630.623	15144.36
630.978	15119.96
631.332	15154.3
631.687	15289.89
632.041	15157.92
632.396	15227.98
632.75	15124.7
633.104	15109.33
633.459	15095.32
633.813	15136.68
634.167	15008.77
634.521	15044.03
634.875	15121.09
635.229	15072.05
635.583	14975.78
635.937	14945.95
636.291	15093.97
636.645	14943.24
636.999	14950.92
637.352	14899.85
637.706	14934.65
638.06	14872.05
638.413	14857.14
638.767	14794.99
639.121	14849.23
639.474	14860.3
639.828	14840.87
640.181	14785.73
640.534	14873.63
640.888	14736.69
641.241	14683.36
641.594	14703.24
641.947	14766.07
642.301	14677.48
642.654	14728.1
643.007	14722.9
643.36	14745.95
643.713	14581.21
644.066	14705.05
644.419	14603.13
644.771	14523.14
645.124	14377.38
645.477	14376.25
645.83	14380.09
646.182	14230.49
646.535	14120.89
646.888	14161.79
647.24	14015.13
647.593	14170.38
647.945	14185.29
648.298	14104.84
648.65	14090.38
649.002	14112.07
649.355	14151.62
649.707	14141.68
650.059	14226.65
650.411	14392.97
650.763	14293.31
651.115	14470.93
651.467	14416.02
651.819	14464.15
652.171	14466.64
652.523	14358.39
652.875	14446.3
653.227	14328.34
653.578	14467.77
653.93	14462.57
654.282	14426.87
654.633	14375.34
654.985	14433.87
655.337	14414.44
655.688	14457.6
656.039	14470.03
656.391	14423.25
656.742	14464.38
657.094	14297.38
657.445	14380.54
657.796	14467.77
658.147	14387.55
658.498	14434.32
658.849	14452.85
659.2	14430.03
659.551	14512.29
659.902	14468.22
660.253	14427.54
660.604	14433.87
660.955	14306.19
661.306	14383.03
661.656	14405.62
662.007	14471.61
662.358	14418.96
662.708	14510.71
663.059	14491.72
663.409	14366.3
663.76	14518.62
664.11	14520.2
664.461	14539.41
664.811	14515.45
665.161	14465.51
665.511	14398.62
665.862	14452.85
666.212	14457.6
666.562	14547.54
666.912	14480.2
667.262	14451.5
667.612	14503.25
667.962	14504.38
668.312	14418.05
668.662	14538.73
669.011	14540.99
669.361	14392.74
669.711	14475.23
670.06	14363.37
670.41	14358.85
670.76	14347.09
671.109	14445.62
671.459	14401.33
671.808	14374.44
672.157	14440.43
672.507	14378.96
672.856	14335.57
673.205	14325.4
673.554	14437.49
673.904	14274.78
674.253	14351.16
674.602	14349.81
674.951	14136.03
675.3	14100.55
675.649	14298.73
675.998	14219.87
676.346	14263.03
676.695	14300.32
677.044	14202.69
677.393	14187.1
677.741	14190.49
678.09	14177.83
678.438	14155.01
678.787	14165.18
679.135	14226.65
679.484	14028.91
679.832	14109.36
680.181	14002.7
680.529	14133.99
680.877	13963.83
681.225	13945.3
681.573	14089.02
681.922	13949.14
682.27	13889.03
682.618	13931.96
682.966	13899.65
683.314	13884.96
683.661	13810.16
684.009	13717.96
684.357	13743.72
684.705	13719.99
685.053	13724.06
685.4	13707.79
685.748	13646.32
686.095	13638.64
686.443	13599.32
686.79	13411.75
687.138	13578.53
687.485	13579.21
687.832	13537.62
688.18	13536.72
688.527	13391.87
688.874	13400.45
689.221	13326.56
689.568	13284.98
689.915	13315.71
690.262	13294.47
690.609	13214.02
690.956	13163.17
691.303	13150.29
691.65	13077.3
691.997	13044.98
692.344	13053.57
692.69	13000.69
693.037	12958.66
693.383	12797.98
693.73	12908.26
694.077	12771.32
694.423	12802.95
694.769	12734.71
695.116	12721.37
695.462	12741.26
695.808	12656.29
696.155	12639.57
696.501	12539.68
696.847	12580.59
697.193	12521.15
697.539	12464.66
697.885	12350.99
698.231	12350.99
698.577	12310.54
698.923	12289.52
699.269	12225.57
699.614	12198.45
699.96	12098.79
700.306	12038
700.651	12002.52
700.997	11961.62
701.342	11906.93
701.688	11870.32
702.033	11898.12
702.379	11854.73
702.724	11802.53
703.069	11823.32
703.415	11708.52
703.76	11666.26
704.105	11721.85
704.45	11606.38
704.795	11531.12
705.14	11506.72
705.485	11493.16
705.83	11448.64
706.175	11467.85
706.52	11391.01
706.865	11329.77
707.209	11349.89
707.554	11325.93
707.899	11255.88
708.243	11237.12
708.588	11246.61
708.932	11175.43
709.277	11124.13
709.621	11138.14
709.966	11017.92
710.31	11137.01
710.654	11016.56
710.998	10955.09
711.342	10969.1
711.687	10937.01
712.031	10873.97
712.375	10780.41
712.719	10952.16
713.063	10825.83
713.407	10923.46
713.75	10800.75
714.094	10816.57
714.438	10790.35
714.782	10770.92
715.125	10705.83
715.469	10721.88
715.812	10636.46
716.156	10612.5
716.499	10636.23
716.843	10596.01
717.186	10533.64
717.53	10633.75
717.873	10621.09
718.216	10540.87
718.559	10507.87
718.902	10396.46
719.246	10447.31
719.589	10494.54
719.932	10440.76
720.275	10453.41
720.617	10415.9
720.96	10377.93
721.303	10360.08
721.646	10476.01
721.989	10328.67
722.331	10332.06
722.674	10369.57
723.016	10348.1
723.359	10355.34
723.701	10355.34
724.044	10232.85
724.386	10225.62
724.729	10294.32
725.071	10232.4
725.413	10210.25
725.755	10233.53
726.097	10305.17
726.439	10154.44
726.782	10139.07
727.124	10198.05
727.465	10142.23
727.807	10179.07
728.149	10182.01
728.491	10130.48
728.833	10150.59
729.175	10108.79
729.516	10138.62
729.858	10061.78
730.199	10084.61
730.541	10055
730.882	10044.83
731.224	10057.49
731.565	10012.52
731.906	10007.55
732.248	10029.24
732.589	10056.36
732.93	9933.43
733.271	10047.55
733.612	10064.5
733.953	10094.55
734.294	10022.46
734.635	10012.07
734.976	10049.13
735.317	10041.67
735.658	10031.28
735.999	10029.69
736.339	10100.2
736.68	10023.37
737.021	10028.34
737.361	9968.9
737.702	10135.23
738.042	9970.49
738.383	10002.35
738.723	10022.91
739.063	10057.72
739.404	10061.56
739.744	10124.83
740.084	10093.42
740.424	10092.52
740.764	10073.31
741.104	10094.32
741.444	10049.81
741.784	10103.59
742.124	10134.55
742.464	10131.61
742.804	10155.57
743.143	10148.79
743.483	10254.77
743.823	10142.46
744.162	10225.17
744.502	10321.21
744.841	10266.75
745.181	10367.09
745.52	10309.01
745.86	10420.64
746.199	10441.21
746.538	10468.1
746.877	10540.87
747.216	10589
747.556	10598.72
747.895	10644.59
748.234	10683.24
748.573	10661.99
748.911	10687.53
749.25	10861.76
749.589	10868.54
749.928	10961.65
750.267	10996.45
750.605	11126.39
750.944	11107.86
751.283	11193.51
751.621	11264.46
751.96	11331.35
752.298	11476.89
752.636	11551.91
752.975	11593.04
753.313	11652.93
753.651	11844.34
753.989	11801.4
754.327	11868.74
754.666	11986.7
755.004	12203.65
755.342	12344.44
755.679	12420.82
756.017	12529.06
756.355	12730.19
756.693	12787.59
757.031	12953.91
757.368	13123.17
757.706	13262.6
758.044	13311.64
758.381	13566.55
758.719	13624.18
759.056	13821.46
759.394	13985.52
759.731	14163.82
760.068	14224.39
760.405	14350.03
760.743	14528.33
761.08	14687.65
761.417	14841.32
761.754	15031.37
762.091	15161.31
762.428	15382.32
762.765	15356.79
763.102	15694.86
763.438	15755.65
763.775	15809.2
764.112	16052.81
764.449	16320.15
764.785	16483.99
765.122	16420.03
765.458	16546.36
765.795	16831.77
766.131	16903.64
766.467	17081.26
766.804	17186.57
767.14	17254.36
767.476	17462.04
767.812	17542.49
768.148	17721.92
768.485	17757.85
768.821	17789.04
769.157	18022.7
769.492	18075.13
769.828	18312.41
770.164	18284.39
770.5	18381.34
770.836	18485.97
771.171	18460.21
771.507	18664.04
771.842	18672.18
772.178	18876.92
772.513	18923.25
772.849	18921.89
773.184	19099.96
773.519	19102
773.855	19146.06
774.19	19257.02
774.525	19284.14
774.86	19479.61
775.195	19412.27
775.53	19392.39
775.865	19514.42
776.2	19416.79
776.535	19407.3
776.87	19544.47
777.205	19481.65
777.539	19464.93
777.874	19647.29
778.209	19516.9
778.543	19525.49
778.878	19518.94
779.212	19563
779.547	19584.24
779.881	19675.32
780.215	19464.25
780.55	19713.73
780.884	19582.66
781.218	19633.06
781.552	19581.76
781.886	19639.84
782.22	19593.28
782.554	19636.9
782.888	19507.18
783.222	19521.87
783.556	19548.54
783.889	19583.79
784.223	19338.6
784.557	19381.09
784.89	19370.69
785.224	19412.27
785.557	19313.07
785.891	19389.45
786.224	19472.16
786.558	19351.03
786.891	19159.85
787.224	19113.3
787.557	19197.14
787.891	19287.53
788.224	19159.4
788.557	19160.08
788.89	19167.98
789.223	19206.18
789.556	19141.77
789.888	19052.73
790.221	19039.85
790.554	18984.03
790.887	19039.85
791.219	18842.34
791.552	18723.93
791.884	18675.57
792.217	18719.41
792.549	18660.43
792.882	18640.31
793.214	18593.31
793.546	18566.19
793.879	18462.92
794.211	18336.37
794.543	18506.76
794.875	18394.45
795.207	18510.15
795.539	18501.34
795.871	18476.03
796.203	18325.29
796.535	18202.36
796.867	18116.49
797.198	18124.85
797.53	18166.43
797.862	18025.87
798.193	18051.86
798.525	17895.7
798.856	17919.43
799.188	17810.73
799.519	17821.13
799.85	17810.05
800.182	17785.42
800.513	17793.56
800.844	17627.01
801.175	17716.95
801.506	17642.83
801.837	17589.5
802.168	17595.37
802.499	17629.27
802.83	17482.15
803.161	17368.03
803.491	17487.12
803.822	17418.2
804.153	17253.23
804.483	17237.87
804.814	17151.09
805.145	17136.17
805.475	17223.4
805.805	16975.95
806.136	17131.65
806.466	17160.58
806.796	17034.26
807.126	16905.9
807.457	16898.21
807.787	16867.03
808.117	16854.83
808.447	16762.4
808.777	16770.99
809.107	16652.34
809.436	16646.02
809.766	16571.89
810.096	16498
810.426	16497.32
810.755	16491.22
811.085	16502.52
811.414	16557.88
811.744	16308.17
812.073	16306.14
812.403	16385.68
812.732	16215.29
813.061	16245.8
813.39	16173.26
813.719	16145.24
814.049	16269.08
814.378	16158.57
814.707	16096.2
815.036	16066.15
815.365	16009.65
815.693	15895.98
816.022	15872.03
816.351	15877.22
816.68	15828.19
817.008	15841.74
817.337	15754.97
817.665	15637.23
817.994	15658.25
818.322	15689.21
818.651	15636.78
818.979	15601.07
819.307	15702.99
819.636	15581.64
819.964	15487.4
820.292	15582.32
820.62	15534.18
820.948	15576.21
821.276	15559.27
821.604	15541.64
821.932	15562.43
822.259	15473.17
822.587	15513.17
822.915	15451.02
823.243	15516.78
823.57	15405.82
823.898	15481.75
824.225	15424.35
824.553	15475.65
824.88	15386.62
825.207	15470.45
825.535	15443.11
825.862	15504.8
826.189	15400.63
826.516	15518.14
826.843	15479.04
827.17	15536.67
827.497	15598.36
827.824	15474.97
828.151	15589.1
828.478	15505.26
828.805	15489.66
829.131	15483.79
829.458	15457.57
829.785	15388.2
830.111	15419.16
830.438	15458.03
830.764	15482.88
831.09	15574.41
831.417	15365.37
831.743	15493.28
832.069	15445.82
832.395	15273.85
832.722	15433.39
833.048	15316.11
833.374	15415.09
833.7	15339.84
834.026	15478.59
834.351	15519.72
834.677	15359.05
835.003	15347.97
835.329	15384.13
835.654	15333.06
835.98	15253.74
836.306	15313.17
836.631	15262.32
836.956	15323.34
837.282	15371.93
837.607	15253.51
837.932	15172.84
838.258	15244.25
838.583	15172.16
838.908	15054.19
839.233	15122.22
839.558	15055.32
839.883	14889.91
840.208	14982.78
840.533	15067.53
840.858	14954.76
841.182	14929.68
841.507	14900.75
841.832	14820.3
842.156	14865.72
842.481	14860.3
842.805	14744.82
843.13	14762
843.454	14757.71
843.778	14636.8
844.103	14650.14
844.427	14664.6
844.751	14650.82
845.075	14543.47
845.399	14440.65
845.723	14406.08
846.047	14367.88
846.371	14359.07
846.695	14241.79
847.019	14153.65
847.343	14160.43
847.666	14104.62
847.99	14032.53
848.313	13997.27
848.637	14031.85
848.96	13989.14
849.284	13831.4
849.607	13824.62
849.931	13702.82
850.254	13618.07
850.577	13627.79
850.9	13480
851.223	13588.24
851.546	13541.01
851.869	13296.05
852.192	13536.95
852.515	13279.55
852.838	13233
853.161	13258.31
853.483	13206.33
853.806	13114.58
854.129	13078.65
854.451	12988.49
854.774	12935.15
855.096	12893.8
855.419	12908.71
855.741	12894.25
856.063	12769.51
856.385	12810.19
856.708	12677.08
857.03	12708.27
857.352	12734.71
857.674	12721.37
857.996	12672.34
858.318	12576.97
858.64	12563.41
858.961	12424.66
859.283	12435.73
859.605	12376.98
859.926	12355.73
860.248	12356.64
860.57	12366.81
860.891	12273.25
861.212	12225.57
861.534	12163.88
861.855	12175.17
862.176	12238
862.498	12172.69
862.819	12140.6
863.14	12158
863.461	12102.86
863.782	12003.65
864.103	12096.76
864.424	11927.5
864.745	12049.98
865.065	11905.58
865.386	11960.49
865.707	11901.96
866.027	11846.14
866.348	11830.1
866.668	11803.43
866.989	11887.5
867.309	11713.27
867.63	11799.82
867.95	11746.94
868.27	11733.6
868.59	11742.64
868.91	11792.36
869.23	11700.38
869.55	11627.62
869.87	11756.88
870.19	11568.18
870.51	11696.77
870.83	11606.15
871.15	11567.05
871.469	11616.54
871.789	11631.69
872.109	11478.24
872.428	11488.19
872.748	11516.43
873.067	11512.82
873.386	11514.17
873.706	11486.83
874.025	11306.72
874.344	11405.7
874.663	11385.14
874.982	11386.95
875.301	11294.29
875.62	11313.95
875.939	11337.46
876.258	11280.96
876.577	11292.26
876.896	11273.73
877.214	11231.24
877.533	11212.49
877.852	11188.31
878.17	11188.76
878.489	11230.79
878.807	11059.95
879.125	11149.44
879.444	11213.39
879.762	11050.68
880.08	11136.78
880.398	11113.28
880.716	11087.07
881.034	11008.65
881.352	10966.17
881.67	10956.22
881.988	11015.66
882.306	10929.33
882.624	10868.77
882.941	10846.62
883.259	10756.68
883.577	10765.49
883.894	10811.14
884.212	10744.7
884.529	10800.97
884.846	10694.99
885.164	10743.35
885.481	10636.46
885.798	10688.66
886.115	10616.35
886.432	10617.02
886.75	10609.34
887.067	10555.33
887.383	10559.17
887.7	10550.58
888.017	10433.07
888.334	10438.95
888.651	10451.15
888.967	10363.02
889.284	10346.3
889.6	10302.46
889.917	10232.17
890.233	10219.07
890.55	10203.93
890.866	10215.68
891.182	10187.66
891.498	10163.25
891.815	10161.67
892.131	10048.22
892.447	10048.22
892.763	10033.31
893.079	9999.41
893.395	9963.25
893.71	9903.37
894.026	9882.81
894.342	9829.02
894.657	9758.06
894.973	9796.71
895.289	9839.42
895.604	9798.74
895.92	9696.14
896.235	9676.26
896.55	9625.64
896.865	9597.84
897.181	9601
897.496	9572.3
897.811	9580.21
898.126	9507
898.441	9440.33
898.756	9435.13
899.071	9370.95
899.386	9348.81
899.7	9294.8
900.015	9296.61
900.33	9201.69
900.644	9249.38
900.959	9161.02
901.273	9152.43
901.588	9099.32
901.902	9013.9
902.216	9053
902.531	9034.92
902.845	9032.88
903.159	8968.93
903.473	8844.64
903.787	8881.02
904.101	8858.43
904.415	8773.68
904.729	8756.51
905.042	8766.45
905.356	8712.67
905.67	8672.89
905.984	8619.56
906.297	8598.55
906.611	8588.15
906.924	8560.58
907.237	8542.95
907.551	8503.63
907.864	8453.24
908.177	8403.97
908.491	8424.76
908.804	8335.05
909.117	8280.59
909.43	8242.85
909.743	8234.94
910.056	8207.37
910.368	8133.7
910.681	8097.09
910.994	8076.52
911.307	8074.04
911.619	8043.08
911.932	8068.39
912.244	7958.79
912.557	7967.83
912.869	7920.82
913.181	7911.11
913.494	7846.47
913.806	7853.71
914.118	7833.14
914.43	7688.96
914.742	7746.59
915.054	7701.39
915.366	7718.57
915.678	7631.34
915.99	7576.43
916.302	7522.42
916.613	7501.17
916.925	7471.12
917.236	7481.74
917.548	7468.86
917.859	7414.85
918.171	7355.87
918.482	7328.97
918.794	7292.59
919.105	7334.17
919.416	7195.64
919.727	7195.64
920.038	7233.61
920.349	7139.6
920.66	7150.45
920.971	7117.45
921.282	7102.09
921.593	7013.28
921.903	7018.47
922.214	6986.38
922.525	6932.83
922.835	6886.95
923.146	6916.56
923.456	6874.97
923.767	6841.53
924.077	6835.2
924.387	6768.08
924.697	6750.91
925.008	6721.98
925.318	6702.1
925.628	6725.15
925.938	6672.04
926.248	6665.26
926.558	6585.49
926.867	6578.71
927.177	6540.52
927.487	6499.39
927.796	6441.99
928.106	6480.41
928.416	6372.16
928.725	6431.6
929.034	6369.68
929.344	6407.64
929.653	6290.58
929.962	6261.43
930.271	6239.96
930.581	6283.13
930.89	6170.81
931.199	6188.21
931.508	6173.75
931.817	6163.81
932.125	6097.14
932.434	6090.81
932.743	6037.71
933.051	6026.86
933.36	6050.14
933.669	6013.3
933.977	5916.36
934.286	5919.29
934.594	5893.98
934.902	5900.08
935.21	5856.02
935.519	5872.97
935.827	5866.64
936.135	5757.49
936.443	5760.88
936.751	5739.41
937.059	5713.88
937.367	5702.35
937.674	5654.44
937.982	5632.75
938.29	5592.75
938.597	5627.32
938.905	5570.38
939.213	5565.86
939.52	5513.65
939.827	5528.8
940.135	5506.42
940.442	5496.93
940.749	5451.51
941.056	5431.17
941.363	5373.55
941.67	5381.23
941.977	5327.44
942.284	5295.13
942.591	5263.27
942.898	5261.91
943.205	5218.52
943.511	5258.97
943.818	5257.62
944.125	5159.09
944.431	5180.1
944.738	5129.26
945.044	5090.84
945.35	5101.01
945.657	5048.13
945.963	5068.69
946.269	5016.27
946.575	5027.79
946.881	4971.52
947.187	5017.4
947.493	4960
947.799	4905.08
948.105	4867.8
948.41	4914.57
948.716	4893.78
949.022	4903.28
949.327	4823.05
949.633	4789.15
949.938	4746.89
950.244	4740.57
950.549	4704.86
950.854	4728.36
951.16	4778.53
951.465	4663.06
951.77	4666.22
952.075	4643.62
952.38	4641.59
952.685	4622.38
952.99	4554.81
953.294	4533.79
953.599	4531.53
953.904	4508.26
954.209	4428.49
954.513	4499.9
954.818	4444.76
955.122	4486.56
955.426	4415.38
955.731	4395.72
956.035	4364.98
956.339	4383.97
956.643	4367.92
956.948	4320.69
957.252	4286.34
957.556	4293.8
957.86	4289.73
958.163	4280.92
958.467	4283.18
958.771	4234.37
959.075	4195.05
959.378	4197.98
959.682	4196.85
959.985	4136.74
960.289	4110.3
960.592	4185.33
960.896	4076.4
961.199	4065.56
961.502	4102.84
961.805	4014.71
962.108	3972.45
962.411	4018.33
962.714	3983.3
963.017	3996.63
963.32	3989.85
963.623	3915.05
963.926	3932.23
964.228	3904.66
964.531	3878.22
964.833	3884.77
965.136	3833.02
965.438	3826.24
965.741	3796.19
966.043	3789.18
966.345	3774.94
966.648	3752.8
966.95	3749.18
967.252	3743.08
967.554	3684.78
967.856	3708.05
968.158	3672.57
968.46	3677.54
968.761	3634.83
969.063	3617.21
969.365	3629.18
969.666	3625.12
969.968	3575.17
970.269	3559.36
970.571	3536.08
970.872	3570.43
971.174	3518.9
971.475	3553.93
971.776	3485.46
972.077	3481.17
972.378	3470.77
972.679	3446.36
972.98	3431.22
973.281	3430.09
973.582	3401.85
973.883	3381.06
974.183	3380.6
974.484	3373.15
974.785	3369.98
975.085	3342.86
975.386	3318.91
975.686	3302.87
975.986	3310.77
976.287	3296.09
976.587	3289.98
976.887	3214.28
977.187	3243.43
977.487	3227.84
977.787	3192.59
978.087	3206.6
978.387	3173.38
978.687	3129.31
978.987	3147.16
979.286	3088.63
979.586	3112.14
979.885	3084.34
980.185	3080.05
980.484	3033.72
980.784	3035.75
981.083	3080.95
981.382	3032.59
981.682	3033.95
981.981	3011.57
982.28	2986.49
982.579	2956.89
982.878	2952.14
983.177	2979.26
983.475	2974.29
983.774	2915.98
984.073	2915.08
984.372	2914.4
984.67	2876.66
984.969	2901.97
985.267	2841.18
985.566	2867.62
985.864	2837.79
986.162	2834.4
986.461	2800.96
986.759	2814.52
987.057	2789.88
987.355	2767.29
987.653	2767.51
987.951	2717.57
988.249	2710.11
988.547	2739.72
988.844	2750.34
989.142	2689.55
989.44	2687.29
989.737	2658.14
990.035	2684.12
990.332	2655.88
990.63	2646.84
990.927	2622.21
991.224	2582.21
991.521	2589.44
991.819	2563.22
992.116	2588.08
992.413	2548.31
992.71	2532.49
993.006	2559.83
993.303	2558.93
993.6	2517.35
993.897	2519.61
994.193	2515.77
994.49	2439.39
994.787	2456.79
995.083	2423.79
995.379	2452.72
995.676	2456.79
995.972	2414.07
996.268	2412.27
996.565	2399.16
996.861	2386.73
997.157	2363.91
997.453	2351.7
997.749	2350.8
998.044	2358.94
998.34	2354.19
998.636	2320.52
998.932	2282.1
999.227	2275.77
999.523	2286.85
999.818	2289.11
1000.114	2286.39
1000.409	2233.29
1000.704	2217.24
1001	2186.96
1001.295	2158.71
1001.59	2186.96
1001.885	2188.77
1002.18	2157.36
1002.475	2167.98
1002.77	2137.25
1003.065	2128.21
1003.359	2070.81
1003.654	2127.53
1003.949	2085.04
1004.243	2092.95
1004.538	2075.55
1004.832	2053.18
1005.127	2045.72
1005.421	2036.68
1005.715	2031.94
1006.009	2022.45
1006.304	2031.03
1006.598	1978.15
1006.892	1984.93
1007.186	1970.7
1007.48	1970.24
1007.773	1952.17
1008.067	1948.55
1008.361	1928.66
1008.655	1897.48
1008.948	1916.91
1009.242	1909.68
1009.535	1902.68
1009.829	1899.74
1010.122	1857.03
1010.415	1851.15
1010.708	1836.46
1011.001	1803.92
1011.295	1826.29
1011.588	1812.28
1011.881	1812.51
1012.173	1791.72
1012.466	1791.49
1012.759	1760.31
1013.052	1781.32
1013.344	1739.29
1013.637	1729.57
1013.93	1749.46
1014.222	1709.69
1014.514	1727.99
1014.807	1691.83
1015.099	1680.08
1015.391	1654.77
1015.683	1674.66
1015.976	1664.94
1016.268	1625.4
1016.56	1607.09
1016.851	1635.79
1017.143	1638.05
1017.435	1618.39
1017.727	1584.27
1018.018	1595.79
1018.31	1582.91
1018.602	1588.56
1018.893	1573.42
1019.185	1532.97
1019.476	1552.18
1019.767	1556.92
1020.058	1526.87
1020.35	1511.27
1020.641	1486.87
1020.932	1517.15
1021.223	1477.38
1021.514	1457.04
1021.804	1439.64
1022.095	1458.62
1022.386	1443.48
1022.677	1434.67
1022.967	1411.84
1023.258	1429.02
1023.548	1406.19
1023.839	1393.99
1024.129	1399.41
1024.419	1401.9
1024.709	1374.78
1025	1348.11
1025.29	1343.14
1025.58	1325.06
1025.87	1308.79
1026.16	1286.65
1026.449	1315.12
1026.739	1277.16
1027.029	1288.23
1027.319	1299.75
1027.608	1268.34
1027.898	1271.96
1028.187	1272.18
1028.477	1263.6
1028.766	1239.42
1029.055	1232.64
1029.344	1248.68
1029.634	1207.78
1029.923	1215.46
1030.212	1226.08
1030.501	1200.32
1030.79	1195.35
1031.078	1201.23
1031.367	1167.33
1031.656	1156.71
1031.945	1141.79
1032.233	1150.38
1032.522	1148.57
1032.81	1116.48
1033.099	1123.26
1033.387	1153.32
1033.675	1106.09
1033.963	1118.97
1034.251	1098.86
1034.54	1134.56
1034.828	1102.7
1035.116	1077.16
1035.403	1053.43
1035.691	1055.92
1035.979	1062.25
1036.267	1035.13
1036.554	1041
1036.842	1052.08
1037.129	1018.18
1037.417	1033.77
1037.704	1014.34
1037.992	1015.92
1038.279	1014.56
1038.566	992.87
1038.853	992.87
1039.14	992.87
