Data from hue_28_FLMS001491_00066.txt Node
Date: Tue Feb 07 17:17:36 GMT 2017
User: dcchb
Spectrometer: FLMS00149
Trigger mode: 0
Integration Time (sec): 2.000000E-2
Scans to average: 10
Electric dark correction enabled: true
Nonlinearity correction enabled: false
Boxcar width: 0
XAxis mode: Wavelengths
Number of Pixels in Spectrum: 2048
>>>>>Begin Spectral Data<<<<<
341.393	-11.96
341.776	-11.96
342.16	-11.96
342.543	-64.16
342.927	-95.8
343.31	-58.52
343.693	-84.73
344.077	-49.93
344.46	-69.59
344.843	-53.54
345.226	-40.44
345.61	-56.26
345.993	-17.39
346.376	0.69
346.759	12.22
347.142	20.13
347.525	42.5
347.908	69.16
348.291	77.53
348.674	97.64
349.057	110.52
349.44	134.93
349.823	145.77
350.206	167.47
350.588	186.9
350.971	218.09
351.354	227.58
351.737	242.49
352.119	260.57
352.502	256.96
352.884	263.74
353.267	279.78
353.65	272.1
354.032	278.2
354.414	306.9
354.797	320.01
355.179	330.17
355.562	316.39
355.944	339.67
356.326	341.25
356.709	334.47
357.091	351.64
357.473	320.23
357.855	333.56
358.238	360.91
358.62	349.84
359.002	337.18
359.384	344.86
359.766	344.86
360.148	360.68
360.53	315.03
360.912	316.39
361.294	326.33
361.676	316.62
362.057	339.67
362.439	317.29
362.821	334.92
363.203	320.46
363.584	317.29
363.966	318.2
364.348	329.72
364.729	317.52
365.111	324.53
365.493	331.08
365.874	315.71
366.256	311.42
366.637	302.15
367.019	305.77
367.4	335.37
367.781	301.7
368.163	323.17
368.544	305.54
368.925	325.43
369.306	314.58
369.688	320.46
370.069	308.48
370.45	319.33
370.831	310.51
371.212	308.48
371.593	304.86
371.974	318.2
372.355	329.5
372.736	314.36
373.117	326.11
373.498	318.2
373.879	324.98
374.26	323.62
374.641	331.76
375.021	305.54
375.402	330.85
375.783	340.34
376.163	326.79
376.544	334.24
376.925	337.18
377.305	332.43
377.686	330.85
378.066	316.39
378.447	328.37
378.827	325.2
379.208	332.21
379.588	324.53
379.968	313.68
380.349	319.55
380.729	328.37
381.109	332.66
381.489	346.9
381.87	331.76
382.25	329.27
382.63	330.63
383.01	342.15
383.39	355.71
383.77	333.11
384.15	331.76
384.53	337.63
384.91	358.65
385.29	343.51
385.67	340.57
386.049	333.79
386.429	356.61
386.809	329.5
387.189	371.76
387.568	343.06
387.948	327.92
388.328	334.69
388.707	348.93
389.087	371.76
389.466	356.61
389.846	362.26
390.225	358.65
390.605	353.23
390.984	350.74
391.363	353
391.743	376.28
392.122	386.22
392.501	384.64
392.881	363.39
393.26	355.94
393.639	378.76
394.018	356.84
394.397	367.91
394.776	382.38
395.155	390.74
395.534	371.98
395.913	392.77
396.292	384.86
396.671	378.31
397.05	367.46
397.429	376.5
397.808	399.33
398.186	387.12
398.565	376.5
398.944	388.03
399.323	370.85
399.701	380.8
400.08	396.84
400.458	408.36
400.837	391.87
401.215	403.39
401.594	401.81
401.972	381.92
402.351	398.87
402.729	410.62
403.107	415.82
403.486	393.68
403.864	421.7
404.242	414.92
404.62	419.44
404.999	414.92
405.377	420.79
405.755	411.98
406.133	424.64
406.511	410.62
406.889	405.88
407.267	429.83
407.645	424.41
408.023	435.48
408.401	422.38
408.779	452.88
409.156	432.32
409.534	462.6
409.912	448.14
410.29	439.78
410.667	449.27
411.045	461.7
411.422	427.57
411.8	463.96
412.178	463.05
412.555	428.03
412.933	459.66
413.31	457.86
413.687	446.1
414.065	454.92
414.442	449.49
414.819	455.82
415.197	494.69
415.574	462.15
415.951	491.53
416.328	480.23
416.705	474.35
417.082	498.53
417.46	478.65
417.837	511.64
418.214	477.97
418.591	501.92
418.967	522.26
419.344	503.05
419.721	514.8
420.098	498.76
420.475	517.06
420.852	515.71
421.228	515.03
421.605	534.01
421.982	535.14
422.358	533.11
422.735	531.3
423.111	524.07
423.488	540.11
423.864	525.65
424.241	549.6
424.617	534.24
424.994	538.76
425.37	549.83
425.746	553.45
426.123	552.54
426.499	540.34
426.875	567.91
427.251	575.14
427.627	590.51
428.003	580.56
428.379	566.33
428.756	577.17
429.132	589.38
429.507	595.7
429.883	581.47
430.259	579.89
430.635	587.57
431.011	603.39
431.387	588.7
431.763	627.57
432.138	624.4
432.514	614.91
432.89	641.35
433.265	617.85
433.641	656.04
434.016	658.3
434.392	647.45
434.767	658.98
435.143	659.43
435.518	674.35
435.894	675.7
436.269	663.05
436.644	691.75
437.02	659.21
437.395	686.78
437.77	698.3
438.145	675.93
438.52	688.36
438.895	705.53
439.271	709.83
439.646	736.04
440.021	725.19
440.395	719.32
440.77	718.64
441.145	722.03
441.52	750.05
441.895	732.2
442.27	746.44
442.645	744.63
443.019	744.18
443.394	741.46
443.769	746.89
444.143	775.59
444.518	747.57
444.892	746.44
445.267	766.77
445.641	784.4
446.016	771.29
446.39	771.97
446.764	770.84
447.139	785.08
447.513	785.98
447.887	808.35
448.262	792.54
448.636	799.54
449.01	790.73
449.384	798.64
449.758	826.21
450.132	800.9
450.506	819.43
450.88	840.67
451.254	820.56
451.628	854.23
452.002	857.84
452.376	860.33
452.75	855.81
453.123	874.57
453.497	865.75
453.871	899.65
454.244	903.49
454.618	903.72
454.992	881.8
455.365	904.62
455.739	912.53
456.112	934.23
456.486	953.89
456.859	946.43
457.232	966.32
457.606	949.82
457.979	966.77
458.352	972.87
458.725	989.37
459.099	988.46
459.472	1017.16
459.845	1004.73
460.218	1028.69
460.591	1042.25
460.964	1037.95
461.337	1050.83
461.71	1061.23
462.083	1098.74
462.456	1103.71
462.829	1090.61
463.201	1101.68
463.574	1126.09
463.947	1141.45
464.32	1132.64
464.692	1148.91
465.065	1171.06
465.438	1190.04
465.81	1189.59
466.183	1216.71
466.555	1236.82
466.928	1241.79
467.3	1241.56
467.672	1259.64
468.045	1291.73
468.417	1288.57
468.789	1311.84
469.161	1315.01
469.534	1350.94
469.906	1355.46
470.278	1377.38
470.65	1388.45
471.022	1436.81
471.394	1439.75
471.766	1475.91
472.138	1470.03
472.51	1485.4
472.882	1518.39
473.253	1561.33
473.625	1574.21
473.997	1595
474.369	1617.6
474.74	1616.02
475.112	1658.05
475.484	1678.16
475.855	1706.86
476.227	1744.83
476.598	1770.82
476.97	1794.09
477.341	1854.65
477.713	1900.08
478.084	1907.08
478.455	1974.2
478.827	1988.21
479.198	2042.9
479.569	2067.3
479.94	2128.55
480.311	2169.22
480.682	2210.58
481.053	2230.92
481.424	2264.36
481.795	2304.81
482.166	2326.05
482.537	2390.69
482.908	2464.36
483.279	2495.99
483.65	2551.81
484.021	2634.07
484.391	2636.78
484.762	2659.83
485.133	2714.52
485.503	2762.88
485.874	2818.02
486.244	2874.06
486.615	2956.09
486.985	2990.22
487.356	3070.89
487.726	3102.76
488.097	3197.44
488.467	3213.71
488.837	3271.34
489.207	3316.76
489.578	3352.92
489.948	3444.22
490.318	3485.8
490.688	3488.96
491.058	3594.95
491.428	3653.7
491.798	3685.11
492.168	3774.15
492.538	3804.43
492.908	3852.12
493.278	3923.98
493.648	3945.22
494.017	3997.2
494.387	4055.5
494.757	4105.44
495.126	4142.28
495.496	4161.49
495.866	4189.51
496.235	4277.19
496.605	4307.7
496.974	4339.34
497.344	4354.25
497.713	4454.59
498.082	4474.7
498.452	4539.1
498.821	4605.54
499.19	4578.65
499.559	4629.27
499.928	4655.26
500.298	4707.91
500.667	4802.37
501.036	4713.79
501.405	4835.82
501.774	4827.23
502.143	4854.12
502.512	4934.57
502.88	4965.53
503.249	4968.92
503.618	5035.14
503.987	5019.54
504.356	5109.26
504.724	5087.11
505.093	5096.15
505.462	5127.34
505.83	5165.53
506.199	5218.63
506.567	5313.32
506.936	5283.04
507.304	5340.44
507.672	5371.4
508.041	5404.17
508.409	5407.78
508.777	5492.3
509.145	5482.13
509.514	5572.3
509.882	5558.74
510.25	5537.27
510.618	5565.29
510.986	5649.58
511.354	5673.54
511.722	5754.67
512.09	5764.16
512.458	5733.87
512.826	5747.66
513.193	5803.03
513.561	5838.05
513.929	5834.66
514.297	5902.23
514.664	5899.29
515.032	5934.77
515.4	5947.65
515.767	6011.83
516.135	6077.59
516.502	6046.86
516.869	6131.6
517.237	6105.84
517.604	6061.32
517.972	6172.96
518.339	6230.81
518.706	6189
519.073	6205.05
519.44	6255.44
519.808	6336.57
520.175	6295.22
520.542	6339.06
520.909	6359.85
521.276	6397.13
521.643	6462.9
522.009	6488.66
522.376	6478.71
522.743	6495.44
523.11	6574.98
523.477	6605.72
523.843	6594.19
524.21	6670.12
524.577	6736.79
524.943	6794.86
525.31	6789.67
525.676	6853.62
526.043	6896.33
526.409	6891.81
526.776	6946.5
527.142	6985.59
527.508	6985.37
527.874	7051.81
528.241	7101.97
528.607	7146.49
528.973	7213.61
529.339	7223.55
529.705	7194.4
530.071	7301.07
530.437	7271.91
530.803	7347.17
531.169	7371.57
531.535	7377
531.901	7362.76
532.267	7431.46
532.632	7555.07
532.998	7563.66
533.364	7564.34
533.73	7629.87
534.095	7690.43
534.461	7687.5
534.826	7748.74
535.192	7759.58
535.557	7817.66
535.923	7812.24
536.288	7827.38
536.653	7914.16
537.019	7842.07
537.384	7826.7
537.749	7927.04
538.114	8011.33
538.479	7975.4
538.845	8016.53
539.21	7977.21
539.575	8052.91
539.94	8143.3
540.305	8189.4
540.67	8147.6
541.034	8183.08
541.399	8277.76
541.764	8280.25
542.129	8309.63
542.494	8390.53
542.858	8398.89
543.223	8409.74
543.587	8485.21
543.952	8394.14
544.316	8486.57
544.681	8546.46
545.045	8560.69
545.41	8675.72
545.774	8594.36
546.138	8696.51
546.503	8711.2
546.867	8684.08
547.231	8824.41
547.595	8811.31
547.959	8809.05
548.324	8824.41
548.688	8924.75
549.052	8906.45
549.416	8931.98
549.779	8948.25
550.143	8990.06
550.507	9036.84
550.871	9089.72
551.235	9016.05
551.599	9142.15
551.962	9165.2
552.326	9157.74
552.689	9243.39
553.053	9172.43
553.417	9256.49
553.78	9326.32
554.143	9263.27
554.507	9406.09
554.87	9404.74
555.234	9445.19
555.597	9466.21
555.96	9489.71
556.323	9468.69
556.686	9523.38
557.05	9573.32
557.413	9526.09
557.776	9533.32
558.139	9650.83
558.502	9630.5
558.865	9736.26
559.228	9800.66
559.59	9824.39
559.953	9796.82
560.316	9943.93
560.679	9875.91
561.041	9981.22
561.404	10033.87
561.767	10140.54
562.129	9922.92
562.492	10099.64
562.854	10091.27
563.217	10071.84
563.579	10132.18
563.941	10206.3
564.304	10288.11
564.666	10249.01
565.028	10373.53
565.39	10274.55
565.753	10380.76
566.115	10427.08
566.477	10537.14
566.839	10476.57
567.201	10536.01
567.563	10559.74
567.925	10657.81
568.287	10598.61
568.648	10649.68
569.01	10666.4
569.372	10838.6
569.734	10818.94
570.095	10909.56
570.457	10935.09
570.819	10959.27
571.18	10939.16
571.542	11039.27
571.903	11131.25
572.265	11110
572.626	11164.24
572.987	11178.03
573.349	11217.35
573.71	11343.22
574.071	11412.82
574.432	11429.77
574.794	11601.07
575.155	11631.8
575.516	11708.63
575.877	11726.71
576.238	11837.22
576.599	11844.67
576.96	11988.4
577.32	12015.97
577.681	12196.98
578.042	12236.08
578.403	12298.22
578.763	12483.08
579.124	12549.97
579.485	12627.25
579.845	12827.93
580.206	12879.22
580.566	12995.15
580.927	13124.41
581.287	13350.85
581.648	13361.02
582.008	13544.29
582.368	13686.43
582.728	13852.98
583.089	14001.68
583.449	14224.27
583.809	14365.74
584.169	14560.31
584.529	14734.54
584.889	14957.36
585.249	15066.96
585.609	15217.92
585.969	15533.17
586.329	15701.52
586.688	15988.29
587.048	16150.78
587.408	16446.59
587.768	16550.99
588.127	16894.26
588.487	17125.44
588.846	17411.08
589.206	17455.6
589.565	17873.22
589.925	18192.98
590.284	18423.26
590.643	18667.32
591.003	18963.58
591.362	19369.9
591.721	19537.81
592.08	19721.98
592.44	20150.9
592.799	20467.72
593.158	20693.26
593.517	20859.35
593.876	21274.93
594.235	21368.94
594.593	21808.93
594.952	22189.94
595.311	22405.07
595.67	22722.58
596.029	23059.29
596.387	23292.51
596.746	23680.75
597.104	23897.69
597.463	24156.44
597.822	24564.79
598.18	24710.78
598.538	25069.19
598.897	25465.11
599.255	25557.53
599.613	26238.87
599.972	26272.32
600.33	26625.75
600.688	26734
601.046	27143.26
601.404	27429.12
601.762	27685.16
602.12	28079.28
602.478	28378.48
602.836	28638.58
603.194	28746.6
603.552	29095.52
603.91	29172.35
604.268	29533.47
604.625	29690.53
604.983	30137.53
605.341	30276.96
605.698	30731.86
606.056	30887.79
606.413	31096.82
606.771	31426.08
607.128	31725.06
607.485	31742
607.843	31894.32
608.2	32215.89
608.557	32529.55
608.914	32597.58
609.272	32928.19
609.629	33378.8
609.986	33490.21
610.343	33580.83
610.7	34017.42
611.057	34172.9
611.414	34267.36
611.771	34384.65
612.127	34822.15
612.484	34879.32
612.841	35157.73
613.198	35185.08
613.554	35349.14
613.911	35715.23
614.267	35844.95
614.624	36032.06
614.98	36227.99
615.337	36525.38
615.693	36420.3
616.05	36662.1
616.406	37173.05
616.762	36984.35
617.118	37104.58
617.475	37275.42
617.831	37493.72
618.187	37558.35
618.543	37762.19
618.899	38051.22
619.255	38092.57
619.611	38094.15
619.967	38485.56
620.323	38484.43
620.678	38545.67
621.034	38515.16
621.39	38684.87
621.746	38627.93
622.101	39072.43
622.457	38813.91
622.812	39111.08
623.168	39294.57
623.523	39263.16
623.879	39590.16
624.234	39228.36
624.589	39532.53
624.945	39661.8
625.3	39807.56
625.655	39807.33
626.01	39988.12
626.365	39975.91
626.72	39907.89
627.075	40068.57
627.43	40066.08
627.785	40036.48
628.14	40281.44
628.495	40179.75
628.85	40244.61
629.205	40238.73
629.559	40459.52
629.914	40464.94
630.269	40456.58
630.623	40464.03
630.978	40403.7
631.332	40634.43
631.687	40640.75
632.041	40704.71
632.396	40786.29
632.75	40620.64
633.104	40698.83
633.459	40560.76
633.813	40633.52
634.167	40658.15
634.521	40725.95
634.875	40654.76
635.229	40791.48
635.583	40520.3
635.937	40644.82
636.291	40635.1
636.645	40681.2
636.999	40640.08
637.352	40734.76
637.706	40576.35
638.06	40709.9
638.413	40760.98
638.767	40683.92
639.121	40726.4
639.474	40393.53
639.828	40492.51
640.181	40647.08
640.534	40626.97
640.888	40590.13
641.241	40400.76
641.594	40526.63
641.947	40499.29
642.301	40371.16
642.654	40605.95
643.007	40547.2
643.36	40597.82
643.713	40538.61
644.066	40779.05
644.419	40400.31
644.771	40138.85
645.124	39939.53
645.477	39881.9
645.83	39568.01
646.182	39416.38
646.535	39261.81
646.888	39325.31
647.24	39252.77
647.593	39585.19
647.945	39311.75
648.298	39253.9
648.65	39344.52
649.002	39173.67
649.355	39385.65
649.707	39338.19
650.059	39437.85
650.411	39903.37
650.763	39892.75
651.115	40272.18
651.467	40287.32
651.819	40204.61
652.171	40102.01
652.523	40051.16
652.875	40098.17
653.227	39867.89
653.578	40274.66
653.93	40118.96
654.282	39948.34
654.633	39663.6
654.985	39856.59
655.337	39955.8
655.688	40001.67
656.039	40145.63
656.391	39746.54
656.742	39869.93
657.094	39964.39
657.445	40003.03
657.796	39948.12
658.147	39926.87
658.498	39841.23
658.849	39880.1
659.2	39865.41
659.551	39724.62
659.902	39939.08
660.253	39829.7
660.604	39896.14
660.955	39808.23
661.306	39836.03
661.656	39874.22
662.007	39805.52
662.358	39708.35
662.708	39701.34
663.059	39763.26
663.409	39598.52
663.76	39888.46
664.11	39792.41
664.461	39817.5
664.811	39781.12
665.161	39718.52
665.511	39797.84
665.862	39693.89
666.212	39681.23
666.562	39702.25
666.912	39652.76
667.262	39541.57
667.612	39516.94
667.962	39567.34
668.312	39522.82
668.662	39744.28
669.011	39680.78
669.361	39621.35
669.711	39588.58
670.06	39660.67
670.41	39473.55
670.76	39538.64
671.109	39553.32
671.459	39400.56
671.808	39485.76
672.157	39470.39
672.507	39426.55
672.856	39279.66
673.205	39347.91
673.554	39608.46
673.904	39422.03
674.253	39708.12
674.602	39492.31
674.951	38901.59
675.3	38759.67
675.649	39375.25
675.998	39318.08
676.346	39489.15
676.695	39466.55
677.044	39197.63
677.393	39304.97
677.741	39470.84
678.09	39290.28
678.438	39024.75
678.787	39167.12
679.135	39180.23
679.484	39014.13
679.832	39040.57
680.181	38773.46
680.529	39115.37
680.877	38788.15
681.225	38817.3
681.573	38986.56
681.922	38831.54
682.27	38484.88
682.618	38689.84
682.966	38583.63
683.314	38695.04
683.661	38515.84
684.009	38379.12
684.357	38260.25
684.705	38208.5
685.053	38297.99
685.4	38261.83
685.748	38168.05
686.095	38102.52
686.443	38017.09
686.79	38098.67
687.138	38125.34
687.485	38062.29
687.832	37885.12
688.18	37944.33
688.527	37805.35
688.874	37689.87
689.221	37640.15
689.568	37490.1
689.915	37454.62
690.262	37429.76
690.609	37220.5
690.956	37081.98
691.303	37052.6
691.65	36958.36
691.997	37031.36
692.344	36711.82
692.69	36727.41
693.037	36781.65
693.383	36431.37
693.73	36612.16
694.077	36477.47
694.423	36320.19
694.769	36081.55
695.116	36139.18
695.462	36131.72
695.808	36013.76
696.155	36051.72
696.501	35858.96
696.847	35854.44
697.193	35444.28
697.539	35676.14
697.885	35583.49
698.231	35376.49
698.577	35390.95
698.923	35501.68
699.269	35236.15
699.614	35166.55
699.96	34875.93
700.306	35080.67
700.651	34887.46
700.997	34774.47
701.342	34533.8
701.688	34658.99
702.033	34623.74
702.379	34404.53
702.724	34449.05
703.069	34569.5
703.415	34063.3
703.76	34055.39
704.105	34115.5
704.45	34102.39
704.795	33890.2
705.14	33818.11
705.485	33648.62
705.83	33563.88
706.175	33576.53
706.52	33517.78
706.865	33315.97
707.209	33318.23
707.554	33280.27
707.899	33278.24
708.243	33053.38
708.588	33019.94
708.932	32846.61
709.277	32906.04
709.621	32919.15
709.966	32691.13
710.31	32876.66
710.654	32368.43
710.998	32554.64
711.342	32529.33
711.687	32435.55
712.031	32331.59
712.375	32259.73
712.719	32326.4
713.063	32193.97
713.407	32307.87
713.75	32022.9
714.094	32173.86
714.438	31824.04
714.782	32008.89
715.125	31794.66
715.469	31820.42
715.812	31658.39
716.156	31430.6
716.499	31485.74
716.843	31588.34
717.186	31305.86
717.53	31474.89
717.873	31433.31
718.216	31465.18
718.559	31225.41
718.902	31069.71
719.246	31068.35
719.589	31059.31
719.932	30939.54
720.275	30913.33
720.617	30944.51
720.96	30811.63
721.303	30876.26
721.646	30776.83
721.989	30549.04
722.331	30714.69
722.674	30553.79
723.016	30697.51
723.359	30521.02
723.701	30514.69
724.044	30272.89
724.386	30209.39
724.729	30418.2
725.071	30299.33
725.413	30345.88
725.755	30295.94
726.097	30128.94
726.439	29935.72
726.782	29980.24
727.124	30104.31
727.465	29877.19
727.807	29794.94
728.149	29814.82
728.491	29768.27
728.833	29883.97
729.175	29654.83
729.516	29719.91
729.858	29697.09
730.199	29692.11
730.541	29681.27
730.882	29560.59
731.224	29598.11
731.565	29443.99
731.906	29474.27
732.248	29519.01
732.589	29316.08
732.93	29185.24
733.271	29256.87
733.612	29215.52
733.953	29295.29
734.294	29022.75
734.635	29090.1
734.976	29123.09
735.317	28975.07
735.658	28900.27
735.999	29034.28
736.339	28736.43
736.68	28858.46
737.021	28800.16
737.361	28568.08
737.702	28710.9
738.042	28573.95
738.383	28615.76
738.723	28575.08
739.063	28554.74
739.404	28711.58
739.744	28510.9
740.084	28404.69
740.424	28376.44
740.764	28347.29
741.104	28436.55
741.444	28168.54
741.784	28330.57
742.124	28289.21
742.464	28242.44
742.804	28153.62
743.143	28199.95
743.483	28160.4
743.823	27978.04
744.162	27901.88
744.502	28008.32
744.841	27816.01
745.181	27924.93
745.52	27813.75
745.86	27976
746.199	27878.83
746.538	27898.72
746.877	27812.62
747.216	27804.93
747.556	27591.15
747.895	27647.87
748.234	27606.07
748.573	27543.92
748.911	27567.2
749.25	27476.35
749.589	27420.31
749.928	27438.61
750.267	27544.37
750.605	27344.15
750.944	27293.99
751.283	27055.35
751.621	27355.91
751.96	27049.47
752.298	27099.19
752.636	27105.29
752.975	26877.27
753.313	26812.42
753.651	27075.01
753.989	26759.54
754.327	26760.21
754.666	26640.44
755.004	26762.93
755.342	26806.77
755.679	26631.18
756.017	26491.75
756.355	26516.61
756.693	26388.02
757.031	26476.83
757.368	26312.32
757.706	26276.61
758.044	26259.44
758.381	26166.56
758.719	26047.24
759.056	26081.59
759.394	26012.89
759.731	25904.87
760.068	25778.55
760.405	25815.38
760.743	25697.19
761.08	25742.16
761.417	25615.39
761.754	25381.27
762.091	25548.04
762.428	25406.13
762.765	25288.84
763.102	25409.74
763.438	25181.27
763.775	25108.05
764.112	25099.02
764.449	25086.81
764.785	24892.01
765.122	24738.12
765.458	24818.8
765.795	24793.26
766.131	24689.76
766.467	24482.31
766.804	24572.93
767.14	24413.38
767.476	24284.35
767.812	24183.33
768.148	24307.4
768.485	24119.38
768.821	24022.21
769.157	23889.1
769.492	23943.57
769.828	23865.15
770.164	23628.55
770.5	23696.57
770.836	23567.98
771.171	23433.52
771.507	23437.82
771.842	23260.42
772.178	23198.05
772.513	23202.79
772.849	23196.24
773.184	22947.89
773.519	22997.83
773.855	22842.13
774.19	22782.01
774.525	22649.59
774.86	22672.41
775.195	22715.35
775.53	22394.68
775.865	22354.23
776.2	22270.39
776.535	22016.84
776.87	22070.85
777.205	22027.23
777.539	22002.83
777.874	21992.88
778.209	21710.4
778.543	21580.69
778.878	21562.16
779.212	21554.48
779.547	21477.42
779.881	21453.01
780.215	21363.07
780.55	21370.07
780.884	21210.08
781.218	21157.65
781.552	21131.66
781.886	21021.61
782.22	20916.3
782.554	20772.12
782.888	20665.69
783.222	20549.08
783.556	20515.86
783.889	20568.96
784.223	20328.97
784.557	20324
784.89	20436.09
785.224	20297.56
785.557	20153.16
785.891	20131.01
786.224	19987.74
786.558	19985.03
786.891	19740.74
787.224	19669.78
787.557	19787.29
787.891	19722.66
788.224	19548.65
788.557	19572.61
788.89	19522.44
789.223	19420.07
789.556	19289
789.888	19344.82
790.221	19268.89
790.554	19102.56
790.887	19048.55
791.219	19004.71
791.552	18978.95
791.884	18858.5
792.217	18804.94
792.549	18826.86
792.882	18614.21
793.214	18559.07
793.546	18625.29
793.879	18414.9
794.211	18296.26
794.543	18416.93
794.875	18337.39
795.207	18248.57
795.539	18298.29
795.871	18162.7
796.203	18103.49
796.535	17985.76
796.867	17970.84
797.198	17853.1
797.53	17828.92
797.862	17799.55
798.193	17776.5
798.525	17658.08
798.856	17677.52
799.188	17543.28
799.519	17481.59
799.85	17381.48
800.182	17335.83
800.513	17406.56
800.844	17244.76
801.175	17380.35
801.506	17291.54
801.837	17175.16
802.168	17142.39
802.499	17117.53
802.83	16981.49
803.161	16928.61
803.491	16936.52
803.822	16910.98
804.153	16777.2
804.483	16681.16
804.814	16619.69
805.145	16612.46
805.475	16531.33
805.805	16521.16
806.136	16442.52
806.466	16410.43
806.796	16442.29
807.126	16317.33
807.457	16293.37
807.787	16192.13
808.117	16188.29
808.447	16118.69
808.777	16183.77
809.107	16079.59
809.436	15974.51
809.766	15976.09
810.096	15909.88
810.426	15900.61
810.755	15798.69
811.085	15810.22
811.414	15740.17
811.744	15675.99
812.073	15646.83
812.403	15622.88
812.732	15552.37
813.061	15555.31
813.39	15397.58
813.719	15438.93
814.049	15468.31
814.378	15430.12
814.707	15306.73
815.036	15376.11
815.365	15167.75
815.693	15099.96
816.022	15127.53
816.351	15096.34
816.68	15025.16
817.008	15102.67
817.337	14998.72
817.665	14883.46
817.994	14978.38
818.322	14952.16
818.651	14739.06
818.979	14837.36
819.307	14817.03
819.636	14756.01
819.964	14636.69
820.292	14744.71
820.62	14742.9
820.948	14637.82
821.276	14726.18
821.604	14649.12
821.932	14684.15
822.259	14716.01
822.587	14669.68
822.915	14487.99
823.243	14653.19
823.57	14648.67
823.898	14598.27
824.225	14615.22
824.553	14457.94
824.88	14512.85
825.207	14615.22
825.535	14555.11
825.862	14601.89
826.189	14586.75
826.516	14600.76
826.843	14644.37
827.17	14600.76
827.497	14646.41
827.824	14553.76
828.151	14589.24
828.478	14535.23
828.805	14684.15
829.131	14561.21
829.458	14574.32
829.785	14472.63
830.111	14499.52
830.438	14587.2
830.764	14507.43
831.09	14637.82
831.417	14589.01
831.743	14560.99
832.069	14522.12
832.395	14452.97
832.722	14450.71
833.048	14415.91
833.374	14415
833.7	14349.02
834.026	14465.62
834.351	14370.26
834.677	14394.21
835.003	14436.92
835.329	14348.34
835.654	14323.25
835.98	14326.19
836.306	14280.32
836.631	14186.08
836.956	14271.28
837.282	14273.76
837.607	14215.46
837.932	14182.24
838.258	14192.64
838.583	14152.86
838.908	13961
839.233	14100.43
839.558	14000.1
839.883	14003.71
840.208	13954.9
840.533	13986.99
840.858	13955.81
841.182	13968.01
841.507	13871.29
841.832	13876.26
842.156	13877.39
842.481	13829.93
842.805	13756.94
843.13	13781.8
843.454	13691.63
843.778	13683.95
844.103	13613.89
844.427	13603.95
844.751	13602.37
845.075	13615.48
845.399	13598.98
845.723	13427.68
846.047	13478.3
846.371	13322.6
846.695	13401.24
847.019	13299.78
847.343	13158.99
847.666	13196.5
847.99	13087.58
848.313	12995.83
848.637	13071.76
848.96	12927.13
849.284	12961.26
849.607	12840.58
849.931	12778.44
850.254	12733.92
850.577	12680.81
850.9	12523.75
851.223	12561.72
851.546	12527.14
851.869	12446.01
852.192	12525.11
852.515	12392.46
852.838	12349.75
853.161	12340.71
853.483	12272.91
853.806	12161.28
854.129	12134.38
854.451	12109.98
854.774	11956.31
855.096	12026.59
855.419	11990.66
855.741	11996.99
856.063	11863.66
856.385	11851.68
856.708	11827.73
857.03	11805.81
857.352	11777.33
857.674	11666.37
857.996	11736.88
858.318	11658.92
858.64	11681.51
858.961	11638.58
859.283	11601.52
859.605	11461.86
859.926	11554.51
860.248	11539.15
860.57	11422.31
860.891	11460.5
861.212	11383.9
861.534	11302.99
861.855	11418.7
862.176	11377.12
862.498	11284.69
862.819	11383.22
863.14	11296.21
863.461	11181.87
863.782	11325.14
864.103	11304.12
864.424	11150.68
864.745	11190.23
865.065	11087.41
865.386	11103
865.707	11069.78
866.027	11102.32
866.348	11043.34
866.668	11044.7
866.989	11052.83
867.309	10966.05
867.63	10955.88
867.95	11010.35
868.27	10898.94
868.59	10866.62
868.91	10832.05
869.23	10787.53
869.55	10766.96
869.87	10861.42
870.19	10784.36
870.51	10729.45
870.83	10790.92
871.15	10719.51
871.469	10760.41
871.789	10698.72
872.109	10686.06
872.428	10570.36
872.748	10704.14
873.067	10675.44
873.386	10631.15
873.706	10663.01
874.025	10542.34
874.344	10514.99
874.663	10602
874.982	10505.05
875.301	10533.75
875.62	10501.66
875.939	10442.45
876.258	10341.21
876.577	10406.29
876.896	10455.33
877.214	10414.2
877.533	10362.23
877.852	10364.49
878.17	10403.58
878.489	10356.13
878.807	10326.52
879.125	10326.07
879.444	10377.37
879.762	10282.23
880.08	10287.88
880.398	10246.75
880.716	10236.13
881.034	10220.08
881.352	10160.65
881.67	10193.64
881.988	10139.18
882.306	10173.53
882.624	10115.91
882.941	10037.49
883.259	10037.26
883.577	10018.28
883.894	9994.1
884.212	10009.02
884.529	10017.15
884.846	9965.4
885.164	9902.8
885.481	9910.04
885.798	9912.52
886.115	9822.81
886.432	9823.03
886.75	9743.03
887.067	9790.72
887.383	9720.89
887.7	9769.25
888.017	9653.55
888.334	9726.54
888.651	9671.62
888.967	9663.49
889.284	9635.24
889.6	9510.27
889.917	9490.39
890.233	9530.39
890.55	9415.81
890.866	9482.7
891.182	9407.9
891.498	9350.95
891.815	9369.94
892.131	9337.17
892.447	9297.85
892.763	9245.42
893.079	9289.71
893.395	9221.24
893.71	9206.1
894.026	9239.55
894.342	9143.73
894.657	9058.76
894.973	9101.47
895.289	9083.39
895.604	9057.4
895.92	8986.9
896.235	8954.35
896.55	8971.08
896.865	8924.07
897.181	8897.86
897.496	8963.39
897.811	8849.95
898.126	8802.95
898.441	8818.54
898.756	8700.12
899.071	8686.11
899.386	8727.24
899.7	8647.7
900.015	8604.53
900.33	8576.29
900.644	8533.58
900.959	8589.62
901.273	8515.72
901.588	8470.75
901.902	8492.22
902.216	8417.65
902.531	8379.91
902.845	8322.73
903.159	8289.74
903.473	8236.18
903.787	8228.5
904.101	8205.9
904.415	8214.04
904.729	8209.97
905.042	8172
905.356	8099.01
905.67	8097.65
905.984	8103.53
906.297	8090.2
906.611	7983.53
906.924	7974.72
907.237	7989.86
907.551	7929.98
907.864	7921.61
908.177	7909.86
908.491	7839.81
908.804	7762.75
909.117	7755.29
909.43	7679.81
909.743	7649.08
910.056	7615.63
910.368	7636.42
910.681	7535.41
910.994	7585.13
911.307	7562.3
911.619	7429.42
911.932	7447.05
912.244	7414.73
912.557	7381.29
912.869	7343.78
913.181	7345.58
913.494	7309.43
913.806	7269.43
914.118	7273.5
914.43	7202.31
914.742	7210.9
915.054	7150.56
915.366	7163.89
915.678	7125.93
915.99	7080.96
916.302	6979.72
916.613	7034.18
916.925	6953.96
917.236	6975.65
917.548	6939.72
917.859	6932.94
918.171	6894.75
918.482	6885.48
918.794	6797.35
919.105	6811.36
919.416	6732.72
919.727	6733.17
920.038	6704.02
920.349	6627.64
920.66	6605.72
920.971	6600.29
921.282	6614.98
921.593	6537.47
921.903	6554.87
922.214	6453.18
922.525	6469.45
922.835	6463.12
923.146	6367.98
923.456	6431.48
923.767	6323.46
924.077	6297.25
924.387	6327.53
924.697	6258.15
925.008	6284.14
925.318	6229
925.628	6258.38
925.938	6188.1
926.248	6074.43
926.558	6119.63
926.867	6086.86
927.177	6075.11
927.487	6020.19
927.796	5946.75
928.106	5966.86
928.416	6021.55
928.725	5964.38
929.034	5887.77
929.344	5901.1
929.653	5852.52
929.962	5814.32
930.271	5808.22
930.581	5809.13
930.89	5723.93
931.199	5744.5
931.508	5737.94
931.817	5720.54
932.125	5728.68
932.434	5738.85
932.743	5588.79
933.051	5608.45
933.36	5562.81
933.669	5539.76
933.977	5540.43
934.286	5482.81
934.594	5540.66
934.902	5441.9
935.21	5394.22
935.519	5387.9
935.827	5414.56
936.135	5373.66
936.443	5378.18
936.751	5328.01
937.059	5311.74
937.367	5254.57
937.674	5294.79
937.982	5272.64
938.29	5286.88
938.597	5248.01
938.905	5174.12
939.213	5116.26
939.52	5089.37
939.827	5117.17
940.135	5055.47
940.442	5092.08
940.749	5045.08
941.056	5010.96
941.363	4977.96
941.67	4950.84
941.977	4942.26
942.284	4979.77
942.591	4892.77
942.898	4884.18
943.205	4924.86
943.511	4819.1
943.818	4839.21
944.125	4811.87
944.431	4781.58
944.738	4765.31
945.044	4757.18
945.35	4758.53
945.657	4689.61
945.963	4684.41
946.269	4635.37
946.575	4625.88
946.881	4597.18
947.187	4584.75
947.493	4583.62
947.799	4563.74
948.105	4511.76
948.41	4507.69
948.716	4481.7
949.022	4485.32
949.327	4499.56
949.633	4440.35
949.938	4424.98
950.244	4412.1
950.549	4395.6
950.854	4368.71
951.16	4314.48
951.465	4309.28
951.77	4317.19
952.075	4257.98
952.38	4288.04
952.685	4283.74
952.99	4209.85
953.294	4197.42
953.599	4202.84
953.904	4144.09
954.209	4158.32
954.513	4162.62
954.818	4084.2
955.122	4113.8
955.426	4084.65
955.731	4073.35
956.035	4044.2
956.339	4080.13
956.643	3983.86
956.948	3973.92
957.252	3993.13
957.556	3990.19
957.86	3961.49
958.163	3935.28
958.467	3929.85
958.771	3920.81
959.075	3894.15
959.378	3837.65
959.682	3808.5
959.985	3848.73
960.289	3785.68
960.592	3810.76
960.896	3774.6
961.199	3771.21
961.502	3759.69
961.805	3724.44
962.108	3720.37
962.411	3698.45
962.714	3726.92
963.017	3676.3
963.32	3682.18
963.623	3612.35
963.926	3623.2
964.228	3638.34
964.531	3587.04
964.833	3570.54
965.136	3576.64
965.438	3518.11
965.741	3519.92
966.043	3498.23
966.345	3494.84
966.648	3503.42
966.95	3457.55
967.252	3493.71
967.554	3433.6
967.856	3423.2
968.158	3402.86
968.46	3382.07
968.761	3383.65
969.063	3365.58
969.365	3376.42
969.666	3359.25
969.968	3321.51
970.269	3284.22
970.571	3307.72
970.872	3296.65
971.174	3255.97
971.475	3235.86
971.776	3255.3
972.077	3183.43
972.378	3196.77
972.679	3179.37
972.98	3199.7
973.281	3160.83
973.582	3172.81
973.883	3135.52
974.183	3153.6
974.484	3138.46
974.785	3103.21
975.085	3081.52
975.386	3073.15
975.686	3033.83
975.986	3057.33
976.287	3013.27
976.587	3008.07
976.887	3000.61
977.187	2988.86
977.487	2994.29
977.787	2994.51
978.087	2968.52
978.387	2942.08
978.687	2929.88
978.987	2923.55
979.286	2855.08
979.586	2871.8
979.885	2868.41
980.185	2860.28
980.484	2835.19
980.784	2857.34
981.083	2816.21
981.382	2800.62
981.682	2775.76
981.981	2756.33
982.28	2801.97
982.579	2779.38
982.878	2744.57
983.177	2756.55
983.475	2762.65
983.774	2695.99
984.073	2723.78
984.372	2677.68
984.67	2665.71
984.969	2667.29
985.267	2635.88
985.566	2670
985.864	2609.44
986.162	2631.58
986.461	2610.57
986.759	2608.08
987.057	2564.47
987.355	2562.88
987.653	2586.39
987.951	2553.39
988.249	2547.97
988.547	2523.11
988.844	2497.58
989.142	2503.45
989.44	2485.82
989.737	2479.27
990.035	2480.85
990.332	2486.5
990.63	2456.22
990.927	2418.48
991.224	2420.29
991.521	2397.24
991.819	2416.9
992.116	2380.74
992.413	2393.17
992.71	2345.94
993.006	2331.48
993.303	2319.95
993.6	2336
993.897	2341.87
994.193	2345.26
994.49	2310.24
994.787	2281.54
995.083	2257.13
995.379	2274.98
995.676	2241.99
995.972	2268.2
996.268	2228.88
996.565	2233.18
996.861	2221.65
997.157	2186.17
997.453	2209.22
997.749	2172.39
998.044	2194.98
998.34	2168.32
998.636	2163.8
998.932	2124.25
999.227	2157.7
999.523	2102.56
999.818	2083.12
1000.114	2072.73
1000.409	2090.35
1000.704	2061.88
1001	2052.39
1001.295	2021.88
1001.59	2073.18
1001.885	2030.7
1002.18	2014.2
1002.475	2028.66
1002.77	1984.59
1003.065	1991.6
1003.359	2004.03
1003.654	2006.06
1003.949	1963.8
1004.243	1947.99
1004.538	1928.33
1004.832	1963.58
1005.127	1905.05
1005.421	1894.88
1005.715	1898.04
1006.009	1886.74
1006.304	1880.64
1006.598	1861.66
1006.892	1855.33
1007.186	1837.25
1007.48	1852.17
1007.773	1810.81
1008.067	1795.22
1008.361	1807.42
1008.655	1816.01
1008.948	1809.01
1009.242	1783.92
1009.535	1768.56
1009.829	1760.19
1010.122	1727.2
1010.415	1724.94
1010.708	1716.58
1011.001	1722.91
1011.295	1724.49
1011.588	1686.3
1011.881	1671.38
1012.173	1663.25
1012.466	1659.86
1012.759	1666.19
1013.052	1664.38
1013.344	1611.05
1013.637	1637.03
1013.93	1618.95
1014.222	1610.14
1014.514	1589.58
1014.807	1573.31
1015.099	1566.3
1015.391	1574.44
1015.683	1557.94
1015.976	1553.87
1016.268	1536.7
1016.56	1536.47
1016.851	1525.62
1017.143	1530.6
1017.435	1493.99
1017.727	1478.85
1018.018	1477.49
1018.31	1490.14
1018.602	1470.03
1018.893	1473.65
1019.185	1423.93
1019.476	1455.57
1019.767	1438.17
1020.058	1413.54
1020.35	1412.18
1020.641	1416.47
1020.932	1402.92
1021.223	1424.61
1021.514	1382.58
1021.804	1365.63
1022.095	1380.77
1022.386	1355.23
1022.677	1353.88
1022.967	1303.26
1023.258	1356.14
1023.548	1316.82
1023.839	1315.23
1024.129	1324.5
1024.419	1314.56
1024.709	1279.75
1025	1286.08
1025.29	1274.78
1025.58	1284.73
1025.87	1228.46
1026.16	1246.76
1026.449	1232.52
1026.739	1256.03
1027.029	1218.51
1027.319	1234.11
1027.608	1206.54
1027.898	1194.56
1028.187	1178.06
1028.477	1184.16
1028.766	1183.94
1029.055	1159.76
1029.344	1153.2
1029.634	1171.96
1029.923	1157.05
1030.212	1133.32
1030.501	1110.04
1030.79	1122.7
1031.078	1113.43
1031.367	1109.59
1031.656	1123.6
1031.945	1108.23
1032.233	1092.64
1032.522	1074.34
1032.81	1078.18
1033.099	1081.12
1033.387	1063.26
1033.675	1066.43
1033.963	1058.29
1034.251	1038.18
1034.54	1005.64
1034.828	1032.98
1035.116	1000.44
1035.403	1018.52
1035.691	1002.7
1035.979	995.92
1036.267	987.56
1036.554	1012.42
1036.842	993.43
1037.129	1000.67
1037.417	983.49
1037.704	943.72
1037.992	957.73
1038.279	962.47
1038.566	954.34
1038.853	954.34
1039.14	954.34
