Data from hue_210_FLMS001491_00074.txt Node
Date: Tue Feb 07 16:41:40 GMT 2017
User: dcchb
Spectrometer: FLMS00149
Trigger mode: 0
Integration Time (sec): 2.000000E-2
Scans to average: 10
Electric dark correction enabled: true
Nonlinearity correction enabled: false
Boxcar width: 0
XAxis mode: Wavelengths
Number of Pixels in Spectrum: 2048
>>>>>Begin Spectral Data<<<<<
341.393	4.63
341.776	4.63
342.16	4.63
342.543	-51.41
342.927	-59.77
343.31	-78.75
343.693	-67.23
344.077	-60
344.46	-50.96
344.843	-66.78
345.226	-58.42
345.61	-45.08
345.993	-17.06
346.376	-8.47
346.759	19.32
347.142	26.78
347.525	61.13
347.908	41.24
348.291	78.08
348.674	104.07
349.057	122.14
349.44	134.57
349.823	144.52
350.206	149.04
350.588	205.08
350.971	198.3
351.354	241.46
351.737	250.05
352.119	246.21
352.502	262.7
352.884	272.65
353.267	279.65
353.65	296.6
354.032	314
354.414	314.46
354.797	315.13
355.179	331.4
355.562	323.04
355.944	313.1
356.326	316.04
356.709	332.76
357.091	330.73
357.473	349.71
357.855	352.42
358.238	331.4
358.62	345.87
359.002	329.82
359.384	339.77
359.766	341.8
360.148	333.21
360.53	356.49
360.912	342.93
361.294	354.23
361.676	331.18
362.057	337.51
362.439	329.14
362.821	323.95
363.203	320.78
363.584	333.66
363.966	339.31
364.348	315.13
364.729	320.78
365.111	318.3
365.493	329.37
365.874	330.95
366.256	313.33
366.637	321.91
367.019	355.81
367.4	314.46
367.781	306.09
368.163	320.78
368.544	297.05
368.925	316.71
369.306	323.27
369.688	310.61
370.069	295.47
370.45	325.3
370.831	329.14
371.212	325.3
371.593	322.14
371.974	327.56
372.355	316.26
372.736	323.72
373.117	328.69
373.498	319.2
373.879	305.19
374.26	319.65
374.641	313.1
375.021	316.94
375.402	321.23
375.783	325.53
376.163	336.6
376.544	325.98
376.925	354.91
377.305	329.6
377.686	334.12
378.066	329.82
378.447	333.89
378.827	358.52
379.208	336.6
379.588	337.05
379.968	337.51
380.349	342.7
380.729	342.48
381.109	338.18
381.489	324.17
381.87	345.87
382.25	347.45
382.63	331.63
383.01	356.71
383.39	326.66
383.77	337.28
384.15	359.43
384.53	346.77
384.91	348.13
385.29	352.87
385.67	346.32
386.049	344.28
386.429	369.37
386.809	361.69
387.189	355.58
387.568	353.78
387.948	363.72
388.328	365.75
388.707	370.72
389.087	374.11
389.466	350.39
389.846	365.98
390.225	402.81
390.605	349.48
390.984	389.71
391.363	351.52
391.743	367.79
392.122	372.53
392.501	372.31
392.881	378.86
393.26	377.28
393.639	396.94
394.018	395.36
394.397	399.65
394.776	393.32
395.155	396.26
395.534	410.27
395.913	381.57
396.292	415.47
396.671	401.46
397.05	393.32
397.429	392.65
397.808	394.45
398.186	401.91
398.565	409.14
398.944	419.31
399.323	413.21
399.701	416.37
400.08	415.47
400.458	418.86
400.837	412.98
401.215	416.83
401.594	434
401.972	431.29
402.351	410.5
402.729	424.51
403.107	438.29
403.486	429.25
403.864	450.72
404.242	459.99
404.62	462.93
404.999	439.88
405.377	460.44
405.755	487.78
406.133	480.55
406.511	483.49
406.889	447.56
407.267	482.59
407.645	481.68
408.023	502.02
408.401	513.55
408.779	501.34
409.156	508.12
409.534	513.77
409.912	523.49
410.29	532.08
410.667	543.15
411.045	557.61
411.422	558.29
411.8	570.04
412.178	582.92
412.555	593.77
412.933	597.16
413.31	586.09
413.687	586.09
414.065	599.19
414.442	612.75
414.819	650.72
415.197	616.82
415.574	650.94
415.951	639.87
416.328	670.38
416.705	688
417.082	701.11
417.46	709.25
417.837	689.36
418.214	686.42
418.591	704.05
418.967	722.13
419.344	721.9
419.721	753.77
420.098	748.12
420.475	757.83
420.852	785.18
421.228	790.83
421.605	784.5
421.982	814.78
422.358	831.73
422.735	842.8
423.111	853.65
423.488	867.66
423.864	901.33
424.241	901.56
424.617	946.98
424.994	930.94
425.37	928.45
425.746	965.29
426.123	980.2
426.499	1002.57
426.875	975
427.251	1006.64
427.627	1040.54
428.003	1052.51
428.379	1041.89
428.756	1055.9
429.132	1058.16
429.507	1084.38
429.883	1087.32
430.259	1140.87
430.635	1114.21
431.011	1142
431.387	1145.17
431.763	1175.22
432.138	1191.04
432.514	1204.83
432.89	1217.26
433.265	1247.09
433.641	1264.71
434.016	1305.84
434.392	1336.8
434.767	1350.36
435.143	1365.5
435.518	1374.09
435.894	1410.02
436.269	1409.79
436.644	1445.72
437.02	1466.52
437.395	1485.72
437.77	1514.88
438.145	1532.28
438.52	1558.72
438.895	1585.83
439.271	1597.59
439.646	1632.16
440.021	1674.87
440.395	1691.37
440.77	1677.13
441.145	1707.41
441.52	1724.14
441.895	1749.22
442.27	1794.19
442.645	1777.24
443.019	1840.97
443.394	1824.02
443.769	1845.04
444.143	1828.09
444.518	1844.81
444.892	1868.54
445.267	1896.79
445.641	1917.58
446.016	1980.85
446.39	1963.45
446.764	1980.17
447.139	1972.72
447.513	2014.07
447.887	2026.73
448.262	2039.61
448.636	2037.57
449.01	2082.77
449.384	2091.58
449.758	2086.39
450.132	2114.86
450.506	2115.99
450.88	2133.39
451.254	2146.27
451.628	2170.68
452.002	2211.81
452.376	2201.64
452.75	2219.04
453.123	2279.6
453.497	2320.73
453.871	2328.87
454.244	2355.31
454.618	2353.05
454.992	2378.36
455.365	2438.69
455.739	2441.4
456.112	2468.97
456.486	2524.11
456.859	2511.91
457.232	2569.76
457.606	2581.06
457.979	2586.94
458.352	2611.8
458.725	2644.34
459.099	2729.76
459.472	2707.39
459.845	2766.82
460.218	2786.48
460.591	2789.64
460.964	2817.44
461.337	2887.49
461.71	2908.51
462.083	2931.79
462.456	2984.89
462.829	2974.5
463.201	3032.35
463.574	3036.87
463.947	3080.26
464.32	3156.19
464.692	3146.92
465.065	3216.07
465.438	3237.77
465.81	3274.38
466.183	3308.73
466.555	3362.96
466.928	3378.33
467.3	3370.19
467.672	3445.9
468.045	3491.32
468.417	3527.7
468.789	3527.48
469.161	3574.03
469.534	3648.38
469.906	3670.75
470.278	3736.29
470.65	3768.6
471.022	3824.87
471.394	3927.69
471.766	3936.05
472.138	3914.81
472.51	4043.62
472.882	4068.71
473.253	4163.17
473.625	4186.67
473.997	4283.62
474.369	4290.4
474.74	4322.94
475.112	4392.09
475.484	4435.48
475.855	4553.67
476.227	4576.49
476.598	4652.19
476.97	4683.83
477.341	4803.83
477.713	4808.8
478.084	4864.39
478.455	5010.38
478.827	5027.55
479.198	5151.39
479.569	5179.19
479.94	5318.84
480.311	5302.8
480.682	5416.47
481.053	5480.65
481.424	5588.67
481.795	5637.93
482.166	5737.82
482.537	5801.99
482.908	5878.38
483.279	5937.36
483.65	6040.86
484.021	6159.5
484.391	6164.24
484.762	6248.54
485.133	6299.38
485.503	6335.09
485.874	6473.16
486.244	6496.21
486.615	6621.63
486.985	6736.43
487.356	6767.62
487.726	6834.28
488.097	6968.52
488.467	6987.27
488.837	7053.26
489.207	7178
489.578	7264.1
489.948	7314.04
490.318	7339.36
490.688	7382.74
491.058	7503.87
491.428	7553.81
491.798	7631.55
492.168	7810.3
492.538	7823.86
492.908	7857.99
493.278	7902.73
493.648	7954.03
494.017	8020.47
494.387	8094.36
494.757	8148.83
495.126	8231.76
495.496	8224.98
495.866	8269.27
496.235	8340.23
496.605	8404.64
496.974	8485.77
497.344	8460.91
497.713	8471.3
498.082	8514.01
498.452	8614.35
498.821	8640.79
499.19	8697.96
499.559	8738.87
499.928	8713.1
500.298	8747.23
500.667	8876.26
501.036	8841.69
501.405	9034.9
501.774	8927.11
502.143	8965.3
502.512	8968.24
502.88	9068.58
503.249	9049.82
503.618	9090.27
503.987	9030.38
504.356	9128.23
504.724	9091.85
505.093	9146.77
505.462	9246.2
505.83	9236.48
506.199	9273.99
506.567	9312.41
506.936	9302.69
507.304	9453.2
507.672	9422.69
508.041	9486.19
508.409	9498.85
508.777	9504.72
509.145	9604.83
509.514	9489.13
509.882	9571.84
510.25	9563.25
510.618	9560.09
510.986	9592.4
511.354	9648.45
511.722	9661.55
512.09	9746.3
512.458	9723.25
512.826	9786.97
513.193	9767.54
513.561	9760.53
513.929	9801.21
514.297	9818.61
514.664	9885.05
515.032	9888.67
515.4	9871.94
515.767	9923.24
516.135	9879.4
516.502	9889.8
516.869	10025.16
517.237	9923.92
517.604	9879.63
517.972	9990.36
518.339	9949
518.706	9906.07
519.073	9996.23
519.44	10099.28
519.808	9964.14
520.175	9894.09
520.542	10046.4
520.909	10050.47
521.276	10107.19
521.643	10065.84
522.009	10142.22
522.376	10093.63
522.743	10156.68
523.11	10120.98
523.477	10165.95
523.843	10196
524.21	10290.92
524.577	10253.85
524.943	10249.79
525.31	10276
525.676	10288.2
526.043	10375.21
526.409	10310.8
526.776	10380.41
527.142	10324.14
527.508	10293.63
527.874	10311.71
528.241	10370.69
528.607	10313.29
528.973	10409.1
529.339	10327.98
529.705	10372.95
530.071	10372.5
530.437	10343.12
530.803	10384.25
531.169	10405.04
531.535	10329.11
531.901	10273.52
532.267	10357.13
532.632	10277.36
532.998	10330.46
533.364	10328.65
533.73	10266.74
534.095	10360.52
534.461	10281.2
534.826	10189
535.192	10218.38
535.557	10269.9
535.923	10179.51
536.288	10164.14
536.653	10160.3
537.019	10116.46
537.384	10135.89
537.749	10047.08
538.114	10084.14
538.479	10023.35
538.845	10043.01
539.21	9922.34
539.575	9924.15
539.94	9964.82
540.305	9932.73
540.67	9846.63
541.034	9850.93
541.399	9894.32
541.764	9807.31
542.129	9797.82
542.494	9730.25
542.858	9762.79
543.223	9681.21
543.587	9663.36
543.952	9688.67
544.316	9643.02
544.681	9609.8
545.045	9575
545.41	9612.52
545.774	9625.17
546.138	9500.43
546.503	9512.41
546.867	9469.02
547.231	9454.1
547.595	9417.27
547.959	9404.39
548.324	9411.16
548.688	9344.95
549.052	9371.84
549.416	9188.8
549.779	9279.64
550.143	9237.38
550.507	9299.53
550.871	9204.84
551.235	9154.9
551.599	9146.31
551.962	9173.43
552.326	9139.76
552.689	9163.26
553.053	9054.79
553.417	9108.12
553.78	9124.17
554.143	9031.06
554.507	9030.38
554.87	8988.35
555.234	8981.12
555.597	8949.93
555.96	8998.52
556.323	8947.9
556.686	8822.71
557.05	8878.3
557.413	8871.52
557.776	8850.95
558.139	8850.5
558.502	8873.78
558.865	8802.59
559.228	8868.13
559.59	8836.26
559.953	8858.64
560.316	8889.37
560.679	8850.05
561.041	8825.64
561.404	8864.29
561.767	8908.81
562.129	8823.38
562.492	8825.87
562.854	8890.73
563.217	8775.93
563.579	8847.11
563.941	8845.08
564.304	8909.26
564.666	8889.37
565.028	8940.22
565.39	8878.3
565.753	8917.84
566.115	8907.45
566.477	8950.61
566.839	8916.26
567.201	8940.22
567.563	8949.26
567.925	8930.27
568.287	8981.35
568.648	8992.87
569.01	8976.83
569.372	8969.37
569.734	9001.68
570.095	8999.88
570.457	9002.59
570.819	9071.29
571.18	9040.55
571.542	9074
571.903	8988.13
572.265	9111.51
572.626	9079.65
572.987	9116.26
573.349	9145.18
573.71	9114.68
574.071	9081.46
574.432	9115.13
574.794	9211.17
575.155	9133.43
575.516	9113.32
575.877	9206.88
576.238	9202.81
576.599	9177.72
576.96	9236.25
577.32	9210.27
577.681	9253.2
578.042	9237.16
578.403	9280.77
578.763	9322.13
579.124	9238.51
579.485	9232.19
579.845	9366.87
580.206	9351.51
580.566	9270.83
580.927	9342.69
581.287	9368
581.648	9396.93
582.008	9398.06
582.368	9379.3
582.728	9407.78
583.089	9430.15
583.449	9395.35
583.809	9414.55
584.169	9415.91
584.529	9415.01
584.889	9474.89
585.249	9390.15
585.609	9417.49
585.969	9417.94
586.329	9424.72
586.688	9450.26
587.048	9417.04
587.408	9444.38
587.768	9436.93
588.127	9403.03
588.487	9449.81
588.846	9541.11
589.206	9441.67
589.565	9464.04
589.925	9524.38
590.284	9464.95
590.643	9468.11
591.003	9497.04
591.362	9531.61
591.721	9455.01
592.08	9487.32
592.44	9571.84
592.799	9532.07
593.158	9528.68
593.517	9523.93
593.876	9556.25
594.235	9514.89
594.593	9520.31
594.952	9543.59
595.311	9521.67
595.67	9532.07
596.029	9598.28
596.387	9642.57
596.746	9646.41
597.104	9542.46
597.463	9536.13
597.822	9548.56
598.18	9560.54
598.538	9530.03
598.897	9600.76
599.255	9534.78
599.613	9647.99
599.972	9589.92
600.33	9611.39
600.688	9588.56
601.046	9559.18
601.404	9716.24
601.762	9620.2
602.12	9589.92
602.478	9636.24
602.836	9618.17
603.194	9559.86
603.552	9597.83
603.91	9614.55
604.268	9645.96
604.625	9584.27
604.983	9621.1
605.341	9585.4
605.698	9627.43
606.056	9633.53
606.413	9633.76
606.771	9624.72
607.128	9624.04
607.485	9610.48
607.843	9545.85
608.2	9683.47
608.557	9679.41
608.914	9712.17
609.272	9668.33
609.629	9694.1
609.986	9718.95
610.343	9703.59
610.7	9774.77
611.057	9671.27
611.414	9671.5
611.771	9751.95
612.127	9715.56
612.484	9743.36
612.841	9771.16
613.198	9707.2
613.554	9752.17
613.911	9799.18
614.267	9838.72
614.624	9735.22
614.98	9799.86
615.337	9859.74
615.693	9877.37
616.05	9803.7
616.406	9847.99
616.762	9832.85
617.118	9851.61
617.475	9862.9
617.831	9803.92
618.187	9822
618.543	9888.67
618.899	9861.1
619.255	9864.94
619.611	9904.94
619.967	9972.96
620.323	9918.72
620.678	9931.15
621.034	9839.4
621.39	9865.16
621.746	9887.08
622.101	9951.72
622.457	9929.8
622.812	9889.12
623.168	9964.6
623.523	9964.14
623.879	10000.75
624.234	9864.49
624.589	9966.4
624.945	9925.05
625.3	9930.93
625.655	9914.65
626.01	9848.89
626.365	9909.68
626.72	9952.85
627.075	9896.12
627.43	9883.02
627.785	9879.18
628.14	9915.11
628.495	9942.68
628.85	9905.39
629.205	9893.19
629.559	9885.05
629.914	9836.24
630.269	9917.37
630.623	9788.33
630.978	9791.49
631.332	9832.4
631.687	9849.57
632.041	9876.92
632.396	9822.91
632.75	9735.9
633.104	9793.53
633.459	9739.07
633.813	9720.99
634.167	9724.38
634.521	9696.58
634.875	9703.36
635.229	9700.42
635.583	9616.81
635.937	9610.93
636.291	9739.74
636.645	9681.89
636.999	9697.49
637.352	9679.86
637.706	9524.16
638.06	9604.83
638.413	9547.66
638.767	9568.9
639.121	9588.34
639.474	9497.26
639.828	9600.54
640.181	9577.49
640.534	9570.48
640.888	9518.96
641.241	9493.65
641.594	9476.25
641.947	9552.18
642.301	9458.62
642.654	9502.46
643.007	9539.52
643.36	9487.77
643.713	9469.69
644.066	9458.62
644.419	9414.78
644.771	9401.9
645.124	9281.68
645.477	9346.99
645.83	9230.38
646.182	9173.66
646.535	9127.33
646.888	9198.52
647.24	9103.15
647.593	9172.98
647.945	9102.92
648.298	9136.37
648.65	9102.25
649.002	9129.82
649.355	9097.73
649.707	9120.78
650.059	9159.65
650.411	9269.7
650.763	9257.95
651.115	9378.85
651.467	9365.29
651.819	9333.43
652.171	9418.17
652.523	9307.21
652.875	9346.76
653.227	9318.51
653.578	9340.88
653.93	9321.68
654.282	9257.95
654.633	9309.25
654.985	9257.04
655.337	9253.43
655.688	9317.38
656.039	9348.57
656.391	9269.02
656.742	9288.46
657.094	9282.13
657.445	9336.59
657.796	9319.42
658.147	9332.3
658.498	9359.41
658.849	9396.7
659.2	9313.77
659.551	9336.14
659.902	9312.18
660.253	9316.48
660.604	9338.17
660.955	9353.54
661.306	9380.66
661.656	9334.1
662.007	9346.99
662.358	9418.4
662.708	9389.47
663.059	9311.73
663.409	9322.58
663.76	9372.07
664.11	9386.98
664.461	9458.62
664.811	9403.03
665.161	9352.64
665.511	9344.5
665.862	9368.68
666.212	9419.07
666.562	9432.41
666.912	9406.65
667.262	9386.53
667.612	9417.49
667.962	9344.27
668.312	9400.09
668.662	9420.88
669.011	9343.37
669.361	9403.48
669.711	9321
670.06	9321
670.41	9356.25
670.76	9351.51
671.109	9341.11
671.459	9276.25
671.808	9362.58
672.157	9335.23
672.507	9333.65
672.856	9340.21
673.205	9322.81
673.554	9395.35
673.904	9315.35
674.253	9367.55
674.602	9282.81
674.951	9109.7
675.3	9152.19
675.649	9212.75
675.998	9213.2
676.346	9224.73
676.695	9250.72
677.044	9191.28
677.393	9202.81
677.741	9199.42
678.09	9170.95
678.438	9155.58
678.787	9213.43
679.135	9155.35
679.484	9087.78
679.832	9111.96
680.181	9019.76
680.529	9075.58
680.877	9041.23
681.225	9043.04
681.573	9149.48
681.922	9041.46
682.27	8983.61
682.618	8984.96
682.966	8987.9
683.314	8959.2
683.661	8907.68
684.009	8860.44
684.357	8920.33
684.705	8863.16
685.053	8896.15
685.4	8837.39
685.748	8792.88
686.095	8770.5
686.443	8715.14
686.79	8800.33
687.138	8785.19
687.485	8809.82
687.832	8769.37
688.18	8771.18
688.527	8717.17
688.874	8716.27
689.221	8660.68
689.568	8615.03
689.915	8628.13
690.262	8600.79
690.609	8547.68
690.956	8491.87
691.303	8493.67
691.65	8427.24
691.997	8448.93
692.344	8412.1
692.69	8384.75
693.037	8408.03
693.383	8305.88
693.73	8335.49
694.077	8266.11
694.423	8270.18
694.769	8219.56
695.116	8139.11
695.462	8192.89
695.808	8093.23
696.155	8169.62
696.501	8065.44
696.847	8112.89
697.193	7926.01
697.539	8029.05
697.885	7939.34
698.231	7917.87
698.577	7923.07
698.923	7967.14
699.269	7857.53
699.614	7832.9
699.96	7818.21
700.306	7837.87
700.651	7771.66
700.997	7705.9
701.342	7669.29
701.688	7687.82
702.033	7659.35
702.379	7636.52
702.724	7557.65
703.069	7607.37
703.415	7525.34
703.76	7537.09
704.105	7497.54
704.45	7418.22
704.795	7483.08
705.14	7421.84
705.485	7393.59
705.83	7342.97
706.175	7350.43
706.52	7330.99
706.865	7287.6
707.209	7319.24
707.554	7221.62
707.899	7216.19
708.243	7175.07
708.588	7178.23
708.932	7114.73
709.277	7160.15
709.621	7180.72
709.966	7095.07
710.31	7083.54
710.654	6987.73
710.998	7063.66
711.342	7045.8
711.687	7054.16
712.031	6990.89
712.375	6995.64
712.719	7007.84
713.063	7015.97
713.407	6982.75
713.75	6913.6
714.094	6934.62
714.438	6902.53
714.782	6955.18
715.125	6865.24
715.469	6921.29
715.812	6800.16
716.156	6847.16
716.499	6855.98
716.843	6865.7
717.186	6848.29
717.53	6818.01
717.873	6843.77
718.216	6766.71
718.559	6805.36
718.902	6748.86
719.246	6732.37
719.589	6736.43
719.932	6662.76
720.275	6713.61
720.617	6648.07
720.96	6682.42
721.303	6680.62
721.646	6683.1
721.989	6666.15
722.331	6657.79
722.674	6679.71
723.016	6673.38
723.359	6615.76
723.701	6665.93
724.044	6656.66
724.386	6581.86
724.729	6657.11
725.071	6621.18
725.413	6626.38
725.755	6621.86
726.097	6568.3
726.439	6564.23
726.782	6553.39
727.124	6618.24
727.465	6543.67
727.807	6590.22
728.149	6578.92
728.491	6580.73
728.833	6570.56
729.175	6519.72
729.516	6534.86
729.858	6607.85
730.199	6532.82
730.541	6560.62
730.882	6538.92
731.224	6540.51
731.565	6618.92
731.906	6572.82
732.248	6582.99
732.589	6493.95
732.93	6520.62
733.271	6523.56
733.612	6564.69
733.953	6547.29
734.294	6488.08
734.635	6507.51
734.976	6488.08
735.317	6492.15
735.658	6490.56
735.999	6539.38
736.339	6552.26
736.68	6542.54
737.021	6545.03
737.361	6544.57
737.702	6542.09
738.042	6590.9
738.383	6532.37
738.723	6595.87
739.063	6536.66
739.404	6599.94
739.744	6616.21
740.084	6592.48
740.424	6595.65
740.764	6582.09
741.104	6662.54
741.444	6601.3
741.784	6660.73
742.124	6680.62
742.464	6648.75
742.804	6713.83
743.143	6733.04
743.483	6724
743.823	6722.87
744.162	6775.3
744.502	6804.91
744.841	6814.17
745.181	6863.44
745.52	6888.07
745.86	6820.95
746.199	6907.28
746.538	6949.31
746.877	7021.4
747.216	7065.01
747.556	7098.68
747.895	7151.56
748.234	7141.17
748.573	7190.66
748.911	7236.98
749.25	7304.55
749.589	7403.53
749.928	7408.05
750.267	7464.32
750.605	7505.23
750.944	7647.37
751.283	7694.15
751.621	7777.08
751.96	7787.25
752.298	7930.07
752.636	8026.34
752.975	8167.36
753.313	8175.49
753.651	8318.76
753.989	8371.87
754.327	8563.05
754.666	8574.58
755.004	8718.53
755.342	8830.39
755.679	8976.15
756.017	9043.04
756.355	9246.65
756.693	9346.76
757.031	9513.76
757.368	9633.31
757.706	9710.59
758.044	9873.07
758.381	10059.06
758.719	10239.39
759.056	10379.5
759.394	10555.77
759.731	10650.45
760.068	10858.58
760.405	10978.58
760.743	11112.36
761.08	11362.75
761.417	11582.18
761.754	11713.25
762.091	11822.4
762.428	12037.99
762.765	12202.28
763.102	12346.91
763.438	12531.08
763.775	12612.89
764.112	12867.8
764.449	13030.28
764.785	13257.17
765.122	13370.38
765.458	13498.74
765.795	13698.96
766.131	13856.25
766.467	13951.84
766.804	14189.34
767.14	14293.52
767.476	14352.96
767.812	14517.7
768.148	14767.41
768.485	14897.35
768.821	14903.22
769.157	15193.39
769.492	15331.91
769.828	15518.35
770.164	15504.11
770.5	15639.48
770.836	15705.69
771.171	15864.55
771.507	15950.88
771.842	16011.44
772.178	16163.76
772.513	16307.25
772.849	16374.82
773.184	16414.6
773.519	16535.95
773.855	16630.18
774.19	16711.31
774.525	16776.17
774.86	16866.56
775.195	16949.72
775.53	16947.01
775.865	17047.8
776.2	17001.93
776.535	17003.51
776.87	17069.95
777.205	17129.83
777.539	17199.21
777.874	17361.01
778.209	17230.85
778.543	17312.2
778.878	17342.71
779.212	17397.62
779.547	17438.98
779.881	17553.1
780.215	17454.8
780.55	17613.44
780.884	17509.03
781.218	17544.28
781.552	17656.6
781.886	17627.67
782.22	17577.28
782.554	17625.41
782.888	17627.9
783.222	17528.47
783.556	17561.23
783.889	17612.53
784.223	17480.11
784.557	17558.3
784.89	17572.31
785.224	17580.44
785.557	17556.71
785.891	17580.44
786.224	17544.96
786.558	17592.19
786.891	17503.38
787.224	17496.6
787.557	17528.24
787.891	17481.91
788.224	17520.56
788.557	17517.17
788.89	17410.73
789.223	17499.77
789.556	17372.54
789.888	17331.86
790.221	17355.59
790.554	17260.9
790.887	17202.15
791.219	17267.23
791.552	17155.59
791.884	17217.29
792.217	17182.26
792.549	17183.62
792.882	17018.42
793.214	17020
793.546	17075.82
793.879	17015.71
794.211	16899.56
794.543	17053
794.875	16910.4
795.207	17069.95
795.539	16906.56
795.871	17025.2
796.203	16815.94
796.535	16724.42
796.867	16759.67
797.198	16663.18
797.53	16715.38
797.862	16625.44
798.193	16668.83
798.525	16550.64
798.856	16606
799.188	16396.07
799.519	16419.79
799.85	16301.83
800.182	16380.47
800.513	16418.89
800.844	16223.42
801.175	16451.43
801.506	16358.1
801.837	16240.14
802.168	16171.67
802.499	16211.89
802.83	16177.09
803.161	16132.8
803.491	16083.98
803.822	16019.35
804.153	16001.05
804.483	15870.2
804.814	15852.58
805.145	15874.72
805.475	15849.19
805.805	15755.63
806.136	15800.15
806.466	15833.37
806.796	15794.05
807.126	15665.46
807.457	15567.61
807.787	15644.22
808.117	15574.39
808.447	15535.3
808.777	15609.65
809.107	15438.13
809.436	15506.37
809.766	15427.05
810.096	15458.69
810.426	15322.42
810.755	15291.24
811.085	15330.56
811.414	15250.33
811.744	15133.05
812.073	15240.16
812.403	15227.74
812.732	15122.88
813.061	15127.85
813.39	15048.53
813.719	15059.83
814.049	15085.14
814.378	15048.08
814.707	14952.71
815.036	14996.78
815.365	14957.91
815.693	14689.44
816.022	14771.7
816.351	14691.7
816.68	14704.59
817.008	14689.67
817.337	14634.3
817.665	14601.54
817.994	14630.24
818.322	14727.41
818.651	14584.14
818.979	14527.41
819.307	14613.74
819.636	14496.23
819.964	14453.97
820.292	14541.65
820.62	14484.7
820.948	14468.43
821.276	14517.7
821.604	14504.82
821.932	14471.37
822.259	14507.3
822.587	14470.24
822.915	14405.61
823.243	14509.34
823.57	14444.25
823.898	14402.9
824.225	14440.86
824.553	14335.33
824.88	14418.94
825.207	14482.44
825.535	14432.5
825.862	14473.4
826.189	14397.93
826.516	14464.37
826.843	14483.8
827.17	14496.45
827.497	14537.58
827.824	14541.65
828.151	14577.13
828.478	14453.29
828.805	14583.68
829.131	14553.4
829.458	14543.23
829.785	14426.85
830.111	14467.98
830.438	14555.66
830.764	14467.98
831.09	14593.85
831.417	14421.43
831.743	14479.05
832.069	14563.8
832.395	14411.71
832.722	14457.36
833.048	14468.89
833.374	14430.24
833.7	14346.4
834.026	14401.77
834.351	14388.66
834.677	14376.46
835.003	14409.9
835.329	14381.66
835.654	14351.83
835.98	14322.22
836.306	14350.47
836.631	14266.18
836.956	14296.91
837.282	14278.38
837.607	14147.54
837.932	14161.77
838.258	14189.57
838.583	14271.6
838.908	14133.53
839.233	14175.11
839.558	14151.61
839.883	13999.97
840.208	14030.7
840.533	14059.18
840.858	13998.84
841.182	14086.07
841.507	14037.03
841.832	13947.77
842.156	13851.73
842.481	13950.03
842.805	13889.01
843.13	13806.53
843.454	13839.07
843.778	13671.17
844.103	13665.06
844.427	13636.36
844.751	13619.64
845.075	13581
845.399	13608.79
845.723	13507.1
846.047	13563.6
846.371	13442.7
846.695	13422.13
847.019	13347.56
847.343	13359.76
847.666	13252.65
847.99	13208.81
848.313	13151.41
848.637	13069.37
848.96	13095.14
849.284	13049.71
849.607	12929.04
849.931	12869.61
850.254	12737.63
850.577	12783.05
850.9	12676.62
851.223	12656.73
851.546	12630.29
851.869	12556.84
852.192	12657.18
852.515	12508.03
852.838	12401.82
853.161	12426
853.483	12373.12
853.806	12342.16
854.129	12197.08
854.451	12235.72
854.774	12194.82
855.096	12097.2
855.419	12104.88
855.741	12106.91
856.063	11925.22
856.385	11994.6
856.708	12007.93
857.03	11961.15
857.352	11883.19
857.674	11832.8
857.996	11808.84
858.318	11690.43
858.64	11733.36
858.961	11756.87
859.283	11698.56
859.605	11565.91
859.926	11675.06
860.248	11568.62
860.57	11566.81
860.891	11561.62
861.212	11462.41
861.534	11503.77
861.855	11438.23
862.176	11416.08
862.498	11504.44
862.819	11454.28
863.14	11382.86
863.461	11319.82
863.782	11313.04
864.103	11311
864.424	11250.89
864.745	11235.98
865.065	11248.4
865.386	11217.45
865.707	11153.94
866.027	11214.51
866.348	11197.78
866.668	11113.04
866.989	11113.72
867.309	11108.52
867.63	11098.35
867.95	11064
868.27	10988.98
868.59	10991.91
868.91	10993.04
869.23	11034.4
869.55	10949.43
869.87	11016.32
870.19	11006.83
870.51	10864.91
870.83	10908.3
871.15	10888.64
871.469	10865.82
871.789	10894.74
872.109	10873.05
872.428	10783.78
872.748	10808.87
873.067	10748.08
873.386	10832.82
873.706	10782.65
874.025	10701.98
874.344	10711.7
874.663	10719.83
874.982	10693.39
875.301	10667.86
875.62	10702.66
875.939	10543.79
876.258	10682.32
876.577	10621.53
876.896	10650.68
877.214	10499.05
877.533	10535.2
877.852	10503.11
878.17	10517.8
878.489	10506.28
878.807	10444.36
879.125	10402.55
879.444	10370.91
879.762	10476.45
880.08	10386.73
880.398	10304.47
880.716	10460.18
881.034	10281.65
881.352	10317.36
881.67	10261.31
881.988	10299.28
882.306	10259.5
882.624	10283.46
882.941	10138.38
883.259	10233.29
883.577	10173.4
883.894	10171.6
884.212	10143.58
884.529	10144.25
884.846	10076.23
885.164	10007.08
885.481	10071.94
885.798	9920.08
886.115	9922.34
886.432	9948.78
886.75	9922.34
887.067	9892.06
887.383	9828.33
887.7	9913.3
888.017	9861.55
888.334	9822.68
888.651	9704.94
888.967	9765.05
889.284	9735.22
889.6	9737.48
889.917	9617.71
890.233	9642.12
890.55	9594.89
890.866	9607.54
891.182	9581.78
891.498	9551.95
891.815	9462.24
892.131	9414.33
892.447	9465.85
892.763	9420.88
893.079	9388.34
893.395	9348.12
893.71	9358.74
894.026	9372.3
894.342	9336.36
894.657	9206.88
894.973	9211.17
895.289	9240.55
895.604	9189.7
895.92	9174.11
896.235	9109.03
896.55	9118.29
896.865	9074
897.181	9029.25
897.496	9042.59
897.811	8983.83
898.126	8918.3
898.441	8895.47
898.756	8838.75
899.071	8808.92
899.386	8805.76
899.7	8770.05
900.015	8722.14
900.33	8683.73
900.644	8616.38
900.959	8610.51
901.273	8642.37
901.588	8615.71
901.902	8564.86
902.216	8473.79
902.531	8496.84
902.845	8457.52
903.159	8422.26
903.473	8390.63
903.787	8405.32
904.101	8323.96
904.415	8351.08
904.729	8300.91
905.042	8260.69
905.356	8190.63
905.67	8218.88
905.984	8137.07
906.297	8113.8
906.611	8081.93
906.924	8101.37
907.237	8053.01
907.551	8007.36
907.864	8020.47
908.177	7931.66
908.491	7888.27
908.804	7864.99
909.117	7769.63
909.43	7804.88
909.743	7717.42
910.056	7664.32
910.368	7671.1
910.681	7685.33
910.994	7616.64
911.307	7566.92
911.619	7567.15
911.932	7591.55
912.244	7465
912.557	7469.3
912.869	7366.25
913.181	7420.71
913.494	7347.04
913.806	7315.4
914.118	7305.68
914.43	7274.72
914.742	7231.34
915.054	7160.6
915.366	7185.01
915.678	7141.39
915.99	7083.32
916.302	7118.57
916.613	7063.88
916.925	7046.03
917.236	7012.58
917.548	6919.03
917.859	6973.94
918.171	6916.99
918.482	6928.74
918.794	6816.2
919.105	6842.87
919.416	6794.96
919.727	6829.76
920.038	6736.89
920.349	6718.58
920.66	6713.61
920.971	6686.04
921.282	6675.87
921.593	6622.54
921.903	6617.57
922.214	6567.62
922.525	6547.96
922.835	6489.66
923.146	6465.71
923.456	6479.49
923.767	6366.05
924.077	6379.61
924.387	6378.25
924.697	6343.45
925.008	6319.04
925.318	6324.92
925.628	6341.42
925.938	6280.85
926.248	6186.39
926.558	6202.66
926.867	6170.35
927.177	6169.22
927.487	6119.05
927.796	6060.52
928.106	6083.12
928.416	6021.65
928.725	6028.43
929.034	5999.05
929.344	6039.5
929.653	6006.96
929.962	5928.09
930.271	5896.91
930.581	5885.16
930.89	5873.4
931.199	5790.02
931.508	5817.14
931.817	5833.41
932.125	5773.29
932.434	5778.04
932.743	5703.47
933.051	5711.15
933.36	5676.12
933.669	5665.5
933.977	5662.11
934.286	5611.49
934.594	5602.9
934.902	5564.26
935.21	5530.36
935.519	5509.8
935.827	5490.82
936.135	5453.08
936.443	5445.39
936.751	5418.95
937.059	5410.59
937.367	5355.45
937.674	5318.62
937.982	5327.43
938.29	5319.3
938.597	5278.62
938.905	5232.74
939.213	5234.33
939.52	5234.78
939.827	5215.34
940.135	5115.46
940.442	5131.96
940.749	5132.63
941.056	5129.24
941.363	5040.88
941.67	5044.5
941.977	5020.55
942.284	5012.18
942.591	4990.26
942.898	4925.86
943.205	4999.76
943.511	4917.27
943.818	4898.29
944.125	4921.79
944.431	4914.56
944.738	4894.67
945.044	4847.67
945.35	4840.66
945.657	4801.79
945.963	4733.32
946.269	4729.25
946.575	4695.13
946.881	4683.15
947.187	4711.85
947.493	4648.35
947.799	4674.34
948.105	4641.8
948.41	4577.85
948.716	4583.04
949.022	4590.27
949.327	4589.6
949.633	4497.62
949.938	4505.31
950.244	4494.46
950.549	4475.25
950.854	4431.18
951.16	4421.47
951.465	4444.06
951.77	4418.75
952.075	4390.96
952.38	4329.04
952.685	4349.15
952.99	4293.79
953.294	4309.38
953.599	4296.27
953.904	4281.58
954.209	4263.96
954.513	4224.18
954.818	4209.04
955.122	4211.75
955.426	4202.71
955.731	4147.12
956.035	4126.33
956.339	4119.1
956.643	4119.55
956.948	4074.58
957.252	4078.2
957.556	4084.75
957.86	4033
958.163	4074.81
958.467	4052.44
958.771	4011.31
959.075	4015.83
959.378	3925.66
959.682	3913.91
959.985	3957.07
960.289	3942.83
960.592	3870.97
960.896	3866.23
961.199	3842.72
961.502	3812.89
961.805	3802.05
962.108	3792.1
962.411	3767.02
962.714	3788.71
963.017	3746.23
963.32	3768.83
963.623	3738.32
963.926	3763.63
964.228	3696.96
964.531	3701.94
964.833	3682.28
965.136	3662.84
965.438	3602.96
965.741	3645.21
966.043	3567.48
966.345	3558.89
966.648	3517.99
966.95	3552.34
967.252	3525.22
967.554	3524.31
967.856	3501.49
968.158	3490.19
968.46	3461.49
968.761	3470.53
969.063	3455.84
969.365	3427.82
969.666	3410.19
969.968	3396.86
970.269	3355.96
970.571	3329.74
970.872	3339.01
971.174	3321.61
971.475	3320.48
971.776	3323.87
972.077	3303.3
972.378	3287.03
972.679	3269.86
972.98	3285
973.281	3199.58
973.582	3238.45
973.883	3234.83
974.183	3207.94
974.484	3178.33
974.785	3162.97
975.085	3139.24
975.386	3151.22
975.686	3170.43
975.986	3123.65
976.287	3094.72
976.587	3087.94
976.887	3090.88
977.187	3071.44
977.487	3086.81
977.787	3011.33
978.087	3024.67
978.387	3026.02
978.687	2996.19
978.987	2991.45
979.286	2965.46
979.586	2990.32
979.885	2927.49
980.185	2915.74
980.484	2944.89
980.784	2898.57
981.083	2904.22
981.382	2896.08
981.682	2840.49
981.981	2856.76
982.28	2843.88
982.579	2823.99
982.878	2853.15
983.177	2793.26
983.475	2801.4
983.774	2760.72
984.073	2773.37
984.372	2746.03
984.67	2747.61
984.969	2734.5
985.267	2704.67
985.566	2715.97
985.864	2705.8
986.162	2707.61
986.461	2696.09
986.759	2670.55
987.057	2624.68
987.355	2622.64
987.653	2646.82
987.951	2601.4
988.249	2581.74
988.547	2602.76
988.844	2591.68
989.142	2564.11
989.44	2573.38
989.737	2538.58
990.035	2525.02
990.332	2507.62
990.63	2486.6
990.927	2485.02
991.224	2484.79
991.521	2459.94
991.819	2475.08
992.116	2427.85
992.413	2423.55
992.71	2432.59
993.006	2434.63
993.303	2413.38
993.6	2424.91
993.897	2372.93
994.193	2389.65
994.49	2343.55
994.787	2339.94
995.083	2326.83
995.379	2318.7
995.676	2322.09
995.972	2299.04
996.268	2336.77
996.565	2278.02
996.861	2233.73
997.157	2266.49
997.453	2240.51
997.749	2222.88
998.044	2242.54
998.34	2224.46
998.636	2176.1
998.932	2207.96
999.227	2171.58
999.523	2169.77
999.818	2138.36
1000.114	2158.93
1000.409	2137.46
1000.704	2096.78
1001	2074.86
1001.295	2073.5
1001.59	2093.39
1001.885	2107.4
1002.18	2066.95
1002.475	2045.26
1002.77	2030.57
1003.065	2031.25
1003.359	2008.65
1003.654	1977.01
1003.949	2016.11
1004.243	1997.12
1004.538	1955.54
1004.832	1921.87
1005.127	1956.22
1005.421	1940.85
1005.715	1937.01
1006.009	1895.43
1006.304	1880.52
1006.598	1876
1006.892	1871.7
1007.186	1886.84
1007.48	1858.37
1007.773	1853.17
1008.067	1837.8
1008.361	1857.01
1008.655	1827.86
1008.948	1802.1
1009.242	1826.28
1009.535	1792.38
1009.829	1802.33
1010.122	1783.12
1010.415	1759.16
1010.708	1756.45
1011.001	1736.56
1011.295	1726.62
1011.588	1723.01
1011.881	1716.23
1012.173	1730.69
1012.466	1671.03
1012.759	1701.31
1013.052	1664.48
1013.344	1671.48
1013.637	1659.5
1013.93	1658.6
1014.222	1615.66
1014.514	1612.73
1014.807	1602.56
1015.099	1607.53
1015.391	1610.69
1015.683	1597.13
1015.976	1590.13
1016.268	1552.16
1016.56	1527.3
1016.851	1575.21
1017.143	1529.11
1017.435	1525.27
1017.727	1514.42
1018.018	1508.55
1018.31	1500.41
1018.602	1514.42
1018.893	1512.16
1019.185	1470.13
1019.476	1464.03
1019.767	1426.29
1020.058	1436.01
1020.35	1417.7
1020.641	1425.16
1020.932	1396.23
1021.223	1395.56
1021.514	1404.14
1021.804	1374.54
1022.095	1403.69
1022.386	1395.78
1022.677	1384.03
1022.967	1327.54
1023.258	1343.58
1023.548	1375.67
1023.839	1335.67
1024.129	1332.96
1024.419	1322.11
1024.709	1299.74
1025	1291.6
1025.29	1273.53
1025.58	1250.48
1025.87	1281.89
1026.16	1250.48
1026.449	1236.69
1026.739	1226.3
1027.029	1239.4
1027.319	1224.71
1027.608	1222
1027.898	1221.78
1028.187	1200.76
1028.477	1201.21
1028.766	1220.87
1029.055	1179.97
1029.344	1188.78
1029.634	1147.2
1029.923	1179.29
1030.212	1144.72
1030.501	1140.42
1030.79	1142.23
1031.078	1152.17
1031.367	1103.81
1031.656	1123.7
1031.945	1102.68
1032.233	1105.17
1032.522	1104.94
1032.81	1092.51
1033.099	1076.02
1033.387	1069.01
1033.675	1088.9
1033.963	1063.59
1034.251	1066.98
1034.54	1041.67
1034.828	1036.7
1035.116	1066.07
1035.403	1025.85
1035.691	1050.48
1035.979	1032.18
1036.267	1048.22
1036.554	1023.36
1036.842	987.43
1037.129	985.17
1037.417	977.71
1037.704	974.78
1037.992	978.39
1038.279	984.95
1038.566	936.36
1038.853	936.36
1039.14	936.36
