Data from hue_190_FLMS001491_00099.txt Node
Date: Tue Feb 07 16:46:03 GMT 2017
User: dcchb
Spectrometer: FLMS00149
Trigger mode: 0
Integration Time (sec): 2.000000E-2
Scans to average: 10
Electric dark correction enabled: true
Nonlinearity correction enabled: false
Boxcar width: 0
XAxis mode: Wavelengths
Number of Pixels in Spectrum: 2048
>>>>>Begin Spectral Data<<<<<
341.393	-16.04
341.776	-16.04
342.16	-16.04
342.543	-58.08
342.927	-72.54
343.31	-61.69
343.693	-67.34
344.077	-63.05
344.46	-36.84
344.843	-56.04
345.226	-47.91
345.61	-47.68
345.993	-19.43
346.376	-0.23
346.759	13.56
347.142	26.89
347.525	38.42
347.908	63.28
348.291	75.7
348.674	82.94
349.057	99.43
349.44	120.22
349.823	129.71
350.206	137.17
350.588	176.94
350.971	199.32
351.354	215.81
351.737	235.02
352.119	261.01
352.502	266.21
352.884	279.77
353.267	273.44
353.65	290.39
354.032	287.9
354.414	282.48
354.797	308.92
355.179	316.15
355.562	317.05
355.944	305.75
356.326	306.43
356.709	322.7
357.091	327
357.473	326.32
357.855	332.42
358.238	329.71
358.62	336.94
359.002	327
359.384	330.39
359.766	314.57
360.148	335.13
360.53	343.72
360.912	334.23
361.294	336.26
361.676	319.77
362.057	312.99
362.439	331.29
362.821	331.29
363.203	319.99
363.584	324.29
363.966	313.89
364.348	339.88
364.729	315.25
365.111	332.87
365.493	324.51
365.874	305.53
366.256	310.27
366.637	312.76
367.019	290.39
367.4	310.5
367.781	306.66
368.163	303.04
368.544	299.2
368.925	304.85
369.306	335.13
369.688	310.27
370.069	295.13
370.45	293.78
370.831	310.95
371.212	313.89
371.593	283.16
371.974	295.36
372.355	319.77
372.736	307.79
373.117	307.34
373.498	300.11
373.879	325.87
374.26	300.78
374.641	315.92
375.021	298.75
375.402	299.88
375.783	307.56
376.163	311.63
376.544	287.9
376.925	336.71
377.305	324.06
377.686	334.45
378.066	316.15
378.447	336.94
378.827	317.51
379.208	306.21
379.588	327.45
379.968	322.03
380.349	315.25
380.729	327.67
381.109	328.35
381.489	321.57
381.87	338.3
382.25	334.91
382.63	350.95
383.01	345.75
383.39	319.09
383.77	331.29
384.15	327.45
384.53	343.27
384.91	332.42
385.29	332.42
385.67	317.96
386.049	321.35
386.429	341.01
386.809	336.04
387.189	357.73
387.568	359.31
387.948	330.84
388.328	356.15
388.707	336.26
389.087	343.27
389.466	330.39
389.846	366.54
390.225	338.3
390.605	350.05
390.984	358.41
391.363	345.53
391.743	360.67
392.122	351.4
392.501	368.13
392.881	372.19
393.26	360.44
393.639	376.94
394.018	355.24
394.397	397.5
394.776	366.54
395.155	362.48
395.534	352.31
395.913	374
396.292	371.29
396.671	382.14
397.05	367.9
397.429	389.82
397.808	376.94
398.186	385.98
398.565	383.27
398.944	387.56
399.323	393.21
399.701	381.01
400.08	406.99
400.458	385.75
400.837	399.54
401.215	391.63
401.594	398.18
401.972	390.72
402.351	407.45
402.729	399.54
403.107	399.99
403.486	415.81
403.864	439.76
404.242	413.77
404.62	434.56
404.999	423.49
405.377	422.81
405.755	433.43
406.133	415.58
406.511	432.98
406.889	423.27
407.267	435.92
407.645	443.83
408.023	454.23
408.401	479.54
408.779	471.63
409.156	478.63
409.534	460.1
409.912	494.68
410.29	492.42
410.667	506.2
411.045	512.98
411.422	516.37
411.8	515.92
412.178	522.47
412.555	525.86
412.933	521.34
413.31	551.85
413.687	560.89
414.065	566.54
414.442	574.67
414.819	587.78
415.197	586.43
415.574	612.41
415.951	610.15
416.328	597.27
416.705	630.72
417.082	609.93
417.46	616.93
417.837	632.75
418.214	671.17
418.591	659.19
418.967	665.29
419.344	660.55
419.721	665.75
420.098	680.89
420.475	687.44
420.852	699.64
421.228	708.23
421.605	726.31
421.982	746.42
422.358	774.67
422.735	804.72
423.111	760.43
423.488	809.02
423.864	818.28
424.241	840.43
424.617	862.35
424.994	834.1
425.37	847.66
425.746	826.87
426.123	877.49
426.499	858.96
426.875	891.5
427.251	917.04
427.627	943.03
428.003	942.12
428.379	962.46
428.756	947.55
429.132	966.3
429.507	990.03
429.883	1011.95
430.259	1009.01
430.635	1023.7
431.011	1025.28
431.387	1035
431.763	1071.16
432.138	1066.19
432.514	1072.06
432.89	1103.7
433.265	1132.63
433.641	1149.8
434.016	1158.61
434.392	1165.17
434.767	1209.91
435.143	1235.22
435.518	1241.32
435.894	1275.9
436.269	1280.42
436.644	1314.99
437.02	1327.87
437.395	1343.92
437.77	1379.4
438.145	1390.02
438.52	1416.69
438.895	1447.87
439.271	1441.09
439.646	1455.1
440.021	1499.62
440.395	1516.57
440.77	1498.72
441.145	1573.74
441.52	1576
441.895	1601.31
442.27	1632.27
442.645	1630.24
443.019	1660.97
443.394	1663.01
443.769	1652.61
444.143	1684.48
444.518	1717.92
444.892	1707.07
445.267	1737.36
445.641	1742.1
446.016	1769.67
446.39	1794.53
446.764	1799.73
447.139	1803.12
447.513	1837.69
447.887	1818.26
448.262	1846.05
448.636	1863
449.01	1882.21
449.384	1904.13
449.758	1938.71
450.132	1946.16
450.506	1956.33
450.88	1991.81
451.254	1982.77
451.628	1999.5
452.002	2031.36
452.376	2066.84
452.75	2043.11
453.123	2069.32
453.497	2119.72
453.871	2147.97
454.244	2178.25
454.618	2173.28
454.992	2188.19
455.365	2200.17
455.739	2309.77
456.112	2319.94
456.486	2334.85
456.859	2336.21
457.232	2367.17
457.606	2380.28
457.979	2409.65
458.352	2453.04
458.725	2499.6
459.099	2520.84
459.472	2535.07
459.845	2556.09
460.218	2562.87
460.591	2644
460.964	2639.25
461.337	2704.11
461.71	2736.2
462.083	2758.35
462.456	2793.6
462.829	2799.25
463.201	2838.34
463.574	2889.64
463.947	2890.77
464.32	2961.05
464.692	3050.77
465.065	3057.77
465.438	3102.07
465.81	3147.26
466.183	3120.14
466.555	3217.09
466.928	3250.54
467.3	3236.98
467.672	3301.38
468.045	3397.88
468.417	3387.03
468.789	3443.98
469.161	3475.61
469.534	3564.43
469.906	3614.37
470.278	3667.47
470.65	3683.07
471.022	3730.75
471.394	3792.44
471.766	3860.46
472.138	3884.42
472.51	3983.4
472.882	3996.96
473.253	4094.13
473.625	4170.74
473.997	4242.83
474.369	4229.04
474.74	4322.82
475.112	4382.94
475.484	4477.85
475.855	4514.46
476.227	4555.81
476.598	4697.73
476.97	4764.85
477.341	4825.64
477.713	4937.95
478.084	5008.68
478.455	5041.9
478.827	5145.85
479.198	5328
479.569	5310.37
479.94	5456.35
480.311	5463.36
480.682	5612.28
481.053	5743.13
481.424	5793.75
481.795	5888.43
482.166	6036.9
482.537	6085.04
482.908	6188.54
483.279	6279.16
483.65	6371.58
484.021	6501.52
484.391	6537.46
484.762	6609.32
485.133	6692.71
485.503	6798.47
485.874	6920.27
486.244	6934.28
486.615	7128.17
486.985	7198.45
487.356	7369.98
487.726	7370.2
488.097	7534.27
488.467	7519.12
488.837	7746.24
489.207	7795.73
489.578	7878.66
489.948	7997.98
490.318	8059.45
490.688	8098.54
491.058	8214.47
491.428	8339.67
491.798	8403.39
492.168	8604.75
492.538	8651.3
492.908	8699.88
493.278	8783.95
493.648	8770.16
494.017	8859.43
494.387	9010.61
494.757	9039.54
495.126	9117.73
495.496	9152.75
495.866	9181.45
496.235	9316.37
496.605	9365.18
496.974	9371.05
497.344	9464.38
497.713	9500.99
498.082	9604.72
498.452	9599.97
498.821	9704.38
499.19	9678.84
499.559	9776.47
499.928	9820.53
500.298	9817.37
500.667	9960.19
501.036	9883.58
501.405	9982.34
501.774	9973.07
502.143	10066.63
502.512	10083.12
502.88	10126.74
503.249	10123.8
503.618	10309.56
503.987	10196.79
504.356	10293.29
504.724	10275.44
505.093	10315.89
505.462	10402.21
505.83	10339.84
506.199	10454.41
506.567	10562.89
506.936	10497.35
507.304	10578.25
507.672	10589.33
508.041	10587.29
508.409	10633.62
508.777	10683.79
509.145	10634.52
509.514	10699.38
509.882	10726.27
510.25	10707.06
510.618	10782.54
510.986	10740.06
511.354	10794.52
511.722	10933.05
512.09	11019.82
512.458	10911.8
512.826	10954.51
513.193	10919.26
513.561	10995.42
513.929	11031.8
514.297	11085.13
514.664	11100.95
515.032	11048.52
515.4	11162.19
515.767	11181.85
516.135	11061.4
516.502	11051.23
516.869	11121.97
517.237	11128.97
517.604	11109.99
517.972	11188.86
518.339	11199.48
518.706	11058.24
519.073	11126.71
519.44	11141.18
519.808	11162.64
520.175	11186.15
520.542	11285.35
520.909	11224.79
521.276	11187.73
521.643	11321.74
522.009	11242.64
522.376	11277.44
522.743	11249.65
523.11	11346.14
523.477	11374.39
523.843	11400.83
524.21	11351.79
524.577	11372.58
524.943	11358.12
525.31	11421.39
525.676	11475.86
526.043	11393.6
526.409	11351.57
526.776	11449.87
527.142	11370.77
527.508	11400.38
527.874	11379.59
528.241	11384.79
528.607	11370.55
528.973	11365.8
529.339	11302.53
529.705	11357.22
530.071	11320.15
530.437	11337.33
530.803	11279.93
531.169	11322.64
531.535	11273.6
531.901	11316.99
532.267	11256.88
532.632	11248.97
532.998	11196.32
533.364	11136.88
533.73	11161.51
534.095	11213.49
534.461	11097.34
534.826	11079.71
535.192	11070.67
535.557	11034.74
535.923	10937.34
536.288	10913.16
536.653	10885.14
537.019	10788.19
537.384	10721.98
537.749	10709.55
538.114	10674.52
538.479	10603.56
538.845	10613.96
539.21	10488.99
539.575	10421.87
539.94	10483.34
540.305	10448.76
540.67	10297.81
541.034	10358.6
541.399	10281.54
541.764	10286.06
542.129	10163.35
542.494	10157.25
542.858	10130.36
543.223	10020.53
543.587	10026.63
543.952	9937.37
544.316	9933.98
544.681	9892.62
545.045	9848.78
545.41	9850.14
545.774	9742.79
546.138	9780.31
546.503	9718.16
546.867	9607.66
547.231	9572.86
547.595	9562.69
547.959	9445.63
548.324	9388.68
548.688	9371.28
549.052	9398.17
549.416	9323.6
549.779	9225.52
550.143	9240.89
550.507	9186.2
550.871	9097.84
551.235	9075.02
551.599	9066.88
551.962	8967
552.326	8894.46
552.689	8956.37
553.053	8863.95
553.417	8755.25
553.78	8842.48
554.143	8729.49
554.507	8728.36
554.87	8656.95
555.234	8734.69
555.597	8648.36
555.96	8570.4
556.323	8633.67
556.686	8547.35
557.05	8510.96
557.413	8518.19
557.776	8465.54
558.139	8470.29
558.502	8435.48
558.865	8380.12
559.228	8405.65
559.59	8382.6
559.953	8289.27
560.316	8357.97
560.679	8291.99
561.041	8364.07
561.404	8326.56
561.767	8204.98
562.129	8215.15
562.492	8214.7
562.854	8226.45
563.217	8108.04
563.579	8200.91
563.941	8163.63
564.304	8137.41
564.666	8157.75
565.028	8124.76
565.39	8120.69
565.753	8181.48
566.115	8180.58
566.477	8164.76
566.839	8107.36
567.201	8116.85
567.563	8126.34
567.925	8134.02
568.287	8132.44
568.648	8150.97
569.01	8134.25
569.372	8097.64
569.734	8076.85
570.095	8082.73
570.457	8093.12
570.819	8044.31
571.18	8020.58
571.542	8091.76
571.903	8093.35
572.265	8139.9
572.626	8074.14
572.987	8037.75
573.349	8091.54
573.71	8061.48
574.071	8075.04
574.432	8097.19
574.794	8126.79
575.155	8059.9
575.516	8073.91
575.877	8073.91
576.238	8029.39
576.599	8100.8
576.96	8056.06
577.32	8010.64
577.681	8054.48
578.042	8103.74
578.403	8049.51
578.763	8082.5
579.124	8059.68
579.485	8049.05
579.845	8084.53
580.206	7991.65
580.566	8024.2
580.927	8094.7
581.287	8061.71
581.648	7947.36
582.008	8036.62
582.368	7955.27
582.728	8025.78
583.089	7915.5
583.449	7935.84
583.809	8039.56
584.169	7971.09
584.529	7942.62
584.889	7997.3
585.249	7920.92
585.609	7924.99
585.969	7925.89
586.329	7937.42
586.688	7930.64
587.048	7846.35
587.408	7842.96
587.768	7840.92
588.127	7842.28
588.487	7790.08
588.846	7899.23
589.206	7815.84
589.565	7862.39
589.925	7862.17
590.284	7852.22
590.643	7803.86
591.003	7807.7
591.362	7752.11
591.721	7778.55
592.08	7831.66
592.44	7765.22
592.799	7783.52
593.158	7812.68
593.517	7718.22
593.876	7748.5
594.235	7704.43
594.593	7704.88
594.952	7695.16
595.311	7700.59
595.67	7704.43
596.029	7685.22
596.387	7748.04
596.746	7712.34
597.104	7631.21
597.463	7674.83
597.822	7696.07
598.18	7659.23
598.538	7687.71
598.897	7659.23
599.255	7626.69
599.613	7715.05
599.972	7630.99
600.33	7632.34
600.688	7648.16
601.046	7651.78
601.404	7657.2
601.762	7596.86
602.12	7647.03
602.478	7621.27
602.836	7625.11
603.194	7578.33
603.552	7591.21
603.91	7583.98
604.268	7603.42
604.625	7589.18
604.983	7619.01
605.341	7525.68
605.698	7573.13
606.056	7545.56
606.413	7534.94
606.771	7595.05
607.128	7597.54
607.485	7564.77
607.843	7593.7
608.2	7612.23
608.557	7641.83
608.914	7594.83
609.272	7619.69
609.629	7597.77
609.986	7677.31
610.343	7556.19
610.7	7694.49
611.057	7626.01
611.414	7627.6
611.771	7633.7
612.127	7634.83
612.484	7682.74
612.841	7685.45
613.198	7637.77
613.554	7677.76
613.911	7635.28
614.267	7689.52
614.624	7678.67
614.98	7573.13
615.337	7667.59
615.693	7695.16
616.05	7636.18
616.406	7777.2
616.762	7688.16
617.118	7707.14
617.475	7680.93
617.831	7708.5
618.187	7702.62
618.543	7707.37
618.899	7802.96
619.255	7704.2
619.611	7709.4
619.967	7724.77
620.323	7702.85
620.678	7742.85
621.034	7741.49
621.39	7762.51
621.746	7719.12
622.101	7806.57
622.457	7779.23
622.812	7724.32
623.168	7757.31
623.523	7768.16
623.879	7722.06
624.234	7711.66
624.589	7716.18
624.945	7701.04
625.3	7693.81
625.655	7770.19
626.01	7807.7
626.365	7740.14
626.72	7673.02
627.075	7733.81
627.43	7636.18
627.785	7710.98
628.14	7695.16
628.495	7710.53
628.85	7677.99
629.205	7648.16
629.559	7699.91
629.914	7649.06
630.269	7629.18
630.623	7619.91
630.978	7617.43
631.332	7666.92
631.687	7678.89
632.041	7625.11
632.396	7604.32
632.75	7626.69
633.104	7590.08
633.459	7574.26
633.813	7530.2
634.167	7531.33
634.521	7584.89
634.875	7506.47
635.229	7529.75
635.583	7468.73
635.937	7502.4
636.291	7482.97
636.645	7524.77
636.999	7474.15
637.352	7501.95
637.706	7426.25
638.06	7476.87
638.413	7441.61
638.767	7405.91
639.121	7417.88
639.474	7390.77
639.828	7390.54
640.181	7365.91
640.534	7338.79
640.888	7329.75
641.241	7399.81
641.594	7349.19
641.947	7405.91
642.301	7329.75
642.654	7356.87
643.007	7343.76
643.36	7376.08
643.713	7374.27
644.066	7302.63
644.419	7293.82
644.771	7266.93
645.124	7227.38
645.477	7223.31
645.83	7126.59
646.182	7150.32
646.535	7118.46
646.888	7115.97
647.24	7057.67
647.593	7135.63
647.945	7113.94
648.298	7027.16
648.65	7054.5
649.002	7048.4
649.355	7131.11
649.707	7105.58
650.059	7131.56
650.411	7137.44
650.763	7174.27
651.115	7281.39
651.467	7174.27
651.819	7237.32
652.171	7259.47
652.523	7258.34
652.875	7266.93
653.227	7218.34
653.578	7242.97
653.93	7231.22
654.282	7191.68
654.633	7186.03
654.985	7233.71
655.337	7236.87
655.688	7231.67
656.039	7289.07
656.391	7288.17
656.742	7267.15
657.094	7225.57
657.445	7308.28
657.796	7283.88
658.147	7286.14
658.498	7232.8
658.849	7282.75
659.2	7301.73
659.551	7236.19
659.902	7327.04
660.253	7307.38
660.604	7365.91
660.955	7245.91
661.306	7303.76
661.656	7321.84
662.007	7301.5
662.358	7339.02
662.708	7318
663.059	7300.15
663.409	7309.19
663.76	7340.15
664.11	7255.18
664.461	7311.67
664.811	7392.57
665.161	7322.52
665.511	7306.47
665.862	7312.35
666.212	7293.37
666.562	7337.89
666.912	7350.54
667.262	7376.3
667.612	7295.63
667.962	7303.08
668.312	7311.9
668.662	7267.38
669.011	7385.57
669.361	7323.88
669.711	7301.05
670.06	7315.51
670.41	7311.22
670.76	7350.77
671.109	7355.74
671.459	7350.77
671.808	7212.69
672.157	7279.58
672.507	7259.02
672.856	7282.07
673.205	7297.21
673.554	7303.54
673.904	7261.96
674.253	7254.72
674.602	7265.12
674.951	7235.29
675.3	7144.9
675.649	7284.33
675.998	7250.66
676.346	7250.66
676.695	7247.04
677.044	7190.09
677.393	7217.66
677.741	7218.79
678.09	7161.39
678.438	7159.59
678.787	7167.27
679.135	7198.68
679.484	7181.51
679.832	7137.21
680.181	7043.43
680.529	7133.6
680.877	7114.84
681.225	7122.75
681.573	7156.2
681.922	7087.27
682.27	6971.12
682.618	7092.69
682.966	6986.93
683.314	7069.87
683.661	6942.64
684.009	6915.98
684.357	6921.17
684.705	6924.56
685.053	6944.45
685.4	6953.72
685.748	6912.13
686.095	6942.87
686.443	6817.9
686.79	6848.86
687.138	6881.4
687.485	6829.88
687.832	6792.82
688.18	6828.75
688.527	6790.56
688.874	6743.1
689.221	6704
689.568	6707.62
689.915	6713.72
690.262	6656.32
690.609	6719.82
690.956	6680.28
691.303	6631.69
691.65	6599.6
691.997	6608.64
692.344	6603.22
692.69	6535.42
693.037	6535.87
693.383	6505.37
693.73	6499.94
694.077	6457.01
694.423	6478.47
694.769	6418.36
695.116	6421.75
695.462	6360.96
695.808	6341.3
696.155	6326.61
696.501	6334.75
696.847	6270.57
697.193	6259.04
697.539	6297.24
697.885	6217.01
698.231	6215.88
698.577	6212.72
698.923	6169.1
699.269	6149.89
699.614	6072.83
699.96	6071.25
700.306	6054.53
700.651	6045.94
700.997	6046.17
701.342	5996.45
701.688	6028.09
702.033	5936.79
702.379	5948.09
702.724	5934.31
703.069	5941.99
703.415	5797.14
703.76	5832.84
704.105	5828.55
704.45	5795.78
704.795	5813.86
705.14	5805.95
705.485	5737.93
705.83	5766.85
706.175	5756.68
706.52	5719.17
706.865	5678.95
707.209	5691.83
707.554	5684.6
707.899	5694.77
708.243	5585.16
708.588	5573.41
708.932	5581.1
709.277	5567.09
709.621	5597.14
709.966	5512.17
710.31	5577.93
710.654	5487.99
710.998	5485.96
711.342	5487.54
711.687	5477.82
712.031	5443.47
712.375	5501.32
712.719	5409.12
713.063	5447.54
713.407	5423.13
713.75	5460.65
714.094	5407.99
714.438	5363.25
714.782	5352.4
715.125	5351.5
715.469	5365.28
715.812	5317.37
716.156	5340.88
716.499	5297.26
716.843	5306.53
717.186	5258.39
717.53	5320.31
717.873	5335.9
718.216	5329.8
718.559	5260.43
718.902	5230.6
719.246	5248.45
719.589	5242.8
719.932	5248.9
720.275	5233.76
720.617	5246.87
720.96	5193.99
721.303	5246.87
721.646	5230.82
721.989	5206.42
722.331	5195.12
722.674	5179.52
723.016	5200.54
723.359	5219.07
723.701	5190.6
724.044	5151.28
724.386	5156.93
724.729	5159.41
725.071	5198.06
725.413	5151.05
725.755	5180.88
726.097	5114.67
726.439	5105.4
726.782	5118.96
727.124	5090.94
727.465	5080.32
727.807	5142.24
728.149	5084.61
728.491	5101.56
728.833	5106.31
729.175	5132.75
729.516	5133.65
729.858	5132.29
730.199	5149.47
730.541	5102.24
730.882	5129.81
731.224	5128.68
731.565	5080.09
731.906	5135.01
732.248	5137.49
732.589	5069.02
732.93	5072.86
733.271	5100.66
733.612	5119.64
733.953	5110.37
734.294	5126.64
734.635	5117.38
734.976	5144.05
735.317	5096.59
735.658	5121.22
735.999	5130.26
736.339	5129.13
736.68	5194.21
737.021	5137.49
737.361	5146.31
737.702	5222.01
738.042	5174.78
738.383	5172.97
738.723	5214.78
739.063	5180.43
739.404	5227.21
739.744	5210.94
740.084	5249.81
740.424	5255.68
740.764	5240.31
741.104	5239.18
741.444	5281.22
741.784	5270.6
742.124	5256.36
742.464	5323.02
742.804	5301.33
743.143	5318.05
743.483	5351.05
743.823	5373.42
744.162	5389.46
744.502	5410.93
744.841	5441.66
745.181	5474.43
745.52	5474.88
745.86	5544.26
746.199	5579.06
746.538	5605.5
746.877	5693.86
747.216	5689.57
747.556	5708.55
747.895	5773.86
748.234	5764.82
748.573	5836.46
748.911	5893.86
749.25	5966.4
749.589	5959.62
749.928	6080.97
750.267	6134.98
750.605	6156.45
750.944	6287.29
751.283	6317.35
751.621	6402.54
751.96	6455.2
752.298	6569.77
752.636	6613.61
752.975	6720.05
753.313	6798.47
753.651	6934.73
753.989	7030.32
754.327	7079.59
754.666	7247.04
755.004	7379.69
755.342	7510.76
755.679	7596.86
756.017	7715.05
756.355	7879.34
756.693	7951.43
757.031	8164.53
757.368	8270.52
757.706	8396.62
758.044	8509.38
758.381	8672.54
758.719	8808.13
759.056	9008.8
759.394	9163.83
759.731	9288.57
760.068	9428.9
760.405	9549.58
760.743	9758.84
761.08	9931.72
761.417	10127.87
761.754	10261.88
762.091	10442.66
762.428	10526.28
762.765	10706.16
763.102	10949.32
763.438	11094.85
763.775	11247.39
764.112	11403.32
764.449	11589.53
764.785	11753.14
765.122	11880.37
765.458	12014.6
765.795	12178.89
766.131	12435.15
766.467	12501.37
766.804	12690.29
767.14	12825.88
767.476	12962.15
767.812	13118.98
768.148	13284.85
768.485	13372.98
768.821	13503.15
769.157	13598.74
769.492	13671.28
769.828	13877.38
770.164	13974.32
770.5	14111.72
770.836	14228.33
771.171	14285.5
771.507	14457.25
771.842	14445.95
772.178	14598.03
772.513	14626.28
772.849	14830.57
773.184	14892.72
773.519	15050.23
773.855	15053.16
774.19	15108.08
774.525	15176.78
774.86	15398.24
775.195	15358.01
775.53	15459.25
775.865	15517.78
776.2	15471.23
776.535	15493.6
776.87	15571.57
777.205	15710.32
777.539	15658.8
777.874	15872.8
778.209	15902.63
778.543	15841.62
778.878	15901.28
779.212	15943.76
779.547	15913.93
779.881	16107.15
780.215	15850.43
780.55	16053.36
780.884	16003.2
781.218	16069.41
781.552	16153.93
781.886	16155.96
782.22	16115.06
782.554	16134.27
782.888	16087.71
783.222	16032.35
783.556	16053.14
783.889	16134.72
784.223	16014.49
784.557	16092.23
784.89	16127.71
785.224	16048.62
785.557	16073.93
785.891	16131.78
786.224	16001.39
786.558	16149.18
786.891	16020.37
787.224	16023.76
787.557	16029.64
787.891	16020.14
788.224	16058.79
788.557	16068.5
788.89	16067.6
789.223	16069.18
789.556	15970.2
789.888	15966.36
790.221	15919.13
790.554	15855.85
790.887	15892.69
791.219	15815.63
791.552	15793.71
791.884	15793.26
792.217	15775.18
792.549	15753.48
792.882	15669.42
793.214	15611.79
793.546	15695.63
793.879	15660.83
794.211	15626.93
794.543	15694.73
794.875	15615.18
795.207	15666.25
795.539	15553.72
795.871	15596.88
796.203	15412.48
796.535	15425.13
796.867	15457.45
797.198	15408.41
797.53	15488.86
797.862	15309.88
798.193	15412.48
798.525	15294.97
798.856	15333.61
799.188	15189.21
799.519	15079.15
799.85	15134.97
800.182	15117.79
800.513	15074.18
800.844	15024.69
801.175	15125.03
801.506	15054.29
801.837	15000.28
802.168	14940.62
802.499	14855.65
802.83	14937.46
803.161	14905.6
803.491	14880.29
803.822	14859.95
804.153	14762.78
804.483	14734.53
804.814	14617.02
805.145	14631.71
805.475	14639.62
805.805	14664.47
806.136	14561.2
806.466	14622.89
806.796	14571.59
807.126	14458.6
807.457	14433.52
807.787	14461.09
808.117	14379.28
808.447	14360.3
808.777	14380.19
809.107	14290.7
809.436	14198.04
809.766	14278.72
810.096	14217.93
810.426	14074.43
810.755	14199.17
811.085	14194.2
811.414	14158.27
811.744	14077.14
812.073	13990.82
812.403	14057.03
812.732	13946.75
813.061	14012.74
813.39	13963.02
813.719	13914.66
814.049	13942.91
814.378	13939.52
814.707	13850.03
815.036	13808.22
815.365	13736.36
815.693	13745.63
816.022	13666.99
816.351	13613.65
816.68	13532.3
817.008	13610.72
817.337	13558.51
817.665	13468.8
817.994	13503.83
818.322	13557.84
818.651	13480.1
818.979	13428.35
819.307	13517.38
819.636	13422.92
819.964	13391.51
820.292	13409.14
820.62	13370.95
820.948	13365.98
821.276	13346.32
821.604	13333.43
821.932	13428.8
822.259	13351.06
822.587	13470.61
822.915	13395.81
823.243	13384.28
823.57	13349.93
823.898	13368.24
824.225	13341.8
824.553	13379.99
824.88	13350.84
825.207	13395.13
825.535	13269.48
825.862	13370.04
826.189	13279.2
826.516	13376.6
826.843	13400.55
827.17	13392.42
827.497	13414.11
827.824	13417.05
828.151	13325.53
828.478	13381.34
828.805	13413.43
829.131	13349.25
829.458	13410.04
829.785	13342.7
830.111	13355.58
830.438	13456.14
830.764	13432.87
831.09	13346.09
831.417	13359.65
831.743	13338.18
832.069	13381.12
832.395	13270.16
832.722	13358.97
833.048	13353.1
833.374	13320.1
833.7	13277.39
834.026	13268.13
834.351	13375.24
834.677	13285.07
835.003	13363.49
835.329	13348.8
835.654	13246.43
835.98	13291.85
836.306	13320.55
836.631	13281.68
836.956	13344.51
837.282	13228.58
837.607	13174.34
837.932	13191.29
838.258	13190.61
838.583	13214.79
838.908	13113.55
839.233	13136.6
839.558	13028.36
839.883	13060
840.208	12952.43
840.533	13005.53
840.858	12965.31
841.182	13007.12
841.507	13001.69
841.832	13015.25
842.156	12859.32
842.481	12787.23
842.805	12888.47
843.13	12813.45
843.454	12817.52
843.778	12728.25
844.103	12711.76
844.427	12692.32
844.751	12699.1
845.075	12630.63
845.399	12570.06
845.723	12495.72
846.047	12533.91
846.371	12429.73
846.695	12468.6
847.019	12314.48
847.343	12328.49
847.666	12268.83
847.99	12174.37
848.313	12162.39
848.637	12090.76
848.96	12088.95
849.284	12071.1
849.607	11949.74
849.931	11985
850.254	11851.21
850.577	11804.44
850.9	11855.28
851.223	11778.22
851.546	11699.58
851.869	11600.37
852.192	11592.24
852.515	11528.06
852.838	11422.07
853.161	11481.73
853.483	11432.69
853.806	11339.81
854.129	11378.01
854.451	11285.13
854.774	11299.59
855.096	11229.54
855.419	11180.5
855.741	11219.59
856.063	11162.19
856.385	11091.23
856.708	11086.26
857.03	11060.95
857.352	11057.56
857.674	10996.55
857.996	10943.44
858.318	10823.44
858.64	10822.77
858.961	10851.69
859.283	10787.29
859.605	10773.73
859.926	10754.75
860.248	10690.57
860.57	10712.94
860.891	10714.75
861.212	10686.5
861.534	10638.14
861.855	10617.12
862.176	10616.9
862.498	10627.29
862.819	10571.93
863.14	10582.32
863.461	10578.48
863.782	10528.99
864.103	10478.82
864.424	10463.23
864.745	10441.08
865.065	10383
865.386	10350.46
865.707	10418.03
866.027	10400.18
866.348	10351.82
866.668	10349.33
866.989	10280.18
867.309	10219.84
867.63	10330.8
867.95	10312.72
868.27	10127.64
868.59	10169.9
868.91	10226.17
869.23	10205.83
869.55	10114.08
869.87	10223.01
870.19	10143.69
870.51	10151.6
870.83	10176.91
871.15	10077.02
871.469	10129.45
871.789	10083.58
872.109	10056.68
872.428	9990.47
872.748	10006.52
873.067	9965.84
873.386	10037.7
873.706	10015.56
874.025	9941.21
874.344	9921.1
874.663	9964.48
874.982	9893.07
875.301	9897.14
875.62	9866.86
875.939	9883.36
876.258	9886.75
876.577	9826.41
876.896	9870.02
877.214	9750.93
877.533	9816.24
877.852	9709.58
878.17	9802.91
878.489	9743.02
878.807	9751.38
879.125	9686.52
879.444	9719.29
879.762	9702.57
880.08	9682.46
880.398	9604.49
880.716	9560.88
881.034	9564.27
881.352	9627.77
881.67	9594.32
881.988	9570.14
882.306	9494.89
882.624	9470.03
882.941	9449.02
883.259	9395.01
883.577	9415.57
883.894	9374.44
884.212	9416.48
884.529	9400.66
884.846	9342.58
885.164	9373.76
885.481	9286.08
885.798	9401.11
886.115	9281.34
886.432	9230.27
886.75	9239.53
887.067	9234.11
887.383	9184.39
887.7	9156.14
888.017	9112.75
888.334	9119.99
888.651	9143.71
888.967	9077.73
889.284	9037.95
889.6	9079.08
889.917	8979.2
890.233	8943.04
890.55	8861.91
890.866	8960.67
891.182	8852.87
891.498	8866.66
891.815	8802.25
892.131	8779.2
892.447	8778.75
892.763	8718.64
893.079	8790.05
893.395	8717.74
893.71	8675.25
894.026	8708.7
894.342	8574.92
894.657	8570.4
894.973	8589.38
895.289	8580.79
895.604	8511.64
895.92	8420.34
896.235	8460.12
896.55	8382.15
896.865	8412.89
897.181	8343.74
897.496	8385.99
897.811	8374.02
898.126	8362.49
898.441	8195.72
898.756	8197.07
899.071	8183.29
899.386	8164.98
899.7	8084.31
900.015	8088.37
900.33	8046.79
900.644	8052.67
900.959	8002.5
901.273	7985.33
901.588	7962.73
901.902	7941.49
902.216	7963.18
902.531	7891.77
902.845	7788.27
903.159	7786.46
903.473	7789.4
903.787	7743.3
904.101	7723.41
904.415	7708.05
904.729	7621.95
905.042	7585.56
905.356	7592.12
905.67	7575.62
905.984	7517.77
906.297	7505.34
906.611	7454.04
906.924	7427.6
907.237	7452.69
907.551	7408.62
907.864	7376.08
908.177	7322.75
908.491	7275.74
908.804	7255.85
909.117	7222.41
909.43	7169.98
909.743	7109.87
910.056	7221.51
910.368	7087.5
910.681	7089.76
910.994	7079.36
911.307	7108.06
911.619	7008.4
911.932	7009.08
912.244	6973.15
912.557	6913.94
912.869	6863.1
913.181	6851.8
913.494	6852.25
913.806	6810.44
914.118	6750.78
914.43	6762.53
914.742	6754.17
915.054	6687.06
915.366	6713.95
915.678	6655.64
915.99	6639.37
916.302	6628.98
916.613	6552.6
916.925	6539.94
917.236	6534.74
917.548	6464.69
917.859	6480.06
918.171	6450.68
918.482	6429.66
918.794	6366.61
919.105	6405.03
919.416	6360.06
919.727	6350.12
920.038	6313.73
920.349	6278.93
920.66	6273.96
920.971	6268.08
921.282	6219.72
921.593	6145.15
921.903	6113.29
922.214	6096.79
922.525	6111.48
922.835	6047.98
923.146	6037.36
923.456	6004.36
923.767	6036.9
924.077	5986.96
924.387	5889.34
924.697	5971.14
925.008	5890.47
925.318	5883.01
925.628	5870.13
925.938	5838.49
926.248	5781.09
926.558	5807.08
926.867	5753.97
927.177	5717.14
927.487	5727.98
927.796	5608.89
928.106	5667.65
928.416	5645.95
928.725	5615.9
929.034	5600.3
929.344	5622.23
929.653	5520.08
929.962	5558.5
930.271	5490.93
930.581	5500.65
930.89	5473.98
931.199	5415.68
931.508	5407.54
931.817	5426.98
932.125	5409.58
932.434	5369.58
932.743	5316.92
933.051	5276.47
933.36	5246.19
933.669	5239.18
933.977	5284.61
934.286	5234.66
934.594	5239.18
934.902	5142.69
935.21	5119.64
935.519	5122.8
935.827	5163.71
936.135	5095.69
936.443	5102.24
936.751	5022.92
937.059	5038.74
937.367	5043.48
937.674	4972.07
937.982	4965.97
938.29	4949.02
938.597	4969.81
938.905	4925.75
939.213	4911.51
939.52	4837.61
939.827	4846.2
940.135	4804.85
940.442	4736.6
940.749	4783.15
941.056	4811.4
941.363	4707.22
941.67	4743.38
941.977	4671.74
942.284	4684.85
942.591	4655.02
942.898	4624.06
943.205	4640.1
943.511	4584.06
943.818	4569.82
944.125	4550.84
944.431	4535.7
944.738	4537.28
945.044	4545.87
945.35	4537.28
945.657	4408.02
945.963	4457.28
946.269	4424.06
946.575	4408.92
946.881	4388.13
947.187	4344.07
947.493	4343.61
947.799	4344.07
948.105	4306.78
948.41	4285.99
948.716	4283.28
949.022	4248.7
949.327	4255.48
949.633	4208.02
949.938	4264.29
950.244	4203.28
950.549	4177.97
950.854	4207.57
951.16	4154.47
951.465	4102.04
951.77	4130.06
952.075	4090.97
952.38	4066.79
952.685	4075.37
952.99	4053.9
953.294	4005.77
953.599	4027.46
953.904	3961.48
954.209	3973.45
954.513	3975.71
954.818	3938.65
955.122	3909.73
955.426	3900.24
955.731	3892.55
956.035	3859.56
956.339	3866.79
956.643	3837.87
956.948	3795.83
957.252	3777.75
957.556	3784.99
957.86	3746.34
958.163	3704.31
958.467	3751.54
958.771	3765.1
959.075	3729.17
959.378	3661.82
959.682	3679.45
959.985	3656.85
960.289	3675.38
960.592	3610.53
960.896	3593.8
961.199	3590.64
961.502	3581.15
961.805	3570.98
962.108	3555.61
962.411	3573.69
962.714	3546.12
963.017	3476.52
963.32	3502.28
963.623	3449.85
963.926	3496.86
964.228	3401.94
964.531	3433.36
964.833	3398.55
965.136	3372.11
965.438	3374.15
965.741	3359.91
966.043	3388.61
966.345	3345.67
966.648	3333.7
966.95	3305.22
967.252	3306.35
967.554	3282.4
967.856	3309.07
968.158	3250.54
968.46	3238.56
968.761	3208.73
969.063	3231.78
969.365	3222.06
969.666	3219.8
969.968	3173.7
970.269	3179.58
970.571	3120.82
970.872	3124.89
971.174	3094.83
971.475	3127.38
971.776	3112.23
972.077	3066.13
972.378	3073.14
972.679	3043.31
972.98	3030.88
973.281	3009.19
973.582	3010.77
973.883	2982.97
974.183	3020.71
974.484	2999.92
974.785	2944.78
975.085	2930.09
975.386	2914.27
975.686	2933.03
975.986	2943.43
976.287	2950.66
976.587	2853.94
976.887	2874.05
977.187	2891.22
977.487	2863.65
977.787	2820.49
978.087	2777.1
978.387	2824.33
978.687	2848.96
978.987	2806.71
979.286	2770.32
979.586	2764.22
979.885	2750.89
980.185	2733.94
980.484	2718.57
980.784	2720.15
981.083	2675.18
981.382	2693.49
981.682	2691.23
981.981	2650.1
982.28	2637.22
982.579	2629.31
982.878	2622.98
983.177	2621.4
983.475	2581.4
983.774	2621.17
984.073	2587.73
984.372	2548.41
984.67	2540.72
984.969	2579.37
985.267	2535.98
985.566	2529.88
985.864	2523.1
986.162	2476.09
986.461	2472.93
986.759	2509.09
987.057	2486.71
987.355	2454.17
987.653	2465.02
987.951	2432.7
988.249	2422.54
988.547	2441.29
988.844	2402.42
989.142	2407.62
989.44	2373.72
989.737	2370.56
990.035	2386.83
990.332	2370.56
990.63	2368.53
990.927	2314.52
991.224	2305.48
991.521	2297.11
991.819	2302.09
992.116	2284.69
992.413	2278.13
992.71	2233.84
993.006	2245.36
993.303	2272.93
993.6	2242.88
993.897	2255.53
994.193	2252.37
994.49	2216.66
994.787	2192.94
995.083	2177.8
995.379	2178.47
995.676	2150
995.972	2131.24
996.268	2142.09
996.565	2144.12
996.861	2147.29
997.157	2123.11
997.453	2104.8
997.749	2057.35
998.044	2084.01
998.34	2050.34
998.636	2062.32
998.932	2053.73
999.227	2049.21
999.523	2032.94
999.818	1991.13
1000.114	2008.53
1000.409	2007.86
1000.704	1983.9
1001	1978.25
1001.295	1968.99
1001.59	1958.82
1001.885	1961.76
1002.18	1947.52
1002.475	1908.2
1002.77	1904.36
1003.065	1916.79
1003.359	1907.97
1003.654	1870.23
1003.949	1878.37
1004.243	1883.34
1004.538	1836.56
1004.832	1843.79
1005.127	1855.32
1005.421	1820.97
1005.715	1797.24
1006.009	1807.86
1006.304	1817.13
1006.598	1800.18
1006.892	1757.47
1007.186	1741.42
1007.48	1768.54
1007.773	1767.64
1008.067	1737.13
1008.361	1735.32
1008.655	1696.9
1008.948	1678.6
1009.242	1688.09
1009.535	1692.61
1009.829	1660.3
1010.122	1677.92
1010.415	1640.63
1010.708	1686.96
1011.001	1641.76
1011.295	1658.94
1011.588	1617.13
1011.881	1603.35
1012.173	1608.55
1012.466	1577.81
1012.759	1555.44
1013.052	1583.46
1013.344	1561.31
1013.637	1546.4
1013.93	1549.34
1014.222	1533.74
1014.514	1549.56
1014.807	1546.4
1015.099	1536.46
1015.391	1492.16
1015.683	1498.04
1015.976	1512.95
1016.268	1474.99
1016.56	1481.77
1016.851	1466.63
1017.143	1465.27
1017.435	1458.49
1017.727	1438.38
1018.018	1413.97
1018.31	1435.44
1018.602	1397.25
1018.893	1384.82
1019.185	1377.59
1019.476	1388.21
1019.767	1352.96
1020.058	1356.35
1020.35	1364.71
1020.641	1314.32
1020.932	1321.55
1021.223	1332.17
1021.514	1298.5
1021.804	1310.7
1022.095	1284.49
1022.386	1303.92
1022.677	1312.51
1022.967	1281.77
1023.258	1267.54
1023.548	1271.6
1023.839	1246.29
1024.129	1244.94
1024.419	1244.49
1024.709	1249.23
1025	1254.66
1025.29	1205.17
1025.58	1208.56
1025.87	1174.66
1026.16	1187.54
1026.449	1167.43
1026.739	1187.31
1027.029	1144.15
1027.319	1167.43
1027.608	1129.01
1027.898	1148.44
1028.187	1143.47
1028.477	1110.71
1028.766	1130.82
1029.055	1133.08
1029.344	1112.29
1029.634	1098.05
1029.923	1110.71
1030.212	1090.37
1030.501	1074.32
1030.79	1065.28
1031.078	1067.77
1031.367	1036.13
1031.656	1034.55
1031.945	1057.15
1032.233	1030.48
1032.522	1024.61
1032.81	1023.25
1033.099	1032.74
1033.387	1009.24
1033.675	1029.58
1033.963	1031.39
1034.251	1020.76
1034.54	954.55
1034.828	984.15
1035.116	987.54
1035.403	990.71
1035.691	965.17
1035.979	1006.3
1036.267	948.45
1036.554	958.84
1036.842	924.04
1037.129	938.96
1037.417	913.87
1037.704	942.12
1037.992	913.87
1038.279	918.62
1038.566	900.99
1038.853	900.99
1039.14	900.99
