Data from hue_00_FLMS001491_60.txt Node
Date: Mon Feb 06 15:29:56 GMT 2017
User: dcchb
Spectrometer: FLMS00149
Trigger mode: 0
Integration Time (sec): 2.000000E-2
Scans to average: 10
Electric dark correction enabled: true
Nonlinearity correction enabled: false
Boxcar width: 0
XAxis mode: Wavelengths
Number of Pixels in Spectrum: 2048
>>>>>Begin Spectral Data<<<<<
341.393	-14.31
341.776	-14.31
342.16	-14.31
342.543	-59.96
342.927	-88.43
343.31	-61.99
343.693	-54.31
344.077	-58.37
344.46	-68.09
344.843	-59.5
345.226	-34.65
345.61	-39.84
345.993	-2.78
346.376	-2.56
346.759	3.09
347.142	31.12
347.525	47.61
347.908	40.61
348.291	80.15
348.674	86.03
349.057	93.49
349.44	137.1
349.823	147.95
350.206	161.06
350.588	205.57
350.971	198.79
351.354	218.91
351.737	236.76
352.119	248.74
352.502	257.78
352.884	276.76
353.267	264.56
353.65	267.27
354.032	298.9
354.414	288.96
354.797	310.88
355.179	300.03
355.562	307.72
355.944	293.26
356.326	340.26
356.709	307.94
357.091	328.51
357.473	353.82
357.855	328.96
358.238	314.05
358.62	337.77
359.002	338.23
359.384	341.84
359.766	328.06
360.148	326.25
360.53	327.38
360.912	314.05
361.294	322.41
361.676	339.36
362.057	314.95
362.439	331.67
362.821	328.06
363.203	321.05
363.584	325.12
363.966	315.63
364.348	314.05
364.729	321.73
365.111	304.78
365.493	322.63
365.874	281.96
366.256	316.08
366.637	308.17
367.019	291.67
367.4	294.84
367.781	318.79
368.163	316.08
368.544	300.71
368.925	298.23
369.306	317.66
369.688	312.01
370.069	331.9
370.45	335.74
370.831	316.98
371.212	286.02
371.593	287.61
371.974	285.8
372.355	293.03
372.736	300.26
373.117	307.04
373.498	311.79
373.879	303.65
374.26	322.18
374.641	306.36
375.021	311.79
375.402	293.93
375.783	323.08
376.163	332.8
376.544	306.36
376.925	310.88
377.305	326.02
377.686	310.66
378.066	319.47
378.447	327.83
378.827	335.74
379.208	307.72
379.588	308.85
379.968	323.76
380.349	322.63
380.729	331.45
381.109	304.55
381.489	326.25
381.87	340.03
382.25	303.42
382.63	344.55
383.01	318.11
383.39	310.88
383.77	340.94
384.15	341.62
384.53	322.41
384.91	332.8
385.29	349.75
385.67	335.29
386.049	326.02
386.429	322.63
386.809	366.02
387.189	340.03
387.568	353.37
387.948	329.41
388.328	340.49
388.707	348.39
389.087	347.49
389.466	353.14
389.846	353.37
390.225	338.45
390.605	327.83
390.984	362.18
391.363	340.49
391.743	329.64
392.122	346.13
392.501	352.01
392.881	357.66
393.26	362.41
393.639	338.45
394.018	356.3
394.397	351.56
394.776	351.11
395.155	366.93
395.534	372.35
395.913	373.7
396.292	361.5
396.671	359.24
397.05	387.26
397.429	370.09
397.808	353.82
398.186	382.29
398.565	372.8
398.944	352.91
399.323	361.28
399.701	392.91
400.08	364.21
400.458	380.26
400.837	375.74
401.215	365.57
401.594	368.73
401.972	408.51
402.351	380.94
402.729	384.1
403.107	381.39
403.486	388.85
403.864	391.78
404.242	375.51
404.62	404.44
404.999	385.91
405.377	405.79
405.755	410.31
406.133	387.26
406.511	375.06
406.889	385
407.267	385.46
407.645	402.4
408.023	412.35
408.401	416.19
408.779	399.47
409.156	409.86
409.534	403.99
409.912	416.42
410.29	413.7
410.667	413.93
411.045	435.62
411.422	434.27
411.8	433.59
412.178	430.2
412.555	435.62
412.933	418.22
413.31	435.62
413.687	451.89
414.065	442.86
414.442	443.76
414.819	446.02
415.197	424.78
415.574	469.07
415.951	448.51
416.328	448.05
416.705	477.2
417.082	462.97
417.46	456.64
417.837	491.67
418.214	470.65
418.591	485.57
418.967	482.63
419.344	475.62
419.721	487.37
420.098	481.95
420.475	479.46
420.852	493.02
421.228	532.34
421.605	489.86
421.982	502.97
422.358	515.85
422.735	500.71
423.111	499.35
423.488	500.71
423.864	523.76
424.241	539.8
424.617	528.05
424.994	510.65
425.37	542.29
425.746	508.84
426.123	537.32
426.499	534.15
426.875	541.84
427.251	544.1
427.627	522.85
428.003	528.28
428.379	556.07
428.756	579.12
429.132	559.24
429.507	566.47
429.883	590.65
430.259	563.53
430.635	561.95
431.011	599.69
431.387	585.68
431.763	573.7
432.138	609.18
432.514	599.46
432.89	613.02
433.265	609.18
433.641	628.39
434.016	620.25
434.392	632.68
434.767	652.12
435.143	640.36
435.518	626.81
435.894	621.83
436.269	638.1
436.644	641.04
437.02	648.27
437.395	642.85
437.77	660.7
438.145	685.34
438.52	677.2
438.895	694.15
439.271	695.96
439.646	694.6
440.021	673.36
440.395	705
440.77	684.43
441.145	676.52
441.52	728.05
441.895	704.09
442.27	706.35
442.645	714.49
443.019	722.85
443.394	715.16
443.769	709.06
444.143	742.06
444.518	728.95
444.892	740.02
445.267	742.28
445.641	733.24
446.016	723.75
446.39	741.6
446.764	745.22
447.139	726.24
447.513	747.71
447.887	770.76
448.262	748.38
448.636	759.68
449.01	773.02
449.384	766.46
449.758	791.32
450.132	800.59
450.506	779.12
450.88	777.76
451.254	792.9
451.628	799.23
452.002	803.52
452.376	795.16
452.75	777.54
453.123	834.94
453.497	824.09
453.871	839.91
454.244	849.62
454.618	817.76
454.992	841.72
455.365	832.68
455.739	854.82
456.112	851.66
456.486	866.8
456.859	864.77
457.232	883.97
457.606	868.16
457.979	921.04
458.352	915.16
458.725	918.32
459.099	921.04
459.472	936.4
459.845	919.91
460.218	968.04
460.591	936.4
460.964	946.8
461.337	971.43
461.71	969.4
462.083	1005.1
462.456	1017.08
462.829	1004.65
463.201	999.68
463.574	1019.79
463.947	1025.44
464.32	1063.86
464.692	1043.29
465.065	1057.98
465.438	1077.64
465.81	1095.95
466.183	1089.84
466.555	1093.69
466.928	1110.86
467.3	1145.21
467.672	1135.72
468.045	1158.54
468.417	1156.51
468.789	1149.73
469.161	1180.24
469.534	1198.32
469.906	1205.77
470.278	1231.99
470.65	1236.06
471.022	1281.7
471.394	1306.11
471.766	1269.5
472.138	1315.6
472.51	1313.34
472.882	1338.65
473.253	1362.15
473.625	1376.39
473.997	1394.92
474.369	1433.79
474.74	1434.24
475.112	1474.24
475.484	1474.01
475.855	1502.71
476.227	1507.01
476.598	1555.14
476.97	1564.63
477.341	1597.63
477.713	1613.67
478.084	1656.83
478.455	1666.1
478.827	1676.5
479.198	1722.37
479.569	1758.53
479.94	1806.89
480.311	1784.29
480.682	1855.7
481.053	1863.84
481.424	1948.35
481.795	1919.65
482.166	1933.21
482.537	1979.76
482.908	2073.55
483.279	2070.16
483.65	2102.92
484.021	2130.72
484.391	2188.12
484.762	2199.42
485.133	2191.96
485.503	2273.99
485.874	2251.4
486.244	2290.49
486.615	2366.19
486.985	2380.43
487.356	2445.51
487.726	2442.58
488.097	2499.07
488.467	2510.6
488.837	2551.27
489.207	2602.35
489.578	2638.96
489.948	2653.19
490.318	2693.42
490.688	2739.07
491.058	2736.81
491.428	2807.54
491.798	2857.48
492.168	2892.73
492.538	2938.16
492.908	2967.31
493.278	2974.54
493.648	2994.65
494.017	3042.11
494.387	3067.42
494.757	3065.16
495.126	3135.44
495.496	3158.72
495.866	3172.73
496.235	3198.72
496.605	3205.72
496.974	3263.8
497.344	3254.76
497.713	3273.97
498.082	3307.64
498.452	3382.67
498.821	3336.56
499.19	3366.62
499.559	3405.26
499.928	3464.25
500.298	3463.34
500.667	3552.83
501.036	3499.5
501.405	3557.8
501.774	3531.59
502.143	3557.12
502.512	3567.97
502.88	3617.46
503.249	3613.62
503.618	3638.25
503.987	3654.07
504.356	3680.28
504.724	3745.37
505.093	3735.65
505.462	3757.12
505.83	3788.3
506.199	3776.1
506.567	3803.67
506.936	3819.26
507.304	3855.87
507.672	3868.75
508.041	3892.03
508.409	3941.52
508.777	3926.83
509.145	3923.44
509.514	3940.16
509.882	3953.27
510.25	3956.66
510.618	4000.5
510.986	4042.76
511.354	4007.51
511.722	4080.05
512.09	4084.34
512.458	4071.91
512.826	4124.57
513.193	4152.81
513.561	4094.29
513.929	4134.51
514.297	4155.53
514.664	4234.39
515.032	4230.55
515.4	4237.33
515.767	4264.22
516.135	4260.61
516.502	4254.96
516.869	4274.39
517.237	4300.61
517.604	4299.93
517.972	4360.27
518.339	4344.9
518.706	4357.1
519.073	4398.46
519.44	4381.51
519.808	4435.97
520.175	4365.01
520.542	4469.64
520.909	4512.58
521.276	4499.02
521.643	4518.91
522.009	4518.68
522.376	4554.84
522.743	4545.35
523.11	4598.9
523.477	4614.05
523.843	4605.46
524.21	4687.04
524.577	4675.51
524.943	4671.67
525.31	4733.59
525.676	4769.75
526.043	4791.22
526.409	4826.02
526.776	4860.59
527.142	4868.28
527.508	4871.67
527.874	4885
528.241	4949.4
528.607	4945.34
528.973	4987.14
529.339	4984.88
529.705	5044.77
530.071	5074.37
530.437	5096.52
530.803	5087.48
531.169	5096.97
531.535	5141.94
531.901	5142.39
532.267	5167.7
532.632	5215.16
532.998	5200.02
533.364	5256.29
533.73	5247.48
534.095	5289.06
534.461	5290.41
534.826	5378.32
535.192	5393.91
535.557	5383.29
535.923	5430.3
536.288	5409.73
536.653	5425.32
537.019	5432.1
537.384	5488.37
537.749	5507.13
538.114	5502.61
538.479	5523.4
538.845	5548.48
539.21	5575.83
539.575	5577.41
539.94	5621.25
540.305	5654.24
540.67	5681.59
541.034	5714.36
541.399	5678.88
541.764	5713.45
542.129	5777.4
542.494	5808.36
542.858	5823.73
543.223	5830.28
543.587	5823.28
543.952	5867.35
544.316	5844.75
544.681	5860.57
545.045	5939.21
545.41	5983.5
545.774	5989.38
546.138	5971.3
546.503	6053.33
546.867	5981.92
547.231	6072.09
547.595	6066.89
547.959	6119.09
548.324	6094.91
548.688	6132.42
549.052	6150.73
549.416	6150.5
549.779	6197.51
550.143	6230.95
550.507	6233.21
550.871	6311.18
551.235	6294
551.599	6316.15
551.962	6355.69
552.326	6347.79
552.689	6360.67
553.053	6399.31
553.417	6390.72
553.78	6416.48
554.143	6415.13
554.507	6508.01
554.87	6486.76
555.234	6541.68
555.597	6483.37
555.96	6574.9
556.323	6578.51
556.686	6541.68
557.05	6646.53
557.413	6640.21
557.776	6639.3
558.139	6718.17
558.502	6708
558.865	6682.92
559.228	6746.64
559.59	6803.59
559.953	6775.57
560.316	6811.95
560.679	6823.48
561.041	6893.99
561.404	6916.81
561.767	6917.49
562.129	6869.81
562.492	6937.83
562.854	6959.97
563.217	7019.41
563.579	7006.98
563.941	7006.75
564.304	7105.51
564.666	7175.79
565.028	7135.33
565.39	7135.33
565.753	7152.74
566.115	7204.49
566.477	7225.95
566.839	7263.69
567.201	7286.97
567.563	7286.29
567.925	7349.79
568.287	7397.47
568.648	7345.27
569.01	7409.9
569.372	7449.68
569.734	7433.41
570.095	7508.21
570.457	7581.88
570.819	7527.87
571.18	7573.52
571.542	7647.19
571.903	7651.48
572.265	7641.54
572.626	7705.26
572.987	7775.32
573.349	7844.69
573.71	7865.03
574.071	7867.29
574.432	7924.92
574.794	7986.39
575.155	8045.14
575.516	8078.14
575.877	8156.33
576.238	8212.82
576.599	8255.76
576.96	8333.72
577.32	8384.57
577.681	8427.73
578.042	8552.25
578.403	8563.09
578.763	8657.78
579.124	8734.39
579.485	8861.39
579.845	9003.31
580.206	9000.14
580.566	9140.25
580.927	9175.73
581.287	9310.19
581.648	9484.2
582.008	9533.92
582.368	9653.23
582.728	9778.43
583.089	9909.5
583.449	10045.77
583.809	10210.73
584.169	10365.31
584.529	10516.72
584.889	10736.14
585.249	10853.43
585.609	10994.67
585.969	11107.21
586.329	11304.49
586.688	11591.49
587.048	11694.54
587.408	11860.41
587.768	12137.24
588.127	12336.78
588.487	12501.75
588.846	12777.67
589.206	12901.74
589.565	13195.97
589.925	13505.34
590.284	13711.66
590.643	13942.16
591.003	14198.43
591.362	14466.22
591.721	14603.61
592.08	14939.42
592.44	15208.57
592.799	15408.11
593.158	15669.57
593.517	15936.91
593.876	16210.58
594.235	16447.86
594.593	16689.43
594.952	16980.95
595.311	17244.67
595.67	17643.53
596.029	17848.05
596.387	18163.97
596.746	18598.31
597.104	18722.15
597.463	18968.47
597.822	19383.37
598.18	19510.83
598.538	19706.98
598.897	20244.59
599.255	20312.84
599.613	20749.44
599.972	20993.95
600.33	21238.02
600.688	21470.1
601.046	21803.42
601.404	22189.85
601.762	22315.95
602.12	22706.23
602.478	22985.54
602.836	23152.54
603.194	23318.64
603.552	23605.64
603.91	23796.14
604.268	24119.07
604.625	24446.97
604.983	24623.91
605.341	24716.57
605.698	25137.8
606.056	25552.7
606.413	25595.19
606.771	25931.22
607.128	26215.51
607.485	26141.84
607.843	26444.43
608.2	26980.91
608.557	27081.93
608.914	27189.27
609.272	27549.04
609.629	27635.13
609.986	28055.91
610.343	28170.26
610.7	28531.61
611.057	28679.85
611.414	28777.03
611.771	28989.45
612.127	29234.41
612.484	29433.05
612.841	29623.78
613.198	29688.64
613.554	29868.75
613.911	30261.28
614.267	30292.92
614.624	30538.11
614.98	30722.06
615.337	30962.05
615.693	30991.43
616.05	31047.93
616.406	31367.24
616.762	31627.57
617.118	31550.74
617.475	31704.41
617.831	31888.58
618.187	32036.38
618.543	32166.99
618.899	32557.94
619.255	32583.71
619.611	32502.58
619.967	32743.93
620.323	32883.81
620.678	32921.32
621.034	33038.61
621.39	33054.88
621.746	33197.47
622.101	33704.35
622.457	33415.55
622.812	33628.2
623.168	33761.98
623.523	33864.35
623.879	33944.35
624.234	33850.11
624.589	34064.8
624.945	34125.36
625.3	34223.66
625.655	34292.59
626.01	34298.91
626.365	34509.98
626.72	34509.3
627.075	34493.49
627.43	34528.96
627.785	34642.41
628.14	34794.49
628.495	34866.13
628.85	34843.76
629.205	34742.29
629.559	35083.75
629.914	34924.21
630.269	35033.58
630.623	35001.04
630.978	34919.01
631.332	35218.89
631.687	35174.37
632.041	35129.4
632.396	35310.87
632.75	35162.17
633.104	35098.44
633.459	35020.48
633.813	35064.32
634.167	35088.05
634.521	35210.53
634.875	35282.84
635.229	35204.43
635.583	35154.49
635.937	35159.23
636.291	35155.62
636.645	35286.01
636.999	35288.72
637.352	35325.78
637.706	35193.13
638.06	35202.85
638.413	35153.36
638.767	35123.75
639.121	35308.83
639.474	35027.93
639.828	35143.64
640.181	35133.24
640.534	35218.89
640.888	35197.87
641.241	35027.93
641.594	35020.25
641.947	35338.66
642.301	35224.54
642.654	35165.78
643.007	35127.37
643.36	35087.37
643.713	35148.61
644.066	35184.09
644.419	35016.41
644.771	34840.82
645.124	34524.9
645.477	34439.48
645.83	34256.66
646.182	34137.56
646.535	34061.63
646.888	34220.72
647.24	33917
647.593	34169.43
647.945	34092.37
648.298	33883.56
648.65	33922.65
649.002	33773.5
649.355	34033.61
649.707	33983.44
650.059	34058.69
650.411	34406.71
650.763	34489.19
651.115	34834.49
651.467	34662.97
651.819	34693.93
652.171	34590.66
652.523	34674.27
652.875	34716.53
653.227	34475.18
653.578	34648.28
653.93	34690.54
654.282	34572.58
654.633	34513.15
654.985	34594.27
655.337	34603.54
655.688	34493.49
656.039	34663.42
656.391	34394.96
656.742	34410.1
657.094	34527.38
657.445	34648.28
657.796	34527.84
658.147	34402.87
658.498	34420.27
658.849	34436.76
659.2	34334.85
659.551	34448.29
659.902	34398.35
660.253	34458.23
660.604	34436.09
660.955	34222.53
661.306	34461.17
661.656	34344.56
662.007	34330.1
662.358	34366.94
662.708	34353.38
663.059	34379.36
663.409	34135.75
663.76	34276.54
664.11	34367.16
664.461	34303.43
664.811	34288.75
665.161	34298.01
665.511	34199.48
665.862	34267.73
666.212	34365.81
666.562	34356.77
666.912	34321.06
667.262	34146.83
667.612	34241.74
667.962	34312.7
668.312	34193.38
668.662	34333.94
669.011	34290.78
669.361	34134.85
669.711	34215.98
670.06	34118.58
670.41	34075.64
670.76	34039.26
671.109	34133.5
671.459	34153.16
671.808	34106.6
672.157	34125.13
672.507	34033.38
672.856	34141.4
673.205	33991.35
673.554	34065.7
673.904	34069.99
674.253	34109.32
674.602	34052.82
674.951	33609.22
675.3	33502.1
675.649	33999.26
675.998	33949.32
676.346	33993.61
676.695	33981.63
677.044	33731.7
677.393	33894.18
677.741	34016.66
678.09	33759.04
678.438	33734.64
678.787	33848.53
679.135	33634.07
679.484	33442.67
679.832	33552.72
680.181	33423.68
680.529	33455.77
680.877	33479.73
681.225	33411.25
681.573	33716.56
681.922	33348.21
682.27	33259.85
682.618	33298.71
682.966	33209.68
683.314	33198.83
683.661	33102.11
684.009	33049.23
684.357	32990.7
684.705	33109.79
685.053	33058.95
685.4	32973.75
685.748	32747.32
686.095	32791.84
686.443	32682.91
686.79	32628.9
687.138	32879.97
687.485	32665.96
687.832	32622.57
688.18	32662.57
688.527	32354.11
688.874	32355.91
689.221	32408.12
689.568	32266.2
689.915	32213.32
690.262	32166.09
690.609	32105.07
690.956	31962.03
691.303	32003.61
691.65	31825.53
691.997	31856.49
692.344	31651.98
692.69	31514.81
693.037	31526.11
693.383	31279.11
693.73	31604.97
694.077	31150.07
694.423	31298.09
694.769	31226.23
695.116	31022.16
695.462	31064.42
695.808	31040.47
696.155	31022.84
696.501	30854.71
696.847	30766.58
697.193	30622.18
697.539	30628.05
697.885	30420.15
698.231	30405.68
698.577	30381.5
698.923	30316.65
699.269	30235.29
699.614	30016.09
699.96	30077.78
700.306	29897.22
700.651	29867.62
700.997	29696.32
701.342	29720.5
701.688	29659.26
702.033	29606.83
702.379	29588.76
702.724	29387.63
703.069	29529.1
703.415	29156.68
703.76	29190.35
704.105	29233.06
704.45	29030.58
704.795	28930.47
705.14	28824.26
705.485	28820.19
705.83	28725.05
706.175	28901.99
706.52	28699.29
706.865	28678.05
707.209	28627.2
707.554	28519.18
707.899	28540.65
708.243	28426.53
708.588	28365.74
708.932	28281.67
709.277	28187.66
709.621	28201.22
709.966	28069.02
710.31	28145.63
710.654	27817.05
710.998	27852.3
711.342	27936.6
711.687	27826.54
712.031	27721.23
712.375	27652.99
712.719	27688.92
713.063	27667.22
713.407	27668.13
713.75	27606.89
714.094	27395.59
714.438	27370.51
714.782	27334.35
715.125	27265.43
715.469	27219.55
715.812	27117.86
716.156	26991.08
716.499	26951.09
716.843	27067.01
717.186	26817.76
717.53	26861.82
717.873	26988.6
718.216	26823.18
718.559	26764.65
718.902	26572.11
719.246	26601.72
719.589	26483.75
719.932	26427.03
720.275	26561.26
720.617	26456.41
720.96	26404.88
721.303	26370.54
721.646	26259.58
721.989	26136.42
722.331	26301.16
722.674	26174.61
723.016	26196.3
723.359	26235.62
723.701	26264.55
724.044	26020.94
724.386	25764.45
724.729	26042.86
725.071	25924.45
725.413	25867.05
725.755	25789.08
726.097	25717.67
726.439	25619.82
726.782	25649.88
727.124	25788.4
727.465	25559.48
727.807	25618.01
728.149	25536.66
728.491	25432.48
728.833	25516.55
729.175	25376.21
729.516	25350.68
729.858	25280.39
730.199	25272.94
730.541	25222.54
730.882	25207.85
731.224	25140.51
731.565	25074.07
731.906	25045.37
732.248	25066.61
732.589	25021.42
732.93	24974.64
733.271	24939.61
733.612	24929.67
733.953	24906.85
734.294	24864.36
734.635	24832.95
734.976	24897.13
735.317	24714.53
735.658	24716.12
735.999	24603.12
736.339	24526.97
736.68	24738.71
737.021	24606.29
737.361	24514.77
737.702	24693.29
738.042	24470.92
738.383	24479.06
738.723	24476.12
739.063	24302.79
739.404	24370.14
739.744	24387.31
740.084	24416.24
740.424	24345.28
740.764	24162.01
741.104	24228.44
741.444	24088.34
741.784	24111.61
742.124	24186.86
742.464	24081.33
742.804	24118.39
743.143	23997.26
743.483	23962.01
743.823	23777.38
744.162	23856.03
744.502	23821.68
744.841	23696.93
745.181	23773.99
745.52	23715.24
745.86	23785.07
746.199	23750.04
746.538	23712.75
746.877	23677.05
747.216	23698.06
747.556	23634.11
747.895	23558.63
748.234	23429.14
748.573	23392.53
748.911	23313.44
749.25	23471.63
749.589	23352.99
749.928	23451.74
750.267	23405.42
750.605	23232.09
750.944	23358.41
751.283	23186.89
751.621	23214.01
751.96	22998.87
752.298	23182.6
752.636	23140.34
752.975	22963.17
753.313	22837.75
753.651	23046.56
753.989	22855.15
754.327	22925.88
754.666	22811.98
755.004	22682.72
755.342	22705.32
755.679	22668.71
756.017	22536.51
756.355	22629.62
756.693	22488.83
757.031	22546.91
757.368	22414.26
757.706	22384.2
758.044	22291.55
758.381	22319.12
758.719	22174.49
759.056	22228.5
759.394	22085.9
759.731	22019.01
760.068	22041.38
760.405	21918.45
760.743	21937.43
761.08	21860.82
761.417	21660.38
761.754	21681.62
762.091	21594.84
762.428	21633.94
762.765	21442.98
763.102	21560.04
763.438	21450.89
763.775	21293.61
764.112	21311.46
764.449	21329.09
764.785	21149.88
765.122	20976.78
765.458	21015.42
765.795	21002.54
766.131	21111.24
766.467	20903.11
766.804	20751.02
767.14	20645.71
767.476	20774.07
767.812	20644.58
768.148	20532.04
768.485	20465.61
768.821	20370.47
769.157	20378.15
769.492	20314.2
769.828	20233.75
770.164	20108.33
770.5	20053.19
770.836	20092.51
771.171	19855
771.507	19941.1
771.842	19733.42
772.178	19739.52
772.513	19658.4
772.849	19544.27
773.184	19593.99
773.519	19601.45
773.855	19417.05
774.19	19398.06
774.525	19229.25
774.86	19243.94
775.195	19234.45
775.53	19165.75
775.865	19021.12
776.2	18810.51
776.535	18817.74
776.87	18825.65
777.205	18733.67
777.539	18596.05
777.874	18668.59
778.209	18549.72
778.543	18372.1
778.878	18409.39
779.212	18329.62
779.547	18263.18
779.881	18318.77
780.215	18076.52
780.55	18124.2
780.884	18030.64
781.218	18000.13
781.552	18008.27
781.886	17848.27
782.22	17897.76
782.554	17819.12
782.888	17537.77
783.222	17576.42
783.556	17453.93
783.889	17374.39
784.223	17286.48
784.557	17338.68
784.89	17351.11
785.224	17193.83
785.557	17150.66
785.891	17061.85
786.224	16989.54
786.558	17078.8
786.891	16847.85
787.224	16758.13
787.557	16707.29
787.891	16738.7
788.224	16757.23
788.557	16711.81
788.89	16615.76
789.223	16538.93
789.556	16515.88
789.888	16453.51
790.221	16303.68
790.554	16260.74
790.887	16248.99
791.219	16186.85
791.552	16152.05
791.884	16050.13
792.217	16002.45
792.549	15955.67
792.882	15722.91
793.214	15734.66
793.546	15750.93
793.879	15619.86
794.211	15622.8
794.543	15702.12
794.875	15536.24
795.207	15659.86
795.539	15452.63
795.871	15515
796.203	15353.65
796.535	15289.02
796.867	15184.84
797.198	15228.46
797.53	15147.78
797.862	15060.1
798.193	15032.08
798.525	14996.37
798.856	15011.29
799.188	14867.34
799.519	14818.07
799.85	14775.81
800.182	14794.12
800.513	14680.45
800.844	14609.71
801.175	14657.17
801.506	14646.1
801.837	14554.12
802.168	14562.26
802.499	14481.36
802.83	14395.03
803.161	14357.07
803.491	14376.27
803.822	14362.04
804.153	14286.33
804.483	14127.47
804.814	14101.03
805.145	14077.75
805.475	14052.22
805.805	13998.66
806.136	14000.01
806.466	14003.85
806.796	13948.26
807.126	13797.98
807.457	13773.13
807.787	13855.16
808.117	13767.03
808.447	13677.76
808.777	13725.67
809.107	13556.18
809.436	13590.98
809.766	13602.96
810.096	13555.28
810.426	13467.6
810.755	13417.2
811.085	13478.45
811.414	13457.88
811.744	13338.11
812.073	13312.8
812.403	13245.46
812.732	13208.4
813.061	13176.76
813.39	13113.26
813.719	13016.08
814.049	13127.04
814.378	13144.89
814.707	13045.24
815.036	13065.35
815.365	13005.46
815.693	12784.23
816.022	12859.48
816.351	12870.78
816.68	12770.67
817.008	12717.11
817.337	12698.8
817.665	12599.37
817.994	12687.05
818.322	12669.43
818.651	12591.91
818.979	12566.38
819.307	12648.41
819.636	12551.46
819.964	12490
820.292	12529.32
820.62	12452.71
820.948	12476.66
821.276	12532.93
821.604	12456.55
821.932	12485.7
822.259	12471.69
822.587	12433.73
822.915	12386.72
823.243	12443.67
823.57	12401.41
823.898	12417.68
824.225	12329.55
824.553	12312.6
824.88	12336.33
825.207	12390.79
825.535	12324.58
825.862	12431.47
826.189	12330.9
826.516	12402.99
826.843	12370
827.17	12415.87
827.497	12454.07
827.824	12360.06
828.151	12468.98
828.478	12400.51
828.805	12429.66
829.131	12313.28
829.458	12397.57
829.785	12265.6
830.111	12412.26
830.438	12341.3
830.764	12343.33
831.09	12273.28
831.417	12364.58
831.743	12351.47
832.069	12421.75
832.395	12312.6
832.722	12291.81
833.048	12284.13
833.374	12247.97
833.7	12191.93
834.026	12260.85
834.351	12291.13
834.677	12180.85
835.003	12315.09
835.329	12177.46
835.654	12197.8
835.98	12106.73
836.306	12156.67
836.631	12077.58
836.956	12085.04
837.282	12160.97
837.607	12084.81
837.932	11968.88
838.258	12022.89
838.583	12070.8
838.908	11948.54
839.233	11975.89
839.558	11863.12
839.883	11905.15
840.208	11819.51
840.533	11933.17
840.858	11869.45
841.182	11815.89
841.507	11873.74
841.832	11809.56
842.156	11756.91
842.481	11723.24
842.805	11684.37
843.13	11657.48
843.454	11715.78
843.778	11605.95
844.103	11592.39
844.427	11643.24
844.751	11580.19
845.075	11505.16
845.399	11496.35
845.723	11424.26
846.047	11411.61
846.371	11385.39
846.695	11337.26
847.019	11233.98
847.343	11185.62
847.666	11160.31
847.99	11140.88
848.313	11049.13
848.637	11044.84
848.96	11040.77
849.284	10993.76
849.607	10926.2
849.931	10864.73
850.254	10735.92
850.577	10786.31
850.9	10723.04
851.223	10668.58
851.546	10662.47
851.869	10631.97
852.192	10588.58
852.515	10546.09
852.838	10466.09
853.161	10420.45
853.483	10352.43
853.806	10372.31
854.129	10359.43
854.451	10347.68
854.774	10245.31
855.096	10304.29
855.419	10210.73
855.741	10179.77
856.063	10117.4
856.385	10078.99
856.708	10055.94
857.03	10070.85
857.352	10050.06
857.674	9926.22
857.996	9995.37
858.318	9897.52
858.64	9912.89
858.961	9872.89
859.283	9799.45
859.605	9851.2
859.926	9752.89
860.248	9804.42
860.57	9717.41
860.891	9764.42
861.212	9702.73
861.534	9634.7
861.855	9616.4
862.176	9610.07
862.498	9648.49
862.819	9606.91
863.14	9589.06
863.461	9548.83
863.782	9507.48
864.103	9498.89
864.424	9495.72
864.745	9496.63
865.065	9450.98
865.386	9437.65
865.707	9430.87
866.027	9461.38
866.348	9383.19
866.668	9399.68
866.989	9321.49
867.309	9341.15
867.63	9352.9
867.95	9286.69
868.27	9282.4
868.59	9307.71
868.91	9222.51
869.23	9259.35
869.55	9186.35
869.87	9252.57
870.19	9151.1
870.51	9200.37
870.83	9243.98
871.15	9105
871.469	9114.04
871.789	9192.91
872.109	9090.76
872.428	9087.83
872.748	9081.5
873.067	9119.24
873.386	9175.06
873.706	9101.61
874.025	8963.54
874.344	8958.79
874.663	8953.14
874.982	8952.01
875.301	8975.96
875.62	8968.73
875.939	8961.5
876.258	8925.8
876.577	8877.21
876.896	8853.71
877.214	8891.67
877.533	8876.98
877.852	8821.39
878.17	8881.96
878.489	8783.88
878.807	8807.83
879.125	8847.83
879.444	8802.86
879.762	8799.47
880.08	8744.56
880.398	8694.39
880.716	8779.59
881.034	8680.15
881.352	8739.36
881.67	8586.6
881.988	8719.02
882.306	8618.01
882.624	8581.17
882.941	8561.51
883.259	8519.03
883.577	8530.1
883.894	8502.98
884.212	8557.67
884.529	8468.63
884.846	8455.53
885.164	8443.32
885.481	8397.45
885.798	8415.53
886.115	8387.28
886.432	8351.8
886.75	8315.87
887.067	8364.68
887.383	8275.87
887.7	8269.09
888.017	8224.12
888.334	8232.26
888.651	8232.93
888.967	8221.18
889.284	8196.55
889.6	8161.52
889.917	8107.06
890.233	8132.14
890.55	8125.37
890.866	8068.19
891.182	8110.68
891.498	8029.1
891.815	8020.51
892.131	7973.51
892.447	7937.12
892.763	7878.37
893.079	7901.64
893.395	7872.72
893.71	7921.3
894.026	7818.48
894.342	7826.16
894.657	7822.77
894.973	7700.07
895.289	7685.83
895.604	7708.2
895.92	7663.68
896.235	7612.38
896.55	7662.55
896.865	7591.37
897.181	7548.88
897.496	7523.8
897.811	7540.07
898.126	7481.99
898.441	7455.55
898.756	7473.86
899.071	7454.87
899.386	7376.68
899.7	7331.49
900.015	7322.22
900.33	7303.01
900.644	7294.2
900.959	7282.45
901.273	7235.45
901.588	7172.62
901.902	7231.83
902.216	7189.12
902.531	7122.23
902.845	7075.22
903.159	7091.49
903.473	7078.61
903.787	7042
904.101	6927.88
904.415	7023.02
904.729	6950.93
905.042	6934.44
905.356	6908.67
905.67	6863.25
905.984	6873.42
906.297	6845.17
906.611	6795.68
906.924	6773.31
907.237	6745.06
907.551	6712.75
907.864	6697.15
908.177	6777.83
908.491	6646.08
908.804	6618.51
909.117	6626.42
909.43	6632.3
909.743	6531.96
910.056	6562.02
910.368	6474.56
910.681	6481.79
910.994	6470.27
911.307	6411.96
911.619	6353.43
911.932	6359.76
912.244	6319.76
912.557	6298.52
912.869	6294.91
913.181	6225.08
913.494	6227.79
913.806	6244.06
914.118	6171.29
914.43	6203.38
914.742	6157.73
915.054	6068.7
915.366	6083.61
915.678	6041.8
915.99	6084.74
916.302	5971.98
916.613	5988.7
916.925	5984.18
917.236	5978.98
917.548	5887.23
917.859	5873.22
918.171	5848.59
918.482	5875.03
918.794	5811.98
919.105	5825.31
919.416	5746.44
919.727	5743.73
920.038	5735.6
920.349	5728.82
920.66	5695.37
920.971	5673
921.282	5578.09
921.593	5607.47
921.903	5557.3
922.214	5575.83
922.525	5546.68
922.835	5468.03
923.146	5503.51
923.456	5445.89
923.767	5422.39
924.077	5426
924.387	5400.69
924.697	5339.68
925.008	5344.2
925.318	5375.16
925.628	5355.04
925.938	5298.55
926.248	5218.1
926.558	5245.89
926.867	5239.34
927.177	5182.62
927.487	5145.56
927.796	5159.79
928.106	5147.59
928.416	5108.72
928.725	5101.26
929.034	5070.53
929.344	5082.51
929.653	5046.35
929.962	4983.3
930.271	5029.4
930.581	5019.46
930.89	4917.54
931.199	4940.82
931.508	4978.78
931.817	4892.91
932.125	4892.68
932.434	4867.15
932.743	4859.46
933.051	4840.25
933.36	4786.92
933.669	4788.5
933.977	4787.83
934.286	4744.21
934.594	4738.79
934.902	4635.97
935.21	4619.24
935.519	4641.84
935.827	4640.94
936.135	4611.79
936.443	4574.95
936.751	4587.83
937.059	4557.32
937.367	4538.34
937.674	4513.93
937.982	4507.38
938.29	4487.5
938.597	4414.5
938.905	4421.28
939.213	4395.75
939.52	4401.62
939.827	4416.54
940.135	4380.15
940.442	4347.84
940.749	4334.73
941.056	4315.07
941.363	4252.92
941.67	4292.25
941.977	4204.79
942.284	4208.41
942.591	4204.56
942.898	4184.9
943.205	4183.32
943.511	4179.48
943.818	4167.28
944.125	4106.94
944.431	4097.22
944.738	4085.92
945.044	4109.88
945.35	4053.16
945.657	4038.47
945.963	4056.32
946.269	4044.79
946.575	4045.7
946.881	3974.29
947.187	3986.72
947.493	3915.31
947.799	3915.31
948.105	3899.04
948.41	3904.91
948.716	3894.52
949.022	3882.54
949.327	3864.23
949.633	3765.71
949.938	3792.15
950.244	3796.67
950.549	3783.78
950.854	3786.04
951.16	3741.75
951.465	3714.18
951.77	3704.92
952.075	3701.75
952.38	3702.43
952.685	3712.6
952.99	3620.85
953.294	3628.76
953.599	3633.05
953.904	3571.59
954.209	3573.39
954.513	3566.16
954.818	3546.05
955.122	3577.69
955.426	3491.81
955.731	3503.34
956.035	3463.79
956.339	3470.57
956.643	3478.26
956.948	3492.94
957.252	3418.6
957.556	3438.71
957.86	3420.18
958.163	3414.98
958.467	3389.44
958.771	3345.15
959.075	3318.71
959.378	3341.76
959.682	3314.19
959.985	3332.27
960.289	3317.81
960.592	3330.46
960.896	3260.63
961.199	3244.14
961.502	3240.75
961.805	3223.57
962.108	3204.14
962.411	3163.91
962.714	3189.9
963.017	3132.5
963.32	3186.51
963.623	3134.99
963.926	3144.25
964.228	3070.36
964.531	3121.2
964.833	3073.75
965.136	3066.52
965.438	3069.68
965.741	3014.54
966.043	3022.9
966.345	3045.5
966.648	2998.27
966.95	2967.08
967.252	2950.36
967.554	2966.86
967.856	2964.82
968.158	2930.25
968.46	2924.6
968.761	2962.79
969.063	2879.85
969.365	2906.75
969.666	2906.75
969.968	2834.66
970.269	2872.85
970.571	2852.28
970.872	2818.39
971.174	2782.46
971.475	2808.9
971.776	2790.59
972.077	2805.28
972.378	2758.73
972.679	2773.42
972.98	2748.11
973.281	2691.84
973.582	2730.93
973.883	2730.48
974.183	2685.28
974.484	2753.3
974.785	2691.16
975.085	2676.24
975.386	2706.07
975.686	2655.45
975.986	2650.48
976.287	2639.86
976.587	2600.09
976.887	2625.4
977.187	2610.26
977.487	2558.96
977.787	2555.34
978.087	2538.17
978.387	2504.5
978.687	2536.13
978.987	2549.92
979.286	2521.45
979.586	2484.61
979.885	2488.9
980.185	2483.48
980.484	2469.47
980.784	2476.02
981.083	2468.34
981.382	2445.97
981.682	2436.93
981.981	2441.67
982.28	2426.98
982.579	2377.72
982.878	2399.19
983.177	2413.2
983.475	2377.49
983.774	2336.82
984.073	2348.79
984.372	2367.78
984.67	2341.79
984.969	2307.44
985.267	2341.79
985.566	2318.06
985.864	2303.37
986.162	2266.54
986.461	2273.77
986.759	2253.88
987.057	2217.5
987.355	2207.55
987.653	2249.59
987.951	2225.86
988.249	2204.84
988.547	2212.75
988.844	2193.77
989.142	2205.52
989.44	2172.08
989.737	2142.02
990.035	2153.77
990.332	2139.08
990.63	2124.39
990.927	2082.81
991.224	2087.11
991.521	2095.02
991.819	2060.21
992.116	2054.79
992.413	2083.94
992.71	2056.15
993.006	2059.54
993.303	2026.32
993.6	2046.2
993.897	2016.37
994.193	2043.49
994.49	2019.99
994.787	1975.02
995.083	1968.01
995.379	1990.84
995.676	1959.88
995.972	1965.98
996.268	1956.26
996.565	1950.39
996.861	1948.35
997.157	1935.7
997.453	1913.55
997.749	1921.69
998.044	1866.55
998.34	1884.63
998.636	1858.64
998.932	1861.8
999.227	1878.75
999.523	1873.1
999.818	1869.94
1000.114	1845.3
1000.409	1810.73
1000.704	1810.5
1001	1826.32
1001.295	1780.45
1001.59	1801.46
1001.885	1776.38
1002.18	1758.3
1002.475	1770.96
1002.77	1765.98
1003.065	1713.78
1003.359	1748.13
1003.654	1747
1003.949	1726.21
1004.243	1696.16
1004.538	1697.51
1004.832	1692.54
1005.127	1686.89
1005.421	1685.53
1005.715	1653.22
1006.009	1641.92
1006.304	1666.33
1006.598	1636.95
1006.892	1658.64
1007.186	1605.54
1007.48	1617.97
1007.773	1616.16
1008.067	1575.93
1008.361	1565.76
1008.655	1601.7
1008.948	1577.52
1009.242	1523.96
1009.535	1569.38
1009.829	1525.09
1010.122	1519.44
1010.415	1512.88
1010.708	1508.14
1011.001	1505.65
1011.295	1480.79
1011.588	1480.34
1011.881	1488.48
1012.173	1494.58
1012.466	1451.87
1012.759	1475.37
1013.052	1453
1013.344	1451.64
1013.637	1431.08
1013.93	1420.46
1014.222	1399.67
1014.514	1424.75
1014.807	1386.79
1015.099	1399.21
1015.391	1394.02
1015.683	1398.54
1015.976	1352.44
1016.268	1368.03
1016.56	1360.35
1016.851	1372.55
1017.143	1349.27
1017.435	1329.39
1017.727	1304.75
1018.018	1326.67
1018.31	1320.57
1018.602	1323.51
1018.893	1273.12
1019.185	1285.77
1019.476	1283.51
1019.767	1291.87
1020.058	1268.14
1020.35	1255.49
1020.641	1237.86
1020.932	1217.07
1021.223	1214.13
1021.514	1194.47
1021.804	1208.94
1022.095	1213.91
1022.386	1169.39
1022.677	1196.96
1022.967	1201.03
1023.258	1172.1
1023.548	1201.03
1023.839	1148.6
1024.129	1183.63
1024.419	1179.56
1024.709	1142.27
1025	1120.58
1025.29	1108.83
1025.58	1114.48
1025.87	1099.79
1026.16	1091.65
1026.449	1116.28
1026.739	1099.56
1027.029	1072.67
1027.319	1085.55
1027.608	1078.55
1027.898	1076.96
1028.187	1055.72
1028.477	1043.74
1028.766	1044.2
1029.055	1052.78
1029.344	1018.43
1029.634	993.8
1029.923	1032.67
1030.212	1007.81
1030.501	983.18
1030.79	983.63
1031.078	1001.48
1031.367	989.06
1031.656	962.39
1031.945	981.82
1032.233	967.14
1032.522	963.52
1032.81	975.27
1033.099	951.54
1033.387	938.66
1033.675	951.77
1033.963	947.02
1034.251	940.7
1034.54	925.1
1034.828	915.16
1035.116	928.04
1035.403	892.34
1035.691	907.02
1035.979	907.7
1036.267	918.1
1036.554	889.62
1036.842	872.9
1037.129	862.05
1037.417	882.17
1037.704	850.98
1037.992	849.17
1038.279	869.74
1038.566	862.05
1038.853	862.05
1039.14	862.05
