Data from hue_330_FLMS001491_7.txt Node
Date: Mon Feb 06 15:44:48 GMT 2017
User: dcchb
Spectrometer: FLMS00149
Trigger mode: 0
Integration Time (sec): 2.000000E-2
Scans to average: 10
Electric dark correction enabled: true
Nonlinearity correction enabled: false
Boxcar width: 0
XAxis mode: Wavelengths
Number of Pixels in Spectrum: 2048
>>>>>Begin Spectral Data<<<<<
341.393	-23.06
341.776	-23.06
342.16	-23.06
342.543	-76.17
342.927	-93.8
343.31	-66.68
343.693	-56.74
344.077	-74.14
344.46	-59.45
344.843	-52.89
345.226	-40.01
345.61	-24.65
345.993	-33.46
346.376	-5.89
346.759	17.84
347.142	29.14
347.525	25.97
347.908	61.23
348.291	79.53
348.674	94.67
349.057	105.52
349.44	103.94
349.823	140.32
350.206	162.47
350.588	189.13
350.971	211.28
351.354	216.25
351.737	232.75
352.119	244.05
352.502	240.21
352.884	280.2
353.267	266.87
353.65	285.4
354.032	293.76
354.414	301.9
354.797	318.4
355.179	316.81
355.562	332.41
355.944	329.24
356.326	336.25
356.709	327.89
357.091	319.98
357.473	352.07
357.855	316.81
358.238	344.84
358.62	352.52
359.002	313.88
359.384	326.76
359.766	345.29
360.148	329.69
360.53	339.19
360.912	315.91
361.294	352.52
361.676	349.13
362.057	314.1
362.439	338.96
362.821	308.9
363.203	308.68
363.584	317.27
363.966	329.24
364.348	315.91
364.729	328.11
365.111	321.79
365.493	319.75
365.874	323.59
366.256	299.86
366.637	312.29
367.019	292.41
367.4	312.97
367.781	335.34
368.163	312.29
368.544	329.47
368.925	298.51
369.306	303.71
369.688	310.71
370.069	319.07
370.45	310.03
370.831	301.45
371.212	324.5
371.593	320.43
371.974	303.25
372.355	301.9
372.736	310.03
373.117	301.45
373.498	297.15
373.879	318.4
374.26	291.05
374.641	296.7
375.021	306.19
375.402	322.69
375.783	304.16
376.163	316.36
376.544	310.03
376.925	329.24
377.305	329.24
377.686	324.05
378.066	337.38
378.447	325.18
378.827	304.61
379.208	314.33
379.588	319.98
379.968	332.63
380.349	338.96
380.729	332.18
381.109	326.3
381.489	334.44
381.87	330.15
382.25	336.93
382.63	342.58
383.01	311.84
383.39	340.77
383.77	338.96
384.15	321.11
384.53	366.76
384.91	344.38
385.29	361.33
385.67	365.85
386.049	338.06
386.429	332.18
386.809	357.49
387.189	352.52
387.568	356.59
387.948	340.54
388.328	342.58
388.707	368.11
389.087	367.89
389.466	361.56
389.846	352.52
390.225	389.35
390.605	352.29
390.984	357.49
391.363	365.4
391.743	369.47
392.122	362.46
392.501	363.14
392.881	358.62
393.26	363.37
393.639	376.02
394.018	379.64
394.397	383.25
394.776	377.15
395.155	396.13
395.534	375.57
395.913	365.63
396.292	367.66
396.671	373.31
397.05	378.06
397.429	368.56
397.808	374.21
398.186	382.12
398.565	373.54
398.944	399.3
399.323	402.69
399.701	395.46
400.08	411.73
400.458	390.94
400.837	404.04
401.215	390.48
401.594	386.42
401.972	428.68
402.351	423.7
402.729	399.52
403.107	401.56
403.486	426.42
403.864	414.89
404.242	421.44
404.62	412.63
404.999	408.56
405.377	451.73
405.755	426.19
406.133	424.83
406.511	451.5
406.889	420.31
407.267	439.52
407.645	421.44
408.023	445.4
408.401	458.05
408.779	443.82
409.156	451.5
409.534	465.96
409.912	463.7
410.29	460.76
410.667	477.49
411.045	468.67
411.422	488.56
411.8	479.97
412.178	513.42
412.555	481.33
412.933	497.37
413.31	494.89
413.687	520.2
414.065	502.12
414.442	533.76
414.819	523.14
415.197	529.69
415.574	547.99
415.951	559.29
416.328	548.45
416.705	544.15
417.082	546.64
417.46	563.36
417.837	571.04
418.214	592.51
418.591	588.67
418.967	592.74
419.344	595.22
419.721	615.79
420.098	606.3
420.475	612.4
420.852	607.88
421.228	637.48
421.605	639.07
421.982	659.86
422.358	624.38
422.735	646.3
423.111	659.63
423.488	675.22
423.864	666.41
424.241	675.22
424.617	677.71
424.994	661.89
425.37	713.19
425.746	685.17
426.123	719.74
426.499	709.35
426.875	700.08
427.251	701.44
427.627	719.51
428.003	733.53
428.379	742.57
428.756	756.58
429.132	765.84
429.507	770.14
429.883	794.99
430.259	773.75
430.635	785.5
431.011	801.77
431.387	785.28
431.763	786.18
432.138	824.14
432.514	828.21
432.89	822.34
433.265	825.73
433.641	867.76
434.016	862.11
434.392	842.9
434.767	863.01
435.143	881.32
435.518	903.69
435.894	920.41
436.269	891.71
436.644	910.7
437.02	930.13
437.395	938.49
437.77	913.86
438.145	944.14
438.52	960.19
438.895	961.77
439.271	960.86
439.646	953.86
440.021	977.36
440.395	980.53
440.77	992.95
441.145	1010.58
441.52	1017.13
441.895	1026.17
442.27	1035.44
442.645	1024.59
443.019	1039.28
443.394	1034.76
443.769	1049.22
444.143	1009.22
444.518	1053.97
444.892	1051.94
445.267	1096.68
445.641	1057.81
446.016	1046.74
446.39	1085.16
446.764	1075.66
447.139	1081.09
447.513	1104.14
447.887	1065.27
448.262	1108.88
448.636	1075.44
449.01	1086.28
449.384	1120.63
449.758	1092.84
450.132	1126.96
450.506	1119.5
450.88	1135.1
451.254	1128.54
451.628	1134.19
452.002	1150.01
452.376	1155.89
452.75	1170.8
453.123	1165.6
453.497	1181.65
453.871	1172.61
454.244	1197.47
454.618	1205.15
454.992	1234.98
455.365	1229.33
455.739	1221.2
456.112	1229.33
456.486	1239.95
456.859	1257.13
457.232	1266.17
457.606	1284.02
457.979	1300.97
458.352	1303.91
458.725	1341.65
459.099	1307.3
459.472	1340.29
459.845	1338.48
460.218	1371.25
460.591	1350.68
460.964	1353.17
461.337	1421.19
461.71	1400.63
462.083	1409.21
462.456	1426.16
462.829	1416.9
463.201	1450.8
463.574	1437.91
463.947	1470.91
464.32	1484.92
464.692	1507.97
465.065	1507.52
465.438	1513.84
465.81	1541.87
466.183	1528.08
466.555	1559.49
466.928	1581.64
467.3	1542.54
467.672	1608.31
468.045	1596.33
468.417	1633.16
468.789	1613.5
469.161	1641.3
469.534	1649.43
469.906	1705.48
470.278	1710.22
470.65	1731.92
471.022	1747.74
471.394	1765.36
471.766	1766.72
472.138	1790.45
472.51	1797.68
472.882	1839.03
473.253	1881.52
473.625	1881.52
473.997	1918.58
474.369	1924.68
474.74	1928.52
475.112	1944.79
475.484	1988.63
475.855	2002.19
476.227	2037.22
476.598	2056.2
476.97	2050.78
477.341	2112.7
477.713	2131.91
478.084	2151.57
478.455	2202.19
478.827	2214.84
479.198	2289.87
479.569	2275.63
479.94	2365.12
480.311	2339.59
480.682	2401.05
481.053	2442.41
481.424	2451.67
481.795	2465.23
482.166	2504.78
482.537	2528.96
482.908	2561.73
483.279	2575.74
483.65	2594.95
484.021	2667.49
484.391	2668.62
484.762	2692.12
485.133	2717.88
485.503	2761.5
485.874	2806.47
486.244	2808.05
486.615	2886.24
486.985	2901.38
487.356	2924.65
487.726	2957.87
488.097	3020.25
488.467	2996.52
488.837	3096.63
489.207	3089.62
489.578	3141.15
489.948	3169.17
490.318	3169.62
490.688	3217.53
491.058	3242.61
491.428	3274.02
491.798	3293.46
492.168	3333.68
492.538	3385.89
492.908	3408.26
493.278	3485.32
493.648	3415.72
494.017	3454.36
494.387	3478.54
494.757	3531.64
495.126	3581.81
495.496	3521.7
495.866	3577.97
496.235	3647.8
496.605	3693.9
496.974	3687.57
497.344	3712.66
497.713	3713.79
498.082	3732.54
498.452	3769.83
498.821	3785.65
499.19	3768.7
499.559	3857.51
499.928	3839.43
500.298	3823.84
500.667	3909.71
501.036	3864.29
501.405	3878.98
501.774	3926.66
502.143	3958.75
502.512	3945.19
502.88	3998.75
503.249	4002.14
503.618	4005.53
503.987	4027.68
504.356	4017.06
504.724	4042.82
505.093	4062.03
505.462	4100.89
505.83	4139.09
506.199	4095.02
506.567	4143.83
506.936	4161.23
507.304	4203.72
507.672	4207.33
508.041	4210.95
508.409	4192.42
508.777	4241.91
509.145	4276.48
509.514	4302.25
509.882	4297.95
510.25	4290.95
510.618	4277.61
510.986	4346.76
511.354	4392.64
511.722	4401.45
512.09	4391.73
512.458	4412.07
512.826	4436.71
513.193	4443.26
513.561	4403.71
513.929	4485.29
514.297	4526.87
514.664	4515.57
515.032	4530.49
515.4	4526.19
515.767	4578.17
516.135	4564.39
516.502	4471.28
516.869	4546.53
517.237	4618.17
517.604	4599.64
517.972	4615.46
518.339	4635.8
518.706	4664.95
519.073	4641.22
519.44	4682.8
519.808	4692.74
520.175	4677.15
520.542	4720.77
520.909	4772.74
521.276	4760.99
521.643	4796.47
522.009	4824.94
522.376	4831.95
522.743	4843.93
523.11	4845.51
523.477	4937.48
523.843	4917.6
524.21	4962.57
524.577	4985.84
524.943	4986.52
525.31	4972.96
525.676	5083.24
526.043	5059.97
526.409	5125.27
526.776	5144.48
527.142	5122.11
527.508	5130.25
527.874	5208.21
528.241	5276.01
528.607	5224.71
528.973	5290.69
529.339	5255.67
529.705	5354.65
530.071	5323.46
530.437	5327.3
530.803	5363.46
531.169	5436
531.535	5452.72
531.901	5433.97
532.267	5435.78
532.632	5454.31
532.998	5488.43
533.364	5550.12
533.73	5508.32
534.095	5605.04
534.461	5624.7
534.826	5680.06
535.192	5591.03
535.557	5637.8
535.923	5702.43
536.288	5716.22
536.653	5780.62
537.019	5778.59
537.384	5830.34
537.749	5827.4
538.114	5826.95
538.479	5816.1
538.845	5828.76
539.21	5830.34
539.575	5887.97
539.94	5937.91
540.305	5920.96
540.67	5982.88
541.034	5954.86
541.399	6076.21
541.764	6120.28
542.129	6023.78
542.494	6094.29
542.858	6149.88
543.223	6130.45
543.587	6115.53
543.952	6226.04
544.316	6202.76
544.681	6214.06
545.045	6254.51
545.41	6275.75
545.774	6312.36
546.138	6374.06
546.503	6362.53
546.867	6360.95
547.231	6372.47
547.595	6438.23
547.959	6478.23
548.324	6463.77
548.688	6528.18
549.052	6546.93
549.416	6574.05
549.779	6563.88
550.143	6562.3
550.507	6647.04
550.871	6614.28
551.235	6598.68
551.599	6682.3
551.962	6744.89
552.326	6719.36
552.689	6747.38
553.053	6756.87
553.417	6750.77
553.78	6799.13
554.143	6844.78
554.507	6825.12
554.87	6852.46
555.234	6895.85
555.597	6898.11
555.96	6887.26
556.323	6929.07
556.686	6964.32
557.05	7004.55
557.413	7009.52
557.776	7009.52
558.139	7057.43
558.502	7007.94
558.865	7064.88
559.228	7193.24
559.59	7141.94
559.953	7143.3
560.316	7177.65
560.679	7207.48
561.041	7204.09
561.404	7285.44
561.767	7313.01
562.129	7314.37
562.492	7356.85
562.854	7293.35
563.217	7348.04
563.579	7379.9
563.941	7385.55
564.304	7447.25
564.666	7491.99
565.028	7559.34
565.39	7510.3
565.753	7547.36
566.115	7520.24
566.477	7616.28
566.839	7636.62
567.201	7600.01
567.563	7688.6
567.925	7761.82
568.287	7713
568.648	7772.44
569.01	7780.35
569.372	7841.36
569.734	7880.68
570.095	7854.69
570.457	7936.95
570.819	8013.11
571.18	7949.38
571.542	8054.46
571.903	8026.44
572.265	8080.9
572.626	8148.92
572.987	8169.04
573.349	8254.46
573.71	8308.24
574.071	8309.6
574.432	8344.85
574.794	8489.03
575.155	8563.6
575.516	8516.37
575.877	8521.34
576.238	8700.32
576.599	8718.17
576.96	8747.33
577.32	8814.22
577.681	8954.55
578.042	8998.39
578.403	9127.2
578.763	9145.51
579.124	9264.15
579.485	9336.24
579.845	9469.79
580.206	9510.24
580.566	9666.17
580.927	9694.42
581.287	9926.05
581.648	9961.98
582.008	10218.47
582.368	10201.75
582.728	10427.28
583.089	10558.35
583.449	10657.11
583.809	10846.48
584.169	11037.66
584.529	11146.13
584.889	11359.69
585.249	11574.82
585.609	11728.49
585.969	11892.78
586.329	12065.88
586.688	12276.95
587.048	12557.85
587.408	12723.49
587.768	12968.46
588.127	13245.06
588.487	13427.43
588.846	13740.64
589.206	13861.77
589.565	14094.3
589.925	14511.92
590.284	14601.18
590.643	14925.02
591.003	15127.72
591.362	15540.14
591.721	15699.69
592.08	16013.35
592.44	16372.44
592.799	16562.94
593.158	16821.01
593.517	17085.86
593.876	17458.74
594.235	17560.43
594.593	18011.49
594.952	18416.45
595.311	18510.69
595.67	18990.22
596.029	19312.7
596.387	19603.31
596.746	19841.95
597.104	20013.7
597.463	20471.54
597.822	20648.71
598.18	20824.75
598.538	21223.38
598.897	21648
599.255	21678.74
599.613	22364.6
599.972	22480.98
600.33	22770.69
600.688	22907.41
601.046	23334.97
601.404	23604.56
601.762	23861.51
602.12	24226.69
602.478	24492
602.836	24652.9
603.194	24817.64
603.552	25096.05
603.91	25395.02
604.268	25801.12
604.625	25946.2
604.983	26200.43
605.341	26453.98
605.698	26769.45
606.056	27115.43
606.413	27225.71
606.771	27587.96
607.128	27844
607.485	27861.85
607.843	28158.34
608.2	28553.36
608.557	28702.06
608.914	28907.93
609.272	29133.23
609.629	29408.03
609.986	29732.99
610.343	29809.15
610.7	30149.7
611.057	30437.38
611.414	30526.41
611.771	30684.83
612.127	31136.79
612.484	31161.2
612.841	31556.22
613.198	31418.59
613.554	31634.18
613.911	31985.81
614.267	32171.12
614.624	32193.49
614.98	32368.4
615.337	32809.29
615.693	32848.84
616.05	32891.1
616.406	33254.25
616.762	33221.94
617.118	33369.96
617.475	33493.79
617.831	33748.03
618.187	33942.82
618.543	34220.56
618.899	34353.21
619.255	34394.11
619.611	34544.61
619.967	34704.38
620.323	34801.56
620.678	34858.73
621.034	34886.98
621.39	35016.69
621.746	35109.8
622.101	35660.52
622.457	35546.4
622.812	35568.54
623.168	35816.45
623.523	35826.84
623.879	36072.94
624.234	35907.52
624.589	36136.66
624.945	36227.96
625.3	36201.52
625.655	36337.11
626.01	36438.58
626.365	36455.07
626.72	36556.76
627.075	36520.83
627.43	36645.35
627.785	36674.73
628.14	36660.04
628.495	36770.54
628.85	36860.94
629.205	36885.34
629.559	37116.52
629.914	36891.9
630.269	37161.95
630.623	37064.32
630.978	36948.62
631.332	37189.29
631.687	37340.92
632.041	37219.57
632.396	37328.5
632.75	37285.79
633.104	37404.43
633.459	37192.91
633.813	37259.12
634.167	37264.99
634.521	37377.99
634.875	37297.99
635.229	37342.28
635.583	37293.92
635.937	37303.41
636.291	37386.57
636.645	37362.62
636.999	37283.3
637.352	37486.23
637.706	37281.49
638.06	37466.57
638.413	37288.27
638.767	37275.62
639.121	37228.61
639.474	37113.59
639.828	37251.66
640.181	37269.51
640.534	37328.72
640.888	37342.73
641.241	36983.42
641.594	37195.84
641.947	37151.78
642.301	37121.04
642.654	37227.93
643.007	37240.59
643.36	37208.05
643.713	37230.19
644.066	37250.53
644.419	37138.44
644.771	36928.05
645.124	36637.44
645.477	36470.21
645.83	36422.31
646.182	36334.85
646.535	36076.78
646.888	36289.88
647.24	35926.5
647.593	36127.4
647.945	36222.99
648.298	36129.21
648.65	35974.86
649.002	35902.77
649.355	36240.84
649.707	35987.51
650.059	36111.8
650.411	36620.04
650.763	36695.74
651.115	37027.03
651.467	36832.92
651.819	36749.75
652.171	36785.46
652.523	36704.33
652.875	36855.29
653.227	36690.32
653.578	36925.57
653.93	36774.84
654.282	36494.62
654.633	36567.61
654.985	36661.39
655.337	36702.75
655.688	36656.2
656.039	36745.01
656.391	36466.6
656.742	36562.87
657.094	36490.33
657.445	36673.37
657.796	36766.25
658.147	36518.35
658.498	36512.92
658.849	36642.19
659.2	36574.39
659.551	36427.73
659.902	36585.46
660.253	36500.04
660.604	36720.6
660.955	36359.93
661.306	36633.37
661.656	36494.39
662.007	36473.15
662.358	36457.33
662.708	36502.98
663.059	36474.73
663.409	36308.18
663.76	36642.64
664.11	36563.32
664.461	36551.57
664.811	36531.68
665.161	36529.42
665.511	36400.84
665.862	36603.77
666.212	36602.87
666.562	36488.29
666.912	36533.71
667.262	36600.38
667.612	36486.03
667.962	36385.24
668.312	36379.59
668.662	36554.05
669.011	36447.84
669.361	36288.07
669.711	36331.91
670.06	36354.51
670.41	36094.4
670.76	36311.12
671.109	36346.6
671.459	36165.81
671.808	36133.73
672.157	36321.97
672.507	36105.48
672.856	36095.31
673.205	36092.82
673.554	36263.21
673.904	36200.39
674.253	36351.35
674.602	36197.45
674.951	35685.6
675.3	35453.97
675.649	36041.3
675.998	36095.53
676.346	36019.6
676.695	36071.13
677.044	35803.56
677.393	35881.75
677.741	36073.84
678.09	35858.25
678.438	35885.6
678.787	35961.3
679.135	35878.36
679.484	35733.96
679.832	35840.17
680.181	35620.07
680.529	35869.78
680.877	35730.57
681.225	35612.61
681.573	35847.4
681.922	35613.96
682.27	35481.76
682.618	35601.76
682.966	35437.02
683.314	35469.11
683.661	35413.74
684.009	35071.38
684.357	35170.59
684.705	35143.02
685.053	35248.78
685.4	35074.32
685.748	34820.31
686.095	34967.88
686.443	34895.34
686.79	34865.74
687.138	34893.76
687.485	34768.34
687.832	34748.68
688.18	34771.27
688.527	34636.59
688.874	34514.56
689.221	34460.77
689.568	34403.6
689.915	34231.63
690.262	34279.54
690.609	34063.5
690.956	34067.79
691.303	34150.5
691.65	33926.33
691.997	33869.15
692.344	33731.98
692.69	33694.69
693.037	33685.43
693.383	33501.03
693.73	33500.35
694.077	33400.69
694.423	33343.97
694.769	33347.36
695.116	33235.72
695.462	33068.49
695.808	33153.46
696.155	33076.4
696.501	32941.49
696.847	32836.18
697.193	32699.01
697.539	32736.3
697.885	32474.61
698.231	32488.4
698.577	32231.68
698.923	32320.72
699.269	32054.96
699.614	31952.37
699.96	32071.91
700.306	32054.96
700.651	31924.8
700.997	31735.2
701.342	31746.5
701.688	31746.04
702.033	31704.24
702.379	31494.98
702.724	31499.72
703.069	31584.01
703.415	31229.45
703.76	31262.67
704.105	31227.19
704.45	31078.04
704.795	30931.6
705.14	30909
705.485	30828.1
705.83	30738.61
706.175	30850.02
706.52	30684.15
706.865	30521.67
707.209	30517.15
707.554	30398.06
707.899	30501.33
708.243	30352.63
708.588	30230.15
708.932	30149.48
709.277	30098.86
709.621	30071.74
709.966	29907.67
710.31	30022.25
710.654	29705.42
710.998	29800.56
711.342	29724.18
711.687	29607.12
712.031	29508.36
712.375	29382.04
712.719	29508.81
713.063	29388.59
713.407	29580.23
713.75	29387.91
714.094	29279.44
714.438	29130.97
714.782	29181.82
715.125	29068.15
715.469	29173.91
715.812	28951.99
716.156	28885.78
716.499	28820.25
716.843	28888.04
717.186	28603.3
717.53	28896.85
717.873	28711.32
718.216	28657.99
718.559	28600.36
718.902	28442.4
719.246	28502.06
719.589	28414.83
719.932	28220.71
720.275	28309.98
720.617	28264.1
720.96	28244.89
721.303	28120.15
721.646	28093.03
721.989	27970.32
722.331	28229.3
722.674	27949.76
723.016	28001.96
723.359	27854.39
723.701	28079.47
724.044	27767.17
724.386	27673.61
724.729	27728.97
725.071	27769.43
725.413	27728.97
725.755	27636.77
726.097	27629.54
726.439	27379.15
726.782	27342.09
727.124	27538.92
727.465	27354.07
727.807	27409.43
728.149	27223.9
728.491	27303
728.833	27344.8
729.175	27155.66
729.516	27103.23
729.858	27095.54
730.199	27036.11
730.541	26992.72
730.882	26958.6
731.224	27118.37
731.565	26784.14
731.906	26867.98
732.248	26915.21
732.589	26731.49
732.93	26616.91
733.271	26628.44
733.612	26666.18
733.953	26787.08
734.294	26507.31
734.635	26449.69
734.976	26614.65
735.317	26320.2
735.658	26361.78
735.999	26322.01
736.339	26221.67
736.68	26362.68
737.021	26404.26
737.361	26151.84
737.702	26288.79
738.042	26103.03
738.383	26195
738.723	26123.59
739.063	26050.6
739.404	26046.98
739.744	26025.29
740.084	25848.12
740.424	25930.83
740.764	25887.89
741.104	25972.41
741.444	25742.36
741.784	25764.28
742.124	25777.39
742.464	25689.48
742.804	25555.47
743.143	25632.53
743.483	25641.57
743.823	25501.69
744.162	25561.35
744.502	25471.41
744.841	25508.24
745.181	25546.66
745.52	25353.67
745.86	25407.91
746.199	25295.37
746.538	25207.46
746.877	25361.35
747.216	25124.07
747.556	25143.73
747.895	25174.47
748.234	25056.05
748.573	25099.44
748.911	24927.69
749.25	24959.56
749.589	24803.18
749.928	24803.4
750.267	24872.55
750.605	24866
750.944	24701.26
751.283	24768.6
751.621	24594.37
751.96	24625.1
752.298	24557.76
752.636	24627.81
752.975	24430.76
753.313	24353.7
753.651	24468.95
753.989	24360.25
754.327	24335.62
754.666	24161.61
755.004	24160.71
755.342	24167.71
755.679	24081.39
756.017	24038.68
756.355	24061.27
756.693	24024.44
757.031	23925.91
757.368	23819.92
757.706	23826.03
758.044	23721.85
758.381	23759.36
758.719	23476.43
759.056	23621.06
759.394	23506.03
759.731	23355.98
760.068	23372.93
760.405	23355.76
760.743	23118.7
761.08	23154.86
761.417	23226.49
761.754	23021.75
762.091	23019.49
762.428	23017.46
762.765	22858.37
763.102	22951.02
763.438	22745.6
763.775	22639.62
764.112	22649.33
764.449	22648.2
764.785	22456.8
765.122	22339.29
765.458	22333.64
765.795	22224.03
766.131	22275.78
766.467	22205.05
766.804	21977.49
767.14	21958.5
767.476	21964.61
767.812	21782.24
768.148	21789.24
768.485	21770.49
768.821	21568.68
769.157	21556.71
769.492	21464.51
769.828	21500.66
770.164	21224.51
770.5	21263.83
770.836	21234.91
771.171	21181.8
771.507	21007.12
771.842	20924.86
772.178	20853.45
772.513	20873.11
772.849	20702.27
773.184	20676.05
773.519	20624.75
773.855	20657.3
774.19	20471.54
774.525	20398.09
774.86	20408.49
775.195	20334.82
775.53	20169.63
775.865	20061.61
776.2	20085.56
776.535	19865.45
776.87	19904.1
777.205	19848.28
777.539	19700.71
777.874	19814.61
778.209	19577.78
778.543	19566.25
778.878	19438.57
779.212	19444.45
779.547	19290.1
779.881	19309.99
780.215	19218.69
780.55	19253.94
780.884	19012.14
781.218	19021.63
781.552	19054.63
781.886	18918.13
782.22	18809.21
782.554	18731.92
782.888	18608.54
783.222	18608.54
783.556	18361.31
783.889	18477.24
784.223	18286.74
784.557	18261.65
784.89	18342.33
785.224	18225.95
785.557	18131.26
785.891	18088.32
786.224	18023.47
786.558	18042.9
786.891	17755
787.224	17726.75
787.557	17669.35
787.891	17707.54
788.224	17617.6
788.557	17585.51
788.89	17613.08
789.223	17549.81
789.556	17428.23
789.888	17320.66
790.221	17283.6
790.554	17170.16
790.887	17160.66
791.219	17113.43
791.552	17075.7
791.884	16992.31
792.217	16996.83
792.549	16731.98
792.882	16752.77
793.214	16657.63
793.546	16802.26
793.879	16672.32
794.211	16572.43
794.543	16487.46
794.875	16467.12
795.207	16540.57
795.539	16389.39
795.871	16346
796.203	16226.9
796.535	16123.86
796.867	16153.23
797.198	16146.45
797.53	16007.7
797.862	15897.87
798.193	15935.39
798.525	15804.09
798.856	15894.26
799.188	15790.98
799.519	15746.46
799.85	15660.37
800.182	15648.84
800.513	15710.08
800.844	15365.68
801.175	15511.44
801.506	15409.52
801.837	15447.94
802.168	15314.39
802.499	15273.93
802.83	15193.26
803.161	15180.6
803.491	15169.3
803.822	15225.57
804.153	15018.57
804.483	14922.53
804.814	14916.2
805.145	14913.94
805.475	14808.64
805.805	14771.8
806.136	14801.86
806.466	14785.36
806.796	14741.52
807.126	14595.99
807.457	14539.04
807.787	14605.93
808.117	14539.72
808.447	14533.84
808.777	14494.07
809.107	14459.72
809.436	14393.73
809.766	14276.67
810.096	14376.78
810.426	14272.6
810.755	14263.34
811.085	14219.05
811.414	14191.03
811.744	14082.33
812.073	13992.61
812.403	14107.41
812.732	13945.83
813.061	13988.09
813.39	13992.39
813.719	13899.06
814.049	13956.68
814.378	13841.66
814.707	13837.81
815.036	13790.36
815.365	13730.92
815.693	13634.66
816.022	13654.99
816.351	13606.41
816.68	13512.85
817.008	13523.25
817.337	13462.91
817.665	13444.6
817.994	13423.14
818.322	13423.36
818.651	13288.9
818.979	13348.56
819.307	13319.86
819.636	13313.08
819.964	13213.2
820.292	13256.13
820.62	13217.49
820.948	13188.57
821.276	13197.15
821.604	13190.83
821.932	13186.76
822.259	13167.1
822.587	13170.71
822.915	13194.89
823.243	13198.06
823.57	13174.1
823.898	13139.75
824.225	13090.49
824.553	13046.65
824.88	13096.14
825.207	13165.52
825.535	13071.05
825.862	13139.3
826.189	13083.94
826.516	13140.88
826.843	13236.47
827.17	13136.59
827.497	13221.79
827.824	13104.5
828.151	13201.22
828.478	13061.11
828.805	13130.04
829.131	13087.1
829.458	13051.62
829.785	13032.64
830.111	13004.84
830.438	13017.72
830.764	13062.02
831.09	13079.87
831.417	12993.99
831.743	13002.58
832.069	12975.24
832.395	12960.1
832.722	12965.07
833.048	12982.47
833.374	12978.4
833.7	12949.02
834.026	12950.61
834.351	13010.04
834.677	12907.22
835.003	13008.46
835.329	12928.46
835.654	12910.15
835.98	12817.95
836.306	12860.44
836.631	12747.22
836.956	12811.17
837.282	12782.93
837.607	12674
837.932	12716.49
838.258	12693.89
838.583	12696.83
838.908	12691.4
839.233	12638.98
839.558	12573.67
839.883	12546.1
840.208	12521.69
840.533	12540.45
840.858	12501.13
841.182	12558.07
841.507	12471.52
841.832	12460.45
842.156	12427.23
842.481	12438.75
842.805	12408.02
843.13	12355.59
843.454	12287.35
843.778	12308.14
844.103	12264.07
844.427	12239.44
844.751	12184.98
845.075	12178.87
845.399	12140.68
845.723	12122.83
846.047	12101.14
846.371	12026.56
846.695	12045.54
847.019	11987.69
847.343	11808.26
847.666	11688.04
847.99	11701.6
848.313	11722.39
848.637	11632.45
848.96	11632.67
849.284	11640.58
849.607	11560.13
849.931	11518.78
850.254	11498.21
850.577	11306.81
850.9	11238.11
851.223	11265
851.546	11210.54
851.869	11163.31
852.192	11220.71
852.515	11105.46
852.838	11057.1
853.161	11084.44
853.483	10921.51
853.806	10967.38
854.129	10953.82
854.451	10873.82
854.774	10784.34
855.096	10814.62
855.419	10730.55
855.741	10661.85
856.063	10686.03
856.385	10671.34
856.708	10583.66
857.03	10587.28
857.352	10566.94
857.674	10546.38
857.996	10458.92
858.318	10533.95
858.64	10487.85
858.961	10390.45
859.283	10350.9
859.605	10255.31
859.926	10308.87
860.248	10310
860.57	10297.57
860.891	10287.4
861.212	10242.88
861.534	10185.25
861.855	10138.93
862.176	10215.31
862.498	10195.88
862.819	10172.37
863.14	10104.35
863.461	10078.82
863.782	9997.92
864.103	10021.19
864.424	9978.48
864.745	10041.08
865.065	10010.12
865.386	9985.71
865.707	9947.97
866.027	9946.62
866.348	9876.34
866.668	9913.17
866.989	9922.21
867.309	9796.56
867.63	9771.25
867.95	9853.96
868.27	9759.05
868.59	9838.6
868.91	9824.59
869.23	9802.21
869.55	9761.31
869.87	9773.29
870.19	9641.09
870.51	9686.06
870.83	9740.75
871.15	9662.56
871.469	9676.12
871.789	9647.42
872.109	9655.55
872.428	9567.64
872.748	9672.95
873.067	9531.26
873.386	9617.36
873.706	9587.98
874.025	9514.76
874.344	9561.09
874.663	9554.99
874.982	9445.61
875.301	9441.55
875.62	9476.35
875.939	9359.74
876.258	9393.41
876.577	9381.43
876.896	9273.64
877.214	9325.16
877.533	9322
877.852	9324.03
878.17	9323.36
878.489	9277.93
878.807	9231.61
879.125	9272.74
879.444	9257.6
879.762	9189.57
880.08	9226.41
880.398	9133.31
880.716	9227.31
881.034	9209.91
881.352	9114.55
881.67	9149.12
881.988	9142.8
882.306	9106.41
882.624	9110.25
882.941	9062.35
883.259	8950.94
883.577	8985.51
883.894	8975.8
884.212	9034.32
884.529	8987.55
884.846	8970.37
885.164	8879.3
885.481	8876.36
885.798	8920.2
886.115	8848.11
886.432	8767.66
886.75	8799.75
887.067	8794.56
887.383	8758.17
887.7	8780.55
888.017	8722.24
888.334	8740.32
888.651	8697.16
888.967	8617.84
889.284	8602.25
889.6	8597.73
889.917	8553.89
890.233	8543.94
890.55	8509.59
890.866	8526.54
891.182	8462.36
891.498	8445.64
891.815	8414.23
892.131	8415.13
892.447	8389.37
892.763	8374
893.079	8366.77
893.395	8312.76
893.71	8296.94
894.026	8329.48
894.342	8329.71
894.657	8177.62
894.973	8205.42
895.289	8160.9
895.604	8144.63
895.92	8071.64
896.235	8106.21
896.55	8076.16
896.865	8034.8
897.181	7970.85
897.496	8008.36
897.811	7975.14
898.126	7943.51
898.441	7960.68
898.756	7897.86
899.071	7829.16
899.386	7851.76
899.7	7856.95
900.015	7767.92
900.33	7685.43
900.644	7695.83
900.959	7708.94
901.273	7710.74
901.588	7609.73
901.902	7605.89
902.216	7567.02
902.531	7510.3
902.845	7579.45
903.159	7484.53
903.473	7423.29
903.787	7415.61
904.101	7417.42
904.415	7363.86
904.729	7324.99
905.042	7326.12
905.356	7299.45
905.67	7202.06
905.984	7247.7
906.297	7214.71
906.611	7145.79
906.924	7128.61
907.237	7142.85
907.551	7082.51
907.864	7109.63
908.177	7067.37
908.491	7030.08
908.804	6989.18
909.117	6928.17
909.43	6962.06
909.743	6913.02
910.056	6887.71
910.368	6839.81
910.681	6799.58
910.994	6764.33
911.307	6838.45
911.619	6736.31
911.932	6732.92
912.244	6697.44
912.557	6627.16
912.869	6633.26
913.181	6568.63
913.494	6616.99
913.806	6546.48
914.118	6478.01
914.43	6546.25
914.742	6442.75
915.054	6464
915.366	6446.37
915.678	6437.1
915.99	6427.84
916.302	6340.38
916.613	6284.34
916.925	6288.41
917.236	6297.45
917.548	6228.52
917.859	6237.11
918.171	6213.61
918.482	6124.12
918.794	6108.53
919.105	6140.39
919.416	6069.2
919.727	6088.64
920.038	6088.87
920.349	6021.75
920.66	5970
920.971	5964.8
921.282	5950.79
921.593	5943.11
921.903	5868.76
922.214	5879.61
922.525	5814.3
922.835	5797.35
923.146	5775.43
923.456	5769.78
923.767	5775.88
924.077	5703.34
924.387	5721.19
924.697	5636.22
925.008	5646.17
925.318	5603
925.628	5608.2
925.938	5577.24
926.248	5565.26
926.558	5494.08
926.867	5578.14
927.177	5493.63
927.487	5428.32
927.796	5410.24
928.106	5369.79
928.416	5349.22
928.725	5353.74
929.034	5328.43
929.344	5348.55
929.653	5355.78
929.962	5233.52
930.271	5250.7
930.581	5231.71
930.89	5168.89
931.199	5152.17
931.508	5190.36
931.817	5158.49
932.125	5159.85
932.434	5115.33
932.743	5102.45
933.051	5059.06
933.36	5047.76
933.669	4920.08
933.977	4974.54
934.286	4969.57
934.594	4967.31
934.902	4958.95
935.21	4888.44
935.519	4897.94
935.827	4894.09
936.135	4847.54
936.443	4827.2
936.751	4828.79
937.059	4768
937.367	4790.14
937.674	4758.28
937.982	4709.01
938.29	4708.79
938.597	4719.86
938.905	4590.6
939.213	4642.12
939.52	4621.33
939.827	4629.47
940.135	4588.57
940.442	4547.89
940.749	4578.85
941.056	4555.35
941.363	4485.07
941.67	4491.39
941.977	4471.51
942.284	4419.98
942.591	4457.04
942.898	4418.17
943.205	4402.36
943.511	4400.55
943.818	4297.27
944.125	4306.31
944.431	4293.21
944.738	4339.53
945.044	4277.39
945.35	4229.93
945.657	4273.32
945.963	4266.77
946.269	4200.1
946.575	4220.89
946.881	4224.28
947.187	4193.1
947.493	4142.7
947.799	4130.72
948.105	4098.41
948.41	4087.79
948.716	4093.66
949.022	4040.56
949.327	4045.08
949.633	4003.95
949.938	3984.06
950.244	3970.95
950.549	3982.48
950.854	3909.26
951.16	3926.89
951.465	3958.07
951.77	3880.11
952.075	3854.35
952.38	3890.28
952.685	3838.3
952.99	3831.75
953.294	3821.81
953.599	3801.92
953.904	3765.99
954.209	3796.04
954.513	3771.19
954.818	3721.24
955.122	3706.33
955.426	3726.44
955.731	3673.11
956.035	3676.95
956.339	3643.51
956.643	3648.25
956.948	3598.99
957.252	3580.68
957.556	3584.3
957.86	3565.32
958.163	3574.13
958.467	3576.16
958.771	3558.54
959.075	3512.66
959.378	3536.39
959.682	3495.04
959.985	3499.78
960.289	3477.63
960.592	3469.95
960.896	3432.21
961.199	3405.55
961.502	3363.97
961.805	3405.77
962.108	3358.99
962.411	3340.24
962.714	3306.11
963.017	3316.28
963.32	3302.05
963.623	3299.11
963.926	3288.49
964.228	3276.96
964.531	3270.63
964.833	3237.64
965.136	3204.87
965.438	3215.72
965.741	3157.87
966.043	3189.05
966.345	3183.86
966.648	3188.38
966.95	3168.72
967.252	3124.65
967.554	3072.22
967.856	3100.7
968.158	3074.93
968.46	3064.54
968.761	3064.31
969.063	3052.33
969.365	3062.73
969.666	2995.84
969.968	3018.44
970.269	2989.96
970.571	2978.21
970.872	2979.12
971.174	2937.76
971.475	2941.6
971.776	2917.2
972.077	2912.23
972.378	2917.2
972.679	2929.63
972.98	2897.76
973.281	2845.79
973.582	2902.96
973.883	2827.93
974.183	2837.88
974.484	2811.89
974.785	2810.31
975.085	2824.32
975.386	2796.97
975.686	2776.41
975.986	2789.52
976.287	2742.29
976.587	2736.19
976.887	2723.08
977.187	2726.24
977.487	2684.66
977.787	2715.62
978.087	2720.82
978.387	2693.7
978.687	2646.02
978.987	2607.37
979.286	2623.42
979.586	2673.36
979.885	2623.19
980.185	2580.26
980.484	2589.52
980.784	2572.35
981.083	2557.88
981.382	2558.11
981.682	2569.86
981.981	2529.18
982.28	2516.53
982.579	2524.67
982.878	2467.27
983.177	2446.48
983.475	2488.51
983.774	2463.42
984.073	2437.89
984.372	2435.85
984.67	2451.45
984.969	2454.61
985.267	2431.56
985.566	2443.76
985.864	2391.56
986.162	2367.61
986.461	2388.62
986.759	2373.03
987.057	2360.38
987.355	2310.21
987.653	2293.03
987.951	2317.89
988.249	2334.16
988.547	2297.55
988.844	2273.82
989.142	2301.85
989.44	2250.77
989.737	2249.42
990.035	2226.82
990.332	2232.47
990.63	2197.44
990.927	2218.91
991.224	2218.46
991.521	2184.79
991.819	2189.98
992.116	2183.88
992.413	2165.58
992.71	2157.9
993.006	2191.57
993.303	2168.52
993.6	2142.75
993.897	2125.81
994.193	2117.44
994.49	2104.79
994.787	2131
995.083	2065.02
995.379	2065.24
995.676	2063.43
995.972	2060.72
996.268	2036.09
996.565	2016.66
996.861	2030.89
997.157	2036.54
997.453	2016.43
997.749	1998.58
998.044	2002.65
998.34	2007.16
998.636	1976.66
998.932	1952.25
999.227	1923.55
999.523	1939.82
999.818	1950.9
1000.114	1915.19
1000.409	1907.51
1000.704	1905.47
1001	1929.43
1001.295	1883.55
1001.59	1877.9
1001.885	1841.52
1002.18	1847.39
1002.475	1842.88
1002.77	1839.26
1003.065	1846.94
1003.359	1820.5
1003.654	1793.84
1003.949	1799.94
1004.243	1767.85
1004.538	1730.11
1004.832	1773.27
1005.127	1752.48
1005.421	1733.95
1005.715	1767.17
1006.009	1730.79
1006.304	1716.55
1006.598	1738.47
1006.892	1680.17
1007.186	1677.46
1007.48	1681.98
1007.773	1648.76
1008.067	1682.65
1008.361	1652.15
1008.655	1627.06
1008.948	1622.77
1009.242	1611.69
1009.535	1601.75
1009.829	1606.05
1010.122	1580.74
1010.415	1585.03
1010.708	1578.02
1011.001	1591.36
1011.295	1550.23
1011.588	1569.21
1011.881	1531.92
1012.173	1533.73
1012.466	1516.78
1012.759	1522.43
1013.052	1515.65
1013.344	1523.56
1013.637	1501.64
1013.93	1505.48
1014.222	1445.15
1014.514	1447.41
1014.807	1455.77
1015.099	1469.33
1015.391	1466.39
1015.683	1433.39
1015.976	1437.69
1016.268	1430.91
1016.56	1418.48
1016.851	1406.05
1017.143	1390.68
1017.435	1395.88
1017.727	1388.88
1018.018	1368.31
1018.31	1366.5
1018.602	1372.38
1018.893	1338.26
1019.185	1333.74
1019.476	1340.06
1019.767	1333.74
1020.058	1350.91
1020.35	1285.6
1020.641	1292.83
1020.932	1284.47
1021.223	1284.92
1021.514	1299.61
1021.804	1275.43
1022.095	1239.95
1022.386	1234.3
1022.677	1223.68
1022.967	1225.26
1023.258	1213.97
1023.548	1239.73
1023.839	1208.09
1024.129	1210.8
1024.419	1198.82
1024.709	1186.85
1025	1165.38
1025.29	1164.02
1025.58	1127.41
1025.87	1151.37
1026.16	1129.45
1026.449	1160.18
1026.739	1142.78
1027.029	1117.47
1027.319	1121.76
1027.608	1118.37
1027.898	1081.99
1028.187	1108.21
1028.477	1083.12
1028.766	1093.06
1029.055	1079.51
1029.344	1069.11
1029.634	1058.94
1029.923	1052.39
1030.212	1077.02
1030.501	1034.99
1030.79	1016.68
1031.078	1018.26
1031.367	1034.31
1031.656	1028.66
1031.945	1034.31
1032.233	1006.06
1032.522	1013.07
1032.81	971.03
1033.099	1005.61
1033.387	976.46
1033.675	979.85
1033.963	959.06
1034.251	974.65
1034.54	959.96
1034.828	947.76
1035.116	941.2
1035.403	921.32
1035.691	942.33
1035.979	945.72
1036.267	908.89
1036.554	918.61
1036.842	903.92
1037.129	902.11
1037.417	879.06
1037.704	920.87
1037.992	902.34
1038.279	894.65
1038.566	884.71
1038.853	884.71
1039.14	884.71
