Data from hue_300_FLMS001491_00003.txt Node
Date: Tue Feb 07 15:49:38 GMT 2017
User: dcchb
Spectrometer: FLMS00149
Trigger mode: 0
Integration Time (sec): 2.000000E-2
Scans to average: 10
Electric dark correction enabled: true
Nonlinearity correction enabled: false
Boxcar width: 0
XAxis mode: Wavelengths
Number of Pixels in Spectrum: 2048
>>>>>Begin Spectral Data<<<<<
341.393	-6.67
341.776	-6.67
342.16	-6.67
342.543	-50.28
342.927	-51.86
343.31	-76.27
343.693	-43.28
344.077	-58.42
344.46	-45.76
344.843	-53.22
345.226	-31.75
345.61	-55.48
345.993	-12.09
346.376	-6.67
346.759	20.68
347.142	35.14
347.525	37.17
347.908	43.28
348.291	68.59
348.674	71.07
349.057	107
349.44	125.76
349.823	127.57
350.206	150.17
350.588	177.06
350.971	201.01
351.354	231.07
351.737	212.76
352.119	265.19
352.502	270.16
352.884	270.61
353.267	265.42
353.65	274.46
354.032	307.68
354.414	288.47
354.797	299.09
355.179	316.71
355.562	310.39
355.944	325.08
356.326	321.01
356.709	333.66
357.091	328.24
357.473	350.84
357.855	324.4
358.238	345.41
358.62	327.56
359.002	343.83
359.384	332.53
359.766	354.91
360.148	361.23
360.53	344.51
360.912	340.22
361.294	332.76
361.676	308.58
362.057	340.67
362.439	344.51
362.821	316.49
363.203	299.54
363.584	330.95
363.966	337.51
364.348	322.14
364.729	328.01
365.111	320.78
365.493	314.68
365.874	317.84
366.256	304.96
366.637	316.94
367.019	322.14
367.4	312.42
367.781	294.57
368.163	313.1
368.544	310.84
368.925	302.25
369.306	319.88
369.688	295.25
370.069	301.8
370.45	300.67
370.831	302.93
371.212	325.3
371.593	309.71
371.974	299.77
372.355	325.3
372.736	311.07
373.117	322.14
373.498	303.38
373.879	307.22
374.26	316.71
374.641	304.29
375.021	304.29
375.402	319.43
375.783	352.87
376.163	333.89
376.544	351.74
376.925	316.26
377.305	344.06
377.686	327.79
378.066	332.08
378.447	322.82
378.827	336.6
379.208	327.79
379.588	330.95
379.968	334.57
380.349	345.87
380.729	313.33
381.109	330.05
381.489	341.12
381.87	349.71
382.25	325.75
382.63	331.4
383.01	341.8
383.39	351.52
383.77	332.76
384.15	364.17
384.53	337.96
384.91	355.13
385.29	330.05
385.67	350.16
386.049	354
386.429	358.97
386.809	352.65
387.189	355.58
387.568	351.52
387.948	354.91
388.328	353.78
388.707	348.58
389.087	367.11
389.466	341.35
389.846	368.69
390.225	357.39
390.605	365.53
390.984	370.5
391.363	370.05
391.743	351.74
392.122	359.88
392.501	375.02
392.881	365.75
393.26	371.4
393.639	380.89
394.018	390.61
394.397	363.72
394.776	373.89
395.155	391.29
395.534	393.1
395.913	400.33
396.292	398.75
396.671	407.79
397.05	398.52
397.429	382.48
397.808	404.85
398.186	415.7
398.565	399.42
398.944	392.65
399.323	386.54
399.701	399.65
400.08	393.1
400.458	393.55
400.837	403.27
401.215	430.38
401.594	431.06
401.972	411.85
402.351	420.44
402.729	425.41
403.107	433.32
403.486	408.92
403.864	433.1
404.242	419.31
404.62	434.23
404.999	428.35
405.377	438.07
405.755	453.43
406.133	463.15
406.511	452.53
406.889	472.19
407.267	463.83
407.645	447.78
408.023	483.04
408.401	476.48
408.779	474.9
409.156	489.59
409.534	490.27
409.912	495.47
410.29	505.41
410.667	499.53
411.045	517.39
411.422	510.61
411.8	520.1
412.178	517.61
412.555	546.54
412.933	562.81
413.31	554
413.687	575.69
414.065	576.6
414.442	597.16
414.819	585.41
415.197	594.22
415.574	605.07
415.951	614.56
416.328	608.91
416.705	620.66
417.082	645.07
417.46	659.76
417.837	654.33
418.214	651.62
418.591	672.19
418.967	688.68
419.344	683.71
419.721	706.76
420.098	697.72
420.475	696.37
420.852	721.68
421.228	719.42
421.605	708.57
421.982	735.69
422.358	748.79
422.735	765.97
423.111	773.65
423.488	765.29
423.864	782.24
424.241	781.34
424.617	790.83
424.994	794.89
425.37	819.75
425.746	827.44
426.123	832.86
426.499	831.5
426.875	849.58
427.251	857.04
427.627	848
428.003	897.94
428.379	895
428.756	898.62
429.132	902.69
429.507	920.31
429.883	920.31
430.259	940.65
430.635	975.91
431.011	951.5
431.387	994.44
431.763	995.12
432.138	997.15
432.514	1004.38
432.89	1005.51
433.265	1022.46
433.641	1056.81
434.016	1061.33
434.392	1079.86
434.767	1090.71
435.143	1074.44
435.518	1118.05
435.894	1113.53
436.269	1112.85
436.644	1137.26
437.02	1129.57
437.395	1159.18
437.77	1149.01
438.145	1183.81
438.52	1195.56
438.895	1190.59
439.271	1224.04
439.646	1213.64
440.021	1234.66
440.395	1231.72
440.77	1244.37
441.145	1238.05
441.52	1253.87
441.895	1298.61
442.27	1256.8
442.645	1300.87
443.019	1286.41
443.394	1261.55
443.769	1302.9
444.143	1284.37
444.518	1274.66
444.892	1319.63
445.267	1314.65
445.641	1339.51
446.016	1344.26
446.39	1330.25
446.764	1338.61
447.139	1346.52
447.513	1334.32
447.887	1328.89
448.262	1367.99
448.636	1357.37
449.01	1362.79
449.384	1361.21
449.758	1375.9
450.132	1398.95
450.506	1385.16
450.88	1378.61
451.254	1391.71
451.628	1393.75
452.002	1441.21
452.376	1412.73
452.75	1406.63
453.123	1440.98
453.497	1441.43
453.871	1466.97
454.244	1493.63
454.618	1457.48
454.992	1481.66
455.365	1478.94
455.739	1513.75
456.112	1509
456.486	1543.35
456.859	1549.45
457.232	1584.7
457.606	1542.22
457.979	1559.85
458.352	1581.09
458.725	1587.87
459.099	1598.72
459.472	1623.57
459.845	1654.76
460.218	1654.98
460.591	1662.22
460.964	1619.73
461.337	1672.16
461.71	1722.33
462.083	1710.12
462.456	1711.93
462.829	1708.77
463.201	1722.78
463.574	1709.22
463.947	1770.24
464.32	1773.4
464.692	1776.56
465.065	1801.2
465.438	1835.77
465.81	1828.09
466.183	1844.13
466.555	1850.91
466.928	1883
467.3	1861.31
467.672	1884.81
468.045	1922.32
468.417	1937.46
468.789	1937.92
469.161	1944.69
469.534	2023.11
469.906	2013.17
470.278	2030.79
470.65	2025.82
471.022	2055.65
471.394	2069.21
471.766	2067.86
472.138	2085.48
472.51	2167.29
472.882	2155.08
473.253	2134.97
473.625	2167.74
473.997	2188.08
474.369	2238.7
474.74	2262.88
475.112	2272.37
475.484	2245.93
475.855	2317.34
476.227	2307.85
476.598	2342.42
476.97	2376.32
477.341	2416.09
477.713	2425.59
478.084	2450.44
478.455	2489.77
478.827	2510.78
479.198	2546.49
479.569	2546.03
479.94	2604.34
480.311	2635.98
480.682	2656.77
481.053	2682.53
481.424	2738.8
481.795	2729.08
482.166	2730.89
482.537	2732.47
482.908	2828.29
483.279	2813.37
483.65	2840.26
484.021	2945.35
484.391	2917.32
484.762	2938.57
485.133	2934.95
485.503	2970.66
485.874	3010.2
486.244	3038.23
486.615	3090.2
486.985	3091.78
487.356	3110.31
487.726	3123.87
488.097	3195.06
488.467	3205.9
488.837	3244.32
489.207	3289.52
489.578	3287.94
489.948	3304.43
490.318	3361.38
490.688	3385.79
491.058	3392.34
491.428	3390.53
491.798	3450.64
492.168	3485.22
492.538	3537.2
492.908	3515.27
493.278	3528.16
493.648	3580.58
494.017	3588.49
494.387	3644.54
494.757	3602.96
495.126	3668.04
495.496	3674.82
495.866	3652.67
496.235	3740.81
496.605	3737.19
496.974	3728.15
497.344	3766.79
497.713	3765.66
498.082	3817.41
498.452	3844.53
498.821	3825.32
499.19	3833.01
499.559	3853.35
499.928	3895.38
500.298	3884.53
500.667	3936.05
501.036	3937.64
501.405	3947.13
501.774	3931.76
502.143	3986.45
502.512	3975.38
502.88	4006.56
503.249	3995.49
503.618	4067.35
503.987	4005.88
504.356	4038.88
504.724	4065.09
505.093	4090.4
505.462	4110.06
505.83	4099.89
506.199	4117.29
506.567	4136.05
506.936	4130.17
507.304	4189.61
507.672	4195.93
508.041	4233.22
508.409	4180.79
508.777	4200.68
509.145	4236.61
509.514	4296.72
509.882	4269.15
510.25	4249.04
510.618	4266.89
510.986	4290.85
511.354	4364.29
511.722	4332.43
512.09	4356.83
512.458	4310.96
512.826	4374.69
513.193	4412.2
513.561	4364.52
513.929	4451.07
514.297	4455.82
514.664	4472.54
515.032	4423.05
515.4	4484.06
515.767	4471.63
516.135	4497.17
516.502	4437.74
516.869	4532.2
517.237	4521.8
517.604	4517.28
517.972	4544.85
518.339	4600.44
518.706	4563.61
519.073	4550.95
519.44	4554.12
519.808	4626.43
520.175	4615.13
520.542	4630.95
520.909	4672.76
521.276	4689.93
521.643	4677.28
522.009	4741.23
522.376	4710.72
522.743	4705.07
523.11	4778.74
523.477	4765.86
523.843	4806.31
524.21	4846.09
524.577	4855.35
524.943	4868.69
525.31	4873.43
525.676	4918.4
526.043	4925.63
526.409	4924.73
526.776	5001.79
527.142	4951.17
527.508	5000.43
527.874	5025.97
528.241	5070.26
528.607	5053.99
528.973	5149.58
529.339	5128.34
529.705	5169.47
530.071	5145.51
530.437	5215.8
530.803	5212.86
531.169	5284.49
531.535	5237.04
531.901	5244.72
532.267	5274.55
532.632	5324.27
532.998	5343.25
533.364	5367.43
533.73	5374.21
534.095	5395.68
534.461	5432.06
534.826	5476.81
535.192	5436.13
535.557	5522
535.923	5494.88
536.288	5542.34
536.653	5536.92
537.019	5579.4
537.384	5563.58
537.749	5593.86
538.114	5597.71
538.479	5620.53
538.845	5659.63
539.21	5710.02
539.575	5674.54
539.94	5742.11
540.305	5793.86
540.67	5762.22
541.034	5816.01
541.399	5856.46
541.764	5827.98
542.129	5844.93
542.494	5841.32
542.858	5923.12
543.223	5891.71
543.587	5904.59
543.952	5940.3
544.316	5976.9
544.681	5978.71
545.045	6039.28
545.41	6068.65
545.774	6043.8
546.138	6120.86
546.503	6102.1
546.867	6082.89
547.231	6180.97
547.595	6244.69
547.959	6282.66
548.324	6196.79
548.688	6228.2
549.052	6301.64
549.416	6304.35
549.779	6255.54
550.143	6275.65
550.507	6387.52
550.871	6373.96
551.235	6370.34
551.599	6380.96
551.962	6478.13
552.326	6457.57
552.689	6495.76
553.053	6449.66
553.417	6465.03
553.78	6547.29
554.143	6514.52
554.507	6561.3
554.87	6571.47
555.234	6601.97
555.597	6608.53
555.96	6592.93
556.323	6615.53
556.686	6628.87
557.05	6719.48
557.413	6663.89
557.776	6756.32
558.139	6775.75
558.502	6771.01
558.865	6791.35
559.228	6783.44
559.59	6788.41
559.953	6838.58
560.316	6910.67
560.679	6876.77
561.041	6953.6
561.404	6998.57
561.767	7026.37
562.129	6934.85
562.492	7021.85
562.854	7015.75
563.217	7001.28
563.579	7053.26
563.941	7118.8
564.304	7061.17
564.666	7186.82
565.028	7145.69
565.39	7173.26
565.753	7172.35
566.115	7234.05
566.477	7273.14
566.839	7186.59
567.201	7309.75
567.563	7354.72
567.925	7356.53
568.287	7346.59
568.648	7379.58
569.01	7442.86
569.372	7502.51
569.734	7536.64
570.095	7530.99
570.457	7583.87
570.819	7566.24
571.18	7661.38
571.542	7643.08
571.903	7696.63
572.265	7753.81
572.626	7781.38
572.987	7808.04
573.349	7847.14
573.71	7926.68
574.071	7973.91
574.432	7979.56
574.794	8081.48
575.155	8072.44
575.516	8115.38
575.877	8162.61
576.238	8250.07
576.599	8319.44
576.96	8400.34
577.32	8423.39
577.681	8495.03
578.042	8670.17
578.403	8642.15
578.763	8793.78
579.124	8840.33
579.485	9048.01
579.845	9135.92
580.206	9123.26
580.566	9295.24
580.927	9413.88
581.287	9555.34
581.648	9635.79
582.008	9858.38
582.368	9911.72
582.728	10078.72
583.089	10236.23
583.449	10369.33
583.809	10565.94
584.169	10736.55
584.529	10867.4
584.889	11142.42
585.249	11272.36
585.609	11471.68
585.969	11795.06
586.329	11912.12
586.688	12062.17
587.048	12297.42
587.408	12498.32
587.768	12816.05
588.127	12935.82
588.487	13228.69
588.846	13536.03
589.206	13690.6
589.565	13977.37
589.925	14238.16
590.284	14538.26
590.643	14822.77
591.003	15062.32
591.362	15408.75
591.721	15597.89
592.08	15916.08
592.44	16174.6
592.799	16496.63
593.158	16692.78
593.517	17046.9
593.876	17387.68
594.235	17538.86
594.593	18004.39
594.952	18269.24
595.311	18441.21
595.67	18845.27
596.029	19259.04
596.387	19501.97
596.746	19747.39
597.104	20046.59
597.463	20403.87
597.822	20786.69
598.18	20930.41
598.538	21214.24
598.897	21627.79
599.255	21783.04
599.613	22393.65
599.972	22499.86
600.33	22842.22
600.688	23012.62
601.046	23453.28
601.404	23687.63
601.762	23911.57
602.12	24413.93
602.478	24683.08
602.836	24784.77
603.194	25019.79
603.552	25373.23
603.91	25426.34
604.268	25931.63
604.625	26023.84
604.983	26415.01
605.341	26497.72
605.698	26871.04
606.056	27148.55
606.413	27341.77
606.771	27715.54
607.128	27907.4
607.485	28075.08
607.843	28264.91
608.2	28541.51
608.557	28957.77
608.914	28987.15
609.272	29348.72
609.629	29550.97
609.986	29843.62
610.343	29884.75
610.7	30343.27
611.057	30505.75
611.414	30635.24
611.771	30868.68
612.127	31172.4
612.484	31262.79
612.841	31428.21
613.198	31695.32
613.554	31675.44
613.911	32019.61
614.267	32182.09
614.624	32363.78
614.98	32607.17
615.337	32856.88
615.693	32934.61
616.05	32937.1
616.406	33277.43
616.762	33263.87
617.118	33367.37
617.475	33541.15
617.831	33797.19
618.187	33958.54
618.543	34108.14
618.899	34322.83
619.255	34388.59
619.611	34394.46
619.967	34664.51
620.323	34895.24
620.678	34938.86
621.034	34882.36
621.39	35091.17
621.746	35173.65
622.101	35652.06
622.457	35410.71
622.812	35506.52
623.168	35609.57
623.523	35726.18
623.879	35836.91
624.234	35853.86
624.589	36047.75
624.945	36106.73
625.3	36271.93
625.655	36186.73
626.01	36235.09
626.365	36466.27
626.72	36461.53
627.075	36530.45
627.43	36577.91
627.785	36524.35
628.14	36607.51
628.495	36878.47
628.85	36741.75
629.205	36652.48
629.559	36968.41
629.914	36828.52
630.269	36913.49
630.623	36873.04
630.978	36829.88
631.332	36994.85
631.687	37153.03
632.041	37048.4
632.396	37165.01
632.75	37084.34
633.104	37148.51
633.459	37047.95
633.813	37095.63
634.167	37192.36
634.521	37125.92
634.875	37275.74
635.229	37111.91
635.583	37057.67
635.937	37178.57
636.291	37181.06
636.645	37171.11
636.999	37220.6
637.352	37303.09
637.706	37052.7
638.06	37184.45
638.413	37213.15
638.767	37127.27
639.121	37197.33
639.474	36931.8
639.828	37010.44
640.181	37267.16
640.534	37015.18
640.888	37032.59
641.241	37004.34
641.594	36968.18
641.947	37186.93
642.301	37143.32
642.654	37062.42
643.007	37232.58
643.36	37131.79
643.713	37028.29
644.066	37214.95
644.419	36980.38
644.771	36871.46
645.124	36433.05
645.477	36414.07
645.83	36271.7
646.182	36100.86
646.535	36077.36
646.888	36040.52
647.24	35917.13
647.593	36130.46
647.945	36136.34
648.298	35937.93
648.65	35903.35
649.002	35869.23
649.355	35946.29
649.707	35963.24
650.059	36102.44
650.411	36534.97
650.763	36589.89
651.115	36946.71
651.467	36732.03
651.819	36675.31
652.171	36727.73
652.523	36655.87
652.875	36715.08
653.227	36646.83
653.578	36974.51
653.93	36741.29
654.282	36600.28
654.633	36601.41
654.985	36638.02
655.337	36424.69
655.688	36561.41
656.039	36850.22
656.391	36490.23
656.742	36539.72
657.094	36616.33
657.445	36597.79
657.796	36724.57
658.147	36633.5
658.498	36570.68
658.849	36672.6
659.2	36637.34
659.551	36536.1
659.902	36656.55
660.253	36376.78
660.604	36598.47
660.955	36419.04
661.306	36579.49
661.656	36533.84
662.007	36653.61
662.358	36478.48
662.708	36503.33
663.059	36466.27
663.409	36308.54
663.76	36562.54
664.11	36498.14
664.461	36616.55
664.811	36418.82
665.161	36528.87
665.511	36299.72
665.862	36398.7
666.212	36543.33
666.562	36643.22
666.912	36483
667.262	36497.46
667.612	36389.44
667.962	36587.85
668.312	36509.89
668.662	36499.72
669.011	36443.67
669.361	36365.26
669.711	36325.03
670.06	36491.13
670.41	36255.66
670.76	36251.59
671.109	36418.14
671.459	36234.64
671.808	36191.03
672.157	36444.13
672.507	36023.57
672.856	36163.23
673.205	36200.29
673.554	36290.91
673.904	36209.33
674.253	36411.81
674.602	36121.42
674.951	35769.79
675.3	35573.19
675.649	36134.76
675.998	35999.39
676.346	36127.52
676.695	36193.96
677.044	35968.43
677.393	35888.21
677.741	36075.1
678.09	35909.45
678.438	35856.12
678.787	35893.18
679.135	36033.74
679.484	35642.57
679.832	35758.04
680.181	35633.07
680.529	35661.77
680.877	35669.91
681.225	35648.22
681.573	35664.71
681.922	35483.93
682.27	35486.19
682.618	35459.75
682.966	35295.68
683.314	35438.96
683.661	35234.44
684.009	35224.27
684.357	35078.06
684.705	35074.22
685.053	35178.62
685.4	35083.48
685.748	34870.83
686.095	34929.36
686.443	34855.02
686.79	34747.67
687.138	34887.11
687.485	34921.23
687.832	34594.23
688.18	34699.54
688.527	34563.72
688.874	34494.35
689.221	34375.03
689.568	34338.87
689.915	34134.58
690.262	34152.66
690.609	34133.23
690.956	33893.23
691.303	33946.11
691.65	33922.38
691.997	33857.98
692.344	33740.02
692.69	33684.65
693.037	33613.24
693.383	33319.01
693.73	33537.54
694.077	33222.52
694.423	33297.54
694.769	33153.37
695.116	33067.04
695.462	33083.76
695.808	33011.22
696.155	33107.04
696.501	32733.72
696.847	32791.57
697.193	32589.76
697.539	32646.49
697.885	32382.54
698.231	32366.72
698.577	32442.2
698.923	32320.17
699.269	32283.33
699.614	32158.82
699.96	31879.05
700.306	31967.63
700.651	31858.03
700.997	31747.75
701.342	31666.4
701.688	31660.52
702.033	31562.45
702.379	31567.64
702.724	31436.57
703.069	31483.58
703.415	31156.13
703.76	31175.56
704.105	31139.86
704.45	31187.54
704.795	30939.19
705.14	30860.77
705.485	30804.73
705.83	30813.54
706.175	30788.46
706.52	30600.89
706.865	30586.2
707.209	30449.03
707.554	30270.05
707.899	30422.14
708.243	30276.15
708.588	30197.96
708.932	29965.2
709.277	29991.64
709.621	29956.39
709.966	29857.18
710.31	29926.33
710.654	29646.11
710.998	29787.13
711.342	29726.56
711.687	29584.19
712.031	29453.58
712.375	29310.98
712.719	29467.13
713.063	29416.74
713.407	29345.33
713.75	29255.84
714.094	29251.32
714.438	29157.76
714.782	29153.24
715.125	28958
715.469	28987.37
715.812	28903.99
716.156	28688.4
716.499	28692.69
716.843	28667.61
717.186	28614.73
717.53	28705.35
717.873	28764.78
718.216	28707.38
718.559	28479.82
718.902	28296.77
719.246	28343.77
719.589	28311.68
719.932	28231.91
720.275	28278.69
720.617	28237.34
720.96	28078.92
721.303	28133.38
721.646	28142.65
721.989	27979.04
722.331	28023.78
722.674	27918.93
723.016	27928.42
723.359	27842.32
723.701	27831.02
724.044	27691.59
724.386	27645.04
724.729	27761.64
725.071	27545.15
725.413	27501.31
725.755	27521.2
726.097	27447.07
726.439	27420.18
726.782	27368.21
727.124	27472.38
727.465	27254.76
727.807	27273.52
728.149	27361.88
728.491	27243.01
728.833	27250.24
729.175	27162.11
729.516	27068.33
729.858	27008.44
730.199	27057.48
730.541	27038.5
730.882	27029.68
731.224	27032.85
731.565	26809.35
731.906	26876.92
732.248	26904.94
732.589	26832.85
732.93	26635.8
733.271	26784.95
733.612	26689.58
733.953	26738.62
734.294	26603.03
734.635	26568
734.976	26609.13
735.317	26505.86
735.658	26443.03
735.999	26454.56
736.339	26488.23
736.68	26388.57
737.021	26363.94
737.361	26237.62
737.702	26438.06
738.042	26266.99
738.383	26158.52
738.723	26175.92
739.063	26204.17
739.404	26183.83
739.744	26077.62
740.084	25830.39
740.424	26079.65
740.764	25995.59
741.104	26069.94
741.444	25883.95
741.784	25734.35
742.124	26012.54
742.464	25988.81
742.804	25739.1
743.143	25727.12
743.483	25745.88
743.823	25721.47
744.162	25602.83
744.502	25696.39
744.841	25585.2
745.181	25675.6
745.52	25478.09
745.86	25597.63
746.199	25552.89
746.538	25487.8
746.877	25564.64
747.216	25460.46
747.556	25404.19
747.895	25386.79
748.234	25287.36
748.573	25140.69
748.911	25214.37
749.25	25317.41
749.589	25245.55
749.928	25232.9
750.267	25364.64
750.605	25153.12
750.944	25085.33
751.283	25172.78
751.621	25099.11
751.96	25031.09
752.298	24962.85
752.636	25044.88
752.975	24766.02
753.313	24798.78
753.651	24850.76
753.989	24853.02
754.327	24794.94
754.666	24699.8
755.004	24815.73
755.342	24814.6
755.679	24655.74
756.017	24646.24
756.355	24627.94
756.693	24583.2
757.031	24573.03
757.368	24408.06
757.706	24365.8
758.044	24312.02
758.381	24307.5
758.719	24294.84
759.056	24266.37
759.394	24186.14
759.731	24149.76
760.068	24005.81
760.405	24007.84
760.743	23938.01
761.08	24059.37
761.417	23964.91
761.754	23922.42
762.091	23796.1
762.428	23748.87
762.765	23546.84
763.102	23710.9
763.438	23557.46
763.775	23388.88
764.112	23487.63
764.449	23599.49
764.785	23409.89
765.122	23283.57
765.458	23222.78
765.795	23147.75
766.131	23079.28
766.467	23044.93
766.804	22830.47
767.14	22788.67
767.476	22734.66
767.812	22732.85
768.148	22704.83
768.485	22659.63
768.821	22526.53
769.157	22533.08
769.492	22444.49
769.828	22411.28
770.164	22180.77
770.5	22178.29
770.836	22117.27
771.171	22094.67
771.507	21982.36
771.842	21822.82
772.178	21802.7
772.513	21864.17
772.849	21683.84
773.184	21667.79
773.519	21615.82
773.855	21504.41
774.19	21425.99
774.525	21330.17
774.86	21283.85
775.195	21233.45
775.53	21084.98
775.865	21013.8
776.2	20950.75
776.535	20804.54
776.87	20858.77
777.205	20723.64
777.539	20641.15
777.874	20616.52
778.209	20545.79
778.543	20421.04
778.878	20411.1
779.212	20245.68
779.547	20324.55
779.881	20294.95
780.215	20079.81
780.55	20130.43
780.884	19973.15
781.218	19949.87
781.552	19928.18
781.886	19778.58
782.22	19651.57
782.554	19659.26
782.888	19518.47
783.222	19533.38
783.556	19270.34
783.889	19293.84
784.223	19167.52
784.557	19252.71
784.89	19162.77
785.224	19070.35
785.557	18993.74
785.891	18865.61
786.224	18860.41
786.558	18834.42
786.891	18639.4
787.224	18577.25
787.557	18563.69
787.891	18527.31
788.224	18476.46
788.557	18501.55
788.89	18440.53
789.223	18367.31
789.556	18299.29
789.888	18071.05
790.221	18102.91
790.554	17984.5
790.887	17943.37
791.219	17872.64
791.552	17863.37
791.884	17927.78
792.217	17757.84
792.549	17657.05
792.882	17602.36
793.214	17424.51
793.546	17498.18
793.879	17360.33
794.211	17280.34
794.543	17396.04
794.875	17339.32
795.207	17341.58
795.539	17230.39
795.871	17248.25
796.203	17080.79
796.535	16958.99
796.867	16954.92
797.198	16802.16
797.53	16815.94
797.862	16820.24
798.193	16788.15
798.525	16649.84
798.856	16606.68
799.188	16502.5
799.519	16392.9
799.85	16346.58
800.182	16416.4
800.513	16450.98
800.844	16248.05
801.175	16305.45
801.506	16245.56
801.837	16100.48
802.168	16147.26
802.499	16013.03
802.83	15969.18
803.161	15923.99
803.491	15934.16
803.822	15953.37
804.153	15807.61
804.483	15751.79
804.814	15596.31
805.145	15570.78
805.475	15627.72
805.805	15530.33
806.136	15574.62
806.466	15451.91
806.796	15330.11
807.126	15326.94
807.457	15206.27
807.787	15310.22
808.117	15270.22
808.447	15152.03
808.777	15227.51
809.107	15111.35
809.436	15032.49
809.766	15033.16
810.096	15059.83
810.426	14903.68
810.755	14964.47
811.085	14906.84
811.414	14827.52
811.744	14752.49
812.073	14748.2
812.403	14790.68
812.732	14628.65
813.061	14705.72
813.39	14513.86
813.719	14550.24
814.049	14648.77
814.378	14597.7
814.707	14394.08
815.036	14483.35
815.365	14390.47
815.693	14292.17
816.022	14244.71
816.351	14244.48
816.68	14175.79
817.008	14282.22
817.337	14183.69
817.665	14060.76
817.994	14119.52
818.322	14028.9
818.651	13974.21
818.979	13901.67
819.307	13956.36
819.636	13967.88
819.964	13856.02
820.292	13837.94
820.62	13966.07
820.948	13831.39
821.276	13888.56
821.604	13860.31
821.932	13802.46
822.259	13814.44
822.587	13782.12
822.915	13731.05
823.243	13832.07
823.57	13726.76
823.898	13783.03
824.225	13762.91
824.553	13730.6
824.88	13793.42
825.207	13748.9
825.535	13668.68
825.862	13802.91
826.189	13693.76
826.516	13783.03
826.843	13794.55
827.17	13766.98
827.497	13719.07
827.824	13705.06
828.151	13851.27
828.478	13737.15
828.805	13783.71
829.131	13793.2
829.458	13729.92
829.785	13704.61
830.111	13654.44
830.438	13789.13
830.764	13654.22
831.09	13771.05
831.417	13637.72
831.743	13649.7
832.069	13714.55
832.395	13597.95
832.722	13672.97
833.048	13655.35
833.374	13616.93
833.7	13582.13
834.026	13550.27
834.351	13568.57
834.677	13599.98
835.003	13626.87
835.329	13556.14
835.654	13462.81
835.98	13498.06
836.306	13480.66
836.631	13380.55
836.956	13514.33
837.282	13491.74
837.607	13390.04
837.932	13331.06
838.258	13313.21
838.583	13334
838.908	13277.96
839.233	13301.91
839.558	13291.97
839.883	13223.95
840.208	13200.67
840.533	13147.79
840.858	13206.55
841.182	13171.97
841.507	13199.77
841.832	13022.82
842.156	12983.95
842.481	12996.61
842.805	13056.27
843.13	12938.98
843.454	12990.05
843.778	12841.36
844.103	12844.97
844.427	12798.19
844.751	12812.88
845.075	12699.21
845.399	12744.64
845.723	12705.32
846.047	12649.05
846.371	12572.89
846.695	12524.08
847.019	12528.37
847.343	12474.81
847.666	12326.12
847.99	12285.21
848.313	12300.58
848.637	12224.88
848.96	12194.82
849.284	12197.76
849.607	12071.89
849.931	12049.97
850.254	11947.14
850.577	11893.81
850.9	11860.82
851.223	11864.21
851.546	11745.57
851.869	11671.22
852.192	11720.26
852.515	11599.58
852.838	11577.21
853.161	11572.24
853.483	11595.29
853.806	11447.5
854.129	11427.61
854.451	11466.48
854.774	11367.05
855.096	11372.02
855.419	11366.37
855.741	11314.17
856.063	11215.19
856.385	11261.51
856.708	11167.05
857.03	11131.8
857.352	11133.15
857.674	11124.79
857.996	11020.16
858.318	10998.92
858.64	11007.73
858.961	10966.83
859.283	10844.35
859.605	10865.82
859.926	10882.54
860.248	10883.22
860.57	10817.23
860.891	10807.96
861.212	10732.94
861.534	10691.36
861.855	10714.86
862.176	10751.92
862.498	10786.95
862.819	10696.78
863.14	10691.81
863.461	10601.87
863.782	10604.35
864.103	10544.69
864.424	10519.16
864.745	10536.11
865.065	10484.81
865.386	10495.66
865.707	10483
866.027	10506.96
866.348	10509.67
866.668	10391.7
866.989	10396.9
867.309	10332.95
867.63	10335.43
867.95	10282.78
868.27	10287.07
868.59	10320.07
868.91	10226.74
869.23	10160.75
869.55	10228.77
869.87	10270.13
870.19	10199.62
870.51	10186.29
870.83	10148.32
871.15	10150.58
871.469	10089.79
871.789	10163.46
872.109	10100.86
872.428	10019.74
872.748	10072.39
873.067	10052.28
873.386	10067.19
873.706	10025.61
874.025	10021.77
874.344	10006.18
874.663	9978.38
874.982	10025.84
875.301	9956.24
875.62	9909
875.939	9880.53
876.258	9900.19
876.577	9871.04
876.896	9847.99
877.214	9797.37
877.533	9789.23
877.852	9847.31
878.17	9872.62
878.489	9853.19
878.807	9817.03
879.125	9760.31
879.444	9750.37
879.762	9684.15
880.08	9712.17
880.398	9681.67
880.716	9687.77
881.034	9542.23
881.352	9658.62
881.67	9612.29
881.988	9632.4
882.306	9533.2
882.624	9559.41
882.941	9547.21
883.259	9434.44
883.577	9507.21
883.894	9412.75
884.212	9450.49
884.529	9431.28
884.846	9434.67
885.164	9408
885.481	9315.35
885.798	9365.74
886.115	9286.42
886.432	9229.47
886.75	9235.58
887.067	9266.99
887.383	9157.84
887.7	9212.98
888.017	9165.52
888.334	9178.63
888.651	9107.22
888.967	9123.71
889.284	9072.64
889.6	9034
889.917	8993.1
890.233	8964.62
890.55	8883.72
890.866	8926.66
891.182	8918.97
891.498	8880.33
891.815	8796.04
892.131	8817.51
892.447	8799.66
892.763	8758.53
893.079	8765.53
893.395	8674.69
893.71	8661.58
894.026	8698.64
894.342	8617.51
894.657	8603.28
894.973	8504.52
895.289	8599.21
895.604	8525.09
895.92	8484.18
896.235	8475.14
896.55	8446.9
896.865	8421.13
897.181	8396.28
897.496	8428.14
897.811	8358.31
898.126	8351.98
898.441	8246
898.756	8242.61
899.071	8232.44
899.386	8190.41
899.7	8199.67
900.015	8154.47
900.33	8008.26
900.644	8028.6
900.959	8026.57
901.273	8059.79
901.588	8006.68
901.902	8017.3
902.216	7886.69
902.531	7863.41
902.845	7828.61
903.159	7871.32
903.473	7844.88
903.787	7797.2
904.101	7724.88
904.415	7733.47
904.729	7695.73
905.042	7654.15
905.356	7667.71
905.67	7539.35
905.984	7611.89
906.297	7538.45
906.611	7494.15
906.924	7546.81
907.237	7527.6
907.551	7412.12
907.864	7446.7
908.177	7378.45
908.491	7344.78
908.804	7352.91
909.117	7301.16
909.43	7282.63
909.743	7214.16
910.056	7222.07
910.368	7119.02
910.681	7143.2
910.994	7109.98
911.307	7104.33
911.619	7036.09
911.932	7056.42
912.244	7046.03
912.557	7009.19
912.869	6956.09
913.181	6888.52
913.494	6893.94
913.806	6846.03
914.118	6887.16
914.43	6759.03
914.742	6794.74
915.054	6735.76
915.366	6726.26
915.678	6754.96
915.99	6667.96
916.302	6631.13
916.613	6582.09
916.925	6555.42
917.236	6557.23
917.548	6538.25
917.859	6530.11
918.171	6469.32
918.482	6443.79
918.794	6425.03
919.105	6389.1
919.416	6362.66
919.727	6343.45
920.038	6349.1
920.349	6262.55
920.66	6271.81
920.971	6257.12
921.282	6185.49
921.593	6172.38
921.903	6127.86
922.214	6149.33
922.525	6110.23
922.835	6070.01
923.146	6022.33
923.456	6005.15
923.767	5997.24
924.077	5976.68
924.387	5957.02
924.697	5931.71
925.008	5917.47
925.318	5903.23
925.628	5886.29
925.938	5830.24
926.248	5769.23
926.558	5747.53
926.867	5760.19
927.177	5726.74
927.487	5722.67
927.796	5637.7
928.106	5623.24
928.416	5622.11
928.725	5587.31
929.034	5562
929.344	5582.57
929.653	5524.04
929.962	5533.07
930.271	5495.34
930.581	5475.68
930.89	5403.36
931.199	5390.48
931.508	5387.54
931.817	5360.88
932.125	5330.14
932.434	5334.89
932.743	5266.87
933.051	5283.82
933.36	5207.66
933.669	5223.48
933.977	5160.66
934.286	5229.35
934.594	5214.44
934.902	5161.11
935.21	5111.17
935.519	5122.01
935.827	5103.48
936.135	5069.58
936.443	5018.29
936.751	5053.99
937.059	4978.06
937.367	4981.68
937.674	4959.53
937.982	4975.8
938.29	4900.32
938.597	4926.54
938.905	4851.74
939.213	4845.41
939.52	4820.33
939.827	4856.26
940.135	4744.62
940.442	4791.85
940.749	4726.09
941.056	4762.93
941.363	4668.46
941.67	4712.76
941.977	4647
942.284	4641.12
942.591	4633.44
942.898	4653.55
943.205	4609.03
943.511	4518.64
943.818	4538.98
944.125	4498.07
944.431	4505.31
944.738	4501.69
945.044	4467.79
945.35	4407.23
945.657	4416.49
945.963	4395.25
946.269	4378.3
946.575	4377.4
946.881	4344.41
947.187	4357.51
947.493	4317.29
947.799	4274.12
948.105	4263.96
948.41	4279.1
948.716	4284.97
949.022	4215.37
949.327	4178.76
949.633	4162.49
949.938	4189.38
950.244	4183.96
950.549	4153.9
950.854	4092.43
951.16	4079.33
951.465	4094.24
951.77	4037.07
952.075	4018.99
952.38	4026
952.685	4007.92
952.99	3967.47
953.294	3991.65
953.599	3975.83
953.904	3954.81
954.209	3904.64
954.513	3902.61
954.818	3857.64
955.122	3873.23
955.426	3837.3
955.731	3883.17
956.035	3777.64
956.339	3810.63
956.643	3802.27
956.948	3773.8
957.252	3776.74
957.556	3762.5
957.86	3683.86
958.163	3718.43
958.467	3689.73
958.771	3689.28
959.075	3657.87
959.378	3671.2
959.682	3635.72
959.985	3608.61
960.289	3564.77
960.592	3576.52
960.896	3592.56
961.199	3546.69
961.502	3516.4
961.805	3545.56
962.108	3476.41
962.411	3483.64
962.714	3452
963.017	3471.21
963.32	3464.43
963.623	3431.21
963.926	3469.85
964.228	3421.94
964.531	3451.77
964.833	3354.6
965.136	3298.11
965.438	3330.65
965.741	3307.6
966.043	3307.6
966.345	3292
966.648	3285
966.95	3267.6
967.252	3262.85
967.554	3221.05
967.856	3241.16
968.158	3194.15
968.46	3190.09
968.761	3164.1
969.063	3175.85
969.365	3143.08
969.666	3146.02
969.968	3083.65
970.269	3129.97
970.571	3090.2
970.872	3066.7
971.174	3062.41
971.475	3051.33
971.776	3032.35
972.077	3016.98
972.378	3009.3
972.679	3014.72
972.98	3020.82
973.281	2997.1
973.582	2969.3
973.883	2982.86
974.183	2937.66
974.484	2908.74
974.785	2914.84
975.085	2933.6
975.386	2883.88
975.686	2865.35
975.986	2864.22
976.287	2882.3
976.587	2840.26
976.887	2829.87
977.187	2781.28
977.487	2783.99
977.787	2777.67
978.087	2757.55
978.387	2775.18
978.687	2787.16
978.987	2717.78
979.286	2679.82
979.586	2709.42
979.885	2687.05
980.185	2692.25
980.484	2644.56
980.784	2686.37
981.083	2650.44
981.382	2654.73
981.682	2648.18
981.981	2607.95
982.28	2580.61
982.579	2605.02
982.878	2582.87
983.177	2588.29
983.475	2609.76
983.774	2510.1
984.073	2546.26
984.372	2499.26
984.67	2525.02
984.969	2526.83
985.267	2490.44
985.566	2504.91
985.864	2475.08
986.162	2502.19
986.461	2437.56
986.759	2463.1
987.057	2407.51
987.355	2406.15
987.653	2403.44
987.951	2404.34
988.249	2410.67
988.547	2395.08
988.844	2348.98
989.142	2379.94
989.44	2338.81
989.737	2345.81
990.035	2300.39
990.332	2305.14
990.63	2290.67
990.927	2284.12
991.224	2281.18
991.521	2270.79
991.819	2270.56
992.116	2284.12
992.413	2256.55
992.71	2253.61
993.006	2253.61
993.303	2210.9
993.6	2233.05
993.897	2176.55
994.193	2199.83
994.49	2186.27
994.787	2121.19
995.083	2147.63
995.379	2111.47
995.676	2133.39
995.972	2112.37
996.268	2142.88
996.565	2108.53
996.861	2066.27
997.157	2071.02
997.453	2071.47
997.749	2049.78
998.044	2044.35
998.34	2006.39
998.636	2017.91
998.932	2046.84
999.227	1972.26
999.523	1965.49
999.818	1950.8
1000.114	1979.04
1000.409	1934.3
1000.704	1955.54
1001	1929.33
1001.295	1945.15
1001.59	1925.71
1001.885	1932.04
1002.18	1901.08
1002.475	1878.93
1002.77	1881.87
1003.065	1870.8
1003.359	1862.21
1003.654	1873.51
1003.949	1831.48
1004.243	1823.12
1004.538	1802.55
1004.832	1796.68
1005.127	1796
1005.421	1787.41
1005.715	1783.34
1006.009	1783.57
1006.304	1760.29
1006.598	1760.97
1006.892	1723.46
1007.186	1730.01
1007.48	1693.63
1007.773	1715.32
1008.067	1717.58
1008.361	1710.35
1008.655	1675.32
1008.948	1682.55
1009.242	1656.57
1009.535	1686.4
1009.829	1628.54
1010.122	1640.52
1010.415	1609.56
1010.708	1619.28
1011.001	1625.38
1011.295	1605.49
1011.588	1555.78
1011.881	1551.03
1012.173	1576.79
1012.466	1555.1
1012.759	1572.05
1013.052	1575.89
1013.344	1533.18
1013.637	1546.29
1013.93	1508.32
1014.222	1519.62
1014.514	1535.21
1014.807	1495.21
1015.099	1510.36
1015.391	1485.5
1015.683	1468.1
1015.976	1473.29
1016.268	1457.02
1016.56	1452.96
1016.851	1444.59
1017.143	1414.99
1017.435	1427.65
1017.727	1422
1018.018	1390.58
1018.31	1420.87
1018.602	1366.18
1018.893	1385.16
1019.185	1342.68
1019.476	1356.01
1019.767	1348.1
1020.058	1328.44
1020.35	1336.8
1020.641	1328.89
1020.932	1296.58
1021.223	1276.92
1021.514	1320.08
1021.804	1269.23
1022.095	1295.45
1022.386	1264.71
1022.677	1239.4
1022.967	1237.37
1023.258	1239.18
1023.548	1241.66
1023.839	1230.82
1024.129	1232.62
1024.419	1214.09
1024.709	1209.12
1025	1189.01
1025.29	1198.27
1025.58	1191.95
1025.87	1201.21
1026.16	1171.61
1026.449	1151.04
1026.739	1137.94
1027.029	1137.48
1027.319	1141.55
1027.608	1132.06
1027.898	1115.34
1028.187	1123.93
1028.477	1094.77
1028.766	1078.73
1029.055	1102
1029.344	1086.86
1029.634	1054.77
1029.923	1056.81
1030.212	1089.58
1030.501	1054.77
1030.79	1051.38
1031.078	1050.93
1031.367	1054.77
1031.656	1033.31
1031.945	1024.72
1032.233	1024.27
1032.522	1013.87
1032.81	1036.7
1033.099	1003.93
1033.387	991.5
1033.675	990.37
1033.963	968.68
1034.251	998.5
1034.54	976.36
1034.828	969.81
1035.116	964.61
1035.403	935.91
1035.691	938.17
1035.979	916.7
1036.267	942.91
1036.554	966.87
1036.842	925.74
1037.129	908.56
1037.417	919.18
1037.704	934.78
1037.992	901.78
1038.279	899.07
1038.566	881.22
1038.853	881.22
1039.14	881.22
