Data from hue_290_FLMS001491_00005.txt Node
Date: Tue Feb 07 15:52:07 GMT 2017
User: dcchb
Spectrometer: FLMS00149
Trigger mode: 0
Integration Time (sec): 2.000000E-2
Scans to average: 10
Electric dark correction enabled: true
Nonlinearity correction enabled: false
Boxcar width: 0
XAxis mode: Wavelengths
Number of Pixels in Spectrum: 2048
>>>>>Begin Spectral Data<<<<<
341.393	1.12
341.776	1.12
342.16	1.12
342.543	-46.57
342.927	-85.66
343.31	-64.87
343.693	-53.8
344.077	-59.9
344.46	-61.26
344.843	-70.29
345.226	-29.17
345.61	-19.45
345.993	-12.44
346.376	7.67
346.759	0.21
347.142	21.91
347.525	35.69
347.908	48.35
348.291	65.29
348.674	85.18
349.057	106.88
349.44	135.12
349.823	150.26
350.206	172.86
350.588	176.48
350.971	212.18
351.354	226.87
351.737	229.58
352.119	256.7
352.502	281.56
352.884	289.7
353.267	257.38
353.65	294.67
354.032	310.71
354.414	292.86
354.797	300.77
355.179	304.38
355.562	320.88
355.944	326.76
356.326	327.43
356.709	323.14
357.091	325.63
357.473	322.01
357.855	324.27
358.238	332.18
358.62	328.56
359.002	313.42
359.384	332.63
359.766	335.12
360.148	325.63
360.53	342.35
360.912	341.67
361.294	316.81
361.676	334.67
362.057	319.98
362.439	325.18
362.821	324.72
363.203	336.93
363.584	336.7
363.966	312.75
364.348	309.81
364.729	313.2
365.111	336.25
365.493	326.08
365.874	317.72
366.256	322.46
366.637	331.05
367.019	323.82
367.4	327.66
367.781	313.2
368.163	301.22
368.544	307.77
368.925	323.82
369.306	329.24
369.688	317.04
370.069	291.05
370.45	322.69
370.831	321.56
371.212	299.19
371.593	312.52
371.974	317.94
372.355	308
372.736	336.25
373.117	330.82
373.498	316.81
373.879	297.38
374.26	305.97
374.641	309.36
375.021	298.74
375.402	322.92
375.783	305.74
376.163	317.04
376.544	335.34
376.925	316.81
377.305	312.52
377.686	327.21
378.066	318.4
378.447	322.01
378.827	322.92
379.208	348.45
379.588	325.4
379.968	318.4
380.349	328.11
380.729	355
381.109	330.15
381.489	334.67
381.87	343.71
382.25	338.96
382.63	349.81
383.01	330.6
383.39	330.37
383.77	342.35
384.15	336.25
384.53	351.84
384.91	349.13
385.29	347.77
385.67	344.84
386.049	349.81
386.429	346.87
386.809	338.06
387.189	353.65
387.568	345.97
387.948	368.11
388.328	353.87
388.707	362.91
389.087	363.14
389.466	362.46
389.846	364.04
390.225	378.28
390.605	363.14
390.984	364.95
391.363	376.93
391.743	362.46
392.122	381.67
392.501	368.11
392.881	396.13
393.26	384.16
393.639	383.48
394.018	407.88
394.397	404.27
394.776	371.05
395.155	389.13
395.534	393.42
395.913	376.93
396.292	402.91
396.671	412.4
397.05	419.18
397.429	417.15
397.808	400.88
398.186	379.41
398.565	409.24
398.944	401.11
399.323	408.56
399.701	434.78
400.08	413.76
400.458	432.06
400.837	435
401.215	416.92
401.594	436.81
401.972	442.91
402.351	437.04
402.729	442.23
403.107	428.22
403.486	435
403.864	451.95
404.242	413.08
404.62	469.35
404.999	454.21
405.377	444.04
405.755	466.64
406.133	469.35
406.511	476.36
406.889	464.83
407.267	478.84
407.645	477.49
408.023	482.91
408.401	483.59
408.779	493.53
409.156	512.29
409.534	504.38
409.912	528.56
410.29	538.5
410.667	526.75
411.045	561.78
411.422	565.62
411.8	552.51
412.178	546.64
412.555	568.78
412.933	592.51
413.31	588.9
413.687	601.78
414.065	605.62
414.442	618.95
414.819	607.2
415.197	602.91
415.574	616.01
415.951	653.3
416.328	639.52
416.705	642.45
417.082	659.18
417.46	651.72
417.837	661.21
418.214	681.32
418.591	677.48
418.967	662.79
419.344	687.2
419.721	725.84
420.098	717.26
420.475	725.16
420.852	712.74
421.228	732.85
421.605	753.64
421.982	765.16
422.358	747.99
422.735	755.45
423.111	781.89
423.488	784.6
423.864	793.41
424.241	817.14
424.617	811.72
424.994	813.3
425.37	839.29
425.746	841.55
426.123	851.71
426.499	874.09
426.875	841.09
427.251	861.21
427.627	908.89
428.003	893.07
428.379	910.02
428.756	900.3
429.132	925.16
429.507	942.11
429.883	936.01
430.259	945.5
430.635	929
431.011	932.84
431.387	979.4
431.763	1007.42
432.138	1028.21
432.514	1025.04
432.89	1041.77
433.265	1068.88
433.641	1084.25
434.016	1081.99
434.392	1086.96
434.767	1098.71
435.143	1123.12
435.518	1115.44
435.894	1144.81
436.269	1148.88
436.644	1168.77
437.02	1189.56
437.395	1185.49
437.77	1220.29
438.145	1199.05
438.52	1230.69
438.895	1245.6
439.271	1253.74
439.646	1278.14
440.021	1287.41
440.395	1270.46
440.77	1264.13
441.145	1298.93
441.52	1341.87
441.895	1308.43
442.27	1335.09
442.645	1350.01
443.019	1353.62
443.394	1350.01
443.769	1356.33
444.143	1367.63
444.518	1397.92
444.892	1372.61
445.267	1388.42
445.641	1394.75
446.016	1410.57
446.39	1415.09
446.764	1411.47
447.139	1398.37
447.513	1411.02
447.887	1433.17
448.262	1448.31
448.636	1460.74
449.01	1429.55
449.384	1470
449.758	1457.12
450.132	1477.91
450.506	1504.13
450.88	1491.47
451.254	1489.66
451.628	1534.86
452.002	1540.74
452.376	1548.42
452.75	1535.31
453.123	1535.31
453.497	1569.66
453.871	1580.96
454.244	1588.19
454.618	1582.32
454.992	1634.75
455.365	1627.06
455.739	1667.29
456.112	1666.83
456.486	1646.72
456.859	1672.26
457.232	1687.63
457.606	1688.08
457.979	1720.62
458.352	1760.84
458.725	1742.54
459.099	1751.35
459.472	1764.91
459.845	1801.07
460.218	1806.04
460.591	1817.34
460.964	1804.23
461.337	1867.96
461.71	1890.56
462.083	1912.7
462.456	1909.09
462.829	1887.39
463.201	1914.51
463.574	1883.78
463.947	1932.14
464.32	1967.84
464.692	2010.1
465.065	1999.48
465.438	2026.15
465.81	2047.16
466.183	2028.86
466.555	2125.13
466.928	2097.33
467.3	2079.03
467.672	2103.43
468.045	2139.36
468.417	2162.64
468.789	2167.61
469.161	2195.18
469.534	2230.44
469.906	2222.75
470.278	2276.54
470.65	2298.68
471.022	2319.47
471.394	2389.08
471.766	2331.68
472.138	2361.51
472.51	2385.01
472.882	2432.24
473.253	2438.79
473.625	2486.25
473.997	2501.16
474.369	2540.03
474.74	2556.75
475.112	2600.6
475.484	2640.37
475.855	2677.43
476.227	2687.82
476.598	2737.99
476.97	2717.65
477.341	2764.88
477.713	2803.08
478.084	2832.45
478.455	2876.29
478.827	2879.46
479.198	2976.63
479.569	2987.93
479.94	3010.08
480.311	3028.61
480.682	3060.24
481.053	3140.92
481.424	3157.87
481.795	3228.83
482.166	3189.73
482.537	3279.9
482.908	3320.12
483.279	3317.86
483.65	3346.34
484.021	3474.7
484.391	3434.47
484.762	3455.71
485.133	3453.91
485.503	3501.59
485.874	3544.3
486.244	3598.54
486.615	3665.2
486.985	3681.7
487.356	3718.31
487.726	3782.94
488.097	3797.85
488.467	3782.49
488.837	3871.52
489.207	3916.49
489.578	3970.05
489.948	3989.49
490.318	4005.76
490.688	4001.69
491.058	4052.31
491.428	4088.24
491.798	4112.42
492.168	4238.52
492.538	4233.55
492.908	4199.65
493.278	4352.41
493.648	4297.95
494.017	4291.85
494.387	4326.65
494.757	4364.16
495.126	4361.45
495.496	4418.4
495.866	4439.42
496.235	4443.71
496.605	4527.32
496.974	4471.73
497.344	4527.55
497.713	4583.82
498.082	4578.85
498.452	4624.27
498.821	4656.13
499.19	4660.65
499.559	4673.99
499.928	4723.03
500.298	4786.3
500.667	4733.19
501.036	4787.2
501.405	4793.53
501.774	4834.89
502.143	4849.12
502.512	4836.47
502.88	4879.63
503.249	4867.2
503.618	4888.9
503.987	4939.74
504.356	4906.98
504.724	4958.5
505.093	4949.69
505.462	4979.06
505.83	5006.86
506.199	5092.28
506.567	5063.81
506.936	5043.02
507.304	5093.64
507.672	5108.55
508.041	5170.02
508.409	5168.21
508.777	5170.02
509.145	5201.66
509.514	5235.55
509.882	5209.34
510.25	5237.36
510.618	5244.59
510.986	5273.97
511.354	5308.77
511.722	5329.56
512.09	5408.66
512.458	5384.25
512.826	5391.93
513.193	5451.59
513.561	5426.96
513.929	5433.97
514.297	5459.05
514.664	5487.53
515.032	5538.37
515.4	5528.88
515.767	5538.82
516.135	5539.28
516.502	5462.44
516.869	5635.54
517.237	5613.85
517.604	5584.02
517.972	5627.41
518.339	5633.74
518.706	5628.76
519.073	5693.4
519.44	5753.51
519.808	5793.28
520.175	5705.6
520.542	5795.09
520.909	5825.37
521.276	5770.23
521.643	5854.07
522.009	5815.88
522.376	5916.44
522.743	5895.88
523.11	5956.44
523.477	5922.77
523.843	6036.21
524.21	6002.54
524.577	6048.19
524.943	6068.07
525.31	6104.23
525.676	6156.21
526.043	6124.57
526.409	6212.7
526.776	6257.45
527.142	6260.61
527.508	6262.42
527.874	6337.9
528.241	6301.29
528.607	6298.13
528.973	6373.15
529.339	6412.92
529.705	6452.02
530.071	6393.49
530.437	6438.46
530.803	6505.35
531.169	6529.98
531.535	6515.52
531.901	6462.41
532.267	6581.96
532.632	6625.57
532.998	6579.93
533.364	6668.74
533.73	6651.11
534.095	6684.1
534.461	6767.27
534.826	6807.49
535.192	6706.7
535.557	6818.79
535.923	6813.37
536.288	6827.38
536.653	6822.41
537.019	6882.52
537.384	6879.8
537.749	6908.05
538.114	6898.34
538.479	6925.23
538.845	6901.95
539.21	6929.97
539.575	6967.26
539.94	7032.57
540.305	7066.92
540.67	7056.75
541.034	7091.78
541.399	7050.65
541.764	7135.39
542.129	7108.73
542.494	7179.46
542.858	7134.26
543.223	7183.07
543.587	7197.99
543.952	7193.92
544.316	7238.67
544.681	7214.71
545.045	7263.98
545.41	7295.16
545.774	7372.67
546.138	7332.67
546.503	7317.08
546.867	7326.57
547.231	7414.93
547.595	7457.42
547.959	7404.54
548.324	7466
548.688	7445.67
549.052	7489.05
549.416	7493.12
549.779	7563.63
550.143	7495.61
550.507	7598.88
550.871	7582.84
551.235	7548.94
551.599	7641.37
551.962	7646.79
552.326	7673.91
552.689	7656.28
553.053	7654.93
553.417	7657.64
553.78	7759.56
554.143	7737.64
554.507	7793.45
554.87	7800.91
555.234	7833
555.597	7776.73
555.96	7772.21
556.323	7909.38
556.686	7870.06
557.05	7880.46
557.413	7922.04
557.776	7900.8
558.139	7898.76
558.502	7982.15
558.865	7932.66
559.228	8023.73
559.59	8040.45
559.953	8028.02
560.316	8082.26
560.679	8114.57
561.041	8120.9
561.404	8162.48
561.767	8237.74
562.129	8180.11
562.492	8239.54
562.854	8277.51
563.217	8218.07
563.579	8250.16
563.941	8355.25
564.304	8393.44
564.666	8438.41
565.028	8364.29
565.39	8395.7
565.753	8443.61
566.115	8548.24
566.477	8542.59
566.839	8520.67
567.201	8646.31
567.563	8649.7
567.925	8725.18
568.287	8731.73
568.648	8684.96
569.01	8691.96
569.372	8762.47
569.734	8768.79
570.095	8854.89
570.457	8892.18
570.819	8902.8
571.18	8870.71
571.542	8935.57
571.903	8995.91
572.265	9002.24
572.626	8952.74
572.987	9064.61
573.349	9126.07
573.71	9223.92
574.071	9187.99
574.432	9276.58
574.794	9342.34
575.155	9383.69
575.516	9277.48
575.877	9397.03
576.238	9465.05
576.599	9492.17
576.96	9451.71
577.32	9596.57
577.681	9701.65
578.042	9653.29
578.403	9773.74
578.763	9814.19
579.124	9821.65
579.485	9837.92
579.845	10036.78
580.206	10047.18
580.566	10105.48
580.927	10161.07
581.287	10285.82
581.648	10338.7
582.008	10304.8
582.368	10457.56
582.728	10618.92
583.089	10584.11
583.449	10732.36
583.809	10897.33
584.169	10898.23
584.529	10958.79
584.889	11143.2
585.249	11194.72
585.609	11259.58
585.969	11411.66
586.329	11507.03
586.688	11587.03
587.048	11745.89
587.408	11864.98
587.768	11935.72
588.127	12010.52
588.487	12153.79
588.846	12381.58
589.206	12448.47
589.565	12604.85
589.925	12627.9
590.284	12847.56
590.643	12988.12
591.003	13155.35
591.362	13238.51
591.721	13310.82
592.08	13445.96
592.44	13654.32
592.799	13804.82
593.158	13885.72
593.517	14020.18
593.876	14114.42
594.235	14367.97
594.593	14468.98
594.952	14553.5
595.311	14701.52
595.67	14845.92
596.029	15071.45
596.387	15105.58
596.746	15320.04
597.104	15406.13
597.463	15486.58
597.822	15633.47
598.18	15690.42
598.538	15792.56
598.897	16110.75
599.255	16056.06
599.613	16477.29
599.972	16427.12
600.33	16594.35
600.688	16554.13
601.046	16792.31
601.404	16959.31
601.762	17002.48
602.12	17157.05
602.478	17337.38
602.836	17396.82
603.194	17345.07
603.552	17479.75
603.91	17451.73
604.268	17722.91
604.625	17760.87
604.983	17959.06
605.341	17981.43
605.698	18057.59
606.056	18168.1
606.413	18292.84
606.771	18438.82
607.128	18492.16
607.485	18482.21
607.843	18655.31
608.2	18806.27
608.557	18888.08
608.914	19011.01
609.272	19154.51
609.629	19144.34
609.986	19260.5
610.343	19329.87
610.7	19483.54
611.057	19384.79
611.414	19490.09
611.771	19633.14
612.127	19678.56
612.484	19696.64
612.841	19902.51
613.198	19819.13
613.554	19879.01
613.911	20078.78
614.267	20111.55
614.624	20106.8
614.98	20130.98
615.337	20378.21
615.693	20381.82
616.05	20444.19
616.406	20598.31
616.762	20583.4
617.118	20556.06
617.475	20644.87
617.831	20653.91
618.187	20797.63
618.543	20834.92
618.899	20999.66
619.255	20910.85
619.611	20886.67
619.967	20967.12
620.323	21054.8
620.678	21021.35
621.034	20993.78
621.39	21061.35
621.746	21136.61
622.101	21304.28
622.457	21228.81
622.812	21182.93
623.168	21368.01
623.523	21496.6
623.879	21425.86
624.234	21375.7
624.589	21481
624.945	21504.73
625.3	21452.53
625.655	21598.06
626.01	21612.75
626.365	21492.98
626.72	21538.85
627.075	21540.89
627.43	21543.15
627.785	21540.21
628.14	21611.4
628.495	21561.9
628.85	21561.45
629.205	21565.75
629.559	21702.92
629.914	21590.83
630.269	21588.8
630.623	21565.29
630.978	21475.58
631.332	21613.2
631.687	21727.55
632.041	21648.23
632.396	21707.66
632.75	21572.98
633.104	21659.08
633.459	21481.45
633.813	21408.24
634.167	21463.15
634.521	21559.19
634.875	21609.36
635.229	21524.84
635.583	21367.56
635.937	21453.43
636.291	21408.01
636.645	21363.94
636.999	21379.31
637.352	21410.5
637.706	21250.05
638.06	21396.03
638.413	21318.97
638.767	21296.6
639.121	21409.14
639.474	21347.22
639.828	21139.77
640.181	21307
640.534	21341.35
640.888	21134.35
641.241	21131.86
641.594	21254.34
641.947	21375.47
642.301	21241.46
642.654	21270.84
643.007	21261.57
643.36	21234.68
643.713	21257.28
644.066	21322.59
644.419	21212.54
644.771	21071.52
645.124	20857.97
645.477	20845.09
645.83	20663.85
646.182	20579.56
646.535	20607.35
646.888	20671.08
647.24	20511.31
647.593	20715.37
647.945	20618.65
648.298	20545.89
648.65	20442.84
649.002	20472.89
649.355	20528.94
649.707	20453.01
650.059	20639.22
650.411	20792.43
650.763	20851.87
651.115	21120.79
651.467	21148.36
651.819	21088.7
652.171	20951.75
652.523	21051.18
652.875	20964.86
653.227	20876.73
653.578	21096.38
653.93	20992.43
654.282	21055.25
654.633	20827.91
654.985	20892.54
655.337	20975.25
655.688	20973.45
656.039	21130.96
656.391	20953.11
656.742	20999.43
657.094	20932.09
657.445	21005.76
657.796	20968.47
658.147	20896.61
658.498	20910.4
658.849	20929.83
659.2	21000.79
659.551	20969.38
659.902	21095.48
660.253	21015.03
660.604	21110.39
660.955	21125.76
661.306	21144.29
661.656	20965.76
662.007	21043.95
662.358	20996.5
662.708	21097.74
663.059	21174.57
663.409	20963.5
663.76	21121.01
664.11	21140.22
664.461	21223.61
664.811	21231.52
665.161	21104.29
665.511	21149.03
665.862	21063.16
666.212	21223.83
666.562	21118.3
666.912	21053.22
667.262	21156.27
667.612	21050.96
667.962	21126.89
668.312	21157.4
668.662	21099.54
669.011	21094.57
669.361	21081.92
669.711	20952.66
670.06	21062.03
670.41	21021.81
670.76	20966.67
671.109	21039.88
671.459	20934.8
671.808	20938.19
672.157	20932.99
672.507	20957.4
672.856	20803.28
673.205	20913.33
673.554	20994.91
673.904	20879.66
674.253	21024.97
674.602	20941.81
674.951	20554.7
675.3	20454.14
675.649	20850.06
675.998	20710.63
676.346	20774.35
676.695	20874.69
677.044	20695.94
677.393	20716.73
677.741	20717.18
678.09	20686.9
678.438	20606.45
678.787	20746.56
679.135	20735.94
679.484	20530.52
679.832	20628.82
680.181	20443.29
680.529	20524.87
680.877	20509.05
681.225	20439.67
681.573	20551.31
681.922	20463.63
682.27	20331.43
682.618	20395.38
682.966	20356.06
683.314	20354.7
683.661	20207.82
684.009	20194.48
684.357	20183.64
684.705	20128.95
685.053	20057.99
685.4	20167.82
685.748	20088.95
686.095	20009.4
686.443	19969.63
686.79	19920.14
687.138	19889.18
687.485	19872.68
687.832	19806.24
688.18	19823.42
688.527	19739.58
688.874	19532.58
689.221	19629.53
689.568	19573.48
689.915	19477.21
690.262	19458.46
690.609	19369.42
690.956	19312.25
691.303	19369.42
691.65	19193.38
691.997	19230.89
692.344	19065.93
692.69	19086.04
693.037	19106.83
693.383	18935.31
693.73	18989.54
694.077	18927.62
694.423	18787.97
694.769	18920.62
695.116	18730.11
695.462	18730.34
695.808	18627.97
696.155	18638.37
696.501	18480.18
696.847	18452.83
697.193	18334.19
697.539	18499.61
697.885	18199.06
698.231	18174.2
698.577	18251.26
698.923	18109.34
699.269	18089.68
699.614	17963.36
699.96	17833.87
700.306	17911.15
700.651	17795.45
700.997	17759.97
701.342	17672.97
701.688	17665.28
702.033	17608.56
702.379	17684.72
702.724	17525.85
703.069	17421.67
703.415	17265.29
703.76	17322.02
704.105	17305.97
704.45	17226.43
704.795	17184.17
705.14	17079.31
705.485	17032.53
705.83	17056.71
706.175	16998.18
706.52	16887
706.865	16831.63
707.209	16833.89
707.554	16784.86
707.899	16798.19
708.243	16650.62
708.588	16642.94
708.932	16603.39
709.277	16451.08
709.621	16547.8
709.966	16402.27
710.31	16425.99
710.654	16213.57
710.998	16257.19
711.342	16347.13
711.687	16239.56
712.031	16207.92
712.375	16043.86
712.719	16093.35
713.063	16060.58
713.407	16170.86
713.75	16034.14
714.094	16116.62
714.438	15969.28
714.782	15950.53
715.125	15894.71
715.469	15906.91
715.812	15841.6
716.156	15794.37
716.499	15775.84
716.843	15738.1
717.186	15739.46
717.53	15750.98
717.873	15681.16
718.216	15715.05
718.559	15605.9
718.902	15547.83
719.246	15563.64
719.589	15576.07
719.932	15431.44
720.275	15479.13
720.617	15384.44
720.96	15434.16
721.303	15431.9
721.646	15433.25
721.989	15331.11
722.331	15365.46
722.674	15349.19
723.016	15405.68
723.359	15297.21
723.701	15371.33
724.044	15206.37
724.386	15195.97
724.729	15324.1
725.071	15191
725.413	15282.75
725.755	15220.38
726.097	15111.9
726.439	15095.18
726.782	15041.4
727.124	15091.57
727.465	15084.56
727.807	15160.27
728.149	15050.89
728.491	15012.47
728.833	15077.78
729.175	15017.9
729.516	15064.9
729.858	14981.29
730.199	14966.37
730.541	14968.63
730.882	14955.52
731.224	15013.38
731.565	14831.69
731.906	14952.36
732.248	14966.6
732.589	14881.85
732.93	14852.48
733.271	14855.87
733.612	14908.52
733.953	14893.15
734.294	14842.08
734.635	14885.47
734.976	14882.53
735.317	14894.06
735.658	14801.4
735.999	14858.58
736.339	14811.57
736.68	14895.87
737.021	14809.54
737.361	14739.71
737.702	14860.61
738.042	14797.79
738.383	14833.04
738.723	14931.57
739.063	14803.21
739.404	14894.51
739.744	14806.15
740.084	14875.53
740.424	14968.18
740.764	14922.98
741.104	14913.04
741.444	14824.91
741.784	14863.1
742.124	14926.15
742.464	14912.36
742.804	14940.16
743.143	14947.84
743.483	14949.65
743.823	14868.07
744.162	14971.34
744.502	15000.95
744.841	15037.78
745.181	15148.06
745.52	15130.44
745.86	15174.05
746.199	15113.71
746.538	15223.99
746.877	15320.26
747.216	15244.56
747.556	15263.31
747.895	15352.35
748.234	15375.17
748.573	15385.34
748.911	15513.25
749.25	15599.35
749.589	15585.56
749.928	15698.78
750.267	15718.67
750.605	15819.23
750.944	15792.34
751.283	15951.43
751.621	15989.62
751.96	16063.97
752.298	16138.54
752.636	16268.94
752.975	16277.75
753.313	16312.55
753.651	16490.85
753.989	16565.88
754.327	16685.87
754.666	16672.77
755.004	16801.8
755.342	16996.6
755.679	17130.38
756.017	17077.05
756.355	17265.52
756.693	17370.83
757.031	17428.23
757.368	17511.62
757.706	17614.89
758.044	17768.11
758.381	17846.3
758.719	17971.04
759.056	18148.66
759.394	18161.77
759.731	18240.86
760.068	18306.4
760.405	18413.96
760.743	18527.86
761.08	18709.1
761.417	18777.12
761.754	18900.73
762.091	18997.68
762.428	19080.16
762.765	19044.23
763.102	19299.14
763.438	19314.73
763.775	19373.49
764.112	19430.89
764.449	19617.1
764.785	19653.03
765.122	19656.42
765.458	19689.41
765.795	19730.31
766.131	19985.45
766.467	19913.59
766.804	19898.67
767.14	19885.56
767.476	20093.92
767.812	19994.94
768.148	20106.58
768.485	20186.57
768.821	20138.44
769.157	20188.83
769.492	20359.9
769.828	20309.73
770.164	20263.18
770.5	20295.05
770.836	20470.41
771.171	20346.8
771.507	20325.1
771.842	20317.19
772.178	20340.47
772.513	20454.59
772.849	20330.75
773.184	20406.68
773.519	20427.47
773.855	20317.19
774.19	20323.75
774.525	20363.74
774.86	20475.83
775.195	20425.21
775.53	20349.73
775.865	20382.73
776.2	20206.23
776.535	20153.13
776.87	20243.3
777.205	20182.51
777.539	20128.95
777.874	20321.49
778.209	20045.79
778.543	20073.58
778.878	20055.73
779.212	20097.54
779.547	19967.82
779.881	20140.25
780.215	19957.88
780.55	20027.26
780.884	19895.96
781.218	19901.84
781.552	19897.54
781.886	19857.09
782.22	19726.02
782.554	19781.39
782.888	19511.34
783.222	19518.12
783.556	19525.57
783.889	19556.53
784.223	19324.45
784.557	19265.24
784.89	19345.24
785.224	19299.82
785.557	19157.67
785.891	19119.26
786.224	19142.99
786.558	19100.27
786.891	19011.92
787.224	18941.41
787.557	18929.66
787.891	18839.49
788.224	18948.41
788.557	18808.98
788.89	18732.15
789.223	18682.88
789.556	18683.34
789.888	18589.78
790.221	18531.93
790.554	18407.64
790.887	18435.66
791.219	18386.4
791.552	18385.72
791.884	18198.83
792.217	18134.88
792.549	18128.55
792.882	18036.57
793.214	18060.98
793.546	18062.34
793.879	17894.66
794.211	17859.63
794.543	17803.36
794.875	17858.27
795.207	17923.36
795.539	17751.61
795.871	17781.67
796.203	17570.82
796.535	17440.66
796.867	17530.82
797.198	17368.57
797.53	17345.52
797.862	17355.01
798.193	17418.74
798.525	17250.15
798.856	17252.19
799.188	17157.05
799.519	17134.22
799.85	17024.62
800.182	17065.3
800.513	16976.94
800.844	16793.44
801.175	16937.85
801.506	16832.31
801.837	16768.81
802.168	16723.39
802.499	16619.66
802.83	16661.92
803.161	16576.5
803.491	16656.27
803.822	16584.41
804.153	16479.55
804.483	16392.1
804.814	16266.45
805.145	16323.17
805.475	16342.16
805.805	16202.5
806.136	16238.88
806.466	16267.13
806.796	16146.23
807.126	15948.72
807.457	15974.26
807.787	16035.27
808.117	15936.97
808.447	15849.96
808.777	15954.82
809.107	15851.09
809.436	15724.54
809.766	15782.4
810.096	15716.41
810.426	15650.65
810.755	15619.46
811.085	15641.83
811.414	15599.8
811.744	15481.39
812.073	15402.74
812.403	15530.88
812.732	15293.82
813.061	15410.88
813.39	15303.76
813.719	15213.6
814.049	15309.19
814.378	15270.09
814.707	15186.48
815.036	15156.42
815.365	14969.54
815.693	14957.33
816.022	14977.67
816.351	14885.47
816.68	14880.72
817.008	14909.2
817.337	14859.26
817.665	14790.78
817.994	14784
818.322	14755.76
818.651	14616.32
818.979	14632.6
819.307	14741.75
819.636	14654.74
819.964	14569.55
820.292	14643.67
820.62	14563.9
820.948	14545.82
821.276	14642.76
821.604	14521.41
821.932	14581.3
822.259	14546.04
822.587	14520.73
822.915	14490.45
823.243	14545.82
823.57	14509.43
823.898	14535.42
824.225	14496.55
824.553	14507.63
824.88	14539.72
825.207	14498.14
825.535	14475.09
825.862	14519.83
826.189	14442.54
826.516	14550.56
826.843	14515.76
827.17	14577.46
827.497	14488.64
827.824	14584.46
828.151	14514.18
828.478	14573.16
828.805	14604.35
829.131	14517.34
829.458	14493.62
829.785	14414.75
830.111	14513.05
830.438	14463.11
830.764	14498.14
831.09	14496.1
831.417	14476.89
831.743	14443.45
832.069	14430.57
832.395	14435.54
832.722	14409.1
833.048	14395.99
833.374	14420.4
833.7	14354.86
834.026	14389.21
834.351	14387.63
834.677	14365.71
835.003	14315.99
835.329	14371.13
835.654	14264.02
835.98	14207.52
836.306	14246.84
836.631	14214.3
836.956	14281.42
837.282	14313.06
837.607	14153.51
837.932	14182.44
838.258	14189.22
838.583	14074.42
838.908	14032.16
839.233	14106.28
839.558	14050.01
839.883	14000.52
840.208	13947.87
840.533	13965.49
840.858	13864.48
841.182	13908.32
841.507	13889.56
841.832	13912.39
842.156	13888.43
842.481	13833.07
842.805	13724.82
843.13	13756.91
843.454	13641.66
843.778	13649.34
844.103	13589.91
844.427	13583.13
844.751	13720.98
845.075	13516.92
845.399	13543.58
845.723	13481.21
846.047	13462
846.371	13370.71
846.695	13386.75
847.019	13189.24
847.343	13243.71
847.666	13096.14
847.99	13043.71
848.313	13064.28
848.637	13010.27
848.96	12923.94
849.284	12850.27
849.607	12801.01
849.931	12800.55
850.254	12687.11
850.577	12655.7
850.9	12617.51
851.223	12532.76
851.546	12494.35
851.869	12421.58
852.192	12452.31
852.515	12417.96
852.838	12318.53
853.161	12315.37
853.483	12290.51
853.806	12223.85
854.129	12227.69
854.451	12127.58
854.774	12013.23
855.096	12005.55
855.419	11882.61
855.741	11888.03
856.063	11856.4
856.385	11925.32
856.708	11864.53
857.03	11861.37
857.352	11839.67
857.674	11747.25
857.996	11667.02
858.318	11656.85
858.64	11593.81
858.961	11601.71
859.283	11522.39
859.605	11501.15
859.926	11583.41
860.248	11549.51
860.57	11411.66
860.891	11492.79
861.212	11364.21
861.534	11378.9
861.855	11336.18
862.176	11391.55
862.498	11355.62
862.819	11323.08
863.14	11288.28
863.461	11246.92
863.782	11202.86
864.103	11204.21
864.424	11153.82
864.745	11284.43
865.065	11088.51
865.386	11043.99
865.707	11074.72
866.027	11058.9
866.348	11087.83
866.668	11107.04
866.989	11039.02
867.309	10931.68
867.63	10989.08
867.95	10983.88
868.27	10877.89
868.59	10924.22
868.91	10905.24
869.23	10908.85
869.55	10863.66
869.87	10936.2
870.19	10808.06
870.51	10851
870.83	10818.68
871.15	10725.13
871.469	10726.48
871.789	10732.13
872.109	10790.66
872.428	10715.64
872.748	10648.75
873.067	10658.91
873.386	10639.25
873.706	10634.51
874.025	10607.62
874.344	10531.01
874.663	10636.54
874.982	10495.08
875.301	10523.55
875.62	10492.14
875.939	10421.86
876.258	10501.18
876.577	10425.93
876.896	10404.01
877.214	10429.09
877.533	10414.18
877.852	10472.03
878.17	10438.81
878.489	10396.32
878.807	10357
879.125	10292.14
879.444	10376.21
879.762	10300.51
880.08	10336.21
880.398	10276.33
880.716	10286.04
881.034	10275.65
881.352	10254.86
881.67	10145.48
881.988	10093.28
882.306	10116.56
882.624	10088.08
882.941	10043.11
883.259	10029.33
883.577	10019.84
883.894	10050.12
884.212	9932.61
884.529	9996.56
884.846	9947.52
885.164	9947.52
885.481	9902.32
885.798	9897.35
886.115	9813.29
886.432	9829.11
886.75	9800.86
887.067	9856.68
887.383	9716.34
887.7	9763.8
888.017	9685.61
888.334	9783.46
888.651	9651.26
888.967	9675.89
889.284	9626.85
889.6	9573.97
889.917	9546.85
890.233	9520.19
890.55	9503.92
890.866	9510.02
891.182	9439.74
891.498	9449
891.815	9379.63
892.131	9355.22
892.447	9394.77
892.763	9354.77
893.079	9258.95
893.395	9256.69
893.71	9269.57
894.026	9205.62
894.342	9156.13
894.657	9150.03
894.973	9132.63
895.289	9136.69
895.604	9069.13
895.92	9060.76
896.235	8978.05
896.55	8973.76
896.865	8937.38
897.181	8949.36
897.496	8908.68
897.811	8825.74
898.126	8802.47
898.441	8810.83
898.756	8744.84
899.071	8727.89
899.386	8712.53
899.7	8624.39
900.015	8583.71
900.33	8539.65
900.644	8574
900.959	8479.31
901.273	8542.81
901.588	8506.2
901.902	8400.89
902.216	8378.97
902.531	8354.12
902.845	8346.89
903.159	8319.32
903.473	8211.3
903.787	8177.85
904.101	8144.18
904.415	8206.32
904.729	8092.43
905.042	8170.62
905.356	8104.86
905.67	8144.86
905.984	8125.87
906.297	8049.72
906.611	8002.26
906.924	7936.5
907.237	7963.39
907.551	7911.87
907.864	7897.18
908.177	7847.92
908.491	7792.32
908.804	7793
909.117	7720.23
909.43	7706.22
909.743	7720.23
910.056	7663.97
910.368	7650.41
910.681	7580.35
910.994	7609.96
911.307	7571.31
911.619	7506.23
911.932	7442.28
912.244	7399.34
912.557	7415.84
912.869	7381.03
913.181	7330.41
913.494	7284.54
913.806	7247.7
914.118	7236.41
914.43	7182.62
914.742	7226.91
915.054	7176.52
915.366	7125.9
915.678	7096.97
915.99	7070.31
916.302	7056.75
916.613	7035.28
916.925	7038.22
917.236	6949.63
917.548	6913.48
917.859	6925.68
918.171	6831.9
918.482	6793.93
918.794	6816.98
919.105	6847.94
919.416	6725.68
919.727	6757.1
920.038	6743.54
920.349	6658.12
920.66	6635.74
920.971	6663.31
921.282	6575.41
921.593	6543.99
921.903	6541.06
922.214	6473.71
922.525	6446.6
922.835	6407.95
923.146	6456.77
923.456	6376.54
923.767	6379.93
924.077	6352.81
924.387	6285.24
924.697	6290.89
925.008	6217.9
925.318	6286.6
925.628	6212.48
925.938	6171.35
926.248	6150.78
926.558	6087.74
926.867	6088.87
927.177	6077.34
927.487	6043.44
927.796	5972.48
928.106	5984.46
928.416	5982.65
928.725	5981.98
929.034	5949.66
929.344	5914.18
929.653	5857.23
929.962	5835.99
930.271	5795.54
930.581	5773.39
930.89	5761.64
931.199	5755.31
931.508	5757.12
931.817	5672.38
932.125	5650.46
932.434	5684.58
932.743	5656.79
933.051	5619.05
933.36	5551.48
933.669	5505.15
933.977	5490.69
934.286	5533.85
934.594	5481.2
934.902	5458.15
935.21	5431.03
935.519	5434.87
935.827	5384.7
936.135	5383.12
936.443	5335.44
936.751	5324.82
937.059	5255.67
937.367	5283.24
937.674	5274.65
937.982	5244.59
938.29	5198.49
938.597	5223.13
938.905	5138.83
939.213	5121.43
939.52	5157.14
939.827	5103.35
940.135	5055.9
940.442	5074.43
940.749	5012.28
941.056	5021.32
941.363	4944.49
941.67	4974.77
941.977	4956.47
942.284	4901.33
942.591	4885.51
942.898	4852.74
943.205	4842.8
943.511	4834.89
943.818	4821.1
944.125	4801.44
944.431	4830.14
944.738	4772.52
945.044	4711.05
945.35	4697.72
945.657	4674.21
945.963	4666.76
946.269	4672.41
946.575	4626.98
946.881	4610.49
947.187	4583.82
947.493	4571.84
947.799	4544.73
948.105	4498.62
948.41	4530.94
948.716	4510.83
949.022	4477.38
949.327	4504.5
949.633	4423.15
949.938	4387.89
950.244	4433.77
950.549	4370.04
950.854	4318.74
951.16	4337.27
951.465	4324.17
951.77	4304.05
952.075	4256.6
952.38	4279.87
952.685	4251.17
952.99	4186.99
953.294	4226.99
953.599	4210.72
953.904	4166.2
954.209	4126.43
954.513	4129.82
954.818	4110.84
955.122	4087.34
955.426	4107
955.731	4069.94
956.035	4015.47
956.339	4013.44
956.643	4023.83
956.948	3980.22
957.252	3957.17
957.556	3942.93
957.86	3943.16
958.163	3932.76
958.467	3892.09
958.771	3875.82
959.075	3897.28
959.378	3822.71
959.682	3817.74
959.985	3837.63
960.289	3790.39
960.592	3792.43
960.896	3780
961.199	3731.41
961.502	3758.31
961.805	3740.68
962.108	3731.19
962.411	3682.83
962.714	3701.13
963.017	3667.23
963.32	3669.49
963.623	3650.51
963.926	3664.75
964.228	3629.27
964.531	3594.02
964.833	3575.03
965.136	3549.5
965.438	3577.29
965.741	3503.4
966.043	3520.57
966.345	3498.88
966.648	3484.19
966.95	3446
967.252	3459.78
967.554	3500.23
967.856	3415.72
968.158	3442.83
968.46	3393.34
968.761	3404.87
969.063	3375.72
969.365	3305.44
969.666	3324.42
969.968	3299.56
970.269	3335.49
970.571	3283.74
970.872	3264.08
971.174	3251.88
971.475	3277.41
971.776	3250.3
972.077	3240.58
972.378	3239.45
972.679	3185.89
972.98	3151.77
973.281	3177.53
973.582	3124.42
973.883	3131.88
974.183	3078.1
974.484	3087.81
974.785	3069.06
975.085	3087.14
975.386	3082.84
975.686	3020.25
975.986	3051.88
976.287	3029.96
976.587	3002.62
976.887	3001.71
977.187	3003.75
977.487	3001.26
977.787	2963.98
978.087	2932.34
978.387	2926.69
978.687	2935.05
978.987	2907.48
979.286	2879.68
979.586	2853.47
979.885	2871.77
980.185	2874.49
980.484	2822.96
980.784	2837.43
981.083	2804.43
981.382	2777.77
981.682	2813.02
981.981	2762.4
982.28	2782.29
982.579	2780.03
982.878	2747.94
983.177	2728.5
983.475	2719.46
983.774	2679.24
984.073	2695.51
984.372	2681.72
984.67	2661.61
984.969	2691.89
985.267	2632.23
985.566	2618.67
985.864	2603.76
986.162	2611.67
986.461	2596.98
986.759	2588.17
987.057	2582.29
987.355	2546.81
987.653	2587.49
987.951	2563.53
988.249	2541.39
988.547	2507.94
988.844	2498.9
989.142	2461.39
989.44	2488.51
989.737	2464.1
990.035	2434.72
990.332	2428.4
990.63	2421.62
990.927	2395.18
991.224	2427.94
991.521	2404.44
991.819	2385.23
992.116	2368.74
992.413	2385.01
992.71	2326.03
993.006	2373.71
993.303	2346.36
993.6	2320.38
993.897	2323.99
994.193	2322.86
994.49	2300.26
994.787	2251.68
995.083	2267.95
995.379	2258.01
995.676	2283.32
995.972	2225.46
996.268	2192.47
996.565	2217.78
996.861	2184.79
997.157	2187.05
997.453	2170.1
997.749	2176.2
998.044	2167.61
998.34	2165.8
998.636	2144.11
998.932	2103.89
999.227	2110.66
999.523	2119.7
999.818	2052.59
1000.114	2071.57
1000.409	2061.85
1000.704	2056.43
1001	2048.07
1001.295	2018.01
1001.59	2067.95
1001.885	1999.71
1002.18	2002.19
1002.475	1967.84
1002.77	1963.78
1003.065	1973.27
1003.359	1954.28
1003.654	1951.12
1003.949	1929.65
1004.243	1940.73
1004.538	1947.51
1004.832	1892.59
1005.127	1913.61
1005.421	1877
1005.715	1887.39
1006.009	1856.66
1006.304	1861.86
1006.598	1840.16
1006.892	1818.24
1007.186	1790.9
1007.48	1812.37
1007.773	1824.12
1008.067	1794.51
1008.361	1790.67
1008.655	1759.94
1008.948	1778.7
1009.242	1771.46
1009.535	1759.94
1009.829	1734.18
1010.122	1731.47
1010.415	1724.01
1010.708	1689.88
1011.001	1687.17
1011.295	1661.41
1011.588	1654.63
1011.881	1669.09
1012.173	1610.56
1012.466	1651.47
1012.759	1634.07
1013.052	1633.62
1013.344	1607.63
1013.637	1605.37
1013.93	1605.14
1014.222	1597.23
1014.514	1574.18
1014.807	1561.07
1015.099	1585.03
1015.391	1563.79
1015.683	1550.45
1015.976	1528.99
1016.268	1545.93
1016.56	1522.43
1016.851	1517.91
1017.143	1529.44
1017.435	1456.22
1017.727	1474.07
1018.018	1492.38
1018.31	1469.33
1018.602	1455.99
1018.893	1460.29
1019.185	1452.38
1019.476	1448.54
1019.767	1419.16
1020.058	1427.97
1020.35	1428.2
1020.641	1394.3
1020.932	1364.92
1021.223	1363.79
1021.514	1369.44
1021.804	1334.19
1022.095	1328.09
1022.386	1327.86
1022.677	1317.69
1022.967	1326.05
1023.258	1289.22
1023.548	1305.94
1023.839	1296
1024.129	1269.56
1024.419	1259.16
1024.709	1295.77
1025	1256.9
1025.29	1260.07
1025.58	1240.86
1025.87	1236.79
1026.16	1250.57
1026.449	1242.44
1026.739	1195.43
1027.029	1195.43
1027.319	1195.66
1027.608	1199.73
1027.898	1172.84
1028.187	1173.74
1028.477	1150.69
1028.766	1159.73
1029.055	1161.31
1029.344	1142.33
1029.634	1146.4
1029.923	1127.19
1030.212	1124.25
1030.501	1139.62
1030.79	1099.84
1031.078	1090.35
1031.367	1078.83
1031.656	1072.95
1031.945	1071.37
1032.233	1066.4
1032.522	1067.53
1032.81	1063.23
1033.099	1062.33
1033.387	1074.31
1033.675	1056.46
1033.963	1006.29
1034.251	1030.02
1034.54	1012.61
1034.828	1016.68
1035.116	1005.16
1035.403	1011.26
1035.691	1027.08
1035.979	989.11
1036.267	1004.03
1036.554	955.44
1036.842	994.31
1037.129	970.13
1037.417	972.16
1037.704	964.25
1037.992	943.01
1038.279	941.43
1038.566	942.56
1038.853	942.56
1039.14	942.56
