Data from hue_290_FLMS001491_00063.txt Node
Date: Tue Feb 07 15:53:04 GMT 2017
User: dcchb
Spectrometer: FLMS00149
Trigger mode: 0
Integration Time (sec): 2.000000E-2
Scans to average: 10
Electric dark correction enabled: true
Nonlinearity correction enabled: false
Boxcar width: 0
XAxis mode: Wavelengths
Number of Pixels in Spectrum: 2048
>>>>>Begin Spectral Data<<<<<
341.393	0.45
341.776	0.45
342.16	0.45
342.543	-54.91
342.927	-63.5
343.31	-73.9
343.693	-77.51
344.077	-74.8
344.46	-72.99
344.843	-59.89
345.226	-40.45
345.61	-16.95
345.993	-15.59
346.376	-14.91
346.759	17.63
347.142	41.58
347.525	64.18
347.908	57.17
348.291	78.19
348.674	76.38
349.057	111.86
349.44	115.25
349.823	148.92
350.206	158.64
350.588	188.47
350.971	202.48
351.354	195.25
351.737	246.32
352.119	249.26
352.502	257.39
352.884	271.41
353.267	270.05
353.65	298.52
354.032	309.37
354.414	302.14
354.797	299.65
355.179	326.32
355.562	316.83
355.944	304.4
356.326	334
356.709	342.82
357.091	345.98
357.473	328.35
357.855	349.6
358.238	329.03
358.62	356.6
359.002	334.68
359.384	323.16
359.766	337.39
360.148	324.74
360.53	340.33
360.912	325.42
361.294	339.88
361.676	333.78
362.057	331.06
362.439	331.52
362.821	314.34
363.203	327.22
363.584	328.58
363.966	317.28
364.348	315.02
364.729	320.22
365.111	326.32
365.493	324.29
365.874	325.87
366.256	290.84
366.637	336.71
367.019	319.54
367.4	308.47
367.781	316.15
368.163	320.44
368.544	306.66
368.925	317.96
369.306	312.31
369.688	324.51
370.069	319.99
370.45	299.2
370.831	287.9
371.212	310.73
371.593	326.77
371.974	310.5
372.355	331.74
372.736	315.7
373.117	287
373.498	317.96
373.879	326.32
374.26	309.6
374.641	309.14
375.021	308.24
375.402	322.93
375.783	330.61
376.163	319.99
376.544	317.96
376.925	330.16
377.305	336.49
377.686	310.73
378.066	328.58
378.447	352.53
378.827	347.34
379.208	359.09
379.588	343.95
379.968	322.93
380.349	358.63
380.729	349.37
381.109	341.23
381.489	343.72
381.87	350.73
382.25	347.56
382.63	366.32
383.01	330.84
383.39	372.19
383.77	345.3
384.15	351.63
384.53	354.57
384.91	375.81
385.29	371.29
385.67	350.27
386.049	375.36
386.429	398.63
386.809	372.87
387.189	372.65
387.568	369.26
387.948	358.18
388.328	369.48
388.707	363.15
389.087	377.62
389.466	376.49
389.846	378.97
390.225	386.2
390.605	376.71
390.984	372.19
391.363	395.7
391.743	388.69
392.122	374.68
392.501	373.1
392.881	401.57
393.26	395.92
393.639	385.98
394.018	394.11
394.397	395.7
394.776	409.03
395.155	412.87
395.534	429.59
395.913	388.01
396.292	425.75
396.671	413.32
397.05	422.14
397.429	435.47
397.808	418.07
398.186	407.45
398.565	429.14
398.944	421.68
399.323	415.58
399.701	421.91
400.08	437.5
400.458	430.72
400.837	440.89
401.215	453.32
401.594	442.25
401.972	462.81
402.351	431.18
402.729	469.59
403.107	457.16
403.486	462.81
403.864	463.04
404.242	461.91
404.62	471.85
404.999	457.16
405.377	456.94
405.755	477.28
406.133	469.59
406.511	487.67
406.889	486.09
407.267	512.3
407.645	505.98
408.023	499.65
408.401	529.03
408.779	545.52
409.156	531.29
409.534	545.3
409.912	526.99
410.29	563.6
410.667	558.4
411.045	561.34
411.422	566.31
411.8	569.7
412.178	583.94
412.555	607.89
412.933	604.5
413.31	603.15
413.687	612.19
414.065	651.51
414.442	654.9
414.819	648.34
415.197	659.87
415.574	659.42
415.951	679.76
416.328	687.21
416.705	678.17
417.082	704.61
417.46	695.35
417.837	702.13
418.214	700.77
418.591	732.64
418.967	729.7
419.344	747.78
419.721	752.3
420.098	767.66
420.475	774.89
420.852	768.57
421.228	802.01
421.605	802.69
421.982	795.46
422.358	804.72
422.735	849.7
423.111	833.2
423.488	843.37
423.864	830.03
424.241	865.97
424.617	891.28
424.994	884.95
425.37	898.73
425.746	913.65
426.123	905.51
426.499	945.51
426.875	947.77
427.251	959.75
427.627	954.78
428.003	986.64
428.379	981.9
428.756	980.54
429.132	994.55
429.507	1001.33
429.883	1022.35
430.259	1042.23
430.635	1061.89
431.011	1052.85
431.387	1100.99
431.763	1091.04
432.138	1106.86
432.514	1135.79
432.89	1154.09
433.265	1154.77
433.641	1184.6
434.016	1200.87
434.392	1196.35
434.767	1205.84
435.143	1211.72
435.518	1238.16
435.894	1246.52
436.269	1273.86
436.644	1257.14
437.02	1301.89
437.395	1283.13
437.77	1328.1
438.145	1334.65
438.52	1349.12
438.895	1361.09
439.271	1382.11
439.646	1400.87
440.021	1435.44
440.395	1426.86
440.77	1419.85
441.145	1432.73
441.52	1467.76
441.895	1459.62
442.27	1471.6
442.645	1483.58
443.019	1482.22
443.394	1489.9
443.769	1510.92
444.143	1488.1
444.518	1545.27
444.892	1503.92
445.267	1524.48
445.641	1534.42
446.016	1563.12
446.39	1547.98
446.764	1563.12
447.139	1556.8
447.513	1549.11
447.887	1593.18
448.262	1590.01
448.636	1607.87
449.01	1589.79
449.384	1600.18
449.758	1644.25
450.132	1628.66
450.506	1655.32
450.88	1663.01
451.254	1655.78
451.628	1676.34
452.002	1673.63
452.376	1701.42
452.75	1703.91
453.123	1712.5
453.497	1726.51
453.871	1751.14
454.244	1799.95
454.618	1799.95
454.992	1779.84
455.365	1784.13
455.739	1835.43
456.112	1859.84
456.486	1850.35
456.859	1858.26
457.232	1892.38
457.606	1924.02
457.979	1930.34
458.352	1950.91
458.725	1941.87
459.099	1968.76
459.472	1974.86
459.845	1986.84
460.218	2043.79
460.591	2064.35
460.964	2011.02
461.337	2072.04
461.71	2129.21
462.083	2130.11
462.456	2103
462.829	2109.78
463.201	2172.6
463.574	2182.77
463.947	2193.84
464.32	2277.23
464.692	2278.36
465.065	2247.62
465.438	2262.31
465.81	2298.47
466.183	2314.97
466.555	2343.44
466.928	2378.69
467.3	2344.12
467.672	2370.79
468.045	2463.66
468.417	2442.65
468.789	2462.53
469.161	2482.19
469.534	2544.11
469.906	2582.53
470.278	2513.38
470.65	2600.16
471.022	2632.93
471.394	2682.19
471.766	2699.59
472.138	2732.36
472.51	2753.37
472.882	2769.64
473.253	2782.98
473.625	2859.81
473.997	2869.53
474.369	2885.57
474.74	2956.76
475.112	2971.22
475.484	2957.66
475.855	3012.8
476.227	3021.16
476.598	3152.23
476.97	3135.51
477.341	3175.74
477.713	3206.7
478.084	3230.65
478.455	3311.78
478.827	3330.31
479.198	3399.68
479.569	3373.02
479.94	3502.96
480.311	3457.31
480.682	3565.1
481.053	3606.46
481.424	3651.66
481.795	3660.47
482.166	3697.76
482.537	3738.43
482.908	3801.03
483.279	3806.68
483.65	3914.47
484.021	3914.25
484.391	3947.47
484.762	3980.01
485.133	4030.18
485.503	4100.91
485.874	4168.03
486.244	4173.45
486.615	4241.47
486.985	4277.85
487.356	4340.9
487.726	4364.63
488.097	4372.99
488.467	4435.59
488.837	4518.53
489.207	4499.99
489.578	4589.48
489.948	4644.62
490.318	4676.26
490.688	4673.1
491.058	4739.54
491.428	4806.43
491.798	4823.38
492.168	4925.97
492.538	4972.52
492.908	4958.74
493.278	5029.47
493.648	5010.04
494.017	5059.98
494.387	5116.02
494.757	5171.62
495.126	5209.13
495.496	5222.91
495.866	5219.75
496.235	5253.65
496.605	5286.19
496.974	5322.35
497.344	5406.64
497.713	5403.7
498.082	5419.74
498.452	5436.02
498.821	5498.84
499.19	5477.6
499.559	5520.08
499.928	5551.94
500.298	5571.38
500.667	5599.4
501.036	5591.27
501.405	5618.16
501.774	5654.31
502.143	5744.26
502.512	5758.94
502.88	5771.6
503.249	5798.94
503.618	5794.65
503.987	5841.65
504.356	5851.6
504.724	5861.77
505.093	5887.53
505.462	5927.53
505.83	5939.96
506.199	5958.71
506.567	6025.38
506.936	6082.1
507.304	6079.61
507.672	6078.26
508.041	6123.68
508.409	6172.04
508.777	6181.08
509.145	6214.75
509.514	6255.2
509.882	6231.7
510.25	6215.43
510.618	6307.18
510.986	6258.82
511.354	6358.48
511.722	6380.17
512.09	6405.48
512.458	6367.29
512.826	6413.84
513.193	6439.6
513.561	6496.78
513.929	6474.18
514.297	6500.17
514.664	6567.96
515.032	6560.28
515.4	6583.33
515.767	6658.58
516.135	6679.37
516.502	6578.81
516.869	6768.18
517.237	6691.35
517.604	6724.57
517.972	6742.65
518.339	6787.62
518.706	6788.3
519.073	6803.21
519.44	6835.53
519.808	6936.31
520.175	6846.83
520.542	6942.19
520.909	6939.03
521.276	6974.28
521.643	6995.97
522.009	7083.66
522.376	7156.65
522.743	7103.99
523.11	7099.93
523.477	7207.27
523.843	7194.39
524.21	7274.84
524.577	7252.92
524.943	7360.26
525.31	7384.21
525.676	7428.51
526.043	7470.99
526.409	7428.73
526.776	7519.58
527.142	7551.67
527.508	7560.25
527.874	7651.78
528.241	7668.05
528.607	7684.09
528.973	7738.33
529.339	7739.23
529.705	7793.92
530.071	7872.56
530.437	7868.27
530.803	7920.92
531.169	7960.24
531.535	7929.06
531.901	7956.17
532.267	7974.25
532.632	8019.45
532.998	8077.3
533.364	8122.95
533.73	8165.21
534.095	8242.72
534.461	8195.94
534.826	8191.42
535.192	8232.1
535.557	8295.6
535.923	8312.1
536.288	8338.76
536.653	8354.81
537.019	8345.09
537.384	8393
537.749	8390.06
538.114	8360.68
538.479	8449.95
538.845	8483.17
539.21	8448.82
539.575	8515.93
539.94	8524.3
540.305	8539.21
540.67	8578.08
541.034	8676.61
541.399	8611.07
541.764	8630.28
542.129	8702.82
542.494	8694.01
542.858	8734.01
543.223	8702.14
543.587	8844.51
543.952	8769.26
544.316	8853.33
544.681	8856.04
545.045	8913.44
545.41	8933.78
545.774	8962.25
546.138	8962.02
546.503	8971.29
546.867	8963.61
547.231	9077.05
547.595	9105.07
547.959	9108.69
548.324	9137.16
548.688	9136.48
549.052	9153.88
549.416	9208.12
549.779	9219.64
550.143	9174.22
550.507	9248.12
550.871	9230.49
551.235	9239.08
551.599	9306.65
551.962	9330.15
552.326	9368.79
552.689	9381.9
553.053	9374.89
553.417	9444.5
553.78	9487.89
554.143	9370.15
554.507	9466.19
554.87	9526.3
555.234	9615.11
555.597	9535.34
555.96	9590.93
556.323	9632.06
556.686	9565.85
557.05	9675
557.413	9671.84
557.776	9733.76
558.139	9788.9
558.502	9805.84
558.865	9782.57
559.228	9833.41
559.59	9823.92
559.953	9889.46
560.316	10007.19
560.679	9963.58
561.041	10110.69
561.404	10032.73
561.767	10083.35
562.129	10036.35
562.492	10150.47
562.854	10152.28
563.217	10119.73
563.579	10264.36
563.941	10237.24
564.304	10242.44
564.666	10290.35
565.028	10426.62
565.39	10370.12
565.753	10496.45
566.115	10433.85
566.477	10479.27
566.839	10469.56
567.201	10543.9
567.563	10596.11
567.925	10670.91
568.287	10653.28
568.648	10680.17
569.01	10767.17
569.372	10830
569.734	10864.57
570.095	10825.93
570.457	10896.44
570.819	10985.47
571.18	10901.41
571.542	10994.29
571.903	11044.91
572.265	11091.23
572.626	11107.05
572.987	11116.32
573.349	11167.62
573.71	11252.36
574.071	11319.25
574.432	11349.31
574.794	11467.72
575.155	11443.31
575.516	11448.74
575.877	11567.61
576.238	11567.38
576.599	11637.43
576.96	11749.97
577.32	11761.72
577.681	11843.08
578.042	11924.43
578.403	11952.91
578.763	11986.13
579.124	12060.93
579.485	12126.69
579.845	12268.6
580.206	12281.03
580.566	12391.99
580.927	12384.08
581.287	12467.24
581.648	12581.82
582.008	12721.7
582.368	12767.35
582.728	12846.67
583.089	12933.9
583.449	13020.45
583.809	13071.52
584.169	13306.77
584.529	13307.67
584.889	13511.06
585.249	13565.52
585.609	13579.53
585.969	13898.62
586.329	13906.3
586.688	13975.23
587.048	14160.31
587.408	14283.47
587.768	14395.78
588.127	14498.38
588.487	14606.4
588.846	14850.23
589.206	14883
589.565	15006.39
589.925	15178.58
590.284	15336.32
590.643	15440.72
591.003	15563.43
591.362	15772.01
591.721	15849.07
592.08	16023.31
592.44	16271.21
592.799	16367.48
593.158	16504.42
593.517	16646.34
593.876	16863.74
594.235	16866.68
594.593	17003.85
594.952	17230.06
595.311	17322.93
595.67	17534.45
596.029	17709.14
596.387	17857.16
596.746	18077.26
597.104	18022.35
597.463	18148.45
597.822	18327.2
598.18	18381.21
598.538	18502.79
598.897	18711.37
599.255	18774.87
599.613	19258.25
599.972	19104.13
600.33	19336.89
600.688	19295.09
601.046	19479.71
601.404	19756.54
601.762	19799.48
602.12	19961.51
602.478	20124.44
602.836	20211.45
603.194	20113.82
603.552	20374.38
603.91	20402.85
604.268	20566.01
604.625	20544.77
604.983	20760.36
605.341	20699.57
605.698	20956.96
606.056	21042.84
606.413	21058.2
606.771	21298.65
607.128	21328.93
607.485	21391.98
607.843	21452.32
608.2	21640.56
608.557	21724.63
608.914	21652.09
609.272	21883.27
609.629	22070.61
609.986	22156.93
610.343	22110.38
610.7	22318.96
611.057	22383.82
611.414	22385.63
611.771	22457.71
612.127	22695
612.484	22590.37
612.841	22800.08
613.198	22763.7
613.554	22835.33
613.911	23088.88
614.267	22965.72
614.624	23106.06
614.98	23144.48
615.337	23291.59
615.693	23321.65
616.05	23353.06
616.406	23563.9
616.762	23541.3
617.118	23537.23
617.475	23561.87
617.831	23638.47
618.187	23751.69
618.543	23695.65
618.899	23837.79
619.255	23872.59
619.611	23865.81
619.967	23946.49
620.323	24083.21
620.678	24062.64
621.034	24005.92
621.39	24173.6
621.746	23990.56
622.101	24346.25
622.457	24138.8
622.812	24231.45
623.168	24322.75
623.523	24303.77
623.879	24377.66
624.234	24274.16
624.589	24479.58
624.945	24427.83
625.3	24440.04
625.655	24606.58
626.01	24540.37
626.365	24569.07
626.72	24627.38
627.075	24562.07
627.43	24571.56
627.785	24590.09
628.14	24577.21
628.495	24619.47
628.85	24667.83
629.205	24614.27
629.559	24679.13
629.914	24663.53
630.269	24663.08
630.623	24576.3
630.978	24673.48
631.332	24725.45
631.687	24674.15
632.041	24670.54
632.396	24640.93
632.75	24532.46
633.104	24651.33
633.459	24500.82
633.813	24598
634.167	24560.26
634.521	24565.91
634.875	24622.86
635.229	24626.25
635.583	24528.62
635.937	24489.3
636.291	24480.03
636.645	24588.96
636.999	24473.25
637.352	24600.26
637.706	24369.08
638.06	24466.02
638.413	24413.37
638.767	24336.31
639.121	24373.37
639.474	24340.6
639.828	24308.06
640.181	24302.86
640.534	24440.49
640.888	24267.84
641.241	24189.42
641.594	24251.79
641.947	24398.91
642.301	24153.72
642.654	24288.4
643.007	24273.03
643.36	24294.95
643.713	24262.41
644.066	24393.93
644.419	24276.88
644.771	24050.89
645.124	23873.95
645.477	23870.11
645.83	23566.61
646.182	23607.06
646.535	23376.56
646.888	23578.36
647.24	23387.18
647.593	23532.94
647.945	23524.58
648.298	23326.62
648.65	23387.63
649.002	23294.08
649.355	23496.78
649.707	23424.69
650.059	23641.64
650.411	23875.76
650.763	23884.57
651.115	24195.07
651.467	24019.26
651.819	23969.54
652.171	24010.44
652.523	24019.93
652.875	24042.31
653.227	23995.98
653.578	24107.39
653.93	24068.52
654.282	23925.47
654.633	23948.52
654.985	24008.86
655.337	24013.15
655.688	24011.35
656.039	24093.15
656.391	23882.76
656.742	23915.53
657.094	23986.26
657.445	24100.84
657.796	24056.54
658.147	23993.04
658.498	24019.26
658.849	24000.27
659.2	23866.94
659.551	23836.89
659.902	24016.09
660.253	24002.53
660.604	24072.81
660.955	23941.74
661.306	23980.84
661.656	23991.91
662.007	24158.69
662.358	24024.23
662.708	23986.94
663.059	24025.81
663.409	23915.98
663.76	24077.11
664.11	24033.27
664.461	24061.97
664.811	24069.42
665.161	24092.47
665.511	23897.45
665.862	23944.91
666.212	24153.04
666.562	24126.37
666.912	24009.09
667.262	23986.71
667.612	24040.27
667.962	24119.82
668.312	24094.06
668.662	24133.15
669.011	24050.22
669.361	24022.65
669.711	24008.18
670.06	23988.3
670.41	23931.8
670.76	23904.68
671.109	23955.98
671.459	24026.94
671.808	23846.6
672.157	23863.55
672.507	23817.45
672.856	23776.78
673.205	23924.12
673.554	23974.51
673.904	23849.09
674.253	23935.19
674.602	23860.84
674.951	23520.96
675.3	23375.66
675.649	23720.73
675.998	23757.12
676.346	23751.69
676.695	23725.25
677.044	23639.38
677.393	23584.92
677.741	23682.32
678.09	23697.68
678.438	23548.08
678.787	23597.12
679.135	23567.29
679.484	23428.99
679.832	23493.62
680.181	23433.06
680.529	23442.55
680.877	23464.92
681.225	23340.4
681.573	23518.7
681.922	23374.3
682.27	23261.76
682.618	23250.24
682.966	23220.86
683.314	23247.07
683.661	23171.37
684.009	23060.41
684.357	23109.67
684.705	22970.24
685.053	22976.35
685.4	22970.02
685.748	22822.22
686.095	22841.43
686.443	22730.7
686.79	22634.43
687.138	22610.93
687.485	22739.06
687.832	22541.1
688.18	22623.36
688.527	22381.33
688.874	22492.29
689.221	22474.44
689.568	22397.6
689.915	22268.12
690.262	22268.57
690.609	22165.29
690.956	22167.55
691.303	22124.16
691.65	22076.03
691.997	21932.3
692.344	21812.53
692.69	21787.68
693.037	21803.04
693.383	21655.02
693.73	21697.96
694.077	21576.83
694.423	21552.88
694.769	21555.82
695.116	21533.9
695.462	21375.26
695.808	21187.69
696.155	21303.85
696.501	21062.72
696.847	21080.58
697.193	20986.79
697.539	21022.95
697.885	20783.63
698.231	20750.41
698.577	20676.07
698.923	20665.67
699.269	20626.8
699.614	20383.19
699.96	20440.59
700.306	20384.77
700.651	20412.34
700.997	20220.03
701.342	20215.06
701.688	20176.64
702.033	20150.2
702.379	20031.56
702.724	19988.4
703.069	20029.98
703.415	19833.15
703.76	19804
704.105	19793.83
704.45	19663.89
704.795	19552.93
705.14	19511.58
705.485	19525.59
705.83	19415.76
706.175	19399.26
706.52	19317.68
706.865	19270
707.209	19320.4
707.554	19147.29
707.899	19184.58
708.243	19083.34
708.588	19044.25
708.932	19011.03
709.277	18951.82
709.621	18906.62
709.966	18751.82
710.31	18874.53
710.654	18568.78
710.998	18670.47
711.342	18726.51
711.687	18648.55
712.031	18501.21
712.375	18375.11
712.719	18455.56
713.063	18367.2
713.407	18481.32
713.75	18272.06
714.094	18439.97
714.438	18244.04
714.782	18275.23
715.125	18212.18
715.469	18201.33
715.812	18072.75
716.156	17940.09
716.499	18012.86
716.843	18050.37
717.186	17861.23
717.53	17993.65
717.873	18042.69
718.216	17902.35
718.559	17884.5
718.902	17765.41
719.246	17857.61
719.589	17749.59
719.932	17630.72
720.275	17702.81
720.617	17601.35
720.96	17606.09
721.303	17620.1
721.646	17721.34
721.989	17496.26
722.331	17613.77
722.674	17486.77
723.016	17565.64
723.359	17583.04
723.701	17512.99
724.044	17424.4
724.386	17342.82
724.729	17449.94
725.071	17339.66
725.413	17307.34
725.755	17305.99
726.097	17273.22
726.439	17157.97
726.782	17237.29
727.124	17324.29
727.465	17230.06
727.807	17223.95
728.149	17229.15
728.491	17195.93
728.833	17287.91
729.175	17147.12
729.516	17049.27
729.858	17129.72
730.199	17148.7
730.541	17108.25
730.882	17103.05
731.224	17093.11
731.565	16975.37
731.906	17025.99
732.248	17099.21
732.589	17095.6
732.93	16956.39
733.271	16991.64
733.612	17044.75
733.953	16999.78
734.294	16885.21
734.635	16928.14
734.976	16939.67
735.317	16956.39
735.658	16938.76
735.999	17010.17
736.339	16856.51
736.68	17011.53
737.021	16934.7
737.361	16877.07
737.702	16915.26
738.042	16929.27
738.383	16894.25
738.723	17028.48
739.063	16896.05
739.404	16987.58
739.744	16983.06
740.084	16863.06
740.424	17160.9
740.764	16947.13
741.104	17026.9
741.444	16935.83
741.784	16932.44
742.124	16960.68
742.464	16972.44
742.804	16954.13
743.143	17027.35
743.483	17086.33
743.823	17015.82
744.162	17031.64
744.502	17183.5
744.841	17137.63
745.181	17252.2
745.52	17247.23
745.86	17287
746.199	17243.39
746.538	17256.95
746.877	17343.27
747.216	17422.37
747.556	17406.77
747.895	17552.53
748.234	17423.27
748.573	17495.13
748.911	17577.16
749.25	17706.2
749.589	17687.22
749.928	17757.05
750.267	17913.43
750.605	18001.79
750.944	17988.91
751.283	17934.44
751.621	18148.22
751.96	18124.95
752.298	18293.76
752.636	18400.19
752.975	18342.34
753.313	18472.73
753.651	18641.32
753.989	18612.39
754.327	18778.72
754.666	18780.3
755.004	18874.08
755.342	19082.66
755.679	19109.78
756.017	19152.04
756.355	19430.9
756.693	19424.8
757.031	19548.64
757.368	19678.35
757.706	19770.78
758.044	19817.11
758.381	20080.6
758.719	20085.35
759.056	20245.57
759.394	20257.32
759.731	20313.82
760.068	20421.16
760.405	20534.83
760.743	20574.15
761.08	20729.85
761.417	20764.2
761.754	20971.43
762.091	21013.23
762.428	20992.67
762.765	21151.53
763.102	21304.52
763.438	21210.97
763.775	21372.09
764.112	21501.13
764.449	21536.61
764.785	21603.05
765.122	21620.67
765.458	21642.59
765.795	21784.51
766.131	21825.64
766.467	21845.53
766.804	21795.36
767.14	21835.36
767.476	21870.61
767.812	22025.86
768.148	22159.64
768.485	22106.76
768.821	21936.15
769.157	22175.01
769.492	22164.61
769.828	22036.93
770.164	22177.04
770.5	22041
770.836	22137.05
771.171	22190.83
771.507	22275.35
771.842	22067.67
772.178	22139.76
772.513	22223.14
772.849	22049.59
773.184	22064.05
773.519	22130.04
773.855	22055.69
774.19	22159.64
774.525	22173.43
774.86	22132.75
775.195	22224.27
775.53	22118.29
775.865	22055.01
776.2	21973.21
776.535	21817.51
776.87	21855.92
777.205	21898.86
777.539	21844.4
777.874	21948.8
778.209	21689.37
778.543	21715.14
778.878	21598.08
779.212	21762.14
779.547	21587.91
779.881	21676.27
780.215	21535.03
780.55	21567.34
780.884	21474.46
781.218	21515.82
781.552	21540.68
781.886	21378.19
782.22	21258.2
782.554	21199.22
782.888	21093.46
783.222	21044.64
783.556	20962.61
783.889	20974.36
784.223	20863.63
784.557	20801.71
784.89	20924.65
785.224	20816.18
785.557	20671.55
785.891	20767.59
786.224	20611.66
786.558	20664.54
786.891	20362.85
787.224	20357.2
787.557	20368.28
787.891	20389.52
788.224	20341.16
788.557	20214.61
788.89	20216.64
789.223	20290.77
789.556	20045.35
789.888	19990.43
790.221	19949.53
790.554	19815.98
790.887	19793.83
791.219	19724.23
791.552	19748.63
791.884	19702.31
792.217	19603.78
792.549	19551.35
792.882	19402.2
793.214	19316.55
793.546	19434.07
793.879	19345.93
794.211	19134.41
794.543	19236.78
794.875	19217.12
795.207	19201.53
795.539	19050.8
795.871	19093.06
796.203	18937.36
796.535	18802.67
796.867	18775.1
797.198	18706.85
797.53	18760.41
797.862	18582.56
798.193	18673.18
798.525	18523.35
798.856	18526.74
799.188	18387.31
799.519	18343.02
799.85	18150.94
800.182	18274.1
800.513	18307.32
800.844	18133.76
801.175	18219.63
801.506	18187.32
801.837	18007.66
802.168	18025.97
802.499	17878.4
802.83	17900.55
803.161	17853.54
803.491	17820.1
803.822	17798.18
804.153	17651.97
804.483	17620.1
804.814	17559.76
805.145	17529.26
805.475	17517.28
805.805	17394.34
806.136	17411.97
806.466	17453.1
806.796	17400.45
807.126	17254.69
807.457	17263.27
807.787	17285.65
808.117	17074.58
808.447	17103.73
808.777	17073.9
809.107	17047.01
809.436	16958.2
809.766	16842.95
810.096	16872.1
810.426	16861.03
810.755	16824.19
811.085	16729.96
811.414	16694.48
811.744	16598.43
812.073	16563.63
812.403	16618.32
812.732	16486.35
813.061	16475.72
813.39	16401.38
813.719	16345.56
814.049	16524.76
814.378	16390.76
814.707	16314.83
815.036	16224.88
815.365	16212
815.693	16097.43
816.022	16174.94
816.351	16044.55
816.68	15968.62
817.008	16042.29
817.337	15891.33
817.665	15897.21
817.994	15893.82
818.322	15810.66
818.651	15783.54
818.979	15671.45
819.307	15824.89
819.636	15752.35
819.964	15758.46
820.292	15718
820.62	15721.39
820.948	15644.33
821.276	15745.12
821.604	15655.18
821.932	15641.85
822.259	15580.61
822.587	15581.96
822.915	15571.34
823.243	15567.95
823.57	15572.92
823.898	15570.44
824.225	15515.52
824.553	15548.74
824.88	15560.04
825.207	15607.73
825.535	15475.75
825.862	15492.47
826.189	15478.69
826.516	15592.81
826.843	15626.48
827.17	15624
827.497	15633.04
827.824	15569.31
828.151	15610.89
828.478	15527.05
828.805	15604.11
829.131	15551.23
829.458	15604.79
829.785	15442.08
830.111	15530.21
830.438	15574.96
830.764	15505.36
831.09	15574.96
831.417	15423.55
831.743	15522.76
832.069	15505.36
832.395	15427.62
832.722	15533.6
833.048	15425.58
833.374	15435.98
833.7	15372.48
834.026	15392.14
834.351	15439.59
834.677	15381.52
835.003	15325.25
835.329	15399.14
835.654	15318.92
835.98	15274.4
836.306	15306.49
836.631	15255.87
836.956	15285.93
837.282	15192.82
837.607	15198.92
837.932	15133.84
838.258	15148.3
838.583	15142.88
838.908	14955.99
839.233	15088.19
839.558	15094.52
839.883	14958.48
840.208	14951.47
840.533	14875.54
840.858	15004.8
841.182	14918.25
841.507	14973.84
841.832	14821.08
842.156	14788.99
842.481	14792.38
842.805	14867.41
843.13	14647.75
843.454	14716.22
843.778	14653.63
844.103	14574.08
844.427	14541.99
844.751	14598.26
845.075	14524.36
845.399	14500.86
845.723	14365.95
846.047	14414.08
846.371	14216.35
846.695	14226.29
847.019	14160.08
847.343	14154.66
847.666	14056.13
847.99	13955.34
848.313	14024.04
848.637	13874.44
848.96	13915.57
849.284	13870.6
849.607	13745.18
849.931	13688.23
850.254	13631.73
850.577	13485.75
850.9	13437.61
851.223	13478.74
851.546	13312.64
851.869	13306.32
852.192	13304.28
852.515	13174.57
852.838	13090.96
853.161	13179.99
853.483	13106.55
853.806	13029.49
854.129	12991.07
854.451	12886.44
854.774	13030.17
855.096	12792.66
855.419	12885.76
855.741	12881.7
856.063	12780
856.385	12808.25
856.708	12613.23
857.03	12634.92
857.352	12624.3
857.674	12617.75
857.996	12538.88
858.318	12415.94
858.64	12479.9
858.961	12460.24
859.283	12321.26
859.605	12335.04
859.926	12378.43
860.248	12341.6
860.57	12249.17
860.891	12282.84
861.212	12193.35
861.534	12184.31
861.855	12079.23
862.176	12151.77
862.498	12099.57
862.819	12206.68
863.14	12054.15
863.461	12078.78
863.782	12034.26
864.103	12026.12
864.424	11969.18
864.745	11942.06
865.065	11945.9
865.386	11913.59
865.707	11863.42
866.027	11896.86
866.348	11850.08
866.668	11904.32
866.989	11794.27
867.309	11786.58
867.63	11836.3
867.95	11681.5
868.27	11641.5
868.59	11705
868.91	11609.19
869.23	11632.01
869.55	11610.09
869.87	11594.95
870.19	11662.74
870.51	11568.74
870.83	11533.71
871.15	11450.32
871.469	11553.59
871.789	11563.31
872.109	11458.68
872.428	11353.6
872.748	11497.78
873.067	11418
873.386	11400.38
873.706	11450.55
874.025	11351.79
874.344	11332.58
874.663	11345.69
874.982	11276.54
875.301	11281.29
875.62	11262.98
875.939	11243.77
876.258	11293.94
876.577	11212.13
876.896	11192.47
877.214	11133.49
877.533	11183.89
877.852	11181.63
878.17	11157.45
878.489	11108.86
878.807	11115.19
879.125	11036.09
879.444	11030.22
879.762	11020.05
880.08	10989.77
880.398	11002.2
880.716	11031.12
881.034	10995.87
881.352	10952.25
881.67	10924.68
881.988	10919.49
882.306	10876.55
882.624	10814.4
882.941	10738.25
883.259	10795.87
883.577	10736.89
883.894	10772.15
884.212	10728.08
884.529	10685.37
884.846	10669.32
885.164	10658.93
885.481	10625.48
885.798	10605.14
886.115	10479.72
886.432	10507.52
886.75	10495.09
887.067	10495.54
887.383	10480.85
887.7	10395.66
888.017	10463
888.334	10418.71
888.651	10314.76
888.967	10344.81
889.284	10248.77
889.6	10287.87
889.917	10217.81
890.233	10238.37
890.55	10184.59
890.866	10159.05
891.182	10176.68
891.498	10089.9
891.815	10014.65
892.131	9973.75
892.447	10031.37
892.763	9930.36
893.079	9891.27
893.395	9894.2
893.71	9883.13
894.026	9844.94
894.342	9849.01
894.657	9724.26
894.973	9747.31
895.289	9701.44
895.604	9748.22
895.92	9662.57
896.235	9568.34
896.55	9605.17
896.865	9546.64
897.181	9562.46
897.496	9587.54
897.811	9471.62
898.126	9366.99
898.441	9407.66
898.756	9381.45
899.071	9279.98
899.386	9344.84
899.7	9189.36
900.015	9171.74
900.33	9138.74
900.644	9188.46
900.959	9197.5
901.273	9069.37
901.588	9038.41
901.902	9013.77
902.216	8951.18
902.531	8956.37
902.845	8969.26
903.159	8863.5
903.473	8871.63
903.787	8853.55
904.101	8786.44
904.415	8766.55
904.729	8723.16
905.042	8663.73
905.356	8668.02
905.67	8648.81
905.984	8555.71
906.297	8620.11
906.611	8506.22
906.924	8525.88
907.237	8466.9
907.551	8434.35
907.864	8425.77
908.177	8375.82
908.491	8407.69
908.804	8299.89
909.117	8320.23
909.43	8196.39
909.743	8237.07
910.056	8216.96
910.368	8129.96
910.681	8096.28
910.994	8057.19
911.307	8037.3
911.619	7943.29
911.932	7970.86
912.244	7974.25
912.557	7940.13
912.869	7825.56
913.181	7859.45
913.494	7847.93
913.806	7780.36
914.118	7719.8
914.43	7693.58
914.742	7775.61
915.054	7665.79
915.366	7600.03
915.678	7635.51
915.99	7606.81
916.302	7507.6
916.613	7511.44
916.925	7541.5
917.236	7413.82
917.548	7428.96
917.859	7447.49
918.171	7293.14
918.482	7283.88
918.794	7261.05
919.105	7263.99
919.416	7178.79
919.727	7151.45
920.038	7158
920.349	7086.59
920.66	7072.58
920.971	7053.6
921.282	7027.16
921.593	6997.78
921.903	6927.28
922.214	6969.53
922.525	6913.04
922.835	6926.37
923.146	6897.45
923.456	6829.2
923.767	6825.58
924.077	6822.42
924.387	6779.03
924.697	6726.83
925.008	6709.65
925.318	6716.43
925.628	6656.55
925.938	6607.74
926.248	6527.29
926.558	6475.31
926.867	6512.37
927.177	6459.72
927.487	6451.81
927.796	6364.8
928.106	6408.42
928.416	6377.69
928.725	6343.34
929.034	6271.02
929.344	6298.59
929.653	6264.02
929.962	6211.36
930.271	6204.13
930.581	6174.98
930.89	6212.04
931.199	6120.74
931.508	6122.32
931.817	6111.03
932.125	6102.44
932.434	6046.39
932.743	6005.27
933.051	5992.16
933.36	5946.74
933.669	5882.56
933.977	5861.99
934.286	5878.49
934.594	5861.54
934.902	5838.94
935.21	5759.17
935.519	5731.83
935.827	5754.65
936.135	5738.83
936.443	5694.31
936.751	5662.9
937.059	5659.74
937.367	5653.41
937.674	5637.82
937.982	5609.34
938.29	5562.34
938.597	5588.55
938.905	5476.47
939.213	5507.88
939.52	5499.74
939.827	5483.47
940.135	5466.07
940.442	5401.44
940.749	5384.94
941.056	5389.46
941.363	5306.53
941.67	5271.5
941.977	5234.44
942.284	5233.53
942.591	5264.49
942.898	5206.42
943.205	5219.98
943.511	5185.63
943.818	5198.73
944.125	5121.67
944.431	5107.21
944.738	5079.19
945.044	5033.99
945.35	5019.3
945.657	4985.86
945.963	4997.38
946.269	4905.18
946.575	4944.5
946.881	4941.79
947.187	4911.96
947.493	4896.37
947.799	4857.27
948.105	4777.95
948.41	4787.44
948.716	4756.26
949.022	4768.69
949.327	4794.9
949.633	4697.05
949.938	4751.74
950.244	4750.61
950.549	4684.4
950.854	4626.77
951.16	4605.53
951.465	4601.91
951.77	4565.53
952.075	4530.5
952.38	4516.04
952.685	4536.6
952.99	4512.42
953.294	4520.56
953.599	4466.1
953.904	4434.91
954.209	4424.29
954.513	4413.22
954.818	4401.24
955.122	4365.31
955.426	4363.28
955.731	4323.95
956.035	4314.01
956.339	4249.15
956.643	4257.52
956.948	4275.82
957.252	4250.96
957.556	4229.04
957.86	4233.34
958.163	4250.28
958.467	4191.98
958.771	4176.84
959.075	4143.85
959.378	4109.95
959.682	4114.92
959.985	4054.81
960.289	4060.23
960.592	4032.44
960.896	4037.63
961.199	4020.01
961.502	3985.43
961.805	3966.45
962.108	3939.78
962.411	3956.28
962.714	3950.63
963.017	3917.19
963.32	3933.68
963.623	3933.46
963.926	3868.15
964.228	3821.59
964.531	3842.38
964.833	3867.92
965.136	3781.82
965.438	3792.67
965.741	3749.05
966.043	3707.47
966.345	3719
966.648	3734.37
966.95	3711.77
967.252	3674.93
967.554	3657.98
967.856	3615.95
968.158	3609.62
968.46	3662.73
968.761	3575.95
969.063	3592.22
969.365	3556.74
969.666	3548.16
969.968	3497.54
970.269	3481.72
970.571	3526.69
970.872	3482.62
971.174	3481.49
971.475	3450.3
971.776	3430.64
972.077	3397.2
972.378	3395.39
972.679	3392.91
972.98	3402.62
973.281	3337.31
973.582	3296.18
973.883	3348.61
974.183	3311.33
974.484	3321.27
974.785	3250.54
975.085	3313.81
975.386	3253.25
975.686	3261.84
975.986	3216.19
976.287	3229.29
976.587	3197.2
976.887	3202.4
977.187	3161.5
977.487	3138.67
977.787	3132.57
978.087	3126.02
978.387	3124.66
978.687	3115.85
978.987	3082.86
979.286	3075.17
979.586	3098.45
979.885	3034.04
980.185	3052.35
980.484	2996.08
980.784	3029.52
981.083	3010.09
981.382	2995.85
981.682	2967.61
981.981	2977.55
982.28	2946.14
982.579	2954.72
982.878	2936.19
983.177	2908.62
983.475	2886.25
983.774	2896.42
984.073	2861.85
984.372	2846.03
984.67	2831.11
984.969	2839.93
985.267	2819.59
985.566	2788.63
985.864	2765.13
986.162	2780.94
986.461	2759.48
986.759	2736.65
987.057	2727.61
987.355	2703.43
987.653	2723.09
987.951	2723.09
988.249	2669.53
988.547	2667.73
988.844	2632.47
989.142	2644
989.44	2598.8
989.737	2632.93
990.035	2620.5
990.332	2605.81
990.63	2577.56
990.927	2597.67
991.224	2548.18
991.521	2511.12
991.819	2496.66
992.116	2543.44
992.413	2483.1
992.71	2480.84
993.006	2505.24
993.303	2473.83
993.6	2456.66
993.897	2482.42
994.193	2435.42
994.49	2450.33
994.787	2405.13
995.083	2413.5
995.379	2394.06
995.676	2363.33
995.972	2354.29
996.268	2363.55
996.565	2327.85
996.861	2320.39
997.157	2335.31
997.453	2351.12
997.749	2291.01
998.044	2293.05
998.34	2262.09
998.636	2272.93
998.932	2263.67
999.227	2238.81
999.523	2234.52
999.818	2218.25
1000.114	2191.13
1000.409	2202.43
1000.704	2176.89
1001	2176.44
1001.295	2161.98
1001.59	2164.01
1001.885	2145.03
1002.18	2132.37
1002.475	2129.44
1002.77	2090.79
1003.065	2111.13
1003.359	2076.56
1003.654	2082.66
1003.949	2074.07
1004.243	2045.37
1004.538	2079.04
1004.832	2042.66
1005.127	1983
1005.421	2022.77
1005.715	2013.05
1006.009	1984.35
1006.304	1983.22
1006.598	1971.47
1006.892	1949.55
1007.186	1922.66
1007.48	1928.99
1007.773	1964.69
1008.067	1877.46
1008.361	1896.45
1008.655	1887.86
1008.948	1826.39
1009.242	1820.74
1009.535	1845.15
1009.829	1832.49
1010.122	1826.62
1010.415	1806.28
1010.708	1806.73
1011.001	1822.55
1011.295	1783.91
1011.588	1773.74
1011.881	1747.75
1012.173	1773.51
1012.466	1774.64
1012.759	1709.33
1013.052	1722.21
1013.344	1733.51
1013.637	1728.09
1013.93	1672.95
1014.222	1669.56
1014.514	1667.53
1014.807	1658.04
1015.099	1641.31
1015.391	1605.16
1015.683	1639.28
1015.976	1625.72
1016.268	1608.09
1016.56	1591.6
1016.851	1583.91
1017.143	1599.73
1017.435	1569
1017.727	1568.32
1018.018	1568.09
1018.31	1546.17
1018.602	1540.52
1018.893	1494.88
1019.185	1513.86
1019.476	1536.68
1019.767	1482.22
1020.058	1491.49
1020.35	1472.73
1020.641	1456.23
1020.932	1455.55
1021.223	1457.36
1021.514	1444.93
1021.804	1424.82
1022.095	1431.83
1022.386	1438.15
1022.677	1434.99
1022.967	1398.83
1023.258	1358.16
1023.548	1374.43
1023.839	1364.71
1024.129	1360.87
1024.419	1329.46
1024.709	1351.38
1025	1335.11
1025.29	1304.15
1025.58	1319.29
1025.87	1329.68
1026.16	1271.15
1026.449	1268.67
1026.739	1262.34
1027.029	1249.68
1027.319	1250.14
1027.608	1270.25
1027.898	1239.06
1028.187	1199.74
1028.477	1236.58
1028.766	1228.67
1029.055	1218.05
1029.344	1218.73
1029.634	1213.3
1029.923	1203.36
1030.212	1179.63
1030.501	1189.35
1030.79	1166.07
1031.078	1170.59
1031.367	1155
1031.656	1158.16
1031.945	1132.85
1032.233	1126.98
1032.522	1155.45
1032.81	1118.39
1033.099	1087.2
1033.387	1118.16
1033.675	1128.78
1033.963	1071.16
1034.251	1055.79
1034.54	1052.18
1034.828	1082.91
1035.116	1061.89
1035.403	1054.44
1035.691	1039.52
1035.979	1054.21
1036.267	1041.78
1036.554	1024.61
1036.842	1031.61
1037.129	986.19
1037.417	1000.88
1037.704	995.91
1037.992	985.28
1038.279	980.31
1038.566	976.02
1038.853	976.02
1039.14	976.02
