Data from hue_260_FLMS001491_00083.txt Node
Date: Tue Feb 07 15:59:42 GMT 2017
User: dcchb
Spectrometer: FLMS00149
Trigger mode: 0
Integration Time (sec): 2.000000E-2
Scans to average: 10
Electric dark correction enabled: true
Nonlinearity correction enabled: false
Boxcar width: 0
XAxis mode: Wavelengths
Number of Pixels in Spectrum: 2048
>>>>>Begin Spectral Data<<<<<
341.393	-0.37
341.776	-0.37
342.16	-0.37
342.543	-50.54
342.927	-64.09
343.31	-71.55
343.693	-76.75
344.077	-72.68
344.46	-78.11
344.843	-60.03
345.226	-43.08
345.61	-41.95
345.993	-3.3
346.376	3.02
346.759	15.23
347.142	37.6
347.525	35.34
347.908	57.48
348.291	72.63
348.674	104.94
349.057	121.21
349.44	125.73
349.823	135
350.206	154.2
350.588	186.07
350.971	194.2
351.354	214.32
351.737	227.88
352.119	257.48
352.502	254.77
352.884	242.79
353.267	279.17
353.65	269.91
354.032	279.17
354.414	306.52
354.797	299.51
355.179	295.22
355.562	327.31
355.944	297.93
356.326	330.47
356.709	321.43
357.091	342
357.473	314.43
357.855	320.08
358.238	334.54
358.62	322.11
359.002	318.27
359.384	327.53
359.766	324.82
360.148	309.23
360.53	322.11
360.912	331.38
361.294	340.64
361.676	320.75
362.057	310.59
362.439	339.96
362.821	319.17
363.203	320.98
363.584	314.65
363.966	327.99
364.348	316.01
364.729	306.29
365.111	313.97
365.493	309.68
365.874	301.55
366.256	295.9
366.637	314.2
367.019	306.29
367.4	299.96
367.781	304.71
368.163	313.52
368.544	310.81
368.925	316.23
369.306	316.01
369.688	306.97
370.069	318.95
370.45	313.52
370.831	304.71
371.212	294.31
371.593	305.39
371.974	309
372.355	304.26
372.736	312.62
373.117	298.38
373.498	311.71
373.879	297.7
374.26	287.08
374.641	319.85
375.021	307.65
375.402	301.55
375.783	299.06
376.163	302.22
376.544	318.04
376.925	331.15
377.305	303.81
377.686	322.79
378.066	292.05
378.447	321.66
378.827	327.31
379.208	348.78
379.588	324.14
379.968	346.97
380.349	344.03
380.729	328.44
381.109	318.95
381.489	341.32
381.87	327.31
382.25	344.71
382.63	335.22
383.01	326.18
383.39	345.16
383.77	325.27
384.15	327.99
384.53	328.44
384.91	342.22
385.29	326.18
385.67	348.55
386.049	325.5
386.429	344.48
386.809	349
387.189	345.61
387.568	354.43
387.948	364.82
388.328	354.43
388.707	344.93
389.087	343.58
389.466	353.3
389.846	354.2
390.225	345.84
390.605	357.36
390.984	366.63
391.363	353.52
391.743	368.66
392.122	366.4
392.501	360.08
392.881	383.13
393.26	386.06
393.639	363.24
394.018	369.79
394.397	380.41
394.776	365.72
395.155	379.96
395.534	390.13
395.913	379.51
396.292	382.67
396.671	394.65
397.05	391.71
397.429	397.14
397.808	388.78
398.186	414.54
398.565	384.93
398.944	395.33
399.323	396.01
399.701	398.94
400.08	411.15
400.458	402.33
400.837	399.17
401.215	419.28
401.594	430.36
401.972	433.29
402.351	410.47
402.729	416.8
403.107	437.59
403.486	439.4
403.864	421.77
404.242	426.74
404.62	425.16
404.999	449.56
405.377	445.5
405.755	448.66
406.133	440.98
406.511	428.55
406.889	453.18
407.267	456.12
407.645	488.43
408.023	476.23
408.401	478.49
408.779	478.49
409.156	492.28
409.534	511.03
409.912	495.21
410.29	511.26
410.667	480.07
411.045	535.44
411.422	538.83
411.8	507.42
412.178	541.31
412.555	546.74
412.933	550.13
413.31	576.79
413.687	553.74
414.065	583.35
414.442	603.23
414.819	594.87
415.197	587.41
415.574	589.45
415.951	603.91
416.328	602.78
416.705	587.19
417.082	629.45
417.46	639.16
417.837	645.72
418.214	620.86
418.591	648.43
418.967	663.57
419.344	681.42
419.721	671.03
420.098	681.2
420.475	680.07
420.852	703.34
421.228	711.03
421.605	716.45
421.982	731.36
422.358	730.01
422.735	769.33
423.111	761.42
423.488	771.36
423.864	778.82
424.241	794.41
424.617	784.92
424.994	783.57
425.37	814.07
425.746	838.03
426.123	850.68
426.499	840.06
426.875	852.04
427.251	861.08
427.627	885.26
428.003	878.93
428.379	910.57
428.756	910.12
429.132	904.47
429.507	903.79
429.883	927.07
430.259	953.05
430.635	961.19
431.011	953.05
431.387	989.89
431.763	1001.64
432.138	1005.03
432.514	1024.46
432.89	991.47
433.265	1056.78
433.641	1073.5
434.016	1088.42
434.392	1106.5
434.767	1114.63
435.143	1125.25
435.518	1155.08
435.894	1185.82
436.269	1209.54
436.644	1224.01
437.02	1210.22
437.395	1227.17
437.77	1264.46
438.145	1293.16
438.52	1289.09
438.895	1337.22
439.271	1334.29
439.646	1358.69
440.021	1359.6
440.395	1403.21
440.77	1356.43
441.145	1371.8
441.52	1426.04
441.895	1418.8
442.27	1440.05
442.645	1433.04
443.019	1455.19
443.394	1438.69
443.769	1503.77
444.143	1514.62
444.518	1534.06
444.892	1516.43
445.267	1516.66
445.641	1541.51
446.016	1583.32
446.39	1600.04
446.764	1589.87
447.139	1580.38
447.513	1593.94
447.887	1620.16
448.262	1630.78
448.636	1624.9
449.01	1656.31
449.384	1643.21
449.758	1655.63
450.132	1693.37
450.506	1688.4
450.88	1724.33
451.254	1704.45
451.628	1727.72
452.002	1746.93
452.376	1783.99
452.75	1788.29
453.123	1783.31
453.497	1844.1
453.871	1834.16
454.244	1880.49
454.618	1881.62
454.992	1881.84
455.365	1863.09
455.739	1953.93
456.112	1930.66
456.486	1952.12
456.859	1981.05
457.232	1998
457.606	2027.15
457.979	2026.02
458.352	2087.49
458.725	2085.23
459.099	2127.71
459.472	2162.29
459.845	2148.5
460.218	2198.22
460.591	2200.03
460.964	2220.82
461.337	2268.5
461.71	2273.7
462.083	2321.83
462.456	2324.77
462.829	2323.87
463.201	2312.34
463.574	2356.18
463.947	2381.27
464.32	2429.63
464.692	2444.09
465.065	2459.91
465.438	2524.99
465.81	2543.52
466.183	2567.25
466.555	2603.63
466.928	2630.98
467.3	2625.78
467.672	2637.76
468.045	2727.92
468.417	2724.31
468.789	2735.83
469.161	2788.94
469.534	2815.38
469.906	2840.01
470.278	2860.57
470.65	2931.53
471.022	2961.14
471.394	3043.39
471.766	3014.24
472.138	3072.77
472.51	3125.88
472.882	3150.74
473.253	3173.11
473.625	3231.86
473.997	3314.57
474.369	3330.17
474.74	3357.51
475.112	3375.82
475.484	3427.34
475.855	3491.97
476.227	3507.34
476.598	3573.55
476.97	3608.35
477.341	3684.73
477.713	3741.46
478.084	3720.21
478.455	3804.28
478.827	3782.36
479.198	3940.09
479.569	3918.63
479.94	4053.54
480.311	4060.32
480.682	4136.93
481.053	4243.36
481.424	4280.42
481.795	4320.42
482.166	4357.94
482.537	4405.84
482.908	4478.84
483.279	4501.21
483.65	4570.59
484.021	4648.1
484.391	4717.93
484.762	4711.37
485.133	4743.46
485.503	4871.82
485.874	4921.54
486.244	4955.43
486.615	5032.27
486.985	5057.58
487.356	5099.61
487.726	5208.31
488.097	5280.62
488.467	5290.57
488.837	5333.05
489.207	5437.91
489.578	5446.04
489.948	5499.83
490.318	5603.1
490.688	5605.36
491.058	5665.02
491.428	5734.85
491.798	5828.63
492.168	5881.96
492.538	5922.19
492.908	5934.39
493.278	6046.25
493.648	5982.75
494.017	6113.14
494.387	6142.97
494.757	6178.23
495.126	6189.53
495.496	6257.77
495.866	6222.75
496.235	6282.41
496.605	6384.55
496.974	6418.67
497.344	6418.67
497.713	6458.9
498.082	6516.75
498.452	6555.39
498.821	6567.14
499.19	6530.53
499.559	6600.59
499.928	6708.83
500.298	6707.03
500.667	6755.61
501.036	6801.49
501.405	6777.31
501.774	6763.07
502.143	6837.87
502.512	6879.23
502.88	6881.71
503.249	6914.48
503.618	6964.2
503.987	6925.55
504.356	6976.62
504.724	6959
505.093	6985.66
505.462	7050.75
505.83	7114.02
506.199	7095.72
506.567	7182.27
506.936	7128.94
507.304	7235.6
507.672	7250.29
508.041	7283.51
508.409	7282.61
508.777	7284.64
509.145	7382.72
509.514	7314.69
509.882	7345.43
510.25	7367.57
510.618	7418.19
510.986	7448.02
511.354	7502.26
511.722	7497.06
512.09	7560.79
512.458	7586.33
512.826	7645.99
513.193	7561.24
513.561	7572.09
513.929	7676.04
514.297	7657.74
514.664	7654.8
515.032	7732.08
515.4	7748.13
515.767	7774.8
516.135	7740.22
516.502	7667
516.869	7789.48
517.237	7812.31
517.604	7778.19
517.972	7838.52
518.339	7901.8
518.706	7860.9
519.073	7825.19
519.44	7903.83
519.808	7906.32
520.175	7930.72
520.542	7950.38
520.909	8002.13
521.276	7987.45
521.643	8042.36
522.009	8069.03
522.376	8064.51
522.743	8093.21
523.11	8117.61
523.477	8137.95
523.843	8149.93
524.21	8177.27
524.577	8230.83
524.943	8295.46
525.31	8211.85
525.676	8335.91
526.043	8279.19
526.409	8286.19
526.776	8359.86
527.142	8348.79
527.508	8388.11
527.874	8443.25
528.241	8455.46
528.607	8439.41
528.973	8513.99
529.339	8492.06
529.705	8486.19
530.071	8518.96
530.437	8518.73
530.803	8553.08
531.169	8554.44
531.535	8498.84
531.901	8552.18
532.267	8528.9
532.632	8586.53
532.998	8566.41
533.364	8681.44
533.73	8583.36
534.095	8624.72
534.461	8600.54
534.826	8619.29
535.192	8650.03
535.557	8671.04
535.923	8676.92
536.288	8603.02
536.653	8635.34
537.019	8620.42
537.384	8633.3
537.749	8627.2
538.114	8614.32
538.479	8548.79
538.845	8625.17
539.21	8606.86
539.575	8620.65
539.94	8637.37
540.305	8652.96
540.67	8587.66
541.034	8601.89
541.399	8681.89
541.764	8622.46
542.129	8591.27
542.494	8607.54
542.858	8592.4
543.223	8598.95
543.587	8634.21
543.952	8621.78
544.316	8597.15
544.681	8596.24
545.045	8575.9
545.41	8647.32
545.774	8619.75
546.138	8573.42
546.503	8631.95
546.867	8599.63
547.231	8606.41
547.595	8602.57
547.959	8643.25
548.324	8581.78
548.688	8632.4
549.052	8548.11
549.416	8562.35
549.779	8600.31
550.143	8522.8
550.507	8564.83
550.871	8536.81
551.235	8556.02
551.599	8635.11
551.962	8574.1
552.326	8568.67
552.689	8597.6
553.053	8537.71
553.417	8505.85
553.78	8623.36
554.143	8543.59
554.507	8540.2
554.87	8590.59
555.234	8629.24
555.597	8509.47
555.96	8581.55
556.323	8559.86
556.686	8591.72
557.05	8683.7
557.413	8685.73
557.776	8602.12
558.139	8670.82
558.502	8656.13
558.865	8573.87
559.228	8692.74
559.59	8666.52
559.953	8718.95
560.316	8808.67
560.679	8778.84
561.041	8802.11
561.404	8750.36
561.767	8772.96
562.129	8831.72
562.492	8836.24
562.854	8837.37
563.217	8846.41
563.579	8827.65
563.941	8853.86
564.304	8920.08
564.666	8990.36
565.028	8925.73
565.39	8964.82
565.753	8996.23
566.115	8966.63
566.477	9031.71
566.839	9081.43
567.201	9088.66
567.563	9099.28
567.925	9176.11
568.287	9141.99
568.648	9094.08
569.01	9161.2
569.372	9220.41
569.734	9252.04
570.095	9268.54
570.457	9258.37
570.819	9303.34
571.18	9316.45
571.542	9388.09
571.903	9347.64
572.265	9368.2
572.626	9427.86
572.987	9394.41
573.349	9384.02
573.71	9389.44
574.071	9522.09
574.432	9503.34
574.794	9503.11
575.155	9540.4
575.516	9565.93
575.877	9636.89
576.238	9605.93
576.599	9702.43
576.96	9665.59
577.32	9640.96
577.681	9696.1
578.042	9713.73
578.403	9685.03
578.763	9738.13
579.124	9730.22
579.485	9821.07
579.845	9826.95
580.206	9869.66
580.566	9851.8
580.927	9865.59
581.287	9915.98
581.648	9868.07
582.008	9905.36
582.368	9923.67
582.728	9973.16
583.089	9951.91
583.449	9951.01
583.809	10022.19
584.169	10023.55
584.529	9933.61
584.889	10030.56
585.249	9996.21
585.609	9985.13
585.969	10070.33
586.329	10106.94
586.688	10102.19
587.048	10101.97
587.408	10150.1
587.768	10122.3
588.127	10082.98
588.487	10102.64
588.846	10224
589.206	10101.51
589.565	10132.93
589.925	10178.12
590.284	10207.05
590.643	10205.47
591.003	10225.58
591.362	10267.39
591.721	10261.06
592.08	10295.41
592.44	10279.14
592.799	10291.34
593.158	10296.31
593.517	10329.08
593.876	10268.97
594.235	10289.76
594.593	10356.2
594.952	10374.28
595.311	10350.1
595.67	10402.98
596.029	10419.92
596.387	10431.22
596.746	10354.39
597.104	10405.91
597.463	10368.4
597.822	10463.09
598.18	10389.42
598.538	10371.79
598.897	10464.67
599.255	10321.62
599.613	10503.54
599.972	10451.79
600.33	10460.6
600.688	10460.15
601.046	10495.85
601.404	10568.39
601.762	10529.53
602.12	10563.42
602.478	10538.34
602.836	10537.89
603.194	10543.08
603.552	10541.73
603.91	10534.72
604.268	10519.58
604.625	10507.83
604.983	10637.77
605.341	10477.78
605.698	10531.33
606.056	10638.9
606.413	10542.63
606.771	10571.56
607.128	10630.54
607.485	10592.8
607.843	10604.55
608.2	10622.18
608.557	10616.08
608.914	10694.04
609.272	10694.94
609.629	10739.24
609.986	10746.92
610.343	10646.13
610.7	10722.51
611.057	10654.95
611.414	10623.08
611.771	10688.39
612.127	10751.67
612.484	10727.26
612.841	10863.3
613.198	10832.79
613.554	10706.02
613.911	10828.27
614.267	10840.48
614.624	10818.11
614.98	10899.23
615.337	10890.42
615.693	10793.7
616.05	10847.71
616.406	10899.69
616.762	10841.16
617.118	10814.49
617.475	10926.8
617.831	10875.96
618.187	10964.99
618.543	10883.19
618.899	10889.74
619.255	10930.64
619.611	10952.11
619.967	10936.97
620.323	11019.46
620.678	10949.63
621.034	10934.03
621.39	10950.53
621.746	10996.86
622.101	11147.14
622.457	10972.23
622.812	10986.24
623.168	11029.4
623.523	10975.84
623.879	11047.25
624.234	10925.45
624.589	11040.47
624.945	11014.48
625.3	10980.36
625.655	11034.6
626.01	10922.51
626.365	10929.97
626.72	10902.4
627.075	10957.31
627.43	11018.55
627.785	10908.27
628.14	10901.04
628.495	10908.72
628.85	10892.91
629.205	10877.09
629.559	10956.63
629.914	10829.18
630.269	10823.08
630.623	10832.34
630.978	10819.69
631.332	10894.94
631.687	10922.96
632.041	10814.49
632.396	10839.35
632.75	10815.62
633.104	10855.84
633.459	10682.06
633.813	10743.76
634.167	10772.68
634.521	10798.9
634.875	10772.46
635.229	10761.16
635.583	10645
635.937	10679.58
636.291	10681.16
636.645	10656.3
636.999	10676.64
637.352	10635.06
637.706	10569.52
638.06	10632.57
638.413	10569.98
638.767	10553.71
639.121	10605.68
639.474	10525.01
639.828	10510.54
640.181	10507.61
640.534	10545.34
640.888	10515.97
641.241	10494.05
641.594	10520.26
641.947	10538.34
642.301	10492.46
642.654	10539.92
643.007	10483.88
643.36	10482.07
643.713	10385.8
644.066	10444.78
644.419	10372.92
644.771	10384.9
645.124	10318.68
645.477	10245.92
645.83	10260.15
646.182	10140.61
646.535	10126.6
646.888	10174.73
647.24	10047.73
647.593	10125.92
647.945	10053.83
648.298	10087.28
648.65	10040.27
649.002	10037.56
649.355	10032.36
649.707	10080.72
650.059	10072.14
650.411	10282.75
650.763	10221.74
651.115	10320.94
651.467	10320.49
651.819	10363.65
652.171	10283.66
652.523	10204.34
652.875	10288.85
653.227	10172.7
653.578	10331.79
653.93	10284.79
654.282	10257.22
654.633	10220.16
654.985	10188.74
655.337	10185.13
655.688	10227.61
656.039	10247.5
656.391	10227.61
656.742	10235.97
657.094	10245.69
657.445	10244.34
657.796	10237.56
658.147	10191.23
658.498	10185.81
658.849	10271.91
659.2	10231.68
659.551	10174.05
659.902	10263.32
660.253	10364.33
660.604	10322.07
660.955	10211.34
661.306	10237.78
661.656	10209.76
662.007	10263.54
662.358	10292.02
662.708	10242.98
663.059	10237.56
663.409	10217.67
663.76	10264
664.11	10294.73
664.461	10210.44
664.811	10202.53
665.161	10288.4
665.511	10257.44
665.862	10241.62
666.212	10296.31
666.562	10237.33
666.912	10309.87
667.262	10278.01
667.612	10184
667.962	10260.15
668.312	10198.69
668.662	10261.28
669.011	10202.98
669.361	10218.12
669.711	10189.65
670.06	10164.56
670.41	10175.18
670.76	10113.27
671.109	10261.96
671.459	10174.73
671.808	10156.2
672.157	10104.45
672.507	10004.57
672.856	10139.25
673.205	10155.98
673.554	10155.75
673.904	10105.58
674.253	10164.79
674.602	10122.53
674.951	9964.57
675.3	9918.69
675.649	10034.85
675.998	10076.2
676.346	10117.11
676.695	10083.89
677.044	9959.37
677.393	10040.5
677.741	10081.4
678.09	9980.61
678.438	9965.25
678.787	10067.62
679.135	10000.5
679.484	9883.44
679.832	9979.48
680.181	9860.62
680.529	9963.66
680.877	9907.39
681.225	9849.32
681.573	9907.62
681.922	9857
682.27	9771.13
682.618	9858.58
682.966	9805.93
683.314	9847.28
683.661	9758.7
684.009	9648.42
684.357	9746.27
684.705	9702.88
685.053	9699.26
685.4	9736.33
685.748	9588.76
686.095	9654.07
686.443	9581.3
686.79	9580.62
687.138	9565.26
687.485	9549.89
687.832	9517.57
688.18	9535.65
688.527	9483.23
688.874	9473.06
689.221	9448.2
689.568	9421.31
689.915	9427.86
690.262	9376.11
690.609	9329.33
690.956	9325.04
691.303	9326.62
691.65	9217.47
691.997	9212.5
692.344	9153.29
692.69	9131.14
693.037	9164.36
693.383	9040.3
693.73	9111.94
694.077	9027.42
694.423	9027.42
694.769	8924.6
695.116	9014.54
695.462	8910.13
695.808	8852.28
696.155	8881.21
696.501	8837.82
696.847	8769.57
697.193	8773.87
697.539	8762.57
697.885	8756.46
698.231	8728.89
698.577	8685.05
698.923	8666.07
699.269	8591.95
699.614	8592.18
699.96	8553.98
700.306	8620.2
700.651	8500.65
700.997	8494.55
701.342	8386.3
701.688	8462.91
702.033	8403.48
702.379	8412.52
702.724	8363.25
703.069	8422.46
703.415	8289.81
703.76	8264.05
704.105	8223.82
704.45	8231.51
704.795	8163.03
705.14	8128.23
705.485	8152.86
705.83	8133.66
706.175	8173.43
706.52	8076.93
706.865	8059.76
707.209	8009.37
707.554	7998.29
707.899	7992.19
708.243	7968.24
708.588	7959.65
708.932	7919.42
709.277	7866.09
709.621	7880.1
709.966	7857.28
710.31	7848.01
710.654	7753.78
710.998	7824.06
711.342	7777.51
711.687	7706.55
712.031	7707.68
712.375	7713.33
712.719	7675.36
713.063	7732.08
713.407	7735.7
713.75	7687.79
714.094	7656.61
714.438	7651.86
714.782	7655.25
715.125	7582.94
715.469	7594.01
715.812	7578.42
716.156	7545.2
716.499	7503.84
716.843	7506.55
717.186	7561.69
717.53	7556.95
717.873	7509.27
718.216	7491.87
718.559	7466.1
718.902	7396.27
719.246	7450.28
719.589	7411.42
719.932	7383.17
720.275	7360.57
720.617	7341.59
720.96	7404.64
721.303	7405.54
721.646	7371.87
721.989	7336.84
722.331	7383.62
722.674	7317.18
723.016	7317.63
723.359	7327.12
723.701	7319.21
724.044	7312.89
724.386	7274.7
724.729	7269.05
725.071	7291.64
725.413	7259.33
725.755	7260.01
726.097	7199.67
726.439	7168.48
726.782	7179.78
727.124	7231.31
727.465	7215.04
727.807	7150.18
728.149	7249.16
728.491	7136.62
728.833	7149.73
729.175	7208.71
729.516	7099.79
729.858	7148.37
730.199	7153.12
730.541	7155.15
730.882	7180.23
731.224	7136.62
731.565	7113.57
731.906	7127.81
732.248	7147.69
732.589	7130.97
732.93	7107.02
733.271	7083.06
733.612	7091.42
733.953	7075.38
734.294	7132.1
734.635	7102.04
734.976	7175.26
735.317	7084.64
735.658	7127.13
735.999	7072.44
736.339	7083.97
736.68	7181.82
737.021	7083.74
737.361	7141.82
737.702	7196.05
738.042	7119.9
738.383	7098.66
738.723	7128.48
739.063	7093.01
739.404	7168.48
739.744	7156.96
740.084	7155.6
740.424	7197.86
740.764	7177.07
741.104	7209.84
741.444	7156.28
741.784	7153.34
742.124	7171.87
742.464	7209.61
742.804	7234.92
743.143	7196.28
743.483	7218.43
743.823	7214.81
744.162	7206
744.502	7297.75
744.841	7251.65
745.181	7302.49
745.52	7300.46
745.86	7375.26
746.199	7332.32
746.538	7326.45
746.877	7445.31
747.216	7492.54
747.556	7454.8
747.895	7516.5
748.234	7543.84
748.573	7568.02
748.911	7616.83
749.25	7724.18
749.589	7636.72
749.928	7737.96
750.267	7833.1
750.605	7865.87
750.944	7941.12
751.283	7900.89
751.621	8032.42
751.96	8063.15
752.298	8169.36
752.636	8273.77
752.975	8231.96
753.313	8310.37
753.651	8404.16
753.989	8553.08
754.327	8559.18
754.666	8540.88
755.004	8774.77
755.342	8824.71
755.679	8888.44
756.017	9005.95
756.355	9108.32
756.693	9174.76
757.031	9341.53
757.368	9384.92
757.706	9545.82
758.044	9674.63
758.381	9787.85
758.719	9826.04
759.056	10011.57
759.394	10013.61
759.731	10226.03
760.068	10310.1
760.405	10438.68
760.743	10513.93
761.08	10684.55
761.417	10745.11
761.754	11000.93
762.091	10995.05
762.428	11117.53
762.765	11266.68
763.102	11430.52
763.438	11503.51
763.775	11655.82
764.112	11840.68
764.449	11939.21
764.785	11995.02
765.122	12062.37
765.458	12196.15
765.795	12247.9
766.131	12434.79
766.467	12524.95
766.804	12712.07
767.14	12711.39
767.476	12833.19
767.812	12933.98
768.148	13030.48
768.485	13095.33
768.821	13098.27
769.157	13217.36
769.492	13360.41
769.828	13510.01
770.164	13531.71
770.5	13581.2
770.836	13613.96
771.171	13753.62
771.507	13823.45
771.842	13781.64
772.178	13907.06
772.513	13968.53
772.849	14098.25
773.184	14116.78
773.519	14171.24
773.855	14215.76
774.19	14211.01
774.525	14302.76
774.86	14389.54
775.195	14424.34
775.53	14419.37
775.865	14428.41
776.2	14419.59
776.535	14475.18
776.87	14519.93
777.205	14419.82
777.539	14569.19
777.874	14715.18
778.209	14629.08
778.543	14551.34
778.878	14602.86
779.212	14618.68
779.547	14573.71
779.881	14743.88
780.215	14674.05
780.55	14675.63
780.884	14686.25
781.218	14686.03
781.552	14729.19
781.886	14700.49
782.22	14578.68
782.554	14664.33
782.888	14554.96
783.222	14557.67
783.556	14524
783.889	14482.87
784.223	14483.32
784.557	14498.23
784.89	14594.73
785.224	14542.3
785.557	14486.71
785.891	14539.36
786.224	14454.85
786.558	14508.86
786.891	14368.97
787.224	14386.83
787.557	14237.9
787.891	14470.66
788.224	14354.06
788.557	14483.77
788.89	14427.28
789.223	14481.96
789.556	14285.81
789.888	14241.52
790.221	14251.69
790.554	14244.68
790.887	14206.72
791.219	14091.92
791.552	14136.66
791.884	14078.58
792.217	14057.12
792.549	14014.18
792.882	14008.3
793.214	14035.42
793.546	13980.73
793.879	13979.15
794.211	13885.6
794.543	13916.55
794.875	13917.91
795.207	13942.09
795.539	13849.66
795.871	13850.79
796.203	13739.16
796.535	13728.31
796.867	13591.37
797.198	13703
797.53	13645.83
797.862	13533.51
798.193	13715.2
798.525	13527.86
798.856	13528.54
799.188	13413.97
799.519	13414.65
799.85	13338.27
800.182	13437.92
800.513	13397.47
800.844	13276.35
801.175	13376.46
801.506	13365.16
801.837	13203.13
802.168	13180.76
802.499	13268.66
802.83	13115.9
803.161	13067.76
803.491	13081.1
803.822	13107.99
804.153	13090.59
804.483	12999.74
804.814	12900.54
805.145	12951.38
805.475	12871.38
805.805	12873.64
806.136	12918.39
806.466	12815.57
806.796	12846.3
807.126	12710.94
807.457	12701.45
807.787	12702.8
808.117	12678.85
808.447	12647.66
808.777	12631.17
809.107	12558.17
809.436	12621
809.766	12590.49
810.096	12499.87
810.426	12503.94
810.755	12538.74
811.085	12411.96
811.414	12411.06
811.744	12427.55
812.073	12374.22
812.403	12336.26
812.732	12237.28
813.061	12228.46
813.39	12245.86
813.719	12230.27
814.049	12312.08
814.378	12127.45
814.707	12176.04
815.036	12140.78
815.365	12113.44
815.693	11965.65
816.022	11982.59
816.351	11956.15
816.68	11969.26
817.008	11950.73
817.337	11799.77
817.665	11831.41
817.994	11893.56
818.322	11917.06
818.651	11852.43
818.979	11806.55
819.307	11863.28
819.636	11765.65
819.964	11740.57
820.292	11776.05
820.62	11790.28
820.948	11643.62
821.276	11793.9
821.604	11729.72
821.932	11701.25
822.259	11708.93
822.587	11716.16
822.915	11670.74
823.243	11749.61
823.57	11709.38
823.898	11767.23
824.225	11700.57
824.553	11702.15
824.88	11767.68
825.207	11799.55
825.535	11735.37
825.862	11772.88
826.189	11717.29
826.516	11811.07
826.843	11728.36
827.17	11768.14
827.497	11685.43
827.824	11808.14
828.151	11764.3
828.478	11719.55
828.805	11759.55
829.131	11690.62
829.458	11750.51
829.785	11651.98
830.111	11722.26
830.438	11791.19
830.764	11679.55
831.09	11804.07
831.417	11671.19
831.743	11790.28
832.069	11680
832.395	11701.25
832.722	11714.13
833.048	11778.31
833.374	11666.9
833.7	11630.97
834.026	11696.05
834.351	11674.35
834.677	11645.2
835.003	11660.8
835.329	11621.47
835.654	11637.29
835.98	11507.58
836.306	11599.55
836.631	11567.24
836.956	11595.49
837.282	11586.9
837.607	11501.93
837.932	11519.56
838.258	11511.87
838.583	11495.83
838.908	11440.46
839.233	11428.94
839.558	11470.52
839.883	11391.42
840.208	11293.8
840.533	11331.99
840.858	11385.77
841.182	11326.57
841.507	11363.4
841.832	11248.6
842.156	11278.21
842.481	11275.95
842.805	11291.09
843.13	11204.54
843.454	11256.74
843.778	11176.51
844.103	11175.38
844.427	11164.31
844.751	11146.01
845.075	11064.43
845.399	11001.6
845.723	10980.59
846.047	10938.78
846.371	10917.31
846.695	10898.1
847.019	10801.61
847.343	10735.85
847.666	10667.37
847.99	10576.98
848.313	10569.3
848.637	10539.47
848.96	10579.24
849.284	10461.05
849.607	10449.53
849.931	10428.06
850.254	10320.94
850.577	10285.01
850.9	10215.86
851.223	10245.24
851.546	10194.17
851.869	10123.21
852.192	10166.6
852.515	10058.35
852.838	10069.2
853.161	10065.58
853.483	9997.11
853.806	9987.62
854.129	9890.45
854.451	9911.24
854.774	9815.42
855.096	9849.09
855.419	9816.32
855.741	9773.16
856.063	9690.9
856.385	9783.78
856.708	9683.67
857.03	9656.33
857.352	9725.25
857.674	9679.15
857.996	9548.76
858.318	9511.7
858.64	9590.57
858.961	9511.02
859.283	9477.58
859.605	9435.32
859.926	9457.92
860.248	9461.08
860.57	9372.04
860.891	9368.88
861.212	9342.66
861.534	9326.17
861.855	9265.15
862.176	9325.94
862.498	9331.59
862.819	9325.04
863.14	9216.34
863.461	9176.11
863.782	9198.26
864.103	9175.89
864.424	9108.55
864.745	9182.44
865.065	9134.08
865.386	9069.68
865.707	9095.66
866.027	9097.7
866.348	9158.71
866.668	9119.39
866.989	9051.15
867.309	8944.48
867.63	8980.41
867.95	9017.02
868.27	8946.52
868.59	8956.69
868.91	8941.77
869.23	8952.84
869.55	8921.66
869.87	8977.93
870.19	8935.44
870.51	8871.94
870.83	8957.59
871.15	8795.33
871.469	8893.41
871.789	8821.32
872.109	8785.84
872.428	8723.25
872.748	8805.5
873.067	8866.29
873.386	8788.78
873.706	8879.4
874.025	8713.3
874.344	8684.38
874.663	8710.82
874.982	8676.92
875.301	8664.72
875.62	8629.91
875.939	8565.74
876.258	8603.02
876.577	8612.29
876.896	8569.12
877.214	8593.31
877.533	8603.02
877.852	8580.88
878.17	8602.12
878.489	8549.92
878.807	8491.61
879.125	8549.24
879.444	8530.48
879.762	8462.91
880.08	8501.78
880.398	8476.02
880.716	8447.32
881.034	8436.47
881.352	8457.49
881.67	8396.93
881.988	8357.38
882.306	8354.67
882.624	8351.73
882.941	8311.5
883.259	8295.46
883.577	8260.43
883.894	8252.07
884.212	8249.81
884.529	8246.2
884.846	8172.75
885.164	8151.73
885.481	8109.7
885.798	8205.07
886.115	8093.21
886.432	8123.49
886.75	8065.41
887.067	8082.81
887.383	8054.56
887.7	8035.58
888.017	7990.38
888.334	7999.65
888.651	7951.06
888.967	7955.81
889.284	7890.95
889.6	7852.31
889.917	7906.77
890.233	7850.05
890.55	7842.36
890.866	7805.53
891.182	7817.05
891.498	7736.38
891.815	7703.84
892.131	7668.81
892.447	7685.98
892.763	7689.37
893.079	7629.71
893.395	7641.47
893.71	7591.07
894.026	7522.37
894.342	7617.06
894.657	7495.71
894.973	7537.97
895.289	7467.46
895.604	7491.19
895.92	7399.66
896.235	7349.5
896.55	7341.36
896.865	7312.43
897.181	7285.77
897.496	7300.91
897.811	7270.63
898.126	7233.11
898.441	7234.24
898.756	7182.49
899.071	7146.34
899.386	7189.05
899.7	7144.08
900.015	7083.29
900.33	7013.69
900.644	7014.59
900.959	7040.8
901.273	7027.92
901.588	6915.84
901.902	6932.78
902.216	6916.74
902.531	6877.87
902.845	6854.37
903.159	6854.37
903.473	6814.82
903.787	6780.25
904.101	6712.45
904.415	6745.67
904.729	6684.65
905.042	6674.26
905.356	6633.13
905.67	6638.33
905.984	6648.72
906.297	6607.14
906.611	6543.42
906.924	6529.63
907.237	6537.99
907.551	6475.39
907.864	6421.84
908.177	6406.24
908.491	6408.05
908.804	6425.9
909.117	6378
909.43	6367.6
909.743	6329.86
910.056	6300.26
910.368	6306.81
910.681	6227.49
910.994	6224.33
911.307	6206.25
911.619	6140.94
911.932	6212.35
912.244	6112.24
912.557	6118.34
912.869	6064.56
913.181	6022.07
913.494	5998.35
913.806	5997.67
914.118	5950.89
914.43	5933.49
914.742	5897.33
915.054	5938.91
915.366	5865.02
915.678	5836.09
915.99	5813.27
916.302	5847.16
916.613	5806.49
916.925	5757.45
917.236	5722.87
917.548	5688.52
917.859	5733.04
918.171	5654.63
918.482	5630.22
918.794	5594.06
919.105	5584.8
919.416	5554.97
919.727	5565.36
920.038	5550.67
920.349	5498.7
920.66	5465.03
920.971	5420.51
921.282	5412.37
921.593	5371.92
921.903	5376.67
922.214	5385.71
922.525	5310.68
922.835	5320.4
923.146	5296.67
923.456	5301.64
923.767	5264.58
924.077	5232.26
924.387	5217.35
924.697	5182.1
925.008	5167.18
925.318	5149.1
925.628	5175.99
925.938	5129.89
926.248	5103.23
926.558	5054.87
926.867	5043.12
927.177	5032.27
927.487	4994.53
927.796	5006.28
928.106	4948.43
928.416	4957.47
928.725	4904.14
929.034	4930.35
929.344	4914.76
929.653	4846.96
929.962	4852.61
930.271	4866.62
930.581	4787.3
930.89	4799.05
931.199	4745.27
931.508	4782.78
931.817	4773.07
932.125	4777.13
932.434	4710.47
932.743	4690.58
933.051	4637.7
933.36	4673.63
933.669	4590.92
933.977	4609.46
934.286	4624.6
934.594	4602.9
934.902	4579.4
935.21	4502.34
935.519	4502.79
935.827	4501.89
936.135	4501.66
936.443	4474.09
936.751	4439.52
937.059	4394.55
937.367	4423.7
937.674	4452.85
937.982	4396.81
938.29	4374.43
938.597	4365.17
938.905	4307.32
939.213	4268.22
939.52	4296.02
939.827	4332.63
940.135	4235
940.442	4214.21
940.749	4207.88
941.056	4192.06
941.363	4190.71
941.67	4184.83
941.977	4158.62
942.284	4141.9
942.591	4149.13
942.898	4081.33
943.205	4097.15
943.511	4042.24
943.818	4052.18
944.125	4009.92
944.431	4032.52
944.738	3964.95
945.044	3985.29
945.35	3965.4
945.657	3925.63
945.963	3929.25
946.269	3901.23
946.575	3907.55
946.881	3853.54
947.187	3857.38
947.493	3807.22
947.799	3778.29
948.105	3842.47
948.41	3757.05
948.716	3800.89
949.022	3743.04
949.327	3766.54
949.633	3722.25
949.938	3755.69
950.244	3721.12
950.549	3651.06
950.854	3650.38
951.16	3633.44
951.465	3633.21
951.77	3644.28
952.075	3601.35
952.38	3575.81
952.685	3587.56
952.99	3555.02
953.294	3569.48
953.599	3543.95
953.904	3518.41
954.209	3509.37
954.513	3500.11
954.818	3475.02
955.122	3418.53
955.426	3461.46
955.731	3449.71
956.035	3381.92
956.339	3374.69
956.643	3371.07
956.948	3392.99
957.252	3375.82
957.556	3358.41
957.86	3325.42
958.163	3354.57
958.467	3294.91
958.771	3313.22
959.075	3310.96
959.378	3231.64
959.682	3266.44
959.985	3239.55
960.289	3181.02
960.592	3205.65
960.896	3206.55
961.199	3230.06
961.502	3165.43
961.805	3178.53
962.108	3146.22
962.411	3155.48
962.714	3089.95
963.017	3101.7
963.32	3111.19
963.623	3070.74
963.926	3065.77
964.228	3053.34
964.531	3069.83
964.833	3037.52
965.136	3002.94
965.438	2997.75
965.741	2996.62
966.043	2962.94
966.345	2946.9
966.648	2952.1
966.95	2958.43
967.252	2935.15
967.554	2921.82
967.856	2882.27
968.158	2899.22
968.46	2885.66
968.761	2869.61
969.063	2873.91
969.365	2786.23
969.666	2832.55
969.968	2791.2
970.269	2792.78
970.571	2786.9
970.872	2803.4
971.174	2764.08
971.475	2754.36
971.776	2728.6
972.077	2706.45
972.378	2710.52
972.679	2697.41
972.98	2677.98
973.281	2692.9
973.582	2621.26
973.883	2672.78
974.183	2654.25
974.484	2657.19
974.785	2632.33
975.085	2615.38
975.386	2596.85
975.686	2593.69
975.986	2581.03
976.287	2592.33
976.587	2558.44
976.887	2542.84
977.187	2552.11
977.487	2542.62
977.787	2540.58
978.087	2516.85
978.387	2481.83
978.687	2466.01
978.987	2473.01
979.286	2444.54
979.586	2433.24
979.885	2410.64
980.185	2418.1
980.484	2405.9
980.784	2409.51
981.083	2426.69
981.382	2423.98
981.682	2367.71
981.981	2382.39
982.28	2363.41
982.579	2355.05
982.878	2331.55
983.177	2324.77
983.475	2318.22
983.774	2292.23
984.073	2301.72
984.372	2281.38
984.67	2281.38
984.969	2268.5
985.267	2269.18
985.566	2232.57
985.864	2235.51
986.162	2256.75
986.461	2181.04
986.759	2211.1
987.057	2195.28
987.355	2162.29
987.653	2179.69
987.951	2155.28
988.249	2164.55
988.547	2145.34
988.844	2141.72
989.142	2143.98
989.44	2113.93
989.737	2129.75
990.035	2094.04
990.332	2087.94
990.63	2087.49
990.927	2059.69
991.224	2060.82
991.521	2030.31
991.819	2039.13
992.116	2008.85
992.413	1990.77
992.71	2006.36
993.006	2007.04
993.303	2017.43
993.6	2012.46
993.897	1972.01
994.193	1976.53
994.49	1969.75
994.787	1964.55
995.083	1932.01
995.379	1947.83
995.676	1909.64
995.972	1925.01
996.268	1893.37
996.565	1884.78
996.861	1889.3
997.157	1881.62
997.453	1889.07
997.749	1899.92
998.044	1837.32
998.34	1839.13
998.636	1813.6
998.932	1840.04
999.227	1819.7
999.523	1796.87
999.818	1822.18
1000.114	1804.33
1000.409	1757.78
1000.704	1723.88
1001	1769.53
1001.295	1764.56
1001.59	1732.02
1001.885	1744.67
1002.18	1740.15
1002.475	1717.1
1002.77	1740.15
1003.065	1701.06
1003.359	1676.65
1003.654	1681.62
1003.949	1661.51
1004.243	1659.7
1004.538	1662.19
1004.832	1655.63
1005.127	1641.85
1005.421	1608.4
1005.715	1622.87
1006.009	1619.7
1006.304	1610.44
1006.598	1610.21
1006.892	1572.92
1007.186	1612.25
1007.48	1584.9
1007.773	1550.55
1008.067	1524.79
1008.361	1532.02
1008.655	1561.85
1008.948	1527.5
1009.242	1520.27
1009.535	1526.82
1009.829	1498.8
1010.122	1515.07
1010.415	1484.79
1010.708	1492.93
1011.001	1473.27
1011.295	1429.88
1011.588	1454.96
1011.881	1425.36
1012.173	1442.76
1012.466	1437.56
1012.759	1418.35
1013.052	1428.07
1013.344	1422.87
1013.637	1412.7
1013.93	1379.71
1014.222	1393.49
1014.514	1351.91
1014.807	1368.41
1015.099	1371.12
1015.391	1344
1015.683	1351.69
1015.976	1324.34
1016.268	1316.66
1016.56	1326.15
1016.851	1306.49
1017.143	1305.14
1017.435	1295.87
1017.727	1310.78
1018.018	1305.14
1018.31	1281.63
1018.602	1299.49
1018.893	1280.05
1019.185	1252.93
1019.476	1254.74
1019.767	1225.36
1020.058	1224.01
1020.35	1195.76
1020.641	1213.39
1020.932	1208.19
1021.223	1213.84
1021.514	1179.71
1021.804	1201.86
1022.095	1174.97
1022.386	1165.7
1022.677	1157.57
1022.967	1148.53
1023.258	1186.49
1023.548	1168.87
1023.839	1153.27
1024.129	1113.73
1024.419	1122.99
1024.709	1096.55
1025	1100.85
1025.29	1079.38
1025.58	1115.54
1025.87	1104.46
1026.16	1074.18
1026.449	1079.6
1026.739	1067.18
1027.029	1076.21
1027.319	1064.24
1027.608	1053.84
1027.898	1066.27
1028.187	1027.18
1028.477	1024.01
1028.766	1008.65
1029.055	1015.43
1029.344	1034.63
1029.634	1011.36
1029.923	986.5
1030.212	997.57
1030.501	1001.87
1030.79	992.6
1031.078	992.6
1031.367	952.38
1031.656	952.83
1031.945	973.39
1032.233	936.78
1032.522	919.38
1032.81	922.09
1033.099	937.01
1033.387	927.97
1033.675	924.13
1033.963	936.11
1034.251	931.81
1034.54	916.44
1034.828	908.31
1035.116	899.95
1035.403	904.24
1035.691	899.5
1035.979	878.03
1036.267	873.06
1036.554	900.63
1036.842	852.72
1037.129	843.45
1037.417	854.07
1037.704	853.85
1037.992	837.8
1038.279	847.52
1038.566	814.07
1038.853	814.07
1039.14	814.07
