Data from hue_60_FLMS001491_57.txt Node
Date: Mon Feb 06 15:17:36 GMT 2017
User: dcchb
Spectrometer: FLMS00149
Trigger mode: 0
Integration Time (sec): 2.000000E-2
Scans to average: 10
Electric dark correction enabled: true
Nonlinearity correction enabled: false
Boxcar width: 0
XAxis mode: Wavelengths
Number of Pixels in Spectrum: 2048
>>>>>Begin Spectral Data<<<<<
341.393	-16.98
341.776	-16.98
342.16	-16.98
342.543	-45.68
342.927	-71.89
343.31	-54.72
343.693	-84.77
344.077	-88.16
344.46	-70.08
344.843	-60.14
345.226	-54.72
345.61	-14.94
345.993	-1.38
346.376	4.04
346.759	11.95
347.142	36.58
347.525	19.86
347.908	56.24
348.291	95.11
348.674	93.53
349.057	111.61
349.44	117.26
349.823	136.92
350.206	138.95
350.588	203.58
350.971	208.55
351.354	212.62
351.737	241.32
352.119	254.65
352.502	250.36
352.884	291.04
353.267	290.36
353.65	311.83
354.032	283.35
354.414	290.59
354.797	313.18
355.179	319.74
355.562	306.86
355.944	339.85
356.326	323.13
356.709	356.8
357.091	327.65
357.473	346.4
357.855	324.03
358.238	349.34
358.62	340.98
359.002	359.74
359.384	343.24
359.766	335.33
360.148	326.97
360.53	343.92
360.912	349.12
361.294	329.45
361.676	331.71
362.057	335.78
362.439	321.32
362.821	324.71
363.203	333.07
363.584	322.45
363.966	320.87
364.348	339.4
364.729	342.34
365.111	322.45
365.493	308.21
365.874	328.32
366.256	327.42
366.637	314.99
367.019	299.17
367.4	309.57
367.781	324.26
368.163	334.2
368.544	335.1
368.925	317.93
369.306	318.38
369.688	306.18
370.069	329
370.45	317.48
370.831	324.03
371.212	314.31
371.593	314.54
371.974	322
372.355	313.41
372.736	319.06
373.117	313.64
373.498	328.32
373.879	325.84
374.26	323.58
374.641	313.64
375.021	331.71
375.402	298.95
375.783	317.48
376.163	315.22
376.544	314.31
376.925	317.93
377.305	304.6
377.686	327.65
378.066	319.06
378.447	324.71
378.827	325.39
379.208	330.58
379.588	321.55
379.968	317.48
380.349	358.15
380.729	335.33
381.109	325.84
381.489	345.95
381.87	327.65
382.25	327.19
382.63	349.79
383.01	343.69
383.39	334.43
383.77	354.54
384.15	361.32
384.53	354.09
384.91	356.57
385.29	343.92
385.67	324.26
386.049	333.3
386.429	339.17
386.809	351.37
387.189	354.76
387.568	358.61
387.948	347.08
388.328	339.62
388.707	356.57
389.087	362.22
389.466	367.65
389.846	355.22
390.225	362.9
390.605	329.91
390.984	362.22
391.363	350.92
391.743	365.61
392.122	365.39
392.501	349.34
392.881	373.07
393.26	375.78
393.639	367.65
394.018	382.33
394.397	348.66
394.776	370.81
395.155	381.88
395.534	379.4
395.913	381.88
396.292	359.51
396.671	369
397.05	369.91
397.429	367.65
397.808	364.71
398.186	381.88
398.565	369
398.944	371.26
399.323	384.37
399.701	383.46
400.08	364.71
400.458	380.98
400.837	415.1
401.215	387.08
401.594	384.59
401.972	390.7
402.351	403.8
402.729	376.91
403.107	386.4
403.486	411.26
403.864	401.77
404.242	395.22
404.62	403.8
404.999	397.25
405.377	411.49
405.755	394.99
406.133	422.33
406.511	407.42
406.889	409.45
407.267	412.39
407.645	415.55
408.023	422.56
408.401	405.61
408.779	408.32
409.156	430.24
409.534	416.01
409.912	422.56
410.29	424.82
410.667	443.35
411.045	438.83
411.422	451.26
411.8	440.41
412.178	437.47
412.555	457.13
412.933	468.43
413.31	453.29
413.687	458.26
414.065	459.85
414.442	434.54
414.819	460.52
415.197	466.85
415.574	476.8
415.951	475.89
416.328	448.32
416.705	460.52
417.082	481.77
417.46	502.11
417.837	460.52
418.214	473.86
418.591	480.41
418.967	472.05
419.344	491.26
419.721	486.06
420.098	479.28
420.475	505.72
420.852	501.2
421.228	517.02
421.605	481.32
421.982	514.08
422.358	512.05
422.735	542.56
423.111	513.4
423.488	521.77
423.864	503.24
424.241	518.83
424.617	528.32
424.994	514.76
425.37	537.81
425.746	534.65
426.123	556.34
426.499	544.36
426.875	530.58
427.251	565.15
427.627	536.68
428.003	543.46
428.379	570.8
428.756	554.99
429.132	558.38
429.507	579.62
429.883	550.47
430.259	580.52
430.635	569
431.011	577.81
431.387	576
431.763	581.43
432.138	596.57
432.514	619.62
432.89	596.79
433.265	612.61
433.641	620.07
434.016	636.79
434.392	634.08
434.767	649.67
435.143	655.32
435.518	633.85
435.894	630.46
436.269	651.48
436.644	648.77
437.02	641.54
437.395	647.64
437.77	662.33
438.145	656.68
438.52	669.78
438.895	705.72
439.271	685.38
439.646	690.58
440.021	689.9
440.395	698.03
440.77	687.19
441.145	706.85
441.52	728.31
441.895	714.08
442.27	731.03
442.645	723.79
443.019	736.9
443.394	734.87
443.769	702.1
444.143	716.56
444.518	741.42
444.892	746.62
445.267	755.88
445.641	746.84
446.016	721.76
446.39	742.33
446.764	755.66
447.139	804.47
447.513	767.18
447.887	781.42
448.262	802.66
448.636	760.18
449.01	761.76
449.384	785.26
449.758	791.36
450.132	791.59
450.506	817.35
450.88	803.11
451.254	813.28
451.628	809.67
452.002	833.85
452.376	842.89
452.75	842.66
453.123	808.76
453.497	862.32
453.871	867.29
454.244	864.13
454.618	868.65
454.992	882.43
455.365	843.79
455.739	879.5
456.112	896.67
456.486	914.3
456.859	915.88
457.232	950.68
457.606	926.73
457.979	943.22
458.352	974.86
458.725	985.26
459.099	978.48
459.472	979.83
459.845	995.2
460.218	986.16
460.591	1012.15
460.964	1017.8
461.337	1027.97
461.71	1039.94
462.083	1062.77
462.456	1063.67
462.829	1074.29
463.201	1069.1
463.574	1113.61
463.947	1157
464.32	1149.09
464.692	1146.16
465.065	1159.49
465.438	1169.43
465.81	1192.03
466.183	1211.47
466.555	1197.91
466.928	1258.92
467.3	1253.27
467.672	1270.9
468.045	1281.29
468.417	1313.84
468.789	1306.38
469.161	1352.7
469.534	1387.73
469.906	1402.65
470.278	1428.41
470.65	1443.1
471.022	1456.66
471.394	1513.6
471.766	1506.6
472.138	1526.71
472.51	1612.13
472.882	1596.77
473.253	1646.26
473.625	1702.07
473.997	1721.73
474.369	1720.15
474.74	1803.77
475.112	1829.08
475.484	1868.62
475.855	1938.23
476.227	1948.62
476.598	2018.45
476.97	2042.18
477.341	2129.18
477.713	2165.56
478.084	2205.11
478.455	2259.57
478.827	2375.28
479.198	2420.02
479.569	2455.73
479.94	2570.98
480.311	2616.85
480.682	2698.21
481.053	2827.24
481.424	2857.98
481.795	2961.25
482.166	3023.85
482.537	3081.25
482.908	3191.3
483.279	3313.56
483.65	3408.92
484.021	3505.19
484.391	3623.61
484.762	3642.14
485.133	3788.35
485.503	3888.46
485.874	4015.91
486.244	4159.64
486.615	4250.48
486.985	4297.26
487.356	4491.83
487.726	4597.82
488.097	4764.14
488.467	4831.71
488.837	4974.08
489.207	5133.4
489.578	5268.76
489.948	5384.24
490.318	5558.7
490.688	5640.95
491.058	5796.88
491.428	5918.91
491.798	6072.58
492.168	6307.38
492.538	6397.09
492.908	6553.02
493.278	6677.99
493.648	6773.58
494.017	6960.69
494.387	7180.57
494.757	7304.64
495.126	7464.86
495.496	7583.05
495.866	7640.67
496.235	7878.63
496.605	8055.35
496.974	8142.36
497.344	8337.83
497.713	8458.96
498.082	8570.37
498.452	8740.98
498.821	8954.99
499.19	9035.67
499.559	9211.03
499.928	9300.52
500.298	9487.41
500.667	9654.86
501.036	9672.03
501.405	9921.07
501.774	10016.43
502.143	10147.5
502.512	10248.74
502.88	10429.53
503.249	10561.28
503.618	10719.92
503.987	10830.2
504.356	10992
504.724	11102.96
505.093	11212.78
505.462	11315.83
505.83	11526.9
506.199	11589.72
506.567	11836.04
506.936	11883.28
507.304	12059.09
507.672	12196.26
508.041	12330.72
508.409	12509.7
508.777	12595.8
509.145	12883.25
509.514	12883.47
509.882	13042.34
510.25	13081.66
510.618	13274.65
510.986	13353.29
511.354	13528.43
511.722	13691.59
512.09	13858.36
512.458	13915.99
512.826	14147.62
513.193	14192.82
513.561	14294.96
513.929	14427.16
514.297	14616.99
514.664	14730.88
515.032	14795.74
515.4	15008.62
515.767	15027.83
516.135	15249.29
516.502	15131.78
516.869	15550.75
517.237	15601.14
517.604	15660.58
517.972	15852.21
518.339	16007.23
518.706	15989.38
519.073	16170.39
519.44	16422.82
519.808	16565.19
520.175	16461.23
520.542	16814.67
520.909	16832.07
521.276	16985.29
521.643	17129.24
522.009	17272.51
522.376	17473.18
522.743	17590.24
523.11	17771.48
523.477	17869.56
523.843	18021.19
524.21	18206.27
524.577	18363.1
524.943	18435.65
525.31	18544.34
525.676	18719.03
526.043	18888.51
526.409	18980.94
526.776	19259.8
527.142	19340.93
527.508	19411.21
527.874	19592.22
528.241	19673.8
528.607	19808.72
528.973	19939.56
529.339	19984.31
529.705	20239.89
530.071	20344.97
530.437	20445.31
530.803	20550.84
531.169	20803.04
531.535	20679.2
531.901	20777.5
532.267	21048.46
532.632	21090.94
532.998	21251.39
533.364	21303.37
533.73	21345.63
534.095	21532.06
534.461	21611.15
534.826	21671.49
535.192	21883.24
535.557	21938.38
535.923	21898.38
536.288	22109.9
536.653	22211.59
537.019	22191.7
537.384	22277.35
537.749	22424.24
538.114	22452.26
538.479	22593.28
538.845	22630.79
539.21	22672.6
539.575	22743.1
539.94	22919.37
540.305	23061.06
540.67	22988.75
541.034	23136.76
541.399	23267.16
541.764	23209.53
542.129	23383.76
542.494	23384.22
542.858	23489.07
543.223	23535.62
543.587	23687.03
543.952	23687.03
544.316	23777.2
544.681	23683.64
545.045	23915.73
545.41	24013.13
545.774	24221.03
546.138	24095.84
546.503	24230.3
546.867	24162.95
547.231	24420.8
547.595	24437.52
547.959	24639.1
548.324	24618.76
548.688	24637.74
549.052	24738.76
549.416	24824.18
549.779	24802.71
550.143	24873.22
550.507	25127.9
550.871	25172.87
551.235	25164.96
551.599	25474.1
551.962	25545.06
552.326	25511.39
552.689	25676.81
553.053	25539.64
553.417	25575.34
553.78	26069.34
554.143	25953.87
554.507	26163.58
554.87	26064.6
555.234	26458.03
555.597	26219.62
555.96	26361.09
556.323	26607.18
556.686	26635.66
557.05	26949.55
557.413	26907.96
557.776	26914.07
558.139	27158.81
558.502	27073.16
558.865	27211.91
559.228	27399.7
559.59	27532.36
559.953	27566.48
560.316	27805.12
560.679	27928.5
561.041	28016.41
561.404	28180.7
561.767	28324.42
562.129	28139.12
562.492	28570.29
562.854	28620.46
563.217	28630.41
563.579	28853.45
563.941	28840.8
564.304	29001.24
564.666	29228.81
565.028	29230.39
565.39	29419.09
565.753	29636.25
566.115	29614.56
566.477	29848.45
566.839	29768.23
567.201	30073.31
567.563	29996.47
567.925	30332.51
568.287	30264.94
568.648	30404.82
569.01	30623.12
569.372	30745.83
569.734	30601.65
570.095	30919.16
570.457	30898.59
570.819	30977.69
571.18	31161.64
571.542	31264.46
571.903	31386.04
572.265	31508.52
572.626	31475.53
572.987	31577.45
573.349	31678.91
573.71	31787.38
574.071	31873.48
574.432	32046.13
574.794	32160.48
575.155	32128.39
575.516	32163.42
575.877	32277.32
576.238	32320.03
576.599	32427.82
576.96	32570.87
577.32	32537.42
577.681	32715.72
578.042	32668.49
578.403	32749.85
578.763	32841.59
579.124	32821.03
579.485	32931.76
579.845	33077.75
580.206	33019.44
580.566	33011.99
580.927	33095.82
581.287	33182.38
581.648	33073.9
582.008	33330.62
582.368	33244.52
582.728	33285.2
583.089	33283.62
583.449	33408.13
583.809	33376.04
584.169	33326.55
584.529	33419.66
584.889	33598.86
585.249	33362.71
585.609	33351.41
585.969	33569.26
586.329	33395.7
586.688	33553.21
587.048	33512.99
587.408	33481.35
587.768	33518.41
588.127	33548.02
588.487	33482.26
588.846	33816.94
589.206	33574.91
589.565	33614.46
589.925	33729.48
590.284	33611.07
590.643	33655.81
591.003	33783.94
591.362	33759.54
591.721	33745.53
592.08	33948.91
592.44	33842.02
592.799	33993.65
593.158	33851.74
593.517	33924.96
593.876	33863.71
594.235	33901.45
594.593	33853.32
594.952	33987.55
595.311	33988
595.67	34093.99
596.029	34183.71
596.387	34217.83
596.746	34338.73
597.104	34176.47
597.463	33989.36
597.822	34349.13
598.18	34195.68
598.538	34303.02
598.897	34438.16
599.255	34202.69
599.613	34618.5
599.972	34438.84
600.33	34472.06
600.688	34440.2
601.046	34600.64
601.404	34741.43
601.762	34554.77
602.12	34831.6
602.478	34906.85
602.836	34714.09
603.194	34672.73
603.552	34849.45
603.91	34649
604.268	34975.1
604.625	34883.35
604.983	34938.26
605.341	34805.16
605.698	35077.47
606.056	35189.78
606.413	35138.93
606.771	35215.32
607.128	35343
607.485	35206.28
607.843	35082.21
608.2	35411.02
608.557	35489.89
608.914	35398.81
609.272	35669.99
609.629	35634.52
609.986	35811.01
610.343	35612.14
610.7	36045.35
611.057	35933.26
611.414	35904.11
611.771	36034.28
612.127	36090.77
612.484	36237.21
612.841	36305.91
613.198	36147.72
613.554	36295.74
613.911	36387.94
614.267	36458.9
614.624	36483.53
614.98	36356.98
615.337	36653.47
615.693	36566.47
616.05	36584.09
616.406	36768.95
616.762	36748.61
617.118	36667.03
617.475	36686.92
617.831	36847.82
618.187	36933.24
618.543	37031.77
618.899	37115.15
619.255	36943.63
619.611	37037.87
619.967	37180.24
620.323	37252.78
620.678	37218.88
621.034	37086.45
621.39	37191.54
621.746	37197.86
622.101	37511.53
622.457	37244.87
622.812	37342.04
623.168	37439.67
623.523	37572.54
623.879	37554.01
624.234	37368.71
624.589	37485.54
624.945	37495.71
625.3	37563.5
625.655	37584.29
626.01	37626.1
626.365	37601.24
626.72	37631.3
627.075	37513.56
627.43	37677.85
627.785	37395.6
628.14	37572.77
628.495	37753.33
628.85	37624.07
629.205	37493
629.559	37733.44
629.914	37658.42
630.269	37789.71
630.623	37575.03
630.978	37596.72
631.332	37710.17
631.687	37741.8
632.041	37511.75
632.396	37777.28
632.75	37529.38
633.104	37498.65
633.459	37434.69
633.813	37295.49
634.167	37344.3
634.521	37335.49
634.875	37474.69
635.229	37426.56
635.583	37378.65
635.937	37401.02
636.291	37192.21
636.645	37357.86
636.999	37149.5
637.352	37238.31
637.706	37067.92
638.06	37128.71
638.413	37133.68
638.767	36960.13
639.121	37164.64
639.474	36862.73
639.828	37006.46
640.181	37011.2
640.534	36997.42
640.888	36771.89
641.241	36745.67
641.594	36853.92
641.947	37027.47
642.301	36846.69
642.654	36776.18
643.007	36860.02
643.36	36823.64
643.713	36723.07
644.066	36874.71
644.419	36639.91
644.771	36415.51
645.124	36085.8
645.477	35938.69
645.83	35947.95
646.182	35689.65
646.535	35531.01
646.888	35508.42
647.24	35395.43
647.593	35680.16
647.945	35568.98
648.298	35500.51
648.65	35383.45
649.002	35390.45
649.355	35390.91
649.707	35479.04
650.059	35492.15
650.411	35919.93
650.763	35967.61
651.115	36321.73
651.467	36358.56
651.819	36187.27
652.171	36057.55
652.523	36027.27
652.875	35974.85
653.227	35912.02
653.578	36133.03
653.93	36169.64
654.282	35850.78
654.633	35876.77
654.985	35839.48
655.337	35941.17
655.688	35927.16
656.039	36033.6
656.391	35645.81
656.742	35792.02
657.094	35896.2
657.445	35969.87
657.796	35812.36
658.147	35742.53
658.498	35773.04
658.849	35855.53
659.2	35791.8
659.551	35668.64
659.902	35912.93
660.253	35824.57
660.604	35868.86
660.955	35592.71
661.306	35702.08
661.656	35572.82
662.007	35668.41
662.358	35626.61
662.708	35559.04
663.059	35661.86
663.409	35409.44
663.76	35755.64
664.11	35512.48
664.461	35542.54
664.811	35604.46
665.161	35669.09
665.511	35507.74
665.862	35688.52
666.212	35655.31
666.562	35632.71
666.912	35622.09
667.262	35580.05
667.612	35472.94
667.962	35602.43
668.312	35446.72
668.662	35651.69
669.011	35514.07
669.361	35433.62
669.711	35419.38
670.06	35296.67
670.41	35338.93
670.76	35223.68
671.109	35371.47
671.459	35352.71
671.808	35333.05
672.157	35439.27
672.507	35191.59
672.856	35150.91
673.205	35207.63
673.554	35316.56
673.904	35307.74
674.253	35405.37
674.602	35282.66
674.951	34795.67
675.3	34701.66
675.649	35112.04
675.998	35105.04
676.346	35209.22
676.695	35225.03
677.044	34988.43
677.393	35113.62
677.741	35139.84
678.09	35007.19
678.438	35038.15
678.787	35031.59
679.135	34911.82
679.484	34672.51
679.832	34888.55
680.181	34593.19
680.529	34893.97
680.877	34596.35
681.225	34637.48
681.573	34916.12
681.922	34580.98
682.27	34460.53
682.618	34582.11
682.966	34471.83
683.314	34426.86
683.661	34443.13
684.009	34261.67
684.357	34199.3
684.705	34141.45
685.053	34282.69
685.4	34162.01
685.748	33901.68
686.095	33977.84
686.443	33837.5
686.79	33757.28
687.138	33924.5
687.485	33853.32
687.832	33734.23
688.18	33745.98
688.527	33496.27
688.874	33550.73
689.221	33386.66
689.568	33372.2
689.915	33375.59
690.262	33205.43
690.609	33222.38
690.956	33027.58
691.303	32979.67
691.65	32868.71
691.997	32906.9
692.344	32744.65
692.69	32649.73
693.037	32681.82
693.383	32378.1
693.73	32581.49
694.077	32400.93
694.423	32386.69
694.769	32212.01
695.116	32136.98
695.462	32112.12
695.808	32034.84
696.155	32061.5
696.501	31838.23
696.847	31901.05
697.193	31521.18
697.539	31778.35
697.885	31439.15
698.231	31381.52
698.577	31442.76
698.923	31497.22
699.269	31146.5
699.614	31172.03
699.96	31067.18
700.306	31028.53
700.651	30936.11
700.997	30836.22
701.342	30746.73
701.688	30646.62
702.033	30632.84
702.379	30618.6
702.724	30490.92
703.069	30572.95
703.415	30231.04
703.76	30254.54
704.105	30266.29
704.45	30133.87
704.795	30012.06
705.14	29885.06
705.485	29866.76
705.83	29760.55
706.175	29828.57
706.52	29681.68
706.865	29551.74
707.209	29648.46
707.554	29520.33
707.899	29533.66
708.243	29413.89
708.588	29301.8
708.932	29162.37
709.277	29159.21
709.621	29163.05
709.966	28895.71
710.31	29031.3
710.654	28845.09
710.998	28891.64
711.342	28887.35
711.687	28786.79
712.031	28590.86
712.375	28527.36
712.719	28521.48
713.063	28541.59
713.407	28659.78
713.75	28369.85
714.094	28276.97
714.438	28304.76
714.782	28275.16
715.125	28201.26
715.469	28152
715.812	28121.27
716.156	27956.07
716.499	27918.56
716.843	27898.67
717.186	27811.22
717.53	27985.22
717.873	27827.94
718.216	27818.68
718.559	27646.25
718.902	27351.34
719.246	27493.03
719.589	27443.54
719.932	27440.38
720.275	27421.17
720.617	27276.54
720.96	27227.28
721.303	27288.97
721.646	27229.31
721.989	27133.95
722.331	27300.72
722.674	27090.56
723.016	27170.33
723.359	27001.07
723.701	27097.79
724.044	26879.49
724.386	26718.14
724.729	26798.14
725.071	26832.49
725.413	26865.93
725.755	26715.43
726.097	26686.73
726.439	26567.18
726.782	26436.11
727.124	26590.23
727.465	26453.51
727.807	26374.42
728.149	26423.91
728.491	26300.52
728.833	26348.88
729.175	26322.22
729.516	26117.03
729.858	26239.73
730.199	26207.19
730.541	26207.87
730.882	26023.24
731.224	26110.02
731.565	25963.81
731.906	25912.96
732.248	25957.71
732.589	25965.39
732.93	25839.74
733.271	25836.58
733.612	25733.76
733.953	25860.08
734.294	25640.88
734.635	25618.51
734.976	25721.56
735.317	25529.02
735.658	25490.83
735.999	25512.75
736.339	25460.77
736.68	25533.31
737.021	25440.21
737.361	25289.93
737.702	25466.65
738.042	25249.03
738.383	25272.08
738.723	25311.85
739.063	25179.42
739.404	25228.23
739.744	25151.4
740.084	25042.25
740.424	25103.49
740.764	24929.94
741.104	25111.4
741.444	24929.03
741.784	24867.57
742.124	24916.38
742.464	24805.42
742.804	24747.57
743.143	24759.32
743.483	24705.76
743.823	24574.24
744.162	24589.16
744.502	24602.04
744.841	24641.58
745.181	24696.05
745.52	24502.38
745.86	24544.19
746.199	24552.32
746.538	24408.37
746.877	24514.13
747.216	24379.44
747.556	24354.81
747.895	24335.6
748.234	24198.66
748.573	24257.41
748.911	24140.81
749.25	24114.59
749.589	23997.31
749.928	24093.58
750.267	24000.92
750.605	24039.34
750.944	23920.02
751.283	23817.42
751.621	23929.96
751.96	23695.39
752.298	23725
752.636	23700.37
752.975	23593.25
753.313	23518.68
753.651	23684.77
753.989	23606.13
754.327	23577.43
754.666	23279.59
755.004	23330.21
755.342	23445.23
755.679	23334.5
756.017	23194.62
756.355	23209.76
756.693	23078.69
757.031	23213.6
757.368	22918.01
757.706	22957.33
758.044	22863.55
758.381	22939.03
758.719	22771.8
759.056	22835.98
759.394	22661.52
759.731	22581.3
760.068	22547.18
760.405	22474.41
760.743	22409.1
761.08	22376.56
761.417	22265.83
761.754	22334.75
762.091	22212.04
762.428	22033.97
762.765	22010.47
763.102	22037.58
763.438	21957.81
763.775	21834.43
764.112	21796.46
764.449	21734.54
764.785	21701.77
765.122	21572.96
765.458	21487.09
765.795	21490.71
766.131	21531.38
766.467	21412.29
766.804	21313.31
767.14	21150.38
767.476	21236.48
767.812	21118.96
768.148	21055.69
768.485	20904.51
768.821	20881
769.157	20893.66
769.492	20758.3
769.828	20768.69
770.164	20447.57
770.5	20485.76
770.836	20458.42
771.171	20414.12
771.507	20391.98
771.842	20102.49
772.178	20146.56
772.513	20095.04
772.849	20106.34
773.184	19964.19
773.519	19980.01
773.855	19944.08
774.19	19888.04
774.525	19766.68
774.86	19740.02
775.195	19582.73
775.53	19530.08
775.865	19483.53
776.2	19268.39
776.535	19225
776.87	19277.88
777.205	19187.94
777.539	19089.64
777.874	19086.48
778.209	18964.67
778.543	18865.46
778.878	18794.28
779.212	18797.9
779.547	18663.89
779.881	18625.47
780.215	18621.18
780.55	18555.19
780.884	18497.34
781.218	18378.25
781.552	18377.12
781.886	18318.59
782.22	18264.12
782.554	18087.41
782.888	17924.25
783.222	18011.93
783.556	17860.07
783.889	17801.09
784.223	17702.11
784.557	17660.07
784.89	17742.56
785.224	17603.8
785.557	17506.86
785.891	17431.38
786.224	17440.64
786.558	17310.7
786.891	17185.06
787.224	17168.56
787.557	17076.58
787.891	17041.11
788.224	17029.81
788.557	17035.68
788.89	16954.55
789.223	16925.85
789.556	16777.16
789.888	16756.14
790.221	16750.04
790.554	16554.56
790.887	16588.91
791.219	16483.83
791.552	16473.89
791.884	16307.57
792.217	16303.05
792.549	16274.57
792.882	16226.44
793.214	16038.19
793.546	16103.96
793.879	16032.09
794.211	15976.95
794.543	15992.77
794.875	15921.36
795.207	15919.78
795.539	15842.72
795.871	15706
796.203	15654.02
796.535	15522.73
796.867	15535.38
797.198	15537.64
797.53	15505.1
797.862	15346.69
798.193	15478.43
798.525	15246.58
798.856	15324.99
799.188	15136.07
799.519	15120.03
799.85	15019.69
800.182	15122.51
800.513	15128.61
800.844	14915.96
801.175	14929.3
801.506	14859.47
801.837	14840.71
802.168	14829.86
802.499	14793.48
802.83	14661.28
803.161	14600.94
803.491	14657.67
803.822	14603.43
804.153	14582.41
804.483	14433.26
804.814	14374.28
805.145	14413.83
805.475	14359.82
805.805	14339.48
806.136	14259.48
806.466	14237.56
806.796	14195.3
807.126	14134.06
807.457	14103.1
807.787	14066.49
808.117	14043.22
808.447	13961.86
808.777	13915.76
809.107	13939.72
809.436	13896.1
809.766	13906.95
810.096	13847.74
810.426	13832.6
810.755	13774.3
811.085	13740.63
811.414	13702.66
811.744	13583.57
812.073	13582.44
812.403	13569.78
812.732	13512.61
813.061	13526.4
813.39	13367.08
813.719	13458.83
814.049	13435.1
814.378	13451.6
814.707	13291.15
815.036	13267.42
815.365	13257.02
815.693	13099.97
816.022	13121.66
816.351	13103.36
816.68	12999.18
817.008	13063.81
817.337	12900.65
817.665	12930.93
817.994	12976.58
818.322	12919.41
818.651	12886.19
818.979	12829.92
819.307	12904.04
819.636	12877.83
819.964	12729.13
820.292	12792.86
820.62	12759.64
820.948	12696.14
821.276	12684.84
821.604	12685.29
821.932	12710.6
822.259	12775.68
822.587	12700.43
822.915	12598.51
823.243	12678.28
823.57	12673.99
823.898	12718.28
824.225	12627.44
824.553	12630.83
824.88	12724.16
825.207	12698.85
825.535	12536.37
825.862	12687.55
826.189	12548.12
826.516	12689.81
826.843	12696.36
827.17	12694.33
827.497	12749.02
827.824	12577.04
828.151	12655.01
828.478	12609.36
828.805	12732.52
829.131	12596.25
829.458	12573.65
829.785	12496.59
830.111	12580.43
830.438	12659.3
830.764	12565.74
831.09	12600.77
831.417	12539.08
831.743	12590.6
832.069	12556.03
832.395	12547.44
832.722	12520.32
833.048	12492.3
833.374	12545.4
833.7	12411.62
834.026	12463.15
834.351	12513.32
834.677	12430.38
835.003	12455.69
835.329	12407.78
835.654	12429.02
835.98	12383.37
836.306	12390.15
836.631	12348.57
836.956	12377.05
837.282	12345.41
837.607	12241.23
837.932	12188.13
838.258	12245.07
838.583	12269.93
838.908	12205.3
839.233	12230.16
839.558	12124.62
839.883	12128.24
840.208	12107.22
840.533	12088.02
840.858	12111.07
841.182	12059.09
841.507	12064.29
841.832	11954.69
842.156	11982.71
842.481	12040.56
842.805	11974.35
843.13	11861.81
843.454	11892.09
843.778	11877.17
844.103	11842.37
844.427	11817.97
844.751	11832.65
845.075	11762.37
845.399	11747.46
845.723	11655.48
846.047	11638.08
846.371	11519.67
846.695	11542.49
847.019	11462.04
847.343	11450.07
847.666	11431.08
847.99	11345.21
848.313	11363.97
848.637	11249.17
848.96	11250.3
849.284	11291.88
849.607	11135.27
849.931	11098.66
850.254	10976.18
850.577	11055.73
850.9	10864.77
851.223	10839.46
851.546	10849.86
851.869	10741.61
852.192	10781.16
852.515	10763.53
852.838	10664.55
853.161	10607.15
853.483	10613.93
853.806	10557.43
854.129	10535.97
854.451	10432.24
854.774	10433.37
855.096	10443.31
855.419	10407.16
855.741	10377.78
856.063	10330.1
856.385	10255.75
856.708	10277.67
857.03	10240.38
857.352	10271.11
857.674	10246.03
857.996	10147.28
858.318	10097.11
858.64	10109.76
858.961	10022.99
859.283	10058.92
859.605	9926.04
859.926	10033.83
860.248	9961.29
860.57	9965.36
860.891	9982.08
861.212	9877
861.534	9907.06
861.855	9822.76
862.176	9861.86
862.498	9867.96
862.819	9852.37
863.14	9720.62
863.461	9768.75
863.782	9721.07
864.103	9791.58
864.424	9731.24
864.745	9730.79
865.065	9596.1
865.386	9585.26
865.707	9677.23
866.027	9653.05
866.348	9566.05
866.668	9583.67
866.989	9503
867.309	9526.05
867.63	9439.27
867.95	9453.96
868.27	9342.78
868.59	9466.39
868.91	9405.6
869.23	9466.62
869.55	9468.88
869.87	9519.5
870.19	9394.75
870.51	9347.75
870.83	9385.71
871.15	9326.73
871.469	9346.17
871.789	9404.7
872.109	9274.53
872.428	9283.8
872.748	9250.12
873.067	9250.8
873.386	9217.58
873.706	9307.75
874.025	9140.97
874.344	9174.19
874.663	9201.31
874.982	9168.77
875.301	9086.51
875.62	9135.1
875.939	9108.88
876.258	9146.4
876.577	9055.78
876.896	9093.52
877.214	9000.87
877.533	9008.55
877.852	8994.99
878.17	8998.38
878.489	9037.7
878.807	8980.98
879.125	8903.47
879.444	9000.41
879.762	8938.49
880.08	8993.86
880.398	8854.65
880.716	8938.72
881.034	8834.54
881.352	8861.66
881.67	8785.05
881.988	8822.56
882.306	8804.26
882.624	8787.76
882.941	8719.52
883.259	8763.36
883.577	8621.89
883.894	8673.64
884.212	8660.99
884.529	8694.66
884.846	8604.04
885.164	8599.29
885.481	8574.89
885.798	8631.16
886.115	8461.67
886.432	8508.45
886.75	8452.63
887.067	8550.26
887.383	8423.48
887.7	8550.93
888.017	8432.52
888.334	8408.11
888.651	8410.6
888.967	8399.98
889.284	8243.37
889.6	8291.73
889.917	8260.09
890.233	8265.29
890.55	8197.72
890.866	8205.63
891.182	8082.7
891.498	8163.37
891.815	8139.87
892.131	8062.36
892.447	8090.61
892.763	8106.88
893.079	8070.95
893.395	8020.1
893.71	8002.47
894.026	7981.68
894.342	7972.64
894.657	7871.63
894.973	7892.42
895.289	7880.89
895.604	7891.97
895.92	7774.68
896.235	7801.12
896.55	7771.07
896.865	7808.35
897.181	7761.8
897.496	7741.24
897.811	7742.82
898.126	7699.2
898.441	7612.88
898.756	7617.17
899.071	7502.15
899.386	7572.2
899.7	7442.49
900.015	7473.22
900.33	7456.05
900.644	7374.69
900.959	7430.96
901.273	7392.32
901.588	7358.2
901.902	7325.65
902.216	7307.8
902.531	7305.09
902.845	7302.6
903.159	7209.05
903.473	7146.22
903.787	7123.17
904.101	7154.13
904.415	7176.73
904.729	7077.75
905.042	7050.86
905.356	7026.23
905.67	7020.8
905.984	7026.68
906.297	6959.34
906.611	6885.89
906.924	6909.62
907.237	6901.49
907.551	6829.62
907.864	6850.19
908.177	6877.08
908.491	6845.22
908.804	6767.25
909.117	6758.66
909.43	6717.31
909.743	6691.32
910.056	6598.44
910.368	6653.13
910.681	6606.8
910.994	6555.96
911.307	6527.48
911.619	6437.09
911.932	6475.51
912.244	6466.24
912.557	6454.49
912.869	6383.31
913.181	6360.48
913.494	6424.44
913.806	6365
914.118	6257.43
914.43	6257.21
914.742	6317.77
915.054	6190.09
915.366	6188.96
915.678	6174.5
915.99	6134.05
916.302	6131.34
916.613	6098.34
916.925	6093.14
917.236	6023.77
917.548	6043.2
917.859	6009.31
918.171	5951
918.482	5930.89
918.794	5908.97
919.105	5901.06
919.416	5870.78
919.727	5846.6
920.038	5842.98
920.349	5769.54
920.66	5781.29
920.971	5702.87
921.282	5783.77
921.593	5700.84
921.903	5615.64
922.214	5663.1
922.525	5644.57
922.835	5648.18
923.146	5616.32
923.456	5644.34
923.767	5550.79
924.077	5528.41
924.387	5500.84
924.697	5477.57
925.008	5441.64
925.318	5463.1
925.628	5431.69
925.938	5420.17
926.248	5349.89
926.558	5396.89
926.867	5280.06
927.177	5314.63
927.487	5218.59
927.796	5251.81
928.106	5269.66
928.416	5203.9
928.725	5223.34
929.034	5154.19
929.344	5193.28
929.653	5096.79
929.962	5087.07
930.271	5062.66
930.581	5064.02
930.89	4994.42
931.199	5005.72
931.508	4973.85
931.817	5001.87
932.125	4989.45
932.434	4929.79
932.743	4896.34
933.051	4894.08
933.36	4878.49
933.669	4886.62
933.977	4849.11
934.286	4800.98
934.594	4792.84
934.902	4783.8
935.21	4723.24
935.519	4741.99
935.827	4673.07
936.135	4717.81
936.443	4681.43
936.751	4636.46
937.059	4619.06
937.367	4619.74
937.674	4616.35
937.982	4602.79
938.29	4528.89
938.597	4560.53
938.905	4504.71
939.213	4468.33
939.52	4476.92
939.827	4493.86
940.135	4433.53
940.442	4393.75
940.749	4390.59
941.056	4412.29
941.363	4349.46
941.67	4335
941.977	4332.51
942.284	4286.19
942.591	4283.25
942.898	4283.7
943.205	4250.71
943.511	4204.15
943.818	4177.26
944.125	4120.77
944.431	4151.5
944.738	4145.85
945.044	4141.78
945.35	4147.43
945.657	4113.31
945.963	4057.72
946.269	4102.46
946.575	4056.36
946.881	4014.78
947.187	4024.27
947.493	3991.05
947.799	3984.5
948.105	4005.29
948.41	3960.55
948.716	3930.49
949.022	3888.23
949.327	3930.94
949.633	3876.48
949.938	3848.68
950.244	3893.65
950.549	3879.42
950.854	3827.44
951.16	3794
951.465	3791.74
951.77	3781.79
952.075	3774.34
952.38	3742.25
952.685	3703.38
952.99	3702.25
953.294	3693.43
953.599	3670.38
953.904	3637.84
954.209	3652.53
954.513	3628.35
954.818	3600.78
955.122	3615.92
955.426	3574.34
955.731	3594.91
956.035	3578.86
956.339	3522.82
956.643	3521.01
956.948	3538.18
957.252	3495.25
957.556	3471.52
957.86	3471.74
958.163	3440.79
958.467	3470.61
958.771	3433.33
959.075	3412.99
959.378	3363.27
959.682	3456.83
959.985	3407.34
960.289	3333.67
960.592	3351.52
960.896	3349.71
961.199	3320.11
961.502	3287.57
961.805	3285.76
962.108	3233.56
962.411	3272.65
962.714	3203.05
963.017	3236.95
963.32	3173
963.623	3197.18
963.926	3191.3
964.228	3187.01
964.531	3146.1
964.833	3140.45
965.136	3138.42
965.438	3167.35
965.741	3107.91
966.043	3060
966.345	3046.67
966.648	3051.87
966.95	3066.33
967.252	3025.88
967.554	3015.71
967.856	3012.77
968.158	3021.59
968.46	2990.4
968.761	2983.17
969.063	2956.73
969.365	2980.68
969.666	2961.48
969.968	2926.22
970.269	2876.73
970.571	2923.28
970.872	2898.43
971.174	2868.14
971.475	2851.65
971.776	2866.11
972.077	2855.49
972.378	2827.92
972.679	2820.91
972.98	2799.45
973.281	2805.32
973.582	2742.05
973.883	2746.57
974.183	2771.88
974.484	2753.57
974.785	2739.56
975.085	2720.35
975.386	2726.45
975.686	2689.84
975.986	2710.63
976.287	2651.2
976.587	2660.92
976.887	2623.63
977.187	2631.09
977.487	2585.44
977.787	2574.82
978.087	2582.28
978.387	2575.5
978.687	2575.27
978.987	2562.39
979.286	2548.15
979.586	2543.18
979.885	2529.17
980.185	2515.39
980.484	2495.27
980.784	2475.84
981.083	2461.15
981.382	2490.53
981.682	2469.51
981.981	2442.39
982.28	2439.23
982.579	2440.36
982.878	2436.74
983.177	2441.94
983.475	2415.5
983.774	2399.68
984.073	2380.93
984.372	2388.16
984.67	2352.9
984.969	2371.89
985.267	2333.92
985.566	2342.51
985.864	2323.3
986.162	2323.53
986.461	2342.74
986.759	2301.61
987.057	2248.95
987.355	2295.96
987.653	2268.84
987.951	2227.48
988.249	2229.97
988.547	2225.68
988.844	2228.39
989.142	2227.94
989.44	2202.17
989.737	2179.35
990.035	2192.46
990.332	2229.52
990.63	2149.07
990.927	2152.46
991.224	2142.97
991.521	2143.19
991.819	2126.02
992.116	2131.89
992.413	2091.44
992.71	2101.61
993.006	2089.18
993.303	2093.02
993.6	2070.88
993.897	2076.08
994.193	2050.31
994.49	2045.79
994.787	2044.21
995.083	2024.1
995.379	1992.24
995.676	2007.38
995.972	1967.83
996.268	2015.06
996.565	1976.19
996.861	1953.59
997.157	1951.56
997.453	1959.92
997.749	1949.07
998.044	1929.86
998.34	1937.77
998.636	1899.81
998.932	1893.48
999.227	1863.88
999.523	1880.83
999.818	1855.06
1000.114	1842.64
1000.409	1848.51
1000.704	1827.04
1001	1842.86
1001.295	1798.57
1001.59	1792.47
1001.885	1804.44
1002.18	1805.8
1002.475	1799.47
1002.77	1788.17
1003.065	1751.79
1003.359	1789.08
1003.654	1748.4
1003.949	1738.23
1004.243	1701.17
1004.538	1736.88
1004.832	1718.34
1005.127	1718.8
1005.421	1706.37
1005.715	1705.92
1006.009	1679.02
1006.304	1641.06
1006.598	1653.26
1006.892	1650.78
1007.186	1641.06
1007.48	1647.16
1007.773	1615.07
1008.067	1606.94
1008.361	1611.68
1008.655	1582.3
1008.948	1588.4
1009.242	1583.21
1009.535	1555.86
1009.829	1559.25
1010.122	1542.08
1010.415	1555.19
1010.708	1484.9
1011.001	1523.32
1011.295	1519.93
1011.588	1526.26
1011.881	1462.76
1012.173	1487.16
1012.466	1470.67
1012.759	1461.4
1013.052	1487.62
1013.344	1498.46
1013.637	1442.65
1013.93	1413.04
1014.222	1444.45
1014.514	1445.58
1014.807	1413.04
1015.099	1426.15
1015.391	1408.3
1015.683	1397
1015.976	1391.8
1016.268	1372.82
1016.56	1401.06
1016.851	1340.28
1017.143	1349.77
1017.435	1318.58
1017.727	1350.9
1018.018	1324.91
1018.31	1335.53
1018.602	1307.73
1018.893	1301.63
1019.185	1293.5
1019.476	1306.6
1019.767	1295.98
1020.058	1280.16
1020.35	1270.9
1020.641	1254.4
1020.932	1264.35
1021.223	1264.57
1021.514	1229.09
1021.804	1231.35
1022.095	1207.85
1022.386	1181.41
1022.677	1229.54
1022.967	1204.46
1023.258	1173.27
1023.548	1160.17
1023.839	1180.73
1024.129	1180.73
1024.419	1160.17
1024.709	1140.51
1025	1140.96
1025.29	1183.44
1025.58	1126.27
1025.87	1111.13
1026.16	1109.32
1026.449	1115.2
1026.739	1110.45
1027.029	1113.16
1027.319	1090.11
1027.608	1064.8
1027.898	1073.84
1028.187	1082.43
1028.477	1068.64
1028.766	1063.67
1029.055	1059.38
1029.344	1034.29
1029.634	1061.19
1029.923	1045.14
1030.212	1029.78
1030.501	1023
1030.79	999.72
1031.078	1007.4
1031.367	982.54
1031.656	975.99
1031.945	992.71
1032.233	987.97
1032.522	980.74
1032.81	983.22
1033.099	987.74
1033.387	943.9
1033.675	941.19
1033.963	944.58
1034.251	941.42
1034.54	945.03
1034.828	924.02
1035.116	943.45
1035.403	904.81
1035.691	936.44
1035.979	935.31
1036.267	913.62
1036.554	898.03
1036.842	888.76
1037.129	896.45
1037.417	892.83
1037.704	886.05
1037.992	875.2
1038.279	839.5
1038.566	859.16
1038.853	859.16
1039.14	859.16
