Data from hue_290_FLMS001491_00078.txt Node
Date: Tue Feb 07 15:53:13 GMT 2017
User: dcchb
Spectrometer: FLMS00149
Trigger mode: 0
Integration Time (sec): 2.000000E-2
Scans to average: 10
Electric dark correction enabled: true
Nonlinearity correction enabled: false
Boxcar width: 0
XAxis mode: Wavelengths
Number of Pixels in Spectrum: 2048
>>>>>Begin Spectral Data<<<<<
341.393	-11.65
341.776	-11.65
342.16	-11.65
342.543	-55.27
342.927	-52.78
343.31	-60.69
343.693	-86.68
344.077	-70.86
344.46	-68.6
344.843	-48.04
345.226	-31.31
345.61	-40.8
345.993	1
346.376	-0.58
346.759	14.79
347.142	24.73
347.525	52.53
347.908	62.92
348.291	73.32
348.674	77.16
349.057	101.11
349.44	108.12
349.823	148.34
350.206	177.27
350.588	186.31
350.971	214.56
351.354	224.27
351.737	233.99
352.119	256.59
352.502	268.57
352.884	283.71
353.267	290.49
353.65	290.03
354.032	288.68
354.414	272.41
354.797	313.31
355.179	330.94
355.562	331.16
355.944	323.93
356.326	319.86
356.709	320.77
357.091	334.78
357.473	325.74
357.855	318.28
358.238	343.37
358.62	338.4
359.002	323.25
359.384	351.05
359.766	343.14
360.148	356.93
360.53	328.68
360.912	323.71
361.294	348.11
361.676	302.92
362.057	326.64
362.439	323.71
362.821	318.28
363.203	322.58
363.584	321.22
363.966	333.65
364.348	317.6
364.729	324.38
365.111	307.44
365.493	309.7
365.874	301.11
366.256	325.29
366.637	316.93
367.019	306.98
367.4	290.71
367.781	304.27
368.163	307.66
368.544	304.95
368.925	308.57
369.306	326.42
369.688	305.85
370.069	317.38
370.45	299.07
370.831	323.71
371.212	301.56
371.593	325.97
371.974	301.79
372.355	317.83
372.736	314.67
373.117	306.08
373.498	298.4
373.879	312.18
374.26	307.66
374.641	312.63
375.021	299.3
375.402	309.7
375.783	337.94
376.163	311.05
376.544	321.67
376.925	316.25
377.305	300.88
377.686	313.54
378.066	331.84
378.447	321.67
378.827	333.88
379.208	330.26
379.588	306.53
379.968	314.44
380.349	360.54
380.729	325.06
381.109	334.55
381.489	329.81
381.87	321.45
382.25	320.32
382.63	364.16
383.01	330.71
383.39	333.88
383.77	353.76
384.15	343.14
384.53	339.07
384.91	312.18
385.29	351.73
385.67	351.05
386.049	360.32
386.429	344.72
386.809	339.07
387.189	357.15
387.568	348.79
387.948	351.05
388.328	355.34
388.707	379.3
389.087	362.12
389.466	361.45
389.846	374.33
390.225	361.67
390.605	364.61
390.984	365.74
391.363	382.69
391.743	367.55
392.122	368.9
392.501	389.92
392.881	353.76
393.26	385.63
393.639	371.16
394.018	361.45
394.397	377.72
394.776	373.65
395.155	380.43
395.534	371.61
395.913	400.54
396.292	389.92
396.671	386.08
397.05	378.17
397.429	416.59
397.808	402.57
398.186	412.74
398.565	400.54
398.944	418.17
399.323	411.39
399.701	389.92
400.08	415.23
400.458	421.78
400.837	446.19
401.215	414.78
401.594	427.21
401.972	412.07
402.351	429.01
402.729	425.62
403.107	426.08
403.486	426.75
403.864	445.96
404.242	438.73
404.62	440.77
404.999	441.67
405.377	444.61
405.755	462.91
406.133	458.17
406.511	460.43
406.889	455.91
407.267	478.96
407.645	479.18
408.023	486.19
408.401	461.33
408.779	493.65
409.156	492.06
409.534	503.59
409.912	493.19
410.29	498.39
410.667	520.54
411.045	535
411.422	534.77
411.8	527.54
412.178	546.07
412.555	525.73
412.933	580.42
413.31	576.13
413.687	560.99
414.065	610.25
414.442	596.47
414.819	601.66
415.197	596.02
415.574	586.3
415.951	633.08
416.328	602.57
416.705	622
417.082	635.11
417.46	641.44
417.837	635.34
418.214	679.4
418.591	678.05
418.967	678.73
419.344	677.82
419.721	678.27
420.098	683.7
420.475	720.76
420.852	697.93
421.228	730.02
421.605	754.66
421.982	739.06
422.358	729.12
422.735	767.99
423.111	760.3
423.488	789.91
423.864	785.84
424.241	806.63
424.617	803.92
424.994	813.18
425.37	797.59
425.746	826.29
426.123	850.47
426.499	861.55
426.875	847.53
427.251	883.69
427.627	892.96
428.003	866.29
428.379	884.14
428.756	899.06
429.132	917.81
429.507	921.43
429.883	928.44
430.259	941.09
430.635	946.06
431.011	975.21
431.387	983.58
431.763	1015.44
432.138	989.23
432.514	1034.42
432.89	1012.05
433.265	1042.11
433.641	1048.21
434.016	1084.59
434.392	1069.22
434.767	1111.71
435.143	1084.82
435.518	1137.47
435.894	1122.1
436.269	1150.13
436.644	1171.14
437.02	1156.9
437.395	1134.08
437.77	1180.41
438.145	1217.24
438.52	1206.62
438.895	1252.72
439.271	1254.98
439.646	1247.07
440.021	1273.06
440.395	1290.91
440.77	1249.11
441.145	1287.07
441.52	1274.19
441.895	1290.69
442.27	1295.66
442.645	1317.58
443.019	1348.99
443.394	1332.27
443.769	1352.83
444.143	1349.22
444.518	1377.46
444.892	1372.04
445.267	1373.17
445.641	1397.8
446.016	1382.89
446.39	1397.8
446.764	1410.91
447.139	1381.31
447.513	1418.14
447.887	1441.64
448.262	1411.14
448.636	1410.91
449.01	1438.93
449.384	1469.89
449.758	1458.59
450.132	1467.63
450.506	1486.16
450.88	1498.82
451.254	1476.22
451.628	1511.02
452.002	1521.87
452.376	1518.48
452.75	1529.1
453.123	1527.06
453.497	1563
453.871	1552.6
454.244	1571.58
454.618	1579.49
454.992	1633.05
455.365	1605.25
455.739	1641.19
456.112	1635.31
456.486	1671.02
456.859	1669.66
457.232	1700.39
457.606	1709.88
457.979	1692.48
458.352	1724.57
458.725	1739.26
459.099	1760.96
459.472	1777.68
459.845	1784.01
460.218	1852.25
460.591	1792.82
460.964	1809.32
461.337	1852.03
461.71	1869.2
462.083	1886.6
462.456	1880.95
462.829	1883.67
463.201	1945.36
463.574	1935.19
463.947	1949.2
464.32	2001.85
464.692	1983.55
465.065	2001.85
465.438	2002.76
465.81	2045.69
466.183	2057.67
466.555	2062.19
466.928	2086.82
467.3	2051.8
467.672	2120.04
468.045	2149.65
468.417	2180.38
468.789	2141.74
469.161	2164.56
469.534	2198.23
469.906	2267.16
470.278	2249.53
470.65	2276.65
471.022	2302.41
471.394	2342.18
471.766	2325.46
472.138	2354.39
472.51	2394.61
472.882	2455.18
473.253	2440.03
473.625	2494.5
473.997	2539.02
474.369	2546.7
474.74	2537.66
475.112	2578.11
475.484	2596.19
475.855	2610.2
476.227	2648.62
476.598	2727.48
476.97	2728.61
477.341	2767.94
477.713	2794.83
478.084	2814.71
478.455	2860.14
478.827	2882.51
479.198	2987.59
479.569	2968.16
479.94	3000.7
480.311	2995.73
480.682	3160.24
481.053	3130.86
481.424	3180.35
481.795	3197.3
482.166	3215.61
482.537	3246.57
482.908	3291.09
483.279	3327.69
483.65	3379.67
484.021	3423.06
484.391	3443.17
484.762	3504.41
485.133	3484.75
485.503	3537.18
485.874	3590.51
486.244	3566.78
486.615	3669.15
486.985	3729.72
487.356	3743.96
487.726	3732.43
488.097	3818.98
488.467	3823.28
488.837	3872.99
489.207	3923.16
489.578	3969.49
489.948	3966.55
490.318	4047.22
490.688	4032.76
491.058	4067.11
491.428	4095.36
491.798	4124.06
492.168	4173.1
492.538	4205.41
492.908	4236.82
493.278	4276.82
493.648	4313.21
494.017	4328.35
494.387	4402.02
494.757	4408.57
495.126	4395.01
495.496	4395.92
495.866	4444.73
496.235	4491.05
496.605	4477.95
496.974	4497.61
497.344	4536.25
497.713	4642.01
498.082	4627.77
498.452	4692.63
498.821	4690.15
499.19	4675
499.559	4673.2
499.928	4766.98
500.298	4733.31
500.667	4783.93
501.036	4768.11
501.405	4809.24
501.774	4778.5
502.143	4842.68
502.512	4860.54
502.88	4905.73
503.249	4875.68
503.618	4886.98
503.987	4891.27
504.356	4939.86
504.724	4949.8
505.093	4956.8
505.462	4962.68
505.83	5053.98
506.199	5067.99
506.567	5075.67
506.936	5044.26
507.304	5109.8
507.672	5096.46
508.041	5130.36
508.409	5216.68
508.777	5194.09
509.145	5200.64
509.514	5230.24
509.882	5237.02
510.25	5233.41
510.618	5245.38
510.986	5297.36
511.354	5288.1
511.722	5390.47
512.09	5375.78
512.458	5382.1
512.826	5368.55
513.193	5411.48
513.561	5424.36
513.929	5417.58
514.297	5487.41
514.664	5500.07
515.032	5521.99
515.4	5531.03
515.767	5513.17
516.135	5589.78
516.502	5542.78
516.869	5588.2
517.237	5586.17
517.604	5585.49
517.972	5586.84
518.339	5621.42
518.706	5671.59
519.073	5658.48
519.44	5649.22
519.808	5742.32
520.175	5752.49
520.542	5716.56
520.909	5715.43
521.276	5819.15
521.643	5868.65
522.009	5843.79
522.376	5849.89
522.743	5862.77
523.11	5928.53
523.477	5940.06
523.843	5934.41
524.21	6031.58
524.577	6005.36
524.943	6097.11
525.31	6099.37
525.676	6089.66
526.043	6134.17
526.409	6154.97
526.776	6227.51
527.142	6191.35
527.508	6218.92
527.874	6241.06
528.241	6267.05
528.607	6301.85
528.973	6367.62
529.339	6322.87
529.705	6368.97
530.071	6417.11
530.437	6475.41
530.803	6506.59
531.169	6470.21
531.535	6495.07
531.901	6496.88
532.267	6542.75
532.632	6589.98
532.998	6588.85
533.364	6594.28
533.73	6580.94
534.095	6655.29
534.461	6671.11
534.826	6736.64
535.192	6675.4
535.557	6720.15
535.923	6697.78
536.288	6769.86
536.653	6848.05
537.019	6756.08
537.384	6845.79
537.749	6888.73
538.114	6895.06
538.479	6853.48
538.845	6881.05
539.21	6910.43
539.575	6941.16
539.94	6926.24
540.305	7031.1
540.67	6987.49
541.034	6997.2
541.399	6983.87
541.764	7021.84
542.129	7067.48
542.494	7092.79
542.858	7150.87
543.223	7131.89
543.587	7209.63
543.952	7114.04
544.316	7178.67
544.681	7155.62
545.045	7169.18
545.41	7266.8
545.774	7257.31
546.138	7297.76
546.503	7302.05
546.867	7263.64
547.231	7337.76
547.595	7341.83
547.959	7379.79
548.324	7450.75
548.688	7387.25
549.052	7470.64
549.416	7390.86
549.779	7424.99
550.143	7478.09
550.507	7448.94
550.871	7491.2
551.235	7532.78
551.599	7576.17
551.962	7577.53
552.326	7550.41
552.689	7639.45
553.053	7606.23
553.417	7595.83
553.78	7720.12
554.143	7673.8
554.507	7664.98
554.87	7681.7
555.234	7759.67
555.597	7682.61
555.96	7728.26
556.323	7737.75
556.686	7813
557.05	7794.24
557.413	7785.88
557.776	7852.32
558.139	7820.23
558.502	7843.28
558.865	7871.76
559.228	7931.64
559.59	7919.21
559.953	7957.4
560.316	8008.93
560.679	8045.99
561.041	8118.08
561.404	8112.65
561.767	8174.57
562.129	8049.83
562.492	8183.39
562.854	8164.4
563.217	8149.49
563.579	8119.21
563.941	8242.59
564.304	8227.91
564.666	8274.01
565.028	8294.57
565.39	8337.73
565.753	8307.68
566.115	8375.7
566.477	8322.14
566.839	8370.05
567.201	8439.42
567.563	8478.52
567.925	8491.85
568.287	8525.07
568.648	8538.86
569.01	8539.76
569.372	8607.56
569.734	8561.91
570.095	8708.12
570.457	8624.73
570.819	8779.3
571.18	8759.87
571.542	8804.39
571.903	8789.47
572.265	8805.07
572.626	8950.15
572.987	8937.72
573.349	8943.59
573.71	9010.71
574.071	9067.21
574.432	9062.69
574.794	9164.15
575.155	9168.22
575.516	9179.97
575.877	9194.21
576.238	9275.56
576.599	9294.09
576.96	9405.05
577.32	9439.62
577.681	9501.77
578.042	9518.27
578.403	9585.84
578.763	9646.4
579.124	9689.56
579.485	9788.99
579.845	9855.88
580.206	9863.79
580.566	9955.77
580.927	10011.59
581.287	10167.74
581.648	10147.63
582.008	10288.42
582.368	10322.77
582.728	10446.6
583.089	10551.46
583.449	10574.51
583.809	10691.57
584.169	10865.58
584.529	10848.85
584.889	11114.61
585.249	11095.85
585.609	11244.77
585.969	11319.8
586.329	11397.99
586.688	11557.76
587.048	11590.3
587.408	11726.57
587.768	11854.48
588.127	12013.12
588.487	12109.16
588.846	12329.04
589.206	12363.39
589.565	12457.4
589.925	12630.5
590.284	12751.4
590.643	12985.75
591.003	13026.65
591.362	13247.21
591.721	13326.75
592.08	13460.99
592.44	13603.81
592.799	13691.49
593.158	13784.37
593.517	14112.72
593.876	14124.02
594.235	14205.15
594.593	14386.84
594.952	14567.63
595.311	14659.6
595.67	14846.49
596.029	15025.47
596.387	15145.69
596.746	15326.7
597.104	15292.8
597.463	15453.03
597.822	15661.16
598.18	15713.81
598.538	15814.82
598.897	16032.45
599.255	16024.99
599.613	16347.01
599.972	16331.87
600.33	16528.48
600.688	16555.6
601.046	16699.55
601.404	16812.76
601.762	16956.04
602.12	17106.99
602.478	17186.31
602.836	17305.63
603.194	17285.29
603.552	17377.27
603.91	17484.84
604.268	17710.59
604.625	17722.34
604.983	17775.22
605.341	17856.8
605.698	17959.4
606.056	18108.78
606.413	18197.36
606.771	18309
607.128	18409.78
607.485	18379.05
607.843	18561.19
608.2	18592.6
608.557	18897.91
608.914	18802.09
609.272	18995.31
609.629	18964.12
609.986	19111.69
610.343	19106.26
610.7	19303.32
611.057	19311
611.414	19416.31
611.771	19421.28
612.127	19585.57
612.484	19602.07
612.841	19701.5
613.198	19714.16
613.554	19722.29
613.911	19935.85
614.267	19897.65
614.624	19927.03
614.98	19975.62
615.337	20199.34
615.693	20147.37
616.05	20233.47
616.406	20301.49
616.762	20328.6
617.118	20315.95
617.475	20403.86
617.831	20446.57
618.187	20532.21
618.543	20683.62
618.899	20684.75
619.255	20716.39
619.611	20852.43
619.967	20905.54
620.323	20900.79
620.678	20752.1
621.034	20842.26
621.39	20922.03
621.746	20909.15
622.101	21253.33
622.457	21042.71
622.812	21123.16
623.168	21119.77
623.523	21065.99
623.879	21207.45
624.234	20949.6
624.589	21293.55
624.945	21278.41
625.3	21227.34
625.655	21224.85
626.01	21269.82
626.365	21234.79
626.72	21355.92
627.075	21352.98
627.43	21372.87
627.785	21293.78
628.14	21401.12
628.495	21472.08
628.85	21411.97
629.205	21389.82
629.559	21501.23
629.914	21326.32
630.269	21372.19
630.623	21385.98
630.978	21295.58
631.332	21495.8
631.687	21399.99
632.041	21352.08
632.396	21441.57
632.75	21291.74
633.104	21406.77
633.459	21327
633.813	21382.14
634.167	21336.26
634.521	21292.19
634.875	21369.03
635.229	21423.04
635.583	21159.09
635.937	21238.64
636.291	21204.74
636.645	21301.46
636.999	21170.62
637.352	21315.47
637.706	21200.67
638.06	21277.73
638.413	21123.61
638.767	21165.64
639.121	21235.02
639.474	21080.67
639.828	21041.35
640.181	21180.56
640.534	21073.22
640.888	20996.61
641.241	21036.16
641.594	21013.33
641.947	21008.36
642.301	20995.25
642.654	21077.51
643.007	21138.53
643.36	21006.78
643.713	20880.68
644.066	21066.66
644.419	20968.59
644.771	20891.53
645.124	20688.82
645.477	20627.81
645.83	20465.1
646.182	20486.57
646.535	20413.8
646.888	20446.79
647.24	20336.29
647.593	20434.36
647.945	20466.23
648.298	20369.05
648.65	20269.85
649.002	20213.13
649.355	20473.01
649.707	20333.12
650.059	20369.05
650.411	20655.37
650.763	20744.41
651.115	20951.19
651.467	20886.1
651.819	20902.6
652.171	20834.58
652.523	20830.74
652.875	21011.52
653.227	20808.59
653.578	20958.87
653.93	20925.88
654.282	20793
654.633	20788.93
654.985	20899.66
655.337	20840.91
655.688	20875.93
656.039	20949.38
656.391	20773.79
656.742	20785.09
657.094	20881.81
657.445	20874.13
657.796	20837.07
658.147	20821.47
658.498	20814.01
658.849	20810.85
659.2	20802.04
659.551	20871.41
659.902	20765.65
660.253	20826.44
660.604	20973.56
660.955	20785.77
661.306	20920.45
661.656	20841.81
662.007	20946.67
662.358	20858.76
662.708	20851.98
663.059	20941.47
663.409	20861.25
663.76	21025.53
664.11	20926.78
664.461	20936.05
664.811	20926.78
665.161	20905.31
665.511	20874.13
665.862	20908.7
666.212	20917.06
666.562	20998.87
666.912	20853.34
667.262	20892.2
667.612	20893.11
667.962	20930.17
668.312	20894.46
668.662	20963.84
669.011	20947.8
669.361	20883.84
669.711	20960
670.06	20797.97
670.41	20839.55
670.76	20798.87
671.109	20951.64
671.459	20904.86
671.808	20788.48
672.157	20846.33
672.507	20741.02
672.856	20736.95
673.205	20688.82
673.554	20865.09
673.904	20655.83
674.253	20776.5
674.602	20712.55
674.951	20519.33
675.3	20397.75
675.649	20642.27
675.998	20679.78
676.346	20732.89
676.695	20753
677.044	20562.95
677.393	20576.51
677.741	20633.91
678.09	20615.6
678.438	20524.98
678.787	20602.95
679.135	20524.53
679.484	20439.34
679.832	20498.54
680.181	20413.8
680.529	20414.48
680.877	20334.71
681.225	20258.78
681.573	20476.17
681.922	20276.63
682.27	20186.01
682.618	20167.25
682.966	20259.45
683.314	20163.41
683.661	20148.72
684.009	19993.47
684.357	20037.99
684.705	19880.03
685.053	20008.61
685.4	19964.09
685.748	19878.67
686.095	19746.92
686.443	19774.72
686.79	19567.72
687.138	19741.27
687.485	19844.55
687.832	19688.17
688.18	19692.69
688.527	19492.69
688.874	19472.58
689.221	19466.93
689.568	19412.7
689.915	19381.74
690.262	19295.18
690.609	19231.23
690.956	19153.95
691.303	19235.3
691.65	19141.06
691.997	19076.43
692.344	19036.21
692.69	18847.74
693.037	18939.04
693.383	18801.86
693.73	18830.34
694.077	18710.12
694.423	18662.21
694.769	18618.59
695.116	18555.77
695.462	18599.16
695.808	18541.76
696.155	18394.42
696.501	18376.56
696.847	18359.16
697.193	18177.7
697.539	18307.87
697.885	18189
698.231	18061.77
698.577	17994.65
698.923	18039.62
699.269	17954.66
699.614	17826.3
699.96	17920.31
700.306	17809.8
700.651	17705.85
700.997	17556.02
701.342	17551.05
701.688	17485.97
702.033	17525.97
702.379	17413.2
702.724	17400.09
703.069	17446.65
703.415	17139.99
703.76	17139.99
704.105	17141.57
704.45	17190.61
704.795	16934.12
705.14	16908.58
705.485	16921.46
705.83	16811.18
706.175	16904.97
706.52	16756.95
706.865	16798.3
707.209	16601.92
707.554	16632.43
707.899	16683.73
708.243	16576.61
708.588	16551.08
708.932	16404.87
709.277	16445.54
709.621	16430.18
709.966	16317.86
710.31	16338.65
710.654	16140.92
710.998	16222.27
711.342	16150.41
711.687	16169.17
712.031	16034.03
712.375	16023.41
712.719	16070.86
713.063	16016.17
713.407	16098.21
713.75	15967.59
714.094	15977.98
714.438	15844.88
714.782	15901.38
715.125	15815.95
715.469	15791.1
715.812	15654.83
716.156	15663.42
716.499	15681.49
716.843	15752.45
717.186	15560.59
717.53	15714.71
717.873	15638.33
718.216	15540.93
718.559	15579.58
718.902	15440.82
719.246	15411.9
719.589	15372.58
719.932	15401.28
720.275	15342.29
720.617	15334.16
720.96	15290.77
721.303	15412.35
721.646	15376.19
721.989	15249.19
722.331	15289.87
722.674	15313.37
723.016	15164.9
723.359	15193.15
723.701	15205.8
724.044	15106.37
724.386	15069.08
724.729	15147.05
725.071	15091.45
725.413	15078.8
725.755	15092.36
726.097	15006.71
726.439	14880.16
726.782	15039.03
727.124	15055.52
727.465	14953.6
727.807	14928.07
728.149	14935.3
728.491	14896.66
728.833	15054.62
729.175	14958.35
729.516	14916.32
729.858	14790.22
730.199	14894.62
730.541	14810.33
730.882	14822.31
731.224	14832.25
731.565	14697.79
731.906	14837.45
732.248	14811.01
732.589	14700.28
732.93	14812.14
733.271	14793.83
733.612	14757.45
733.953	14828.86
734.294	14714.74
734.635	14766.72
734.976	14724.91
735.317	14675.19
735.658	14717.45
735.999	14688.53
736.339	14686.72
736.68	14757.68
737.021	14813.04
737.361	14755.42
737.702	14829.54
738.042	14797.68
738.383	14698.92
738.723	14776.21
739.063	14651.01
739.404	14836.09
739.744	14758.58
740.084	14765.59
740.424	14761.29
740.764	14704.35
741.104	14842.87
741.444	14731.91
741.784	14788.86
742.124	14794.96
742.464	14833.61
742.804	14795.87
743.143	14851.23
743.483	14896.2
743.823	14787.73
744.162	14877.9
744.502	14879.93
744.841	14850.78
745.181	15086.71
745.52	14948.86
745.86	15059.59
746.199	15075.41
746.538	15158.34
746.877	15248.74
747.216	15200.15
747.556	15259.13
747.895	15283.09
748.234	15243.54
748.573	15333.48
748.911	15388.17
749.25	15481.73
749.589	15572.12
749.928	15594.72
750.267	15639.24
750.605	15724.21
750.944	15739.12
751.283	15805.33
751.621	15959
751.96	15854.15
752.298	16050.52
752.636	16120.35
752.975	16130.07
753.313	16191.76
753.651	16462.49
753.989	16353.79
754.327	16466.33
754.666	16592.66
755.004	16640.57
755.342	16833.1
755.679	16875.14
756.017	16912.87
756.355	17057.5
756.693	17155.35
757.031	17268.8
757.368	17338.85
757.706	17476.93
758.044	17546.08
758.381	17702.46
758.719	17730.93
759.056	17892.74
759.394	17897.71
759.731	17942.45
760.068	18078.72
760.405	18155.78
760.743	18180.64
761.08	18355.77
761.417	18493.62
761.754	18616.78
762.091	18649.1
762.428	18713.05
762.765	18734.75
763.102	18880.96
763.438	18886.16
763.775	18910.56
764.112	19188.75
764.449	19264.45
764.785	19241.85
765.122	19255.41
765.458	19367.95
765.795	19339.93
766.131	19428.29
766.467	19440.04
766.804	19450.89
767.14	19445.01
767.476	19626.93
767.812	19487.95
768.148	19694.95
768.485	19707.15
768.821	19683.88
769.157	19695.4
769.492	19838.22
769.828	19872.8
770.164	19747.38
770.5	19774.49
770.836	19889.75
771.171	19842.74
771.507	19866.24
771.842	19701.73
772.178	19858.56
772.513	19752.57
772.849	19794.83
773.184	19860.37
773.519	19851.1
773.855	19826.24
774.19	19768.39
774.525	19825.11
774.86	19825.34
775.195	19837.32
775.53	19765
775.865	19701.05
776.2	19669.41
776.535	19672.35
776.87	19558.91
777.205	19645.68
777.539	19454.95
777.874	19609.98
778.209	19490.89
778.543	19438.23
778.878	19418.35
779.212	19372.24
779.547	19343.77
779.881	19470.55
780.215	19304.9
780.55	19333.38
780.884	19192.81
781.218	19229.65
781.552	19244.56
781.886	19108.07
782.22	19019.26
782.554	18990.56
782.888	18875.53
783.222	18825.82
783.556	18804.8
783.889	18735.88
784.223	18611.36
784.557	18619.95
784.89	18718.7
785.224	18620.63
785.557	18532.72
785.891	18440.29
786.224	18537.01
786.558	18459.05
786.891	18272.16
787.224	18220.86
787.557	18220.18
787.891	18215.67
788.224	18206.4
788.557	18191.48
788.89	18177.47
789.223	18136.35
789.556	17954.66
789.888	17988.78
790.221	17975.45
790.554	17757.37
790.887	17783.13
791.219	17704.94
791.552	17720.08
791.884	17554.44
792.217	17643.48
792.549	17618.84
792.882	17363.26
793.214	17336.14
793.546	17512.86
793.879	17224.5
794.211	17219.53
794.543	17225.63
794.875	17133.89
795.207	17255.69
795.539	17217.73
795.871	17114
796.203	16978.86
796.535	16866.1
796.867	16925.76
797.198	16809.83
797.53	16861.12
797.862	16736.16
798.193	16781.13
798.525	16654.35
798.856	16721.69
799.188	16491.42
799.519	16485.09
799.85	16396.96
800.182	16444.86
800.513	16217.98
800.844	16219.56
801.175	16329.61
801.506	16290.29
801.837	16120.58
802.168	16203.29
802.499	16081.94
802.83	15993.58
803.161	15929.62
803.491	15990.41
803.822	15932.34
804.153	15772.57
804.483	15733.92
804.814	15714.49
805.145	15710.19
805.475	15715.62
805.805	15585.45
806.136	15612.8
806.466	15591.55
806.796	15563.31
807.126	15378
807.457	15428.85
807.787	15348.85
808.117	15284.89
808.447	15295.52
808.777	15368.73
809.107	15278.34
809.436	15318.34
809.766	15262.52
810.096	15089.87
810.426	15053.04
810.755	15072.02
811.085	15076.54
811.414	14988.41
811.744	14864.57
812.073	14860.27
812.403	14904.11
812.732	14771.91
813.061	14789.99
813.39	14721.29
813.719	14723.55
814.049	14669.09
814.378	14616.89
814.707	14668.64
815.036	14539.15
815.365	14476.1
815.693	14445.37
816.022	14350
816.351	14469.1
816.68	14301.87
817.008	14401.98
817.337	14241.98
817.665	14128.54
817.994	14297.35
818.322	14264.36
818.651	14119.05
818.979	14151.14
819.307	14235.43
819.636	14167.18
819.964	14069.33
820.292	14173.06
820.62	14053.29
820.948	14056.68
821.276	14078.15
821.604	13962.67
821.932	13975.55
822.259	14084.93
822.587	14042.44
822.915	13993.86
823.243	14015.32
823.57	13946.62
823.898	13913.63
824.225	14031.37
824.553	13941.65
824.88	14002.22
825.207	13994.99
825.535	13897.81
825.862	13967.64
826.189	13928.09
826.516	14011.93
826.843	14017.13
827.17	14025.04
827.497	14052.61
827.824	14002.44
828.151	13925.61
828.478	13941.43
828.805	14035.66
829.131	14004.93
829.458	13913.86
829.785	13867.08
830.111	14022.56
830.438	14026.4
830.764	13923.35
831.09	13931.71
831.417	13889.23
831.743	13861.43
832.069	13942.78
832.395	13832.73
832.722	13962.67
833.048	13869.79
833.374	13856.91
833.7	13778.49
834.026	13886.97
834.351	13856.23
834.677	13740.75
835.003	13857.59
835.329	13790.02
835.654	13815.33
835.98	13728.33
836.306	13766.74
836.631	13643.13
836.956	13753.86
837.282	13722.68
837.607	13661.21
837.932	13632.06
838.258	13717.25
838.583	13533.98
838.908	13537.82
839.233	13490.14
839.558	13433.42
839.883	13472.29
840.208	13376.7
840.533	13410.14
840.858	13441.33
841.182	13410.82
841.507	13345.96
841.832	13330.14
842.156	13345.74
842.481	13196.36
842.805	13278.39
843.13	13230.94
843.454	13189.58
843.778	13177.61
844.103	13094.67
844.427	13056.25
844.751	13009.47
845.075	12965.41
845.399	12994.11
845.723	12911.17
846.047	12952.3
846.371	12826.65
846.695	12846.99
847.019	12716.15
847.343	12693.1
847.666	12601.58
847.99	12661.69
848.313	12584.85
848.637	12494.23
848.96	12430.05
849.284	12463.95
849.607	12336.5
849.931	12316.84
850.254	12225.31
850.577	12159.78
850.9	12136.28
851.223	12011.31
851.546	12096.96
851.869	11960.01
852.192	11991.65
852.515	11853.12
852.838	11915.94
853.161	11813.57
853.483	11799.34
853.806	11726.8
854.129	11763.18
854.451	11761.37
854.774	11579
855.096	11550.76
855.419	11645.67
855.741	11547.14
856.063	11450.42
856.385	11441.38
856.708	11378.33
857.03	11461.72
857.352	11386.92
857.674	11288.84
857.996	11228.05
858.318	11240.71
858.64	11286.58
858.961	11190.77
859.283	11237.09
859.605	11070.32
859.926	11157.09
860.248	11103.99
860.57	11094.95
860.891	11023.76
861.212	10937.89
861.534	10953.48
861.855	10977.89
862.176	10922.75
862.498	10877.1
862.819	10929.75
863.14	10913.71
863.461	10871.68
863.782	10847.05
864.103	10875.75
864.424	10816.31
864.745	10757.78
865.065	10738.8
865.386	10665.81
865.707	10668.29
866.027	10731.34
866.348	10671.91
866.668	10629.65
866.989	10710.55
867.309	10530.22
867.63	10591.23
867.95	10555.3
868.27	10455.64
868.59	10577.9
868.91	10521.63
869.23	10551.01
869.55	10416.55
869.87	10489.09
870.19	10444.12
870.51	10494.74
870.83	10439.15
871.15	10421.97
871.469	10372.93
871.789	10405.93
872.109	10384.46
872.428	10288.19
872.748	10381.75
873.067	10362.54
873.386	10333.61
873.706	10319.6
874.025	10153.05
874.344	10152.83
874.663	10215.42
874.982	10167.74
875.301	10164.8
875.62	10155.99
875.939	10110.79
876.258	10087.52
876.577	10074.41
876.896	10127.74
877.214	10019.95
877.533	10094.3
877.852	10008.65
878.17	10077.57
878.489	10018.59
878.807	10016.78
879.125	9993.96
879.444	9990.12
879.762	9948.54
880.08	9961.19
880.398	9917.35
880.716	9903.34
881.034	9850.91
881.352	9845.26
881.67	9851.37
881.988	9812.95
882.306	9748.77
882.624	9709.45
882.941	9726.4
883.259	9695.21
883.577	9689.11
883.894	9680.52
884.212	9587.87
884.529	9646.85
884.846	9574.31
885.164	9582.45
885.481	9613.18
885.798	9503.13
886.115	9458.38
886.432	9494.09
886.75	9472.84
887.067	9448.66
887.383	9497.7
887.7	9417.25
888.017	9359.85
888.334	9353.75
888.651	9336.35
888.967	9264.49
889.284	9346.07
889.6	9277.14
889.917	9183.81
890.233	9132.74
890.55	9117.15
890.866	9141.33
891.182	9172.06
891.498	9089.8
891.815	9014.1
892.131	9009.13
892.447	8971.84
892.763	8928.45
893.079	8943.82
893.395	8913.08
893.71	8875.35
894.026	8840.32
894.342	8859.07
894.657	8750.6
894.973	8790.15
895.289	8749.02
895.604	8718.51
895.92	8695.46
896.235	8617.27
896.55	8656.59
896.865	8604.39
897.181	8553.09
897.496	8547.22
897.811	8533.21
898.126	8438.75
898.441	8474.23
898.756	8494.56
899.071	8343.16
899.386	8389.03
899.7	8371.63
900.015	8228.81
900.33	8252.54
900.644	8253.22
900.959	8291.41
901.273	8245.53
901.588	8171.18
901.902	8138.19
902.216	8031.3
902.531	8100.68
902.845	8076.5
903.159	8038.98
903.473	7923.96
903.787	7983.39
904.101	7930.74
904.415	7940.68
904.729	7822.94
905.042	7809.61
905.356	7862.72
905.67	7824.75
905.984	7783.17
906.297	7730.74
906.611	7751.31
906.924	7770.29
907.237	7643.74
907.551	7614.81
907.864	7568.94
908.177	7641.71
908.491	7535.04
908.804	7478.77
909.117	7528.04
909.43	7382.96
909.743	7413.01
910.056	7319.23
910.368	7378.44
910.681	7353.13
910.994	7323.52
911.307	7279
911.619	7168.72
911.932	7197.65
912.244	7197.88
912.557	7133.02
912.869	7079.91
913.181	7037.65
913.494	7084.43
913.806	6986.36
914.118	6957.43
914.43	6916.08
914.742	6941.16
915.054	6913.59
915.366	6812.8
915.678	6863.42
915.99	6886.02
916.302	6727.38
916.613	6746.81
916.925	6790.88
917.236	6747.04
917.548	6698
917.859	6685.8
918.171	6643.09
918.482	6569.42
918.794	6580.49
919.105	6576.42
919.416	6485.35
919.727	6515.86
920.038	6483.32
920.349	6392.47
920.66	6382.76
920.971	6461.62
921.282	6399.7
921.593	6300.05
921.903	6265.7
922.214	6291.68
922.525	6251.23
922.835	6202.87
923.146	6181.63
923.456	6206.49
923.767	6142.54
924.077	6136.66
924.387	6075.42
924.697	6051.69
925.008	6043.33
925.318	6033.61
925.628	6007.62
925.938	5984.8
926.248	5936.67
926.558	5854.86
926.867	5926.72
927.177	5880.4
927.487	5805.37
927.796	5830
928.106	5798.82
928.416	5734.19
928.725	5762.43
929.034	5681.31
929.344	5728.76
929.653	5676.33
929.962	5597.92
930.271	5596.34
930.581	5567.64
930.89	5584.81
931.199	5537.13
931.508	5540.74
931.817	5501.65
932.125	5519.28
932.434	5453.29
932.743	5416.23
933.051	5386.4
933.36	5349.11
933.669	5317.7
933.977	5364.7
934.286	5328.09
934.594	5331.48
934.902	5270.24
935.21	5249
935.519	5184.37
935.827	5223.92
936.135	5171.94
936.443	5152.28
936.751	5112.51
937.059	5109.57
937.367	5050.59
937.674	5063.02
937.982	5105.5
938.29	5020.31
938.597	5015.56
938.905	4967.88
939.213	4976.92
939.52	4936.47
939.827	4936.47
940.135	4905.96
940.442	4921.55
940.749	4841.1
941.056	4896.02
941.363	4816.02
941.67	4794.55
941.977	4788.67
942.284	4759.07
942.591	4748.67
942.898	4703.48
943.205	4729.01
943.511	4693.99
943.818	4666.19
944.125	4650.82
944.431	4614.44
944.738	4626.42
945.044	4597.94
945.35	4604.27
945.657	4513.65
945.963	4486.76
946.269	4533.31
946.575	4503.26
946.881	4486.76
947.187	4440.21
947.493	4439.3
947.799	4407.67
948.105	4429.59
948.41	4335.35
948.716	4352.3
949.022	4378.74
949.327	4309.36
949.633	4281.34
949.938	4269.59
950.244	4248.57
950.549	4230.72
950.854	4259.87
951.16	4211.51
951.465	4167.67
951.77	4177.62
952.075	4137.62
952.38	4119.54
952.685	4098.52
952.99	4032.54
953.294	4084.51
953.599	4065.98
953.904	4040.22
954.209	4045.87
954.513	3999.54
954.818	3929.71
955.122	3981.01
955.426	3923.39
955.731	3954.57
956.035	3928.81
956.339	3884.29
956.643	3880.45
956.948	3846.55
957.252	3872.09
957.556	3822.15
957.86	3828.25
958.163	3811.75
958.467	3799.77
958.771	3777.85
959.075	3765.65
959.378	3713.9
959.682	3717.29
959.985	3697.4
960.289	3714.35
960.592	3681.81
960.896	3622.38
961.199	3633.9
961.502	3583.51
961.805	3609.27
962.108	3585.77
962.411	3551.64
962.714	3578.08
963.017	3554.58
963.32	3557.07
963.623	3500.12
963.926	3505.54
964.228	3494.24
964.531	3481.36
964.833	3463.28
965.136	3479.1
965.438	3441.14
965.741	3402.5
966.043	3372.67
966.345	3370.86
966.648	3381.7
966.95	3360.01
967.252	3341.71
967.554	3307.58
967.856	3326.57
968.158	3293.8
968.46	3277.3
968.761	3290.63
969.063	3270.75
969.365	3248.38
969.666	3207.25
969.968	3186
970.269	3200.69
970.571	3202.5
970.872	3153.46
971.174	3122.05
971.475	3162.28
971.776	3116.18
972.077	3091.99
972.378	3097.64
972.679	3057.42
972.98	3077.31
973.281	3066.23
973.582	3077.98
973.883	3046.12
974.183	3021.94
974.484	3011.55
974.785	2979.91
975.085	2943.3
975.386	2965.67
975.686	2964.54
975.986	2955.5
976.287	2960.7
976.587	2897.88
976.887	2869.4
977.187	2902.85
977.487	2903.53
977.787	2874.15
978.087	2861.49
978.387	2810.19
978.687	2831.89
978.987	2766.13
979.286	2772
979.586	2788.05
979.885	2780.36
980.185	2778.56
980.484	2781.95
980.784	2738.11
981.083	2709.18
981.382	2740.59
981.682	2709.18
981.981	2694.94
982.28	2714.6
982.579	2671.22
982.878	2662.18
983.177	2645.68
983.475	2650.65
983.774	2631.89
984.073	2603.65
984.372	2603.19
984.67	2562.52
984.969	2628.5
985.267	2550.31
985.566	2551.44
985.864	2542.18
986.162	2518.45
986.461	2536.3
986.759	2532.69
987.057	2507.83
987.355	2506.93
987.653	2485.23
987.951	2434.61
988.249	2428.96
988.547	2442.75
988.844	2447.72
989.142	2419.92
989.44	2385.8
989.737	2384.44
990.035	2360.04
990.332	2379.7
990.63	2339.02
990.927	2335.4
991.224	2328.85
991.521	2296.08
991.819	2325.01
992.116	2287.27
992.413	2273.49
992.71	2289.98
993.006	2323.88
993.303	2294.28
993.6	2254.28
993.897	2262.64
994.193	2235.52
994.49	2222.87
994.787	2211.34
995.083	2194.39
995.379	2200.72
995.676	2220.61
995.972	2207.5
996.268	2172.7
996.565	2134.05
996.861	2147.61
997.157	2158.01
997.453	2088.41
997.749	2078.91
998.044	2086.37
998.34	2095.86
998.636	2079.59
998.932	2071
999.227	2069.87
999.523	1978.35
999.818	2036.66
1000.114	2016.77
1000.409	2004.34
1000.704	1972.02
1001	1993.49
1001.295	1965.92
1001.59	1976.09
1001.885	1953.04
1002.18	1943.78
1002.475	1931.8
1002.77	1903.33
1003.065	1910.33
1003.359	1885.02
1003.654	1901.74
1003.949	1882.99
1004.243	1870.33
1004.538	1843.44
1004.832	1855.19
1005.127	1843.89
1005.421	1832.37
1005.715	1817.68
1006.009	1839.15
1006.304	1819.26
1006.598	1800.05
1006.892	1787.85
1007.186	1787.17
1007.48	1772.03
1007.773	1760.96
1008.067	1731.58
1008.361	1704.23
1008.655	1703.1
1008.948	1721.18
1009.242	1713.05
1009.535	1705.82
1009.829	1708.75
1010.122	1665.37
1010.415	1673.5
1010.708	1659.04
1011.001	1640.28
1011.295	1660.39
1011.588	1610.68
1011.881	1634.63
1012.173	1612.71
1012.466	1613.84
1012.759	1605.03
1013.052	1601.86
1013.344	1598.47
1013.637	1582.43
1013.93	1564.8
1014.222	1528.42
1014.514	1530.91
1014.807	1503.79
1015.099	1530.91
1015.391	1515.54
1015.683	1511.25
1015.976	1511.92
1016.268	1466.05
1016.56	1475.99
1016.851	1497.69
1017.143	1439.16
1017.435	1441.64
1017.727	1435.54
1018.018	1441.42
1018.31	1473.28
1018.602	1424.02
1018.893	1391.7
1019.185	1381.08
1019.476	1377.69
1019.767	1392.6
1020.058	1373.17
1020.35	1350.12
1020.641	1356.45
1020.932	1338.37
1021.223	1328.88
1021.514	1304.25
1021.804	1314.87
1022.095	1316
1022.386	1287.75
1022.677	1313.74
1022.967	1272.38
1023.258	1261.76
1023.548	1283.91
1023.839	1242.1
1024.129	1254.98
1024.419	1261.08
1024.709	1241.2
1025	1247.75
1025.29	1197.81
1025.58	1213.17
1025.87	1194.87
1026.16	1197.36
1026.449	1202.1
1026.739	1185.15
1027.029	1169.33
1027.319	1156.23
1027.608	1174.31
1027.898	1141.54
1028.187	1154.87
1028.477	1161.88
1028.766	1131.14
1029.055	1111.26
1029.344	1136.57
1029.634	1114.42
1029.923	1089.34
1030.212	1099.73
1030.501	1089.79
1030.79	1065.16
1031.078	1081.2
1031.367	1054.53
1031.656	1056.34
1031.945	1053.63
1032.233	1021.54
1032.522	1060.41
1032.81	1038.04
1033.099	1016.8
1033.387	1015.21
1033.675	1003.69
1033.963	1021.09
1034.251	990.13
1034.54	998.04
1034.828	1010.47
1035.116	980.86
1035.403	978.83
1035.691	998.49
1035.979	984.93
1036.267	971.15
1036.554	944.48
1036.842	981.99
1037.129	931.37
1037.417	957.81
1037.704	953.75
1037.992	921.88
1038.279	904.03
1038.566	929.79
1038.853	929.79
1039.14	929.79
