Data from hue_24_FLMS001491_00088.txt Node
Date: Tue Feb 07 17:12:53 GMT 2017
User: dcchb
Spectrometer: FLMS00149
Trigger mode: 0
Integration Time (sec): 2.000000E-2
Scans to average: 10
Electric dark correction enabled: true
Nonlinearity correction enabled: false
Boxcar width: 0
XAxis mode: Wavelengths
Number of Pixels in Spectrum: 2048
>>>>>Begin Spectral Data<<<<<
341.393	-17.99
341.776	-17.99
342.16	-17.99
342.543	-70.87
342.927	-75.17
343.31	-88.95
343.693	-63.87
344.077	-58.9
344.46	-50.54
344.843	-69.74
345.226	-61.16
345.61	-40.59
345.993	-26.36
346.376	6.19
346.759	10.48
347.142	24.04
347.525	41.21
347.908	75.79
348.291	67.43
348.674	116.69
349.057	118.27
349.44	140.87
349.823	135.22
350.206	151.72
350.588	180.64
350.971	204.15
351.354	218.16
351.737	251.15
352.119	227.42
352.502	279.63
352.884	264.71
353.267	276.46
353.65	299.96
354.032	307.65
354.414	319.4
354.797	313.52
355.179	301.32
355.562	319.17
355.944	339.51
356.326	334.09
356.709	318.04
357.091	306.74
357.473	347.87
357.855	329.12
358.238	359.17
358.62	344.71
359.002	332.05
359.384	340.87
359.766	325.73
360.148	324.82
360.53	349.91
360.912	333.41
361.294	347.87
361.676	332.73
362.057	334.77
362.439	322.11
362.821	314.43
363.203	350.13
363.584	328.89
363.966	332.73
364.348	308.78
364.729	325.95
365.111	318.27
365.493	334.54
365.874	304.26
366.256	325.5
366.637	314.43
367.019	319.85
367.4	334.99
367.781	315.1
368.163	332.51
368.544	316.69
368.925	327.08
369.306	325.73
369.688	307.65
370.069	305.84
370.45	327.53
370.831	310.81
371.212	290.25
371.593	309.91
371.974	333.86
372.355	315.1
372.736	320.98
373.117	330.47
373.498	323.47
373.879	334.77
374.26	307.65
374.641	314.88
375.021	309.68
375.402	314.65
375.783	325.73
376.163	319.17
376.544	326.63
376.925	329.57
377.305	316.46
377.686	313.97
378.066	329.34
378.447	337.93
378.827	337.93
379.208	322.56
379.588	327.31
379.968	328.89
380.349	341.09
380.729	328.44
381.109	333.18
381.489	328.21
381.87	327.31
382.25	325.5
382.63	332.73
383.01	334.77
383.39	339.96
383.77	333.18
384.15	334.77
384.53	323.47
384.91	342.22
385.29	330.92
385.67	337.48
386.049	352.39
386.429	345.84
386.809	339.51
387.189	334.77
387.568	374.09
387.948	331.38
388.328	338.38
388.707	358.72
389.087	350.81
389.466	364.37
389.846	361.66
390.225	363.47
390.605	383.58
390.984	410.7
391.363	372.5
391.743	365.05
392.122	355.56
392.501	368.21
392.881	360.75
393.26	375.44
393.639	401.88
394.018	386.29
394.397	361.66
394.776	389
395.155	381.54
395.534	389.45
395.913	381.54
396.292	411.15
396.671	388.1
397.05	382.22
397.429	397.59
397.808	393.29
398.186	400.07
398.565	378.15
398.944	399.17
399.323	392.84
399.701	391.26
400.08	396.23
400.458	399.4
400.837	380.64
401.215	400.07
401.594	391.71
401.972	423.12
402.351	411.37
402.729	396.01
403.107	400.07
403.486	397.36
403.864	414.54
404.242	413.63
404.62	414.99
404.999	416.12
405.377	398.27
405.755	426.51
406.133	442.56
406.511	418.15
406.889	440.53
407.267	416.12
407.645	429.23
408.023	428.32
408.401	438.49
408.779	425.84
409.156	461.09
409.534	430.36
409.912	448.21
410.29	461.32
410.667	463.58
411.045	478.72
411.422	459.96
411.8	455.44
412.178	480.3
412.555	478.94
412.933	477.59
413.31	473.29
413.687	484.37
414.065	476.91
414.442	497.7
414.819	489.34
415.197	494.76
415.574	509.45
415.951	501.31
416.328	482.11
416.705	514.42
417.082	505.83
417.46	510.81
417.837	509.68
418.214	507.19
418.591	504.93
418.967	521.2
419.344	532.5
419.721	533.18
420.098	522.78
420.475	559.17
420.852	522.78
421.228	547.64
421.605	535.21
421.982	540.41
422.358	551.03
422.735	553.06
423.111	560.3
423.488	581.76
423.864	582.44
424.241	568.66
424.617	571.14
424.994	538.15
425.37	575.21
425.746	571.82
426.123	592.16
426.499	577.47
426.875	596.91
427.251	583.12
427.627	596
428.003	601.2
428.379	603.01
428.756	607.3
429.132	600.97
429.507	630.8
429.883	614.98
430.259	639.39
430.635	656.79
431.011	639.16
431.387	659.28
431.763	684.13
432.138	653.85
432.514	686.62
432.89	663.57
433.265	660.63
433.641	689.33
434.016	668.99
434.392	700.18
434.767	700.41
435.143	695.21
435.518	728.43
435.894	728.43
436.269	701.08
436.644	733.85
437.02	741.08
437.395	712.38
437.77	740.86
438.145	749.67
438.52	743.34
438.895	776.11
439.271	760.29
439.646	771.82
440.021	763.91
440.395	767.07
440.77	759.84
441.145	774.3
441.52	788.54
441.895	771.82
442.27	799.39
442.645	800.97
443.019	816.79
443.394	808.43
443.769	797.35
444.143	829.22
444.518	800.29
444.892	836.9
445.267	819.27
445.641	824.24
446.016	833.51
446.39	819.27
446.764	860.18
447.139	852.72
447.513	849.33
447.887	856.33
448.262	865.37
448.636	878.48
449.01	895.43
449.384	897.46
449.758	886.84
450.132	878.71
450.506	889.55
450.88	911.7
451.254	921.64
451.628	922.77
452.002	911.93
452.376	955.09
452.75	929.1
453.123	931.59
453.497	972.04
453.871	975.2
454.244	993.05
454.618	1005.03
454.992	979.49
455.365	962.77
455.739	991.25
456.112	1033.28
456.486	1026.27
456.859	1050
457.232	1050.45
457.606	1027.18
457.979	1073.95
458.352	1081.41
458.725	1127.74
459.099	1128.87
459.472	1124.8
459.845	1145.37
460.218	1116.89
460.591	1131.58
460.964	1155.53
461.337	1193.73
461.71	1161.64
462.083	1209.32
462.456	1194.4
462.829	1220.17
463.201	1212.71
463.574	1243.67
463.947	1240.73
464.32	1277.11
464.692	1278.24
465.065	1295.64
465.438	1292.93
465.81	1345.36
466.183	1337.22
466.555	1352.82
466.928	1371.35
467.3	1364.57
467.672	1402.31
468.045	1460.61
468.417	1417.45
468.789	1442.53
469.161	1457.22
469.534	1475.53
469.906	1528.63
470.278	1542.87
470.65	1531.8
471.022	1581.06
471.394	1601.85
471.766	1616.54
472.138	1642.53
472.51	1633.94
472.882	1716.65
473.253	1724.33
473.625	1714.62
473.997	1753.26
474.369	1777.44
474.74	1780.83
475.112	1841.84
475.484	1880.26
475.855	1885.23
476.227	1956.64
476.598	1979.92
476.97	1981.73
477.341	2056.53
477.713	2075.51
478.084	2084.1
478.455	2127.94
478.827	2176.75
479.198	2214.04
479.569	2245.45
479.94	2307.82
480.311	2335.62
480.682	2444.09
481.053	2457.87
481.424	2471.66
481.795	2527.48
482.166	2590.07
482.537	2622.39
482.908	2649.05
483.279	2709.39
483.65	2751.2
484.021	2789.84
484.391	2858.09
484.762	2906.67
485.133	2924.3
485.503	2993.68
485.874	3059.89
486.244	3074.81
486.615	3157.74
486.985	3159.1
487.356	3259.66
487.726	3261.24
488.097	3394.57
488.467	3392.76
488.837	3478.41
489.207	3488.58
489.578	3567.22
489.948	3609.93
490.318	3666.88
490.688	3719.31
491.058	3744.85
491.428	3832.53
491.798	3849.25
492.168	3950.26
492.538	3954.11
492.908	4033.65
493.278	4096.25
493.648	4115.91
494.017	4121.33
494.387	4218.05
494.757	4229.8
495.126	4244.04
495.496	4304.83
495.866	4349.57
496.235	4419.18
496.605	4425.73
496.974	4442
497.344	4504.15
497.713	4527.2
498.082	4609
498.452	4651.71
498.821	4647.19
499.19	4655.33
499.559	4752.5
499.928	4741.2
500.298	4801.77
500.667	4825.95
501.036	4840.86
501.405	4865.72
501.774	4933.51
502.143	4968.77
502.512	4951.37
502.88	5065.49
503.249	5032.27
503.618	5089.89
503.987	5118.82
504.356	5126.28
504.724	5182.77
505.093	5209.44
505.462	5206.5
505.83	5266.84
506.199	5283.11
506.567	5292.6
506.936	5337.8
507.304	5385.71
507.672	5424.8
508.041	5428.87
508.409	5508.41
508.777	5500.05
509.145	5538.47
509.514	5506.38
509.882	5596.55
510.25	5601.07
510.618	5634.29
510.986	5627.28
511.354	5681.74
511.722	5733.27
512.09	5787.73
512.458	5804.9
512.826	5815.98
513.193	5827.28
513.561	5806.94
513.929	5901.62
514.297	5880.38
514.664	5992.7
515.032	5983.88
515.4	6008.74
515.767	6000.38
516.135	6102.52
516.502	6081.28
516.869	6126.93
517.237	6144.56
517.604	6149.98
517.972	6192.92
518.339	6207.83
518.706	6231.11
519.073	6269.98
519.44	6256.64
519.808	6287.15
520.175	6317.43
520.542	6390.43
520.909	6387.94
521.276	6399.01
521.643	6503.42
522.009	6510.65
522.376	6550.42
522.743	6582.28
523.11	6557.43
523.477	6687.14
523.843	6691.66
524.21	6733.92
524.577	6789.51
524.943	6805.1
525.31	6842.62
525.676	6883.75
526.043	6951.54
526.409	6974.14
526.776	6975.72
527.142	7038.09
527.508	7051.88
527.874	7141.37
528.241	7170.29
528.607	7193.79
528.973	7248.48
529.339	7292.1
529.705	7320.8
530.071	7356.28
530.437	7402.6
530.803	7399.21
531.169	7467.46
531.535	7446.67
531.901	7521.02
532.267	7547.91
532.632	7526.21
532.998	7625.87
533.364	7617.06
533.73	7712.88
534.095	7674.69
534.461	7695.93
534.826	7820.44
535.192	7820.44
535.557	7830.61
535.923	7821.8
536.288	7939.31
536.653	8005.52
537.019	7944.06
537.384	8000.78
537.749	8034
538.114	8069.48
538.479	8048.69
538.845	8165.75
539.21	8109.02
539.575	8188.8
539.94	8202.35
540.305	8195.35
540.67	8273.54
541.034	8298.4
541.399	8336.36
541.764	8419.98
542.129	8410.49
542.494	8428.34
542.858	8471.5
543.223	8503.36
543.587	8534.32
543.952	8499.97
544.316	8592.18
544.681	8593.53
545.045	8607.77
545.41	8680.76
545.774	8685.73
546.138	8664.26
546.503	8762.11
546.867	8782.68
547.231	8909.23
547.595	8834.88
547.959	8891.38
548.324	8917.14
548.688	8940.41
549.052	8926.4
549.416	8996.68
549.779	9054.54
550.143	9018.83
550.507	9102.22
550.871	9095.21
551.235	9154.65
551.599	9239.62
551.962	9285.49
552.326	9238.26
552.689	9279.61
553.053	9258.6
553.417	9266.06
553.78	9424.7
554.143	9403
554.507	9357.35
554.87	9469.67
555.234	9501.08
555.597	9546.27
555.96	9540.62
556.323	9559.61
556.686	9621.98
557.05	9736.33
557.413	9683.22
557.776	9727.29
558.139	9794.18
558.502	9748.53
558.865	9800.73
559.228	9881.41
559.59	9853.61
559.953	9884.8
560.316	9958.02
560.679	10013.38
561.041	10073.94
561.404	10072.14
561.767	10153.72
562.129	10108.29
562.492	10196.65
562.854	10209.08
563.217	10151
563.579	10226.48
563.941	10290.21
564.304	10258.35
564.666	10418.79
565.028	10421.73
565.39	10459.92
565.753	10461.05
566.115	10520.26
566.477	10625.34
566.839	10592.8
567.201	10623.76
567.563	10651.56
567.925	10750.76
568.287	10746.47
568.648	10834.15
569.01	10867.6
569.372	10938.1
569.734	10914.15
570.095	10940.59
570.457	11070.98
570.819	11037.99
571.18	11028.04
571.542	11133.58
571.903	11166.34
572.265	11283.4
572.626	11287.02
572.987	11311.2
573.349	11487.01
573.71	11444.3
574.071	11456.28
574.432	11543.96
574.794	11628.25
575.155	11650.17
575.516	11628.03
575.877	11866.44
576.238	11858.76
576.599	11892.43
576.96	11997.96
577.32	12094
577.681	12233.66
578.042	12202.7
578.403	12375.13
578.763	12362.92
579.124	12508.23
579.485	12620.32
579.845	12769.69
580.206	12818.5
580.566	12990.93
580.927	13118.84
581.287	13298.72
581.648	13298.49
582.008	13452.16
582.368	13565.15
582.728	13792.49
583.089	13809.67
583.449	14016.67
583.809	14150.45
584.169	14441.74
584.529	14496.2
584.889	14790.88
585.249	14873.82
585.609	15025.9
585.969	15376.18
586.329	15554.25
586.688	15758.99
587.048	15992.21
587.408	16145.65
587.768	16376.83
588.127	16567.33
588.487	16870.38
588.846	17191.05
589.206	17252.96
589.565	17478.04
589.925	17938.14
590.284	18065.15
590.643	18406.61
591.003	18684.11
591.362	18972.02
591.721	19229.64
592.08	19541.72
592.44	19923.4
592.799	20024.64
593.158	20350.06
593.517	20655.13
593.876	20976.48
594.235	21152.52
594.593	21632.74
594.952	21917.47
595.311	22038.83
595.67	22431.36
596.029	22903.44
596.387	23240.15
596.746	23472.46
597.104	23799.91
597.463	24033.35
597.822	24320.12
598.18	24547.01
598.538	24926.43
598.897	25401.9
599.255	25462.01
599.613	26189.45
599.972	26200.53
600.33	26505.38
600.688	26751.7
601.046	27229.65
601.404	27584.67
601.762	27788.51
602.12	28180.59
602.478	28413.57
602.836	28682.04
603.194	28842.94
603.552	29217.62
603.91	29422.59
604.268	29757.27
604.625	29973.53
604.983	30424.6
605.341	30409.45
605.698	30832.72
606.056	31268.64
606.413	31490.56
606.771	31842.41
607.128	32009.19
607.485	32156.53
607.843	32455.95
608.2	32887.81
608.557	33170.06
608.914	33147.46
609.272	33507.68
609.629	33834.9
609.986	34278.73
610.343	34163.03
610.7	34558.95
611.057	34754.43
611.414	34900.18
611.771	35092.04
612.127	35386.05
612.484	35698.58
612.841	35798.24
613.198	36015.18
613.554	36254.27
613.911	36643.64
614.267	36642.96
614.624	36858.1
614.98	37073.46
615.337	37380.8
615.693	37430.51
616.05	37601.58
616.406	38048.8
616.762	37835.7
617.118	38106.65
617.475	38361.79
617.831	38490.6
618.187	38527.66
618.543	38807.88
618.899	39187.75
619.255	39205.16
619.611	39279.5
619.967	39487.86
620.323	39627.52
620.678	39647.86
621.034	39649.44
621.39	39768.53
621.746	39820.51
622.101	40465.24
622.457	40196.32
622.812	40485.12
623.168	40635.85
623.523	40635.85
623.879	40882.17
624.234	40707.49
624.589	40849.63
624.945	41020.48
625.3	41033.13
625.655	41264.31
626.01	41184.09
626.365	41282.84
626.72	41326.46
627.075	41419.79
627.43	41476.06
627.785	41432.89
628.14	41581.36
628.495	41758.76
628.85	41767.12
629.205	41656.62
629.559	41955.82
629.914	41817.97
630.269	41968.7
630.623	41870.17
630.978	41798.31
631.332	42039.66
631.687	42326.66
632.041	42111.52
632.396	42190.84
632.75	41957.17
633.104	42123.27
633.459	42098.86
633.813	42081.92
634.167	42123.72
634.521	42286.43
634.875	42235.81
635.229	42165.76
635.583	41923.5
635.937	42156.72
636.291	42165.76
636.645	42227.22
636.999	42016.61
637.352	42241.91
637.706	42100.22
638.06	42303.61
638.413	42168.92
638.767	42036.49
639.121	42080.11
639.474	41957.63
639.828	42011.86
640.181	42064.06
640.534	42223.61
640.888	42049.37
641.241	41872.88
641.594	42050.28
641.947	42091.41
642.301	41999.66
642.654	42190.16
643.007	42031.75
643.36	42071.07
643.713	41953.11
644.066	42204.4
644.419	42070.62
644.771	41714.92
645.124	41338.21
645.477	41309.06
645.83	41039.23
646.182	40965.34
646.535	40794.72
646.888	40975.73
647.24	40672.91
647.593	41100.92
647.945	40948.61
648.298	40733.48
648.65	40730.09
649.002	40628.85
649.355	40819.8
649.707	40774.83
650.059	40898.9
650.411	41369.84
650.763	41353.8
651.115	41903.84
651.467	41737.29
651.819	41763.73
652.171	41611.42
652.523	41473.12
652.875	41588.14
653.227	41321.71
653.578	41655.71
653.93	41541.82
654.282	41495.26
654.633	41434.93
654.985	41380.47
655.337	41517.64
655.688	41499.33
656.039	41754.69
656.391	41294.82
656.742	41460.69
657.094	41340.69
657.445	41525.55
657.796	41300.24
658.147	41195.61
658.498	41361.94
658.849	41492.33
659.2	41370.07
659.551	41164.43
659.902	41345.66
660.253	41248.27
660.604	41380.69
660.955	41013.92
661.306	41373.23
661.656	41375.72
662.007	41217.76
662.358	41333.69
662.708	41215.5
663.059	41370.3
663.409	41152
663.76	41396.74
664.11	41374.14
664.461	41278.55
664.811	41380.47
665.161	41127.14
665.511	41143.64
665.862	41155.84
666.212	41294.59
666.562	41397.64
666.912	41236.74
667.262	41098.89
667.612	41135.27
667.962	41208.49
668.312	41166.46
668.662	41109.29
669.011	41154.26
669.361	41078.55
669.711	41105.22
670.06	41029.06
670.41	41104.99
670.76	40898.44
671.109	40953.81
671.459	40998.55
671.808	40930.53
672.157	41048.27
672.507	40851.21
672.856	40795.4
673.205	40881.72
673.554	40994.04
673.904	40860.48
674.253	41032.9
674.602	40806.92
674.951	40436.31
675.3	40188.86
675.649	40887.6
675.998	40865.45
676.346	40770.54
676.695	40876.07
677.044	40639.92
677.393	40731.9
677.741	40763.98
678.09	40642.63
678.438	40587.94
678.787	40646.7
679.135	40706.36
679.484	40365.35
679.832	40526.7
680.181	40270.44
680.529	40547.95
680.877	40282.42
681.225	40306.6
681.573	40486.03
681.922	40096.66
682.27	39979.37
682.618	40173.94
682.966	40003.55
683.314	40138.69
683.661	39856.21
684.009	39777.34
684.357	39780.73
684.705	39801.3
685.053	39750.9
685.4	39608.76
685.748	39639.49
686.095	39488.76
686.443	39425.94
686.79	39313.18
687.138	39528.99
687.485	39388.43
687.832	39234.31
688.18	39303.23
688.527	39289.45
688.874	38990.92
689.221	39139.17
689.568	38775.79
689.915	38871.15
690.262	38868.22
690.609	38704.38
690.956	38658.05
691.303	38641.1
691.65	38360.21
691.997	38401.11
692.344	38282.02
692.69	38140.1
693.037	38221.45
693.383	37906.21
693.73	37941.91
694.077	37938.52
694.423	37822.14
694.769	37687.46
695.116	37615.14
695.462	37411.98
695.808	37380.34
696.155	37477.29
696.501	37181.03
696.847	37109.39
697.193	36847.48
697.539	37089.05
697.885	36806.8
698.231	36729.74
698.577	36659.91
698.923	36666.24
699.269	36519.8
699.614	36325.91
699.96	36320.94
700.306	36298.11
700.651	36057.44
700.997	36006.37
701.342	35998.69
701.688	35906.26
702.033	35731.8
702.379	35809.09
702.724	35674.63
703.069	35760.05
703.415	35270.57
703.76	35371.13
704.105	35400.51
704.45	35339.27
704.795	35155.32
705.14	35050.46
705.485	35213.62
705.83	34846.17
706.175	35027.86
706.52	34854.54
706.865	34670.81
707.209	34705.84
707.554	34636.24
707.899	34577.71
708.243	34387.66
708.588	34365.96
708.932	34061.11
709.277	34157.38
709.621	34169.13
709.966	33817.5
710.31	34021.34
710.654	33720.78
710.998	33704.06
711.342	33697.28
711.687	33640.78
712.031	33587.68
712.375	33420.67
712.719	33526.89
713.063	33412.77
713.407	33357.17
713.75	33339.55
714.094	33242.6
714.438	33015.94
714.782	33150.4
715.125	32875.38
715.469	32992.44
715.812	32767.81
716.156	32615.5
716.499	32628.61
716.843	32614.82
717.186	32514.03
717.53	32658.89
717.873	32617.76
718.216	32467.71
718.559	32527.82
718.902	32165.34
719.246	32406.24
719.589	32225.23
719.932	32136.41
720.275	32078.11
720.617	31967.83
720.96	32129.41
721.303	31990.2
721.646	31988.4
721.989	31863.88
722.331	31959.02
722.674	31825.24
723.016	31816.42
723.359	31641.29
723.701	31779.36
724.044	31447.17
724.386	31367.4
724.729	31557.67
725.071	31421.86
725.413	31455.53
725.755	31268.42
726.097	31295.31
726.439	31128.53
726.782	31089.21
727.124	31133.73
727.465	31066.61
727.807	31090.57
728.149	30971.02
728.491	30947.07
728.833	30926.73
729.175	30729.22
729.516	30759.5
729.858	30639.51
730.199	30780.52
730.541	30655.78
730.882	30669.33
731.224	30669.11
731.565	30523.35
731.906	30367.87
732.248	30537.13
732.589	30269.35
732.93	30376.01
733.271	30389.12
733.612	30374.2
733.953	30270.93
734.294	30110.48
734.635	30124.04
734.976	30151.83
735.317	29888.79
735.658	30062.8
735.999	30031.84
736.339	29950.94
736.68	30003.59
737.021	29878.85
737.361	29771.51
737.702	29872.29
738.042	29830.71
738.383	29665.07
738.723	29818.96
739.063	29670.49
739.404	29628.46
739.744	29558.4
740.084	29413.32
740.424	29589.14
740.764	29550.49
741.104	29584.62
741.444	29445.19
741.784	29226.43
742.124	29316.38
742.464	29278.41
742.804	29255.36
743.143	29230.5
743.483	29207.9
743.823	29039.32
744.162	29095.14
744.502	29082.71
744.841	29115.48
745.181	29198.41
745.52	28905.99
745.86	29016.72
746.199	28958.19
746.538	28921.81
746.877	28944.63
747.216	28858.08
747.556	28828.93
747.895	28816.73
748.234	28678.2
748.573	28592.55
748.911	28496.96
749.25	28595.72
749.589	28456.29
749.928	28458.77
750.267	28451.09
750.605	28443.4
750.944	28361.6
751.283	28411.77
751.621	28400.69
751.96	28179.91
752.298	28070.76
752.636	28139.01
752.975	27971.1
753.313	27985.34
753.651	28026.47
753.989	27857.21
754.327	27814.04
754.666	27723.2
755.004	27810.43
755.342	27763.65
755.679	27740.6
756.017	27538.57
756.355	27643.2
756.693	27470.55
757.031	27418.12
757.368	27325.92
757.706	27395.3
758.044	27213.38
758.381	27257.9
758.719	27200.5
759.056	27174.06
759.394	27135.87
759.731	26835.09
760.068	26741.75
760.405	26753.51
760.743	26747.63
761.08	26777.91
761.417	26695.2
761.754	26593.96
762.091	26621.08
762.428	26435.1
762.765	26258.83
763.102	26397.58
763.438	26265.61
763.775	26198.27
764.112	26182
764.449	26200.07
764.785	26038.04
765.122	25845.73
765.458	25771.84
765.795	25789.69
766.131	25801.67
766.467	25535.91
766.804	25480.32
767.14	25391.96
767.476	25453.88
767.812	25279.65
768.148	25159.65
768.485	25124.62
768.821	24972.31
769.157	24994
769.492	24898.19
769.828	24818.87
770.164	24612.77
770.5	24484.86
770.836	24613.9
771.171	24425.88
771.507	24434.92
771.842	24166.45
772.178	24128.26
772.513	23990.64
772.849	24075.38
773.184	23899.12
773.519	23977.31
773.855	23801.27
774.19	23744.09
774.525	23720.14
774.86	23665.45
775.195	23601.05
775.53	23446.93
775.865	23339.58
776.2	23181.17
776.535	22995.19
776.87	23054.62
777.205	22997.45
777.539	22811.24
777.874	23016.43
778.209	22737.57
778.543	22639.49
778.878	22464.58
779.212	22498.25
779.547	22414.41
779.881	22434.07
780.215	22260.29
780.55	22331.47
780.884	22126.96
781.218	22118.83
781.552	22095.1
781.886	21846.06
782.22	21802.9
782.554	21817.36
782.888	21588.67
783.222	21576.24
783.556	21455.57
783.889	21339.18
784.223	21228.45
784.557	21159.3
784.89	21202.47
785.224	20974
785.557	20835.92
785.891	20892.87
786.224	20853.55
786.558	20832.08
786.891	20594.12
787.224	20530.17
787.557	20501.69
787.891	20465.99
788.224	20532.43
788.557	20432.32
788.89	20361.81
789.223	20467.8
789.556	20146.22
789.888	20114.81
790.221	20152.32
790.554	19925.89
790.887	19958.88
791.219	19839.79
791.552	19736.51
791.884	19602.73
792.217	19685.44
792.549	19427.14
792.882	19478.89
793.214	19418.11
793.546	19342.4
793.879	19293.59
794.211	19150.99
794.543	19239.35
794.875	19137.89
795.207	19203.65
795.539	19091.79
795.871	19021.51
796.203	18850.66
796.535	18790.78
796.867	18815.18
797.198	18822.19
797.53	18597.79
797.862	18565.92
798.193	18609.09
798.525	18376.1
798.856	18482.08
799.188	18303.11
799.519	18212.94
799.85	18061.53
800.182	18158.03
800.513	18107.18
800.844	17966.17
801.175	18061.3
801.506	17930.69
801.837	17876.45
802.168	17841.88
802.499	17811.59
802.83	17717.58
803.161	17597.36
803.491	17700.64
803.822	17630.58
804.153	17480.76
804.483	17422.23
804.814	17307.88
805.145	17313.08
805.475	17306.75
805.805	17304.04
806.136	17229.46
806.466	17244.15
806.796	17224.26
807.126	17034.21
807.457	16947.21
807.787	17011.39
808.117	16900.66
808.447	16770.49
808.777	16893.65
809.107	16729.14
809.436	16744.96
809.766	16662.25
810.096	16581.8
810.426	16517.39
810.755	16632.87
811.085	16491.4
811.414	16397.62
811.744	16340.22
812.073	16323.95
812.403	16332.99
812.732	16231.07
813.061	16260.9
813.39	16130.06
813.719	16024.52
814.049	16181.81
814.378	16014.8
814.707	16052.77
815.036	15996.27
815.365	15960.8
815.693	15755.83
816.022	15840.12
816.351	15769.61
816.68	15735.26
817.008	15735.04
817.337	15569.62
817.665	15552.22
817.994	15515.38
818.322	15497.76
818.651	15472.9
818.979	15389.51
819.307	15477.64
819.636	15356.29
819.964	15341.15
820.292	15368.27
820.62	15355.39
820.948	15266.35
821.276	15383.41
821.604	15312.9
821.932	15391.32
822.259	15332.56
822.587	15236.75
822.915	15260.93
823.243	15231.77
823.57	15129.4
823.898	15218.67
824.225	15262.96
824.553	15106.13
824.88	15222.96
825.207	15162.85
825.535	15208.5
825.862	15149.52
826.189	15056.86
826.516	15247.14
826.843	15189.97
827.17	15255.05
827.497	15232
827.824	15232
828.151	15271.55
828.478	15172.12
828.805	15232
829.131	15194.71
829.458	15219.12
829.785	15040.59
830.111	15163.53
830.438	15322.85
830.764	15222.74
831.09	15094.83
831.417	15098.67
831.743	15141.83
832.069	15099.35
832.395	15049.63
832.722	15097.09
833.048	15045.11
833.374	15056.86
833.7	14956.53
834.026	14993.59
834.351	15032.46
834.677	14956.53
835.003	15001.5
835.329	14999.92
835.654	14954.72
835.98	14887.15
836.306	14802.18
836.631	14817.1
836.956	15005.34
837.282	14866.81
837.607	14760.83
837.932	14676.99
838.258	14770.09
838.583	14706.82
838.908	14706.82
839.233	14712.69
839.558	14686.25
839.883	14621.85
840.208	14629.53
840.533	14504.34
840.858	14659.36
841.182	14561.74
841.507	14500.72
841.832	14432.02
842.156	14472.47
842.481	14469.08
842.805	14426.6
843.13	14349.76
843.454	14338.69
843.778	14286.71
844.103	14188.19
844.427	14174.4
844.751	14226.15
845.075	14128.98
845.399	14202.88
845.723	14025.93
846.047	14061.41
846.371	13992.26
846.695	13940.96
847.019	13798.82
847.343	13743.68
847.666	13765.6
847.99	13654.19
848.313	13582.33
848.637	13430.47
848.96	13546.17
849.284	13413.07
849.607	13355.44
849.931	13421.88
850.254	13236.35
850.577	13188.89
850.9	13140.53
851.223	13110.25
851.546	13050.59
851.869	12949.12
852.192	13053.07
852.515	12879.97
852.838	12850.59
853.161	12800.2
853.483	12785.96
853.806	12760.2
854.129	12668.45
854.451	12583.93
854.774	12631.84
855.096	12549.13
855.419	12555.91
855.741	12517.27
856.063	12422.13
856.385	12370.38
856.708	12299.65
857.03	12277.95
857.352	12222.81
857.674	12220.33
857.996	12168.8
858.318	12120.67
858.64	12189.82
858.961	12132.2
859.283	12039.99
859.605	12034.12
859.926	11963.39
860.248	11990.28
860.57	11979.2
860.891	11901.92
861.212	11894.46
861.534	11919.09
861.855	11755.93
862.176	11843.16
862.498	11809.72
862.819	11795.93
863.14	11737.86
863.461	11724.07
863.782	11626.9
864.103	11684.07
864.424	11627.8
864.745	11678.87
865.065	11588.03
865.386	11562.04
865.707	11550.52
866.027	11576.96
866.348	11480.46
866.668	11495.38
866.989	11454.25
867.309	11370.86
867.63	11420.35
867.95	11377.64
868.27	11362.27
868.59	11405.66
868.91	11346
869.23	11307.36
869.55	11145.33
869.87	11240.47
870.19	11254.7
870.51	11242.73
870.83	11283.18
871.15	11279.11
871.469	11215.84
871.789	11214.48
872.109	11137.42
872.428	11099
872.748	11135.84
873.067	11070.53
873.386	11110.75
873.706	11068.49
874.025	10977.42
874.344	11027.14
874.663	11042.28
874.982	10958.89
875.301	10991.66
875.62	10938.1
875.939	10919.35
876.258	10924.09
876.577	10964.09
876.896	10871.21
877.214	10827.82
877.533	10848.61
877.852	10817.88
878.17	10845.68
878.489	10816.52
878.807	10787.37
879.125	10740.14
879.444	10776.75
879.762	10680.26
880.08	10704.66
880.398	10701.95
880.716	10670.76
881.034	10555.06
881.352	10628.28
881.67	10520.71
881.988	10550.54
882.306	10574.72
882.624	10510.99
882.941	10377.21
883.259	10352.35
883.577	10412.92
883.894	10478.45
884.212	10436.19
884.529	10472.13
884.846	10362.07
885.164	10371.34
885.481	10309.19
885.798	10291.34
886.115	10274.16
886.432	10182.19
886.75	10222.87
887.067	10179.25
887.383	10155.75
887.7	10141.96
888.017	10086.37
888.334	10087.73
888.651	10009.99
888.967	10059.26
889.284	9998.47
889.6	10036.88
889.917	9937.9
890.233	9908.75
890.55	9919.6
890.866	9890.67
891.182	9889.09
891.498	9817.45
891.815	9773.39
892.131	9749.43
892.447	9700.17
892.763	9664.46
893.079	9655.2
893.395	9628.98
893.71	9588.99
894.026	9648.42
894.342	9522.09
894.657	9528.65
894.973	9531.59
895.289	9521.19
895.604	9501.53
895.92	9395.32
896.235	9344.02
896.55	9359.39
896.865	9312.83
897.181	9276.68
897.496	9275.77
897.811	9281.2
898.126	9261.76
898.441	9177.02
898.756	9136.12
899.071	9097.92
899.386	9077.81
899.7	8985.39
900.015	8971.6
900.33	8880.3
900.644	8894.09
900.959	8883.69
901.273	8900.64
901.588	8813.41
901.902	8793.98
902.216	8782.9
902.531	8700.19
902.845	8716.69
903.159	8676.24
903.473	8647.09
903.787	8600.54
904.101	8556.47
904.415	8496.36
904.729	8517.15
905.042	8430.37
905.356	8426.08
905.67	8422.69
905.984	8393.99
906.297	8282.8
906.611	8387.21
906.924	8281.45
907.237	8386.08
907.551	8276.7
907.864	8213.65
908.177	8165.52
908.491	8154.45
908.804	8164.39
909.117	8088.01
909.43	8044.17
909.743	8027.22
910.056	7991.97
910.368	7982.7
910.681	7896.15
910.994	7896.6
911.307	7846.66
911.619	7758.98
911.932	7884.4
912.244	7766.66
912.557	7687.79
912.869	7661.8
913.181	7618.64
913.494	7635.14
913.806	7534.12
914.118	7539.32
914.43	7507.23
914.742	7510.17
915.054	7487.12
915.366	7517.18
915.678	7445.54
915.99	7401.02
916.302	7368.7
916.613	7294.36
916.925	7269.05
917.236	7255.26
917.548	7246.67
917.859	7188.37
918.171	7132.33
918.482	7128.94
918.794	7101.59
919.105	7079.9
919.416	7015.95
919.727	7003.74
920.038	6970.3
920.349	6878.1
920.66	6892.56
920.971	6928.72
921.282	6857.98
921.593	6818.21
921.903	6775.5
922.214	6778.44
922.525	6726.46
922.835	6729.4
923.146	6681.94
923.456	6675.62
923.767	6589.97
924.077	6597.65
924.387	6603.75
924.697	6565.79
925.008	6521.27
925.318	6461.84
925.628	6477.88
925.938	6434.04
926.248	6395.62
926.558	6411.67
926.867	6391.33
927.177	6358.11
927.487	6348.17
927.796	6298.45
928.106	6219.13
928.416	6190.2
928.725	6221.62
929.034	6176.42
929.344	6104.56
929.653	6146.14
929.962	6044.22
930.271	6093.48
930.581	5989.53
930.89	5967.39
931.199	5960.83
931.508	5958.8
931.817	5895.3
932.125	5883.09
932.434	5862.08
932.743	5813.94
933.051	5802.42
933.36	5817.78
933.669	5740.95
933.977	5725.36
934.286	5754.96
934.594	5751.8
934.902	5638.81
935.21	5690.33
935.519	5658.92
935.827	5635.19
936.135	5630.67
936.443	5540.96
936.751	5563.33
937.059	5531.24
937.367	5489.66
937.674	5524.23
937.982	5450.34
938.29	5461.86
938.597	5392.49
938.905	5309.1
939.213	5367.85
939.52	5338.93
939.827	5284.01
940.135	5285.6
940.442	5286.27
940.749	5285.37
941.056	5212.38
941.363	5155.43
941.67	5156.11
941.977	5117.46
942.284	5145.26
942.591	5086.28
942.898	5071.36
943.205	5044.7
943.511	5054.19
943.818	5058.71
944.125	4940.07
944.431	4997.02
944.738	5007.18
945.044	4937.36
945.35	4901.65
945.657	4890.8
945.963	4844.48
946.269	4843.8
946.575	4842.44
946.881	4786.17
947.187	4808.55
947.493	4732.39
947.799	4726.97
948.105	4708.21
948.41	4688.55
948.716	4724.25
949.022	4670.7
949.327	4689.23
949.633	4595.44
949.938	4586.18
950.244	4624.37
950.549	4551.6
950.854	4560.87
951.16	4582.56
951.465	4510.47
951.77	4495.56
952.075	4446.75
952.38	4472.74
952.685	4508.89
952.99	4433.64
953.294	4385.28
953.599	4378.05
953.904	4310.25
954.209	4360.65
954.513	4294.44
954.818	4255.57
955.122	4305.73
955.426	4253.76
955.731	4240.2
956.035	4233.19
956.339	4218.96
956.643	4175.12
956.948	4190.26
957.252	4141.22
957.556	4112.74
957.86	4111.16
958.163	4113.65
958.467	4087.21
958.771	4032.97
959.075	3998.62
959.378	4003.14
959.682	4021
959.985	3995.01
960.289	3969.25
960.592	3966.31
960.896	3946.2
961.199	3936.93
961.502	3898.51
961.805	3852.64
962.108	3811.28
962.411	3844.73
962.714	3839.98
963.017	3828.46
963.32	3820.32
963.623	3800.89
963.926	3764.73
964.228	3738.52
964.531	3686.09
964.833	3718.63
965.136	3694.9
965.438	3715.02
965.741	3673.21
966.043	3636.37
966.345	3610.84
966.648	3615.58
966.95	3600.22
967.252	3559.54
967.554	3590.27
967.856	3557.05
968.158	3554.57
968.46	3553.66
968.761	3484.06
969.063	3534.23
969.365	3498.98
969.666	3485.42
969.968	3447.9
970.269	3422.82
970.571	3395.48
970.872	3365.65
971.174	3383.27
971.475	3364.74
971.776	3375.36
972.077	3332.2
972.378	3316.16
972.679	3316.16
972.98	3307.57
973.281	3306.66
973.582	3293.33
973.883	3280
974.183	3240.45
974.484	3226.21
974.785	3227.34
975.085	3230.51
975.386	3218.53
975.686	3157.29
975.986	3176.27
976.287	3171.3
976.587	3150.96
976.887	3121.81
977.187	3147.8
977.487	3090.4
977.787	3078.87
978.087	3042.49
978.387	3036.84
978.687	3035.26
978.987	3036.39
979.286	3013.11
979.586	3037.74
979.885	2951.19
980.185	2936.5
980.484	2981.93
980.784	2943.74
981.083	2946.9
981.382	2876.39
981.682	2890.18
981.981	2898.77
982.28	2865.32
982.579	2842.72
982.878	2855.15
983.177	2847.24
983.475	2821.71
983.774	2819.67
984.073	2785.32
984.372	2812.44
984.67	2790.75
984.969	2771.99
985.267	2767.47
985.566	2762.95
985.864	2701.03
986.162	2730.41
986.461	2718.66
986.759	2681.14
987.057	2644.53
987.355	2649.05
987.653	2655.16
987.951	2659
988.249	2676.17
988.547	2642.28
988.844	2628.26
989.142	2591.43
989.44	2577.64
989.737	2577.87
990.035	2556.4
990.332	2554.59
990.63	2541.26
990.927	2510.75
991.224	2529.96
991.521	2493.13
991.819	2482.28
992.116	2466.01
992.413	2499.68
992.71	2471.21
993.006	2463.52
993.303	2422.85
993.6	2405.67
993.897	2388.95
994.193	2398.67
994.49	2406.58
994.787	2358.21
995.083	2397.31
995.379	2319.8
995.676	2341.72
995.972	2312.57
996.268	2343.07
996.565	2287.48
996.861	2298.56
997.157	2274.6
997.453	2264.66
997.749	2268.95
998.044	2217.88
998.34	2214.04
998.636	2225.11
998.932	2242.29
999.227	2184.89
999.523	2230.08
999.818	2193.7
1000.114	2184.66
1000.409	2156.64
1000.704	2148.28
1001	2161.16
1001.295	2118.22
1001.59	2138.11
1001.885	2117.32
1002.18	2079.58
1002.475	2091.78
1002.77	2095.4
1003.065	2064.89
1003.359	2025.57
1003.654	2027.15
1003.949	2001.84
1004.243	2031.67
1004.538	2028.51
1004.832	1974.04
1005.127	1982.63
1005.421	1971.33
1005.715	1952.12
1006.009	1928.4
1006.304	1939.02
1006.598	1904.22
1006.892	1931.33
1007.186	1924.55
1007.48	1918.9
1007.773	1915.29
1008.067	1877.55
1008.361	1885.91
1008.655	1845.46
1008.948	1846.36
1009.242	1831.45
1009.535	1829.19
1009.829	1770.43
1010.122	1809.98
1010.415	1810.21
1010.708	1775.86
1011.001	1793.71
1011.295	1759.59
1011.588	1753.26
1011.881	1741.96
1012.173	1742.41
1012.466	1696.09
1012.759	1714.84
1013.052	1707.84
1013.344	1712.13
1013.637	1694.73
1013.93	1693.6
1014.222	1674.17
1014.514	1658.12
1014.807	1638.69
1015.099	1642.08
1015.391	1610.21
1015.683	1620.38
1015.976	1580.38
1016.268	1611.12
1016.56	1587.39
1016.851	1578.57
1017.143	1593.94
1017.435	1555.98
1017.727	1550.1
1018.018	1529.31
1018.31	1548.97
1018.602	1515.75
1018.893	1491.57
1019.185	1547.84
1019.476	1510.55
1019.767	1475.75
1020.058	1475.75
1020.35	1473.49
1020.641	1448.41
1020.932	1432.59
1021.223	1412.03
1021.514	1421.74
1021.804	1381.97
1022.095	1374.51
1022.386	1410.22
1022.677	1388.75
1022.967	1363.89
1023.258	1343.55
1023.548	1363.89
1023.839	1373.16
1024.129	1337.68
1024.419	1312.37
1024.709	1319.82
1025	1326.83
1025.29	1326.15
1025.58	1336.55
1025.87	1290.45
1026.16	1294.74
1026.449	1266.04
1026.739	1254.97
1027.029	1264.68
1027.319	1233.95
1027.608	1245.02
1027.898	1231.46
1028.187	1236.89
1028.477	1227.4
1028.766	1194.18
1029.055	1193.95
1029.344	1200.05
1029.634	1192.37
1029.923	1186.27
1030.212	1166.61
1030.501	1180.84
1030.79	1161.41
1031.078	1129.77
1031.367	1132.94
1031.656	1144.46
1031.945	1132.94
1032.233	1113.73
1032.522	1124.12
1032.81	1090
1033.099	1092.49
1033.387	1106.5
1033.675	1066.05
1033.963	1074.63
1034.251	1093.39
1034.54	1065.37
1034.828	1049.77
1035.116	1038.25
1035.403	1027.18
1035.691	1018.36
1035.979	1041.64
1036.267	1022.66
1036.554	1019.49
1036.842	1013.39
1037.129	1009.1
1037.417	989.89
1037.704	974.75
1037.992	980.4
1038.279	978.82
1038.566	976.78
1038.853	976.78
1039.14	976.78
