Data from hue_10_FLMS001491_74.txt Node
Date: Mon Feb 06 15:32:31 GMT 2017
User: dcchb
Spectrometer: FLMS00149
Trigger mode: 0
Integration Time (sec): 2.000000E-2
Scans to average: 10
Electric dark correction enabled: true
Nonlinearity correction enabled: false
Boxcar width: 0
XAxis mode: Wavelengths
Number of Pixels in Spectrum: 2048
>>>>>Begin Spectral Data<<<<<
341.393	-10.51
341.776	-10.51
342.16	-10.51
342.543	-59.32
342.927	-63.39
343.31	-61.13
343.693	-64.74
344.077	-70.85
344.46	-80.56
344.843	-49.6
345.226	-52.09
345.61	-35.82
345.993	1.24
346.376	-6.67
346.759	0.11
347.142	27.46
347.525	29.94
347.908	57.96
348.291	80.56
348.674	112.2
349.057	111.97
349.44	123.5
349.823	143.39
350.206	171.18
350.588	182.26
350.971	204.63
351.354	225.42
351.737	229.71
352.119	243.5
352.502	251.86
352.884	290.95
353.267	300.22
353.65	297.96
354.032	287.34
354.414	316.04
354.797	309.71
355.179	312.87
355.562	319.43
355.944	323.49
356.326	327.11
356.709	337.28
357.091	344.28
357.473	347.67
357.855	335.25
358.238	351.06
358.62	330.73
359.002	333.44
359.384	345.87
359.766	336.15
360.148	337.05
360.53	331.18
360.912	338.64
361.294	364.4
361.676	335.92
362.057	331.18
362.439	301.8
362.821	319.43
363.203	316.71
363.584	319.2
363.966	318.3
364.348	327.34
364.729	316.94
365.111	322.82
365.493	333.89
365.874	311.07
366.256	332.31
366.637	334.34
367.019	288.47
367.4	307.22
367.781	299.77
368.163	314.91
368.544	318.97
368.925	284.85
369.306	311.97
369.688	293.89
370.069	293.44
370.45	314.68
370.831	327.34
371.212	305.64
371.593	306.32
371.974	302.03
372.355	311.52
372.736	297.96
373.117	311.74
373.498	311.29
373.879	292.53
374.26	311.29
374.641	295.92
375.021	338.86
375.402	307.22
375.783	320.1
376.163	310.61
376.544	324.62
376.925	321.23
377.305	321.23
377.686	314.68
378.066	317.84
378.447	305.87
378.827	319.88
379.208	326.21
379.588	327.11
379.968	325.98
380.349	324.4
380.729	342.02
381.109	335.47
381.489	330.05
381.87	334.12
382.25	329.82
382.63	331.63
383.01	335.7
383.39	347.22
383.77	345.19
384.15	329.6
384.53	321.46
384.91	311.52
385.29	344.06
385.67	324.17
386.049	356.04
386.429	328.24
386.809	332.08
387.189	346.77
387.568	329.14
387.948	361.46
388.328	335.47
388.707	351.06
389.087	341.12
389.466	340.22
389.846	349.93
390.225	341.8
390.605	344.96
390.984	342.7
391.363	361.23
391.743	359.43
392.122	355.58
392.501	347.67
392.881	361.46
393.26	371.63
393.639	354.68
394.018	381.35
394.397	332.31
394.776	348.35
395.155	363.95
395.534	372.08
395.913	362.36
396.292	377.28
396.671	353.32
397.05	369.37
397.429	357.84
397.808	356.71
398.186	358.52
398.565	374.79
398.944	342.25
399.323	364.62
399.701	377.28
400.08	358.3
400.458	363.95
400.837	361.91
401.215	377.96
401.594	385.19
401.972	376.6
402.351	388.58
402.729	367.79
403.107	371.85
403.486	396.49
403.864	388.58
404.242	366.43
404.62	378.41
404.999	401.46
405.377	371.18
405.755	384.51
406.133	382.48
406.511	398.97
406.889	383.83
407.267	388.58
407.645	389.71
408.023	382.48
408.401	405.98
408.779	382.93
409.156	409.82
409.534	396.49
409.912	431.06
410.29	413.21
410.667	408.24
411.045	415.02
411.422	444.85
411.8	415.02
412.178	420.21
412.555	428.8
412.933	434.23
413.31	429.48
413.687	411.4
414.065	412.76
414.442	426.09
414.819	415.47
415.197	427.22
415.574	435.81
415.951	436.71
416.328	453.66
416.705	453.89
417.082	434.68
417.46	452.98
417.837	450.95
418.214	445.75
418.591	464.73
418.967	438.75
419.344	465.64
419.721	447.78
420.098	469.48
420.475	471.51
420.852	471.96
421.228	458.86
421.605	480.1
421.982	485.52
422.358	497.73
422.735	455.69
423.111	468.12
423.488	463.6
423.864	484.62
424.241	494.79
424.617	492.76
424.994	490.72
425.37	485.98
425.746	452.53
426.123	498.18
426.499	512.64
426.875	501.12
427.251	523.26
427.627	501.12
428.003	498.18
428.379	500.66
428.756	517.39
429.132	495.02
429.507	512.64
429.883	522.36
430.259	547.22
430.635	547.22
431.011	541.34
431.387	555.58
431.763	548.8
432.138	538.18
432.514	541.34
432.89	543.83
433.265	542.02
433.641	561.91
434.016	571.62
434.392	546.99
434.767	558.52
435.143	566.88
435.518	568.69
435.894	574.56
436.269	577.27
436.644	562.58
437.02	582.47
437.395	572.53
437.77	586.31
438.145	595.58
438.52	585.86
438.895	615.69
439.271	617.27
439.646	604.39
440.021	626.09
440.395	621.34
440.77	610.72
441.145	615.92
441.52	626.54
441.895	622.02
442.27	622.92
442.645	617.72
443.019	645.97
443.394	639.19
443.769	659.76
444.143	639.64
444.518	618.63
444.892	659.08
445.267	653.2
445.641	673.09
446.016	688.91
446.39	670.15
446.764	670.83
447.139	685.52
447.513	670.6
447.887	688.23
448.262	665.63
448.636	673.32
449.01	684.61
449.384	691.17
449.758	685.74
450.132	663.37
450.506	687.55
450.88	698.85
451.254	678.74
451.628	705.86
452.002	718.06
452.376	714.9
452.75	705.63
453.123	717.38
453.497	719.87
453.871	714.22
454.244	742.47
454.618	745.4
454.992	738.4
455.365	735.46
455.739	754.22
456.112	777.04
456.486	746.08
456.859	776.82
457.232	784.95
457.606	781.56
457.979	786.08
458.352	777.72
458.725	788.11
459.099	777.72
459.472	836.48
459.845	834.89
460.218	824.05
460.591	824.72
460.964	832.18
461.337	839.86
461.71	844.61
462.083	887.55
462.456	862.01
462.829	861.56
463.201	883.71
463.574	895.46
463.947	920.31
464.32	913.99
464.692	923.48
465.065	920.99
465.438	931.16
465.81	932.97
466.183	936.13
466.555	995.12
466.928	969.58
467.3	963.25
467.672	994.66
468.045	1012.06
468.417	1029.24
468.789	997.83
469.161	1051.16
469.534	1064.72
469.906	1068.79
470.278	1079.41
470.65	1075.56
471.022	1110.59
471.394	1120.54
471.766	1129.35
472.138	1126.64
472.51	1180.87
472.882	1207.99
473.253	1190.14
473.625	1229.23
473.997	1242.79
474.369	1229.91
474.74	1298.16
475.112	1287.54
475.484	1324.15
475.855	1325.5
476.227	1375.22
476.598	1395.1
476.97	1392.84
477.341	1439.62
477.713	1466.74
478.084	1462.9
478.455	1504.25
478.827	1538.38
479.198	1572.05
479.569	1554.65
479.94	1624.25
480.311	1659.28
480.682	1694.08
481.053	1736.34
481.424	1770.91
481.795	1772.04
482.166	1836.67
482.537	1856.56
482.908	1850.01
483.279	1922.1
483.65	1924.58
484.021	1975.65
484.391	2008.42
484.762	2045.03
485.133	2070.34
485.503	2103.11
485.874	2137.46
486.244	2186.95
486.615	2213.61
486.985	2256.32
487.356	2322.31
487.726	2325.48
488.097	2403.44
488.467	2396.66
488.837	2464.68
489.207	2464.91
489.578	2534.06
489.948	2575.86
490.318	2648.86
490.688	2632.36
491.058	2702.87
491.428	2700.83
491.798	2750.32
492.168	2801.62
492.538	2816.99
492.908	2862.86
493.278	2898.12
493.648	2894.05
494.017	2975.4
494.387	3024.89
494.757	3052.69
495.126	3067.83
495.496	3120.93
495.866	3153.93
496.235	3149.86
496.605	3186.47
496.974	3229.18
497.344	3237.32
497.713	3261.27
498.082	3283.87
498.452	3328.61
498.821	3345.11
499.19	3378.78
499.559	3388.27
499.928	3420.36
500.298	3448.61
500.667	3464.2
501.036	3495.84
501.405	3527.7
501.774	3531.32
502.143	3560.92
502.512	3543.52
502.88	3602.05
503.249	3634.82
503.618	3668.27
503.987	3604.76
504.356	3644.76
504.724	3733.57
505.093	3696.29
505.462	3727.47
505.83	3710.75
506.199	3769.28
506.567	3810.86
506.936	3852.22
507.304	3851.54
507.672	3877.75
508.041	3849.96
508.409	3925.89
508.777	3894.02
509.145	3916.62
509.514	3953.68
509.882	3924.98
510.25	3991.65
510.618	3990.74
510.986	3967.01
511.354	4053.79
511.722	4054.02
512.09	4055.83
512.458	4011.08
512.826	4036.62
513.193	4063.73
513.561	4044.07
513.929	4091.76
514.297	4096.28
514.664	4159.1
515.032	4166.11
515.4	4158.87
515.767	4190.96
516.135	4218.99
516.502	4121.13
516.869	4212.21
517.237	4250.85
517.604	4201.58
517.972	4247.68
518.339	4274.12
518.706	4242.49
519.073	4275.93
519.44	4270.28
519.808	4289.94
520.175	4261.24
520.542	4362.94
520.909	4359.77
521.276	4341.24
521.643	4389.83
522.009	4411.07
522.376	4336.95
522.743	4395.93
523.11	4462.82
523.477	4477.28
523.843	4468.24
524.21	4481.13
524.577	4525.19
524.943	4518.64
525.31	4545.98
525.676	4559.77
526.043	4571.74
526.409	4624.17
526.776	4670.27
527.142	4710.95
527.508	4705.53
527.874	4736.49
528.241	4779.65
528.607	4722.47
528.973	4737.62
529.339	4805.64
529.705	4810.38
530.071	4821.68
530.437	4848.8
530.803	4879.53
531.169	4927.44
531.535	4905.29
531.901	4893.77
532.267	4960.43
532.632	5003.15
532.998	4956.82
533.364	5019.19
533.73	4981.68
534.095	5072.97
534.461	5000.89
534.826	5085.18
535.192	5124.72
535.557	5110.26
535.923	5153.42
536.288	5140.99
536.653	5170.15
537.019	5216.7
537.384	5188.68
537.749	5208.11
538.114	5213.31
538.479	5240.2
538.845	5303.7
539.21	5290.14
539.575	5297.83
539.94	5325.62
540.305	5359.29
540.67	5338.73
541.034	5410.59
541.399	5395
541.764	5454.43
542.129	5453.75
542.494	5499.63
542.858	5501.66
543.223	5531.27
543.587	5525.62
543.952	5575.33
544.316	5632.28
544.681	5618.5
545.045	5604.26
545.41	5656.46
545.774	5648.1
546.138	5682.22
546.503	5694.2
546.867	5721.54
547.231	5774.65
547.595	5785.27
547.959	5797.02
548.324	5803.12
548.688	5847.64
549.052	5858.72
549.416	5870.02
549.779	5889.9
550.143	5922.22
550.507	5981.42
550.871	5938.04
551.235	5927.19
551.599	6018.94
551.962	6003.8
552.326	6049.22
552.689	6034.3
553.053	6108.65
553.417	6008.54
553.78	6157.24
554.143	6160.85
554.507	6127.41
554.87	6176.67
555.234	6232.72
555.597	6165.37
555.96	6182.78
556.323	6212.15
556.686	6247.41
557.05	6261.64
557.413	6324.24
557.776	6318.59
558.139	6283.79
558.502	6328.53
558.865	6395.88
559.228	6385.26
559.59	6392.94
559.953	6436.1
560.316	6447.63
560.679	6405.59
561.041	6485.14
561.404	6495.54
561.767	6501.86
562.129	6485.37
562.492	6536.21
562.854	6539.83
563.217	6563.33
563.579	6652.37
563.941	6660.28
564.304	6635.42
564.666	6666.15
565.028	6673.38
565.39	6750.9
565.753	6742.08
566.115	6776.21
566.477	6827.05
566.839	6764.91
567.201	6867.28
567.563	6873.6
567.925	6943.43
568.287	6921.74
568.648	6903.21
569.01	6945.02
569.372	6938.46
569.734	6954.73
570.095	7055.29
570.457	7070.44
570.819	7148.63
571.18	7147.95
571.542	7160.83
571.903	7208.06
572.265	7289.86
572.626	7247.38
572.987	7377.32
573.349	7409.64
573.71	7359.69
574.071	7422.29
574.432	7535.73
574.794	7627.03
575.155	7590.42
575.516	7688.72
575.877	7819.79
576.238	7828.16
576.599	7903.18
576.96	7968.27
577.32	8016.85
577.681	8083.29
578.042	8240.12
578.403	8316.5
578.763	8422.72
579.124	8484.64
579.485	8602.6
579.845	8742.93
580.206	8822.71
580.566	8996.94
580.927	9069.71
581.287	9241.23
581.648	9318.29
582.008	9517.6
582.368	9692.29
582.728	9771.16
583.089	9994.65
583.449	10123.69
583.809	10379.5
584.169	10506.73
584.529	10710.34
584.889	11040.27
585.249	11196.65
585.609	11396.88
585.969	11740.82
586.329	11916.86
586.688	12155.5
587.048	12391.43
587.408	12657.18
587.768	12959.32
588.127	13150.28
588.487	13443.83
588.846	13850.37
589.206	14112.51
589.565	14361.09
589.925	14657.13
590.284	14909.33
590.643	15355.42
591.003	15579.36
591.362	16024.1
591.721	16373.69
592.08	16644.42
592.44	16999.67
592.799	17451.18
593.158	17779.98
593.517	18073.08
593.876	18466.29
594.235	18810.92
594.593	19063.11
594.952	19608.18
595.311	19882.3
595.67	20245
596.029	20789.4
596.387	21132.21
596.746	21590.51
597.104	21799.99
597.463	22143.71
597.822	22518.62
598.18	22869.79
598.538	23267.52
598.897	23730.56
599.255	23888.3
599.613	24531.22
599.972	24698.22
600.33	25205.33
600.688	25485.77
601.046	25961.92
601.404	26384.73
601.762	26704.72
602.12	27190.58
602.478	27405.49
602.836	27658.14
603.194	28032.37
603.552	28331.8
603.91	28589.64
604.268	29141.49
604.625	29517.3
604.983	29755.04
605.341	29882.49
605.698	30450.84
606.056	30756.59
606.413	31112.06
606.771	31507.08
607.128	31906.17
607.485	32100.74
607.843	32305.48
608.2	32755.64
608.557	33105.91
608.914	33230.65
609.272	33652.56
609.629	33853.01
609.986	34310.62
610.343	34452.09
610.7	34881
611.057	35083.94
611.414	35357.83
611.771	35767.99
612.127	35960.52
612.484	36154.87
612.841	36513.05
613.198	36614.74
613.554	36815.87
613.911	37176.31
614.267	37438.22
614.624	37654.94
614.98	37790.76
615.337	38062.39
615.693	38293.34
616.05	38407.24
616.406	38767.68
616.762	38738.3
617.118	38927.9
617.475	39197.5
617.831	39589.13
618.187	39635.91
618.543	39830.48
618.899	40224.82
619.255	40225.27
619.611	40421.65
619.967	40653.96
620.323	40864.12
620.678	40917.46
621.034	40870.45
621.39	41045.36
621.746	41142.53
622.101	41865.45
622.457	41511.79
622.812	41728.73
623.168	41913.36
623.523	41917.65
623.879	42279
624.234	42101.6
624.589	42315.38
624.945	42458.88
625.3	42640.12
625.655	42439.68
626.01	42713.57
626.365	42795.37
626.72	42830.63
627.075	42879.21
627.43	43057.29
627.785	43000.56
628.14	43242.37
628.495	43191.07
628.85	43259.77
629.205	43267.9
629.559	43643.94
629.914	43437.61
630.269	43566.2
630.623	43609.14
630.978	43551.74
631.332	43808.9
631.687	43864.72
632.041	43721
632.396	43979.3
632.75	43740.21
633.104	43823.59
633.459	43824.72
633.813	43731.39
634.167	43792.41
634.521	43804.38
634.875	43912.18
635.229	44014.77
635.583	43675.12
635.937	43798.28
636.291	43810.71
636.645	43908.56
636.999	43885.06
637.352	43935
637.706	43751.73
638.06	44003.7
638.413	43926.87
638.767	43858.39
639.121	43962.57
639.474	43692.52
639.828	43886.42
640.181	43965.74
640.534	43824.95
640.888	43755.57
641.241	43723.94
641.594	43773.43
641.947	43996.92
642.301	43814.33
642.654	43961.22
643.007	43823.37
643.36	43899.3
643.713	43687.78
644.066	43959.18
644.419	43782.01
644.771	43474.45
645.124	43235.81
645.477	43130.5
645.83	42864.07
646.182	42762.6
646.535	42640.12
646.888	42693.91
647.24	42545.89
647.593	42814.58
647.945	42635.6
648.298	42540.69
648.65	42431.99
649.002	42379.79
649.355	42624.75
649.707	42453.46
650.059	42704.3
650.411	43095.93
650.763	43190.62
651.115	43559.87
651.467	43450.04
651.819	43344.96
652.171	43401.46
652.523	43257.05
652.875	43405.07
653.227	43270.84
653.578	43456.15
653.93	43354.68
654.282	43253.44
654.633	42968.02
654.985	43269.03
655.337	43245.76
655.688	43299.99
656.039	43269.94
656.391	43000.56
656.742	43181.12
657.094	43288.24
657.445	43243.27
657.796	43111.97
658.147	43047.57
658.498	43084.86
658.849	43265.64
659.2	43109.94
659.551	42926.89
659.902	43198.98
660.253	42964.18
660.604	43133.22
660.955	42868.82
661.306	43053.44
661.656	42968.02
662.007	42873.56
662.358	42990.4
662.708	43011.41
663.059	42922.15
663.409	42785.43
663.76	43116.04
664.11	42970.28
664.461	43020.68
664.811	42903.39
665.161	42923.5
665.511	42957.4
665.862	42840.12
666.212	43180.9
666.562	43110.62
666.912	42989.94
667.262	42847.8
667.612	42834.69
667.962	43042.6
668.312	42900.23
668.662	43024.07
669.011	42827.46
669.361	42831.98
669.711	42802.6
670.06	42809.38
670.41	42763.96
670.76	42610.52
671.109	42883.05
671.459	42808.03
671.808	42709.5
672.157	42805.77
672.507	42549.5
672.856	42546.79
673.205	42614.36
673.554	42630.18
673.904	42573.46
674.253	42836.73
674.602	42723.96
674.951	42086.46
675.3	41800.6
675.649	42484.42
675.998	42538.43
676.346	42706.11
676.695	42536.62
677.044	42403.29
677.393	42415.95
677.741	42453.01
678.09	42371.88
678.438	42292.11
678.787	42293.92
679.135	42358.32
679.484	42062.96
679.832	42189.51
680.181	41992
680.529	42056.18
680.877	42005.34
681.225	41990.42
681.573	42261.83
681.922	41764.66
682.27	41831.33
682.618	41848.96
682.966	41601.28
683.314	41785
683.661	41559.02
684.009	41486.93
684.357	41522.64
684.705	41442.41
685.053	41346.14
685.4	41270.21
685.748	41246.03
686.095	41045.14
686.443	40982.31
686.79	41118.81
687.138	40985.02
687.485	40988.19
687.832	40822.54
688.18	40965.59
688.527	40683.79
688.874	40706.84
689.221	40531.7
689.568	40483.12
689.915	40330.13
690.262	40371.03
690.609	40415.77
690.956	40178.04
691.303	40090.81
691.65	39982.56
691.997	39928.55
692.344	39877.26
692.69	39773.98
693.037	39652.4
693.383	39341
693.73	39575.8
694.077	39439.3
694.423	39299.42
694.769	39168.57
695.116	39139.65
695.462	39020.56
695.808	38909.15
696.155	39085.64
696.501	38788.92
696.847	38775.82
697.193	38552.09
697.539	38625.54
697.885	38308.26
698.231	38246.56
698.577	38336.73
698.923	38101.48
699.269	37949.4
699.614	37880.02
699.96	37784.88
700.306	37835.5
700.651	37677.09
700.997	37491.1
701.342	37477.55
701.688	37352.35
702.033	37160.49
702.379	37278.45
702.724	37095.41
703.069	37264.44
703.415	36742.88
703.76	36767.96
704.105	36807.73
704.45	36680.96
704.795	36646.38
705.14	36607.96
705.485	36451.13
705.83	36325.71
706.175	36267.41
706.52	36111.71
706.865	36085.04
707.209	36079.16
707.554	36034.42
707.899	36072.61
708.243	35865.61
708.588	35731.83
708.932	35604.37
709.277	35579.74
709.621	35736.12
709.966	35351.05
710.31	35431.05
710.654	35203.48
710.998	35239.64
711.342	35250.71
711.687	35064.95
712.031	34940.89
712.375	34816.15
712.719	34905.64
713.063	34833.55
713.407	34914.9
713.75	34709.71
714.094	34690.5
714.438	34485.53
714.782	34519.43
715.125	34364.18
715.469	34471.97
715.812	34320.57
716.156	33967.58
716.499	34020.24
716.843	34109.5
717.186	33940.92
717.53	34024.98
717.873	34135.94
718.216	33969.84
718.559	33809.39
718.902	33577.76
719.246	33684.65
719.589	33608.04
719.932	33368.28
720.275	33536.86
720.617	33347.94
720.96	33201.95
721.303	33200.14
721.646	33319.46
721.989	33046.25
722.331	33220.71
722.674	33073.82
723.016	33166.92
723.359	33116.76
723.701	33017.55
724.044	32865.24
724.386	32693.72
724.729	32775.52
725.071	32724.68
725.413	32590.89
725.755	32730.33
726.097	32546.38
726.439	32428.86
726.782	32278.81
727.124	32474.29
727.465	32310.22
727.807	32471.35
728.149	32241.07
728.491	32315.87
728.833	32272.94
729.175	32150.45
729.516	31977.58
729.858	31942.32
730.199	32023.23
730.541	31905.94
730.882	31837.24
731.224	31997.01
731.565	31736.68
731.906	31677.7
732.248	31681.99
732.589	31537.59
732.93	31471.38
733.271	31533.52
733.612	31553.63
733.953	31538.72
734.294	31484.71
734.635	31343.47
734.976	31235.45
735.317	31126.75
735.658	31130.37
735.999	31179.86
736.339	31152.97
736.68	31146.86
737.021	31061.44
737.361	30910.03
737.702	31181.21
738.042	30941.22
738.383	30853.99
738.723	30891.28
739.063	30832.3
739.404	30942.35
739.744	30614.22
740.084	30561.12
740.424	30775.8
740.764	30567.9
741.104	30688.12
741.444	30505.75
741.784	30536.49
742.124	30478.63
742.464	30403.16
742.804	30377.85
743.143	30228.92
743.483	30289.26
743.823	30216.04
744.162	29960.91
744.502	30127.91
744.841	29960.91
745.181	30096.72
745.52	29939.44
745.86	29949.38
746.199	29830.29
746.538	29915.03
746.877	29914.35
747.216	29798.88
747.556	29781.25
747.895	29839.33
748.234	29699.67
748.573	29615.38
748.911	29585.78
749.25	29541.94
749.589	29424.88
749.928	29417.42
750.267	29488.38
750.605	29285.67
750.944	29294.03
751.283	29210.87
751.621	29147.6
751.96	28987.15
752.298	29042.97
752.636	29006.81
752.975	28894.04
753.313	28820.6
753.651	29089.52
753.989	28839.81
754.327	28703.54
754.666	28724.78
755.004	28658.12
755.342	28630.55
755.679	28531.34
756.017	28400.5
756.355	28459.7
756.693	28330.44
757.031	28237.11
757.368	28266.94
757.706	28141.75
758.044	28155.53
758.381	28098.13
758.719	27905.59
759.056	27966.38
759.394	27944.46
759.731	27819.04
760.068	27703.34
760.405	27647.97
760.743	27583.79
761.08	27646.62
761.417	27455.44
761.754	27335.21
762.091	27384.48
762.428	27254.76
762.765	27003.24
763.102	27147.2
763.438	27053.64
763.775	26799.63
764.112	26795.79
764.449	26836.02
764.785	26748.34
765.122	26448.23
765.458	26399.87
765.795	26460.89
766.131	26442.81
766.467	26197.39
766.804	26131.63
767.14	26029.26
767.476	26058.86
767.812	25944.97
768.148	25902.26
768.485	25792.88
768.821	25597.86
769.157	25601.47
769.492	25613.68
769.828	25559.44
770.164	25255.95
770.5	25198.77
770.836	25347.02
771.171	25035.84
771.507	25018.66
771.842	24791.33
772.178	24861.83
772.513	24692.57
772.849	24690.31
773.184	24522.63
773.519	24552.91
773.855	24419.58
774.19	24352.47
774.525	24242.41
774.86	24160.83
775.195	24215.75
775.53	24046.71
775.865	23991.35
776.2	23827.96
776.535	23613.5
776.87	23764.01
777.205	23594.29
777.539	23418.71
777.874	23532.38
778.209	23296.9
778.543	23282.89
778.878	23149.33
779.212	23166.06
779.547	23013.52
779.881	22973.52
780.215	22833.86
780.55	22819.85
780.884	22606.75
781.218	22605.39
781.552	22661.21
781.886	22422.8
782.22	22413.53
782.554	22382.35
782.888	22087.89
783.222	22075.69
783.556	21995.69
783.889	21981.91
784.223	21785.53
784.557	21681.58
784.89	21752.08
785.224	21642.48
785.557	21499.43
785.891	21458.08
786.224	21461.24
786.558	21330.17
786.891	21256.28
787.224	21193.45
787.557	21133.34
787.891	20927.47
788.224	21024.64
788.557	20872.33
788.89	20920.47
789.223	20831.43
789.556	20603.87
789.888	20587.82
790.221	20547.14
790.554	20483.64
790.887	20398.22
791.219	20301.95
791.552	20289.07
791.884	20187.38
792.217	20054.73
792.549	20099.92
792.882	19908.52
793.214	19915.97
793.546	19939.25
793.879	19709.88
794.211	19642.53
794.543	19645.7
794.875	19471.24
795.207	19559.82
795.539	19429.66
795.871	19439.6
796.203	19264.24
796.535	19264.24
796.867	19154.64
797.198	19142.89
797.53	19029.44
797.862	18925.94
798.193	19019.27
798.525	18929.33
798.856	18900.86
799.188	18671.71
799.519	18647.53
799.85	18572.28
800.182	18560.3
800.513	18534.09
800.844	18339.52
801.175	18524.37
801.506	18372.74
801.837	18201.67
802.168	18212.74
802.499	18181.1
802.83	18098.39
803.161	18099.3
803.491	18126.42
803.822	18113.76
804.153	17922.35
804.483	17830.6
804.814	17791.28
805.145	17706.54
805.475	17740.66
805.805	17648.46
806.136	17659.31
806.466	17592.19
806.796	17540.89
807.126	17346.78
807.457	17396.72
807.787	17405.53
808.117	17227.46
808.447	17194.24
808.777	17263.61
809.107	17287.12
809.436	17099.78
809.766	17131.19
810.096	17040.57
810.426	17036.73
810.755	16978.42
811.085	16865.43
811.414	16810.97
811.744	16779.78
812.073	16661.82
812.403	16660.01
812.732	16601.94
813.061	16547.7
813.39	16480.13
813.719	16462.05
814.049	16515.61
814.378	16452.56
814.707	16321.94
815.036	16396.07
815.365	16241.72
815.693	16151.78
816.022	16103.87
816.351	16136.86
816.68	16090.31
817.008	16088.96
817.337	15908.4
817.665	15920.6
817.994	15946.59
818.322	15901.62
818.651	15803.09
818.979	15774.16
819.307	15829.3
819.636	15746.82
819.964	15684.67
820.292	15725.8
820.62	15718.8
820.948	15640.83
821.276	15763.09
821.604	15671.34
821.932	15665.01
822.259	15583.43
822.587	15597.44
822.915	15486.71
823.243	15713.15
823.57	15573.71
823.898	15626.14
824.225	15418.24
824.553	15447.84
824.88	15571.68
825.207	15460.72
825.535	15534.39
825.862	15495.52
826.189	15473.15
826.516	15553.83
826.843	15570.78
827.17	15528.07
827.497	15536.2
827.824	15599.48
828.151	15544.79
828.478	15568.52
828.805	15608.06
829.131	15552.7
829.458	15446.94
829.785	15403.1
830.111	15422.08
830.438	15557.9
830.764	15454.17
831.09	15475.41
831.417	15479.93
831.743	15502.53
832.069	15536.43
832.395	15447.62
832.722	15455.53
833.048	15348.41
833.374	15403.1
833.7	15346.38
834.026	15349.31
834.351	15260.28
834.677	15277.23
835.003	15377.79
835.329	15255.08
835.654	15323.1
835.98	15260.95
836.306	15271.12
836.631	15188.19
836.956	15193.39
837.282	15171.47
837.607	15021.64
837.932	15103.22
838.258	15058.93
838.583	15041.53
838.908	14896.22
839.233	15014.18
839.558	14952.04
839.883	14906.16
840.208	14853.28
840.533	14823.23
840.858	14873.39
841.182	14852.38
841.507	14786.84
841.832	14728.99
842.156	14714.08
842.481	14701.65
842.805	14598.15
843.13	14627.07
843.454	14641.99
843.778	14578.26
844.103	14592.27
844.427	14473.86
844.751	14524.93
845.075	14506.4
845.399	14432.5
845.723	14322.67
846.047	14331.71
846.371	14237.25
846.695	14233.19
847.019	14088.56
847.343	14116.58
847.666	13997.71
847.99	13886.75
848.313	13910.48
848.637	13806.76
848.96	13848.79
849.284	13701.22
849.607	13720.43
849.931	13650.38
850.254	13561.79
850.577	13433.66
850.9	13400.66
851.223	13361.34
851.546	13309.37
851.869	13224.4
852.192	13227.56
852.515	13197.05
852.838	13100.79
853.161	13136.94
853.483	13028.7
853.806	12992.99
854.129	12911.19
854.451	12917.97
854.774	12865.54
855.096	12742.83
855.419	12737.18
855.741	12771.75
856.063	12630.52
856.385	12550.07
856.708	12634.58
857.03	12559.1
857.352	12594.58
857.674	12554.81
857.996	12516.85
858.318	12311.65
858.64	12400.92
858.961	12384.65
859.283	12324.08
859.605	12262.39
859.926	12286.8
860.248	12247.02
860.57	12169.74
860.891	12220.81
861.212	12192.33
861.534	12118.44
861.855	12123.41
862.176	12078.89
862.498	12109.85
862.819	12059
863.14	11961.83
863.461	11967.03
863.782	11915.73
864.103	11917.77
864.424	11839.35
864.745	11785.57
865.065	11813.14
865.386	11733.82
865.707	11752.12
866.027	11785.11
866.348	11713.25
866.668	11692.46
866.989	11681.16
867.309	11554.61
867.63	11616.76
867.95	11640.26
868.27	11529.08
868.59	11628.28
868.91	11565.91
869.23	11542.18
869.55	11448.17
869.87	11517.1
870.19	11496.99
870.51	11535.4
870.83	11511.45
871.15	11415.86
871.469	11463.31
871.789	11385.8
872.109	11426.25
872.428	11381.96
872.748	11388.51
873.067	11276.88
873.386	11316.43
873.706	11375.41
874.025	11213.6
874.344	11210.89
874.663	11303.77
874.982	11157.79
875.301	11219.25
875.62	11232.81
875.939	11179.93
876.258	11126.83
876.577	11042.99
876.896	11054.51
877.214	10965.47
877.533	11044.57
877.852	10962.99
878.17	10994.63
878.489	11002.31
878.807	10979.03
879.125	10941.97
879.444	10925.25
879.762	10884.12
880.08	10933.16
880.398	10849.32
880.716	10946.04
881.034	10826.27
881.352	10889.32
881.67	10775.87
881.988	10782.65
882.306	10784.01
882.624	10779.72
882.941	10637.8
883.259	10680.96
883.577	10714.18
883.894	10605.03
884.212	10580.85
884.529	10573.39
884.846	10502.44
885.164	10488.88
885.481	10479.84
885.798	10506.5
886.115	10414.3
886.432	10394.42
886.75	10363.91
887.067	10435.54
887.383	10405.04
887.7	10315.55
888.017	10275.1
888.334	10284.14
888.651	10247.08
888.967	10214.99
889.284	10201.2
889.6	10156.68
889.917	10084.82
890.233	10123.91
890.55	10099.96
890.866	10028.78
891.182	10022.45
891.498	10017.02
891.815	9973.86
892.131	9931.15
892.447	9941.77
892.763	9893.86
893.079	9842.34
893.395	9800.31
893.71	9796.92
894.026	9781.78
894.342	9716.02
894.657	9660.2
894.973	9680.54
895.289	9675.34
895.604	9599.41
895.92	9604.61
896.235	9590.37
896.55	9576.13
896.865	9529.58
897.181	9472.63
897.496	9411.84
897.811	9319.87
898.126	9354.9
898.441	9266.76
898.756	9306.08
899.071	9242.13
899.386	9273.54
899.7	9120.55
900.015	9183.15
900.33	9068.12
900.644	9042.59
900.959	9073.55
901.273	9011.85
901.588	8968.01
901.902	8905.42
902.216	8895.47
902.531	8888.01
902.845	8889.14
903.159	8828.58
903.473	8803.5
903.787	8736.83
904.101	8700.45
904.415	8743.39
904.729	8696.61
905.042	8600.11
905.356	8663.61
905.67	8621.81
905.984	8571.64
906.297	8572.32
906.611	8460.91
906.924	8401.25
907.237	8413.45
907.551	8416.16
907.864	8375.03
908.177	8313.11
908.491	8340.91
908.804	8264.53
909.117	8226.34
909.43	8128.94
909.743	8157.41
910.056	8133.91
910.368	8096.85
910.681	8089.17
910.994	8065.44
911.307	8024.99
911.619	7950.41
911.932	7961.71
912.244	7926.23
912.557	7897.31
912.869	7821.6
913.181	7811.66
913.494	7789.06
913.806	7738.44
914.118	7673.13
914.43	7647.14
914.742	7660.7
915.054	7607.82
915.366	7590.87
915.678	7452.57
915.99	7549.52
916.302	7399.92
916.613	7408.51
916.925	7491.44
917.236	7428.39
917.548	7339.36
917.859	7316.98
918.171	7299.13
918.482	7201.51
918.794	7193.14
919.105	7169.64
919.416	7190.43
919.727	7140.04
920.038	7119.47
920.349	7030.89
920.66	7023.43
920.971	7061.62
921.282	6945.69
921.593	6982.75
921.903	6953.15
922.214	6890.33
922.525	6919.25
922.835	6801.52
923.146	6761.52
923.456	6755.19
923.767	6735.3
924.077	6746.83
924.387	6669.99
924.697	6649.2
925.008	6654.18
925.318	6656.44
925.628	6674.97
925.938	6635.42
926.248	6516.55
926.558	6508.42
926.867	6426.84
927.177	6454.86
927.487	6364.01
927.796	6327.86
928.106	6358.36
928.416	6356.33
928.725	6302.09
929.034	6235.43
929.344	6286.05
929.653	6274.75
929.962	6137.13
930.271	6169.67
930.581	6177.13
930.89	6094.87
931.199	6099.84
931.508	6062.78
931.817	6036.34
932.125	6026.85
932.434	5990.24
932.743	5967.41
933.051	5929.9
933.36	5898.71
933.669	5858.49
933.977	5815.1
934.286	5842.22
934.594	5794.99
934.902	5693.97
935.21	5692.84
935.519	5725.39
935.827	5688.33
936.135	5659.17
936.443	5644.71
936.751	5618.5
937.059	5581.44
937.367	5586.63
937.674	5538.05
937.982	5530.36
938.29	5477.26
938.597	5470.25
938.905	5490.14
939.213	5449.46
939.52	5407.43
939.827	5409.69
940.135	5354.55
940.442	5324.49
940.749	5342.57
941.056	5300.09
941.363	5248.34
941.67	5279.3
941.977	5261.44
942.284	5159.98
942.591	5197.26
942.898	5162.01
943.205	5168.34
943.511	5120.43
943.818	5114.33
944.125	5067.55
944.431	5034.33
944.738	5013.54
945.044	4965.18
945.35	4974.22
945.657	4922.24
945.963	4941
946.269	4921.34
946.575	4928.12
946.881	4913.2
947.187	4862.36
947.493	4837.5
947.799	4832.98
948.105	4763.38
948.41	4755.47
948.716	4796.82
949.022	4740.78
949.327	4811.29
949.633	4691.74
949.938	4666.2
950.244	4689.03
950.549	4612.87
950.854	4616.26
951.16	4599.77
951.465	4576.04
951.77	4536.94
952.075	4491.07
952.38	4491.52
952.685	4500.79
952.99	4475.7
953.294	4454.91
953.599	4441.13
953.904	4399.09
954.209	4381.92
954.513	4365.2
954.818	4337.85
955.122	4316.38
955.426	4307.12
955.731	4256.5
956.035	4282.03
956.339	4215.14
956.643	4231.64
956.948	4220.57
957.252	4179.44
957.556	4211.08
957.86	4189.83
958.163	4139.67
958.467	4123.39
958.771	4133.34
959.075	4121.36
959.378	4066.67
959.682	4089.27
959.985	4082.94
960.289	4031.87
960.592	4023.51
960.896	4028.48
961.199	3945.55
961.502	3933.57
961.805	3939.22
962.108	3910.07
962.411	3875.94
962.714	3858.77
963.017	3888.37
963.32	3898.09
963.623	3829.84
963.926	3824.42
964.228	3838.66
964.531	3788.26
964.833	3766.57
965.136	3745.33
965.438	3753.01
965.741	3711.65
966.043	3721.6
966.345	3649.73
966.648	3658.1
966.95	3680.69
967.252	3615.39
967.554	3623.97
967.856	3630.53
968.158	3597.53
968.46	3589.62
968.761	3550.75
969.063	3555.73
969.365	3520.7
969.666	3506.24
969.968	3459.68
970.269	3462.85
970.571	3469.4
970.872	3459.01
971.174	3448.38
971.475	3443.41
971.776	3440.93
972.077	3376.97
972.378	3397.99
972.679	3349.63
972.98	3352.79
973.281	3353.25
973.582	3318.44
973.883	3296.07
974.183	3277.31
974.484	3303.75
974.785	3272.34
975.085	3283.87
975.386	3228.05
975.686	3172.91
975.986	3219.01
976.287	3199.58
976.587	3166.58
976.887	3168.17
977.187	3122.29
977.487	3111.9
977.787	3107.6
978.087	3086.13
978.387	3083.65
978.687	3085.91
978.987	3084.33
979.286	3014.5
979.586	3024.21
979.885	3057.89
980.185	3020.37
980.484	2993.48
980.784	3010.43
981.083	2958.68
981.382	2988.51
981.682	2947.38
981.981	2927.95
982.28	2924.56
982.579	2895.86
982.878	2899.25
983.177	2881.17
983.475	2894.05
983.774	2849.53
984.073	2840.04
984.372	2813.82
984.67	2822.41
984.969	2805.01
985.267	2790.32
985.566	2806.14
985.864	2800.72
986.162	2752.13
986.461	2732.24
986.759	2737.44
987.057	2742.41
987.355	2712.58
987.653	2701.96
987.951	2713.94
988.249	2681.62
988.547	2618.12
988.844	2643.21
989.142	2662.87
989.44	2587.16
989.737	2607.28
990.035	2546.26
990.332	2544
990.63	2569.76
990.927	2568.18
991.224	2499.26
991.521	2522.08
991.819	2529.99
992.116	2536.32
992.413	2484.57
992.71	2461.07
993.006	2456.55
993.303	2434.63
993.6	2452.93
993.897	2469.65
994.193	2438.92
994.49	2399.82
994.787	2409.09
995.083	2382.42
995.379	2408.64
995.676	2373.38
995.972	2349.88
996.268	2356.21
996.565	2357.34
996.861	2324.57
997.157	2312.14
997.453	2311.92
997.749	2284.12
998.044	2287.51
998.34	2268.53
998.636	2247.96
998.932	2241.64
999.227	2219.26
999.523	2237.34
999.818	2243.67
1000.114	2197.8
1000.409	2189.66
1000.704	2190.79
1001	2159.6
1001.295	2167.06
1001.59	2122.32
1001.885	2154.63
1002.18	2104.69
1002.475	2074.86
1002.77	2092.04
1003.065	2066.05
1003.359	2066.27
1003.654	2073.28
1003.949	2057.46
1004.243	2029.89
1004.538	2011.36
1004.832	2026.05
1005.127	2021.98
1005.421	1979.27
1005.715	1961.87
1006.009	1968.42
1006.304	1930.91
1006.598	1930.46
1006.892	1901.53
1007.186	1901.76
1007.48	1907.86
1007.773	1911.25
1008.067	1912.83
1008.361	1867.86
1008.655	1862.89
1008.948	1848.43
1009.242	1857.69
1009.535	1836.45
1009.829	1835.77
1010.122	1839.16
1010.415	1808.2
1010.708	1808.43
1011.001	1800.97
1011.295	1799.39
1011.588	1807.07
1011.881	1744.93
1012.173	1745.38
1012.466	1738.82
1012.759	1716.9
1013.052	1741.54
1013.344	1708.77
1013.637	1726.62
1013.93	1692.95
1014.222	1643.91
1014.514	1654.31
1014.807	1664.25
1015.099	1651.82
1015.391	1652.5
1015.683	1643.91
1015.976	1610.92
1016.268	1605.27
1016.56	1572.28
1016.851	1604.59
1017.143	1586.06
1017.435	1559.39
1017.727	1534.54
1018.018	1586.74
1018.31	1532.05
1018.602	1529.11
1018.893	1542.45
1019.185	1504.93
1019.476	1497.02
1019.767	1491.6
1020.058	1513.75
1020.35	1472.62
1020.641	1465.39
1020.932	1439.4
1021.223	1444.59
1021.514	1446.4
1021.804	1439.4
1022.095	1406.86
1022.386	1397.59
1022.677	1412.51
1022.967	1386.29
1023.258	1418.15
1023.548	1389.45
1023.839	1397.59
1024.129	1368.44
1024.419	1334.32
1024.709	1344.26
1025	1324.15
1025.29	1330.47
1025.58	1296.12
1025.87	1277.59
1026.16	1281.89
1026.449	1279.63
1026.739	1288.44
1027.029	1230.59
1027.319	1258.84
1027.608	1253.19
1027.898	1246.86
1028.187	1243.24
1028.477	1210.93
1028.766	1221.1
1029.055	1214.54
1029.344	1206.86
1029.634	1203.7
1029.923	1195.79
1030.212	1197.14
1030.501	1146.98
1030.79	1176.35
1031.078	1163.25
1031.367	1127.09
1031.656	1159.4
1031.945	1138.61
1032.233	1112.63
1032.522	1125.51
1032.81	1083.93
1033.099	1120.76
1033.387	1088.9
1033.675	1087.77
1033.963	1080.99
1034.251	1072.4
1034.54	1067.2
1034.828	1064.04
1035.116	1074.66
1035.403	1043.7
1035.691	1039.86
1035.979	1041.44
1036.267	1036.47
1036.554	1030.59
1036.842	1035.11
1037.129	1004.61
1037.417	1009.58
1037.704	1000.99
1037.992	982.69
1038.279	1007.09
1038.566	998.28
1038.853	998.28
1039.14	998.28
