Data from hue_34_FLMS001491_00083.txt Node
Date: Tue Feb 07 17:26:19 GMT 2017
User: dcchb
Spectrometer: FLMS00149
Trigger mode: 0
Integration Time (sec): 2.000000E-2
Scans to average: 10
Electric dark correction enabled: true
Nonlinearity correction enabled: false
Boxcar width: 0
XAxis mode: Wavelengths
Number of Pixels in Spectrum: 2048
>>>>>Begin Spectral Data<<<<<
341.393	-22.6
341.776	-22.6
342.16	-22.6
342.543	-63.5
342.927	-50.17
343.31	-61.92
343.693	-73.44
344.077	-84.29
344.46	-57.17
344.843	-32.99
345.226	-49.72
345.61	-28.02
345.993	-30.51
346.376	3.39
346.759	30.51
347.142	7.46
347.525	29.15
347.908	56.5
348.291	94.69
348.674	92.88
349.057	103.5
349.44	115.7
349.823	142.82
350.206	164.06
350.588	201.12
350.971	213.55
351.354	248.36
351.737	248.13
352.119	246.32
352.502	262.82
352.884	282.7
353.267	296.26
353.65	308.47
354.032	314.79
354.414	313.89
354.797	315.7
355.179	339.2
355.562	330.39
355.944	338.52
356.326	345.98
356.709	335.36
357.091	339.88
357.473	353.89
357.855	331.06
358.238	337.39
358.62	346.21
359.002	347.56
359.384	358.63
359.766	348.24
360.148	333.55
360.53	343.27
360.912	326.32
361.294	341.46
361.676	333.78
362.057	335.81
362.439	338.97
362.821	320.9
363.203	328.58
363.584	321.35
363.966	333.32
364.348	308.01
364.729	329.03
365.111	345.75
365.493	327.67
365.874	336.49
366.256	341.46
366.637	323.38
367.019	312.76
367.4	322.93
367.781	307.34
368.163	327.9
368.544	336.26
368.925	315.02
369.306	331.97
369.688	323.83
370.069	328.13
370.45	304.62
370.831	307.56
371.212	331.97
371.593	317.73
371.974	321.8
372.355	318.41
372.736	329.26
373.117	311.86
373.498	319.77
373.879	322.48
374.26	329.71
374.641	312.99
375.021	338.3
375.402	337.84
375.783	330.84
376.163	341.46
376.544	350.05
376.925	327
377.305	331.74
377.686	325.87
378.066	322.48
378.447	332.65
378.827	340.56
379.208	336.71
379.588	325.19
379.968	325.42
380.349	341.46
380.729	348.47
381.109	327.45
381.489	345.75
381.87	324.06
382.25	343.49
382.63	366.32
383.01	325.42
383.39	363.83
383.77	355.24
384.15	345.08
384.53	356.15
384.91	351.18
385.29	379.43
385.67	357.28
386.049	364.96
386.429	361.57
386.809	363.83
387.189	366.32
387.568	352.31
387.948	344.62
388.328	351.86
388.707	349.14
389.087	364.96
389.466	382.59
389.846	374.45
390.225	383.27
390.605	370.39
390.984	378.07
391.363	370.61
391.743	381.91
392.122	379.88
392.501	393.89
392.881	384.17
393.26	380.1
393.639	381.46
394.018	371.29
394.397	371.29
394.776	395.24
395.155	383.94
395.534	395.02
395.913	385.75
396.292	380.78
396.671	377.39
397.05	389.59
397.429	379.2
397.808	387.79
398.186	385.53
398.565	407.9
398.944	381.91
399.323	400.44
399.701	397.73
400.08	387.56
400.458	408.12
400.837	407.45
401.215	395.92
401.594	416.49
401.972	412.87
402.351	393.44
402.729	419.65
403.107	413.32
403.486	412.64
403.864	402.93
404.242	418.07
404.62	409.93
404.999	412.19
405.377	430.95
405.755	428.24
406.133	414.9
406.511	419.88
406.889	415.13
407.267	440.67
407.645	420.33
408.023	419.2
408.401	443.15
408.779	436.15
409.156	440.44
409.534	444.06
409.912	474.79
410.29	460.1
410.667	445.41
411.045	474.56
411.422	445.64
411.8	443.6
412.178	458.29
412.555	482.93
412.933	461.46
413.31	473.89
413.687	472.08
414.065	492.42
414.442	498.07
414.819	472.53
415.197	485.41
415.574	492.64
415.951	516.14
416.328	508.46
416.705	495.58
417.082	476.82
417.46	509.37
417.837	490.38
418.214	517.27
418.591	515.47
418.967	501.68
419.344	522.25
419.721	529.7
420.098	512.53
420.475	535.58
420.852	537.16
421.228	519.53
421.605	537.61
421.982	513.88
422.358	538.52
422.735	555.69
423.111	531.06
423.488	536.26
423.864	559.53
424.241	547.56
424.617	544.62
424.994	538.97
425.37	549.14
425.746	569.93
426.123	547.56
426.499	563.38
426.875	602.7
427.251	579.42
427.627	588.01
428.003	609.93
428.379	597.95
428.756	601.79
429.132	590.49
429.507	621.68
429.883	613.54
430.259	605.86
430.635	625.07
431.011	611.96
431.387	632.3
431.763	630.04
432.138	626.2
432.514	641.57
432.89	668.68
433.265	652.86
433.641	642.47
434.016	667.1
434.392	666.65
434.767	677.27
435.143	691.28
435.518	663.71
435.894	715.24
436.269	710.04
436.644	698.74
437.02	716.59
437.395	694.67
437.77	700.77
438.145	701.45
438.52	727.66
438.895	722.92
439.271	740.09
439.646	745.97
440.021	753.88
440.395	750.94
440.77	752.75
441.145	758.17
441.52	762.47
441.895	774.67
442.27	758.62
442.645	787.1
443.019	766.53
443.394	772.64
443.769	790.71
444.143	760.21
444.518	778.96
444.892	793.43
445.267	791.84
445.641	799.98
446.016	792.07
446.39	830.94
446.764	812.63
447.139	803.14
447.513	810.15
447.887	861.67
448.262	825.06
448.636	849.7
449.01	814.89
449.384	853.08
449.758	853.54
450.132	844.95
450.506	875.46
450.88	841.79
451.254	873.65
451.628	869.13
452.002	886.76
452.376	884.04
452.75	881.78
453.123	885.4
453.497	904.38
453.871	950.26
454.244	917.04
454.618	947.55
454.992	967.21
455.365	934.89
455.739	956.81
456.112	945.29
456.486	1005.4
456.859	963.36
457.232	1003.59
457.606	1000.2
457.979	1016.7
458.352	1018.96
458.725	1032.97
459.099	1020.54
459.472	1061.89
459.845	1086.53
460.218	1083.14
460.591	1089.24
460.964	1084.72
461.337	1125.85
461.71	1101.89
462.083	1119.29
462.456	1154.77
462.829	1168.1
463.201	1145.51
463.574	1175.79
463.947	1196.13
464.32	1206.07
464.692	1246.52
465.065	1220.53
465.438	1238.39
465.81	1237.26
466.183	1266.86
466.555	1303.92
466.928	1307.31
467.3	1324.48
467.672	1346.86
468.045	1356.12
468.417	1349.34
468.789	1377.82
469.161	1412.84
469.534	1384.6
469.906	1460.75
470.278	1466.4
470.65	1479.28
471.022	1539.62
471.394	1543.46
471.766	1583.46
472.138	1576
472.51	1618.94
472.882	1649.45
473.253	1657.36
473.625	1703.68
473.997	1732.16
474.369	1737.13
474.74	1781.65
475.112	1825.49
475.484	1838.37
475.855	1897.35
476.227	1907.75
476.598	1952.04
476.97	2010.57
477.341	2045.82
477.713	2076.33
478.084	2098.25
478.455	2181.86
478.827	2218.92
479.198	2302.54
479.569	2340.5
479.94	2377.56
480.311	2432.7
480.682	2476.77
481.053	2565.36
481.424	2612.36
481.795	2619.82
482.166	2730.32
482.537	2771.68
482.908	2858.91
483.279	2906.82
483.65	3003.31
484.021	3048.06
484.391	3117.66
484.762	3180.71
485.133	3227.26
485.503	3318.56
485.874	3419.57
486.244	3463.86
486.615	3571.88
486.985	3622.73
487.356	3740.01
487.726	3804.65
488.097	3856.17
488.467	3942.95
488.837	4053
489.207	4181.81
489.578	4237.4
489.948	4308.81
490.318	4354.69
490.688	4422.71
491.058	4543.16
491.428	4601.23
491.798	4749.93
492.168	4778.41
492.538	4847.56
492.908	4951.96
493.278	5107.89
493.648	5121.45
494.017	5215.46
494.387	5298.17
494.757	5339.75
495.126	5500.19
495.496	5546.07
495.866	5545.62
496.235	5639.85
496.605	5767.53
496.974	5837.36
497.344	5900.64
497.713	5963.46
498.082	6001.65
498.452	6145.6
498.821	6214.53
499.19	6197.58
499.559	6301.53
499.928	6373.62
500.298	6499.49
500.667	6544.46
501.036	6616.32
501.405	6689.09
501.774	6710.33
502.143	6723.44
502.512	6901.97
502.88	6923.66
503.249	6939.03
503.618	7047.72
503.987	7050.89
504.356	7138.8
504.724	7211.11
505.093	7230.32
505.462	7296.98
505.83	7341.05
506.199	7404.78
506.567	7533.81
506.936	7487.49
507.304	7669.63
507.672	7688.39
508.041	7740.81
508.409	7840.25
508.777	7879.79
509.145	7968.15
509.514	7955.72
509.882	8061.71
510.25	8094.7
510.618	8129.5
510.986	8138.54
511.354	8263.74
511.722	8301.48
512.09	8337.18
512.458	8445.43
512.826	8453.79
513.193	8581.92
513.561	8530.4
513.929	8647.23
514.297	8701.24
514.664	8759.09
515.032	8802.48
515.4	8732.88
515.767	8900.1
516.135	8917.96
516.502	8902.14
516.869	9009.71
517.237	9037.95
517.604	9068.01
517.972	9178.74
518.339	9212.41
518.706	9198.18
519.073	9238.18
519.44	9368.34
519.808	9378.51
520.175	9426.42
520.542	9627.77
520.909	9589.35
521.276	9580.54
521.643	9651.27
522.009	9701.89
522.376	9816.69
522.743	9832.06
523.11	9848.1
523.477	9921.1
523.843	10027.31
524.21	10148.21
524.577	10232.73
524.943	10245.38
525.31	10208.32
525.676	10399.73
526.043	10400.18
526.409	10440.86
526.776	10595.43
527.142	10571.7
527.508	10663.67
527.874	10792.48
528.241	10764.69
528.607	10833.16
528.973	10887.17
529.339	10865.25
529.705	11013.95
530.071	11132.36
530.437	11135.3
530.803	11189.31
531.169	11219.82
531.535	11291.91
531.901	11285.58
532.267	11360.15
532.632	11427.72
532.998	11370.32
533.364	11523.76
533.73	11590.43
534.095	11674.04
534.461	11710.65
534.826	11717.21
535.192	11766.7
535.557	11839.24
535.923	11867.26
536.288	11959.01
536.653	12018.67
537.019	11997.2
537.384	11992.68
537.749	12128.49
538.114	12228.15
538.479	12225.89
538.845	12228.83
539.21	12239
539.575	12308.6
539.94	12426.79
540.305	12462.27
540.67	12519.67
541.034	12535.04
541.399	12635.15
541.764	12590.86
542.129	12715.6
542.494	12686.45
542.858	12733.45
543.223	12734.58
543.587	12881.24
543.952	12874.24
544.316	12849.61
544.681	12994.46
545.045	13067.45
545.41	13174.57
545.774	13158.98
546.138	13188.35
546.503	13202.82
546.867	13301.8
547.231	13358.74
547.595	13457.27
547.959	13443.26
548.324	13452.75
548.688	13457.27
549.052	13585.41
549.416	13601.22
549.779	13568.23
550.143	13674.44
550.507	13751.73
550.871	13770.26
551.235	13750.15
551.599	13837.38
551.962	13943.81
552.326	14061.78
552.689	14050.93
553.053	14005.73
553.417	14086.41
553.78	14297.03
554.143	14155.79
554.507	14313.07
554.87	14295.67
555.234	14472.39
555.597	14369.79
555.96	14433.52
556.323	14425.84
556.686	14488.21
557.05	14577.92
557.413	14622.21
557.776	14682.78
558.139	14733.17
558.502	14724.13
558.865	14882.77
559.228	14962.54
559.59	14975.65
559.953	15011.13
560.316	15163.67
560.679	15175.42
561.041	15238.92
561.404	15230.11
561.767	15325.02
562.129	15213.16
562.492	15391.01
562.854	15388.07
563.217	15458.8
563.579	15479.14
563.941	15583.32
564.304	15650.66
564.666	15650.21
565.028	15736.76
565.39	15816.31
565.753	15908.51
566.115	15918.9
566.477	16037.77
566.839	16009.3
567.201	16176.98
567.563	16106.02
567.925	16348.95
568.287	16229.18
568.648	16356.63
569.01	16471.88
569.372	16517.08
569.734	16440.25
570.095	16572.22
570.457	16668.94
570.819	16722.95
571.18	16801.59
571.542	16894.47
571.903	16871.87
572.265	17017.63
572.626	17037.97
572.987	17244.97
573.349	17229.6
573.71	17267.57
574.071	17360.9
574.432	17437.28
574.794	17597.28
575.155	17625.3
575.516	17605.41
575.877	17898.06
576.238	17989.36
576.599	18068.9
576.96	18071.39
577.32	18214.21
577.681	18352.96
578.042	18412.62
578.403	18573.52
578.763	18767.64
579.124	18836.34
579.485	19045.37
579.845	19134.19
580.206	19255.09
580.566	19385.48
580.927	19591.58
581.287	19817.78
581.648	19851.23
582.008	20064.33
582.368	20192.69
582.728	20337.77
583.089	20531.89
583.449	20693.24
583.809	20877.42
584.169	21163.96
584.529	21166.22
584.889	21556.27
585.249	21614.57
585.609	21809.37
585.969	22140.89
586.329	22313.99
586.688	22476.92
587.048	22718.72
587.408	22870.36
587.768	23143.35
588.127	23274.19
588.487	23543.56
588.846	23989.43
589.206	24004.79
589.565	24272.13
589.925	24558.45
590.284	24681.16
590.643	24981.72
591.003	25225.78
591.362	25548.48
591.721	25716.84
592.08	26098.07
592.44	26401.79
592.799	26506.42
593.158	26788
593.517	26985.51
593.876	27300.75
594.235	27491.03
594.593	27903
594.952	27964.69
595.311	28170.56
595.67	28483.54
596.029	28831.78
596.387	29113.58
596.746	29396.74
597.104	29488.72
597.463	29713.57
597.822	30067.91
598.18	30145.87
598.538	30426.77
598.897	30799.87
599.255	30819.08
599.613	31389.23
599.972	31444.6
600.33	31753.29
600.688	31741.99
601.046	32167.06
601.404	32372.71
601.762	32387.17
602.12	32815.63
602.478	32920.26
602.836	33104.21
603.194	33103.99
603.552	33470.53
603.91	33434.83
604.268	33753.46
604.625	34023.29
604.983	34280.45
605.341	34265.09
605.698	34484.07
606.056	34754.79
606.413	34853.32
606.771	35170.37
607.128	35230.94
607.485	35323.59
607.843	35550.48
608.2	35787.08
608.557	36115.43
608.914	36030.92
609.272	36377.12
609.629	36603.56
609.986	36751.58
610.343	36764.91
610.7	37072.25
611.057	37196.31
611.414	37362.86
611.771	37364.67
612.127	37667.26
612.484	37814.15
612.841	37928.49
613.198	37806.46
613.554	38089.62
613.911	38349.05
614.267	38444.41
614.624	38486.45
614.98	38602.15
615.337	38838.07
615.693	38852.31
616.05	38975.02
616.406	39279.42
616.762	39254.56
617.118	39409.36
617.475	39231.96
617.831	39670.6
618.187	39736.36
618.543	39622.01
618.899	40177.02
619.255	40096.12
619.611	40109.23
619.967	40373.63
620.323	40499.05
620.678	40327.3
621.034	40381.76
621.39	40552.38
621.746	40536.56
622.101	40929.32
622.457	40701.3
622.812	40884.35
623.168	41114.85
623.523	41076.66
623.879	41184.91
624.234	41052.71
624.589	41263.1
624.945	41189.88
625.3	41315.98
625.655	41335.64
626.01	41355.52
626.365	41394.62
626.72	41494.73
627.075	41544.67
627.43	41473.26
627.785	41473.26
628.14	41538.12
628.495	41778.11
628.85	41650.88
629.205	41613.82
629.559	41759.81
629.914	41631.22
630.269	41796.19
630.623	41736.08
630.978	41603.2
631.332	41716.64
631.687	41788.28
632.041	41772.23
632.396	41896.98
632.75	41692.46
633.104	41877.54
633.459	41654.27
633.813	41725.68
634.167	41587.61
634.521	41716.87
634.875	41716.64
635.229	41728.17
635.583	41597.78
635.937	41664.67
636.291	41666.02
636.645	41715.97
636.999	41540.38
637.352	41693.59
637.706	41463.54
638.06	41637.1
638.413	41459.93
638.767	41399.14
639.121	41611.11
639.474	41371.79
639.828	41290.67
640.181	41487.27
640.534	41488.63
640.888	41460.6
641.241	41374.73
641.594	41413.83
641.947	41564.33
642.301	41372.7
642.654	41396.43
643.007	41557.78
643.36	41409.31
643.713	41422.64
644.066	41493.82
644.419	41311.68
644.771	40854.52
645.124	40621.76
645.477	40659.95
645.83	40316.23
646.182	40129.57
646.535	40187.19
646.888	40205.27
647.24	39935.22
647.593	40210.02
647.945	40017.93
648.298	39954.43
648.65	39992.62
649.002	39856.58
649.355	40004.15
649.707	39972.51
650.059	40084.14
650.411	40593.51
650.763	40515.32
651.115	40843.22
651.467	40828.31
651.819	40791.47
652.171	40787.63
652.523	40714.86
652.875	40662.21
653.227	40605.03
653.578	40841.41
653.93	40836.44
654.282	40496.56
654.633	40592.15
654.985	40524.58
655.337	40595.77
655.688	40588.99
656.039	40796.44
656.391	40415.66
656.742	40611.36
657.094	40628.99
657.445	40776.1
657.796	40561.42
658.147	40542.21
658.498	40483.46
658.849	40517.58
659.2	40526.62
659.551	40442.78
659.902	40487.07
660.253	40421.99
660.604	40431.93
660.955	40192.84
661.306	40478.03
661.656	40367.98
662.007	40401.65
662.358	40374.76
662.708	40452.72
663.059	40366.17
663.409	40226.29
663.76	40454.76
664.11	40400.52
664.461	40304.25
664.811	40395.55
665.161	40327.75
665.511	40245.95
665.862	40242.56
666.212	40409.56
666.562	40267.42
666.912	40201.2
667.262	40291.82
667.612	40257.25
667.962	40137.02
668.312	40207.76
668.662	40332.5
669.011	40184.71
669.361	40151.49
669.711	40233.97
670.06	40156.01
670.41	40047.99
670.76	40167.76
671.109	40179.51
671.459	39967.54
671.808	40077.59
672.157	40136.12
672.507	39813.19
672.856	39922.11
673.205	39970.93
673.554	39995.56
673.904	39919.4
674.253	40289.34
674.602	40048.44
674.951	39417.95
675.3	39315.35
675.649	39887.31
675.998	39824.94
676.346	39701.33
676.695	39897.93
677.044	39607.32
677.393	39843.02
677.741	39865.84
678.09	39678.5
678.438	39666.08
678.787	39735
679.135	39686.19
679.484	39467.21
679.832	39598.05
680.181	39618.17
680.529	39476.48
680.877	39451.39
681.225	39362.81
681.573	39631.5
681.922	39399.87
682.27	39356.25
682.618	39343.82
682.966	39089.59
683.314	39343.37
683.661	39117.39
684.009	38942.7
684.357	38846.21
684.705	38750.85
685.053	38913.55
685.4	38737.51
685.748	38509.04
686.095	38547.46
686.443	38386.56
686.79	38314.02
687.138	38500.68
687.485	38506.56
687.832	38257.75
688.18	38351.76
688.527	38099.56
688.874	38074.48
689.221	38099.79
689.568	37943.41
689.915	37926.91
690.262	37870.87
690.609	37761.94
690.956	37697.77
691.303	37599.46
691.65	37389.75
691.997	37511.78
692.344	37351.33
692.69	37244.9
693.037	37130.1
693.383	36917.9
693.73	37015.07
694.077	36892.82
694.423	36935.75
694.769	36813.27
695.116	36434.97
695.462	36693.5
695.808	36517.23
696.155	36552.49
696.501	36378.03
696.847	36125.83
697.193	36066.17
697.539	36266.39
697.885	35957.25
698.231	35831.15
698.577	35832.28
698.923	35688.33
699.269	35673.86
699.614	35563.58
699.96	35342.8
700.306	35517.03
700.651	35279.3
700.997	35155.69
701.342	35137.83
701.688	35009.25
702.033	34982.36
702.379	34885.18
702.724	34874.56
703.069	34921.12
703.415	34474.12
703.76	34541.46
704.105	34531.97
704.45	34464.63
704.795	34237.29
705.14	34051.08
705.485	34097.18
705.83	33921.82
706.175	34059.9
706.52	33961.59
706.865	33898.32
707.209	33845.21
707.554	33702.84
707.899	33761.37
708.243	33454.49
708.588	33359.12
708.932	33327.94
709.277	33324.55
709.621	33296.53
709.966	33043.65
710.31	33169.75
710.654	32859.02
710.998	33013.14
711.342	33013.37
711.687	32751.68
712.031	32589.88
712.375	32540.61
712.719	32634.17
713.063	32473.72
713.407	32607.5
713.75	32466.72
714.094	32421.75
714.438	32347.17
714.782	32266.27
715.125	32191.02
715.469	32274.41
715.812	32122.77
716.156	31995.77
716.499	31970.23
716.843	31981.31
717.186	31671.26
717.53	32066.05
717.873	31846.62
718.216	31887.07
718.559	31551.94
718.902	31421.55
719.246	31406.86
719.589	31405.95
719.932	31342.45
720.275	31350.59
720.617	31248.44
720.96	31219.07
721.303	31186.75
721.646	31138.62
721.989	30966.42
722.331	30991.05
722.674	30914.22
723.016	31045.96
723.359	30851.84
723.701	30897.27
724.044	30749.93
724.386	30480.55
724.729	30723.71
725.071	30700.66
725.413	30664.96
725.755	30567.11
726.097	30335.25
726.439	30243.05
726.782	30370.05
727.124	30591.29
727.465	30305.19
727.807	30158.53
728.149	30200.11
728.491	30217.06
728.833	30357.39
729.175	30098.64
729.516	29994.69
729.858	29963.05
730.199	29974.13
730.541	29873.11
730.882	29887.58
731.224	30015.71
731.565	29796.28
731.906	29795.15
732.248	29742.49
732.589	29485.78
732.93	29586.57
733.271	29602.16
733.612	29507.7
733.953	29534.82
734.294	29387.7
734.635	29381.15
734.976	29455.27
735.317	29231.32
735.658	29203.07
735.999	29177.09
736.339	29210.53
736.68	29281.26
737.021	29080.37
737.361	29066.13
737.702	29080.59
738.042	29096.64
738.383	28912.69
738.723	28982.74
739.063	28929.41
739.404	28842.41
739.744	28800.82
740.084	28754.5
740.424	28687.83
740.764	28714.95
741.104	28739.81
741.444	28624.56
741.784	28615.52
742.124	28677.66
742.464	28642.86
742.804	28596.76
743.143	28506.82
743.483	28443.77
743.823	28251.01
744.162	28298.92
744.502	28344.57
744.841	28233.61
745.181	28266.83
745.52	28147.96
745.86	28174.85
746.199	28046.04
746.538	28092.37
746.877	28041.52
747.216	28130.56
747.556	27978.02
747.895	27983.9
748.234	27861.41
748.573	27913.16
748.911	27674.75
749.25	27788.65
749.589	27742.77
749.928	27709.78
750.267	27783.45
750.605	27631.36
750.944	27495.55
751.283	27470.01
751.621	27571.25
751.96	27367.64
752.298	27423.69
752.636	27335.78
752.975	27325.38
753.313	27216.46
753.651	27251.94
753.989	27102.11
754.327	27042.45
754.666	27047.88
755.004	27031.15
755.342	26975.34
755.679	26928.78
756.017	26707.32
756.355	26883.36
756.693	26615.8
757.031	26694.44
757.368	26578.06
757.706	26546.87
758.044	26383.71
758.381	26480.66
758.719	26383.26
759.056	26325.18
759.394	26247.45
759.731	26061.46
760.068	26271.85
760.405	25952.54
760.743	25893.33
761.08	25956.61
761.417	25917.51
761.754	25716.39
762.091	25735.59
762.428	25690.17
762.765	25462.16
763.102	25567.92
763.438	25417.86
763.775	25274.14
764.112	25335.15
764.449	25322.05
764.785	25204.08
765.122	25056.29
765.458	24988.04
765.795	24911.21
766.131	24952.11
766.467	24816.75
766.804	24642.52
767.14	24619.92
767.476	24526.36
767.812	24482.75
768.148	24556.19
768.485	24326.82
768.821	24172.7
769.157	24182.64
769.492	24074.85
769.828	23996.21
770.164	23825.59
770.5	23774.29
770.836	23747.4
771.171	23678.47
771.507	23692.94
771.842	23472.83
772.178	23436.67
772.513	23317.35
772.849	23248.2
773.184	23147.87
773.519	23191.48
773.855	23042.56
774.19	22961.88
774.525	22952.16
774.86	22853.86
775.195	22694.77
775.53	22789.91
775.865	22575.9
776.2	22523.7
776.535	22374.33
776.87	22321.9
777.205	22341.33
777.539	22178.4
777.874	22196.93
778.209	21898.41
778.543	21963.49
778.878	21863.38
779.212	21804.4
779.547	21660
779.881	21654.57
780.215	21490.96
780.55	21597.17
780.884	21394.01
781.218	21336.39
781.552	21329.83
781.886	21319.44
782.22	21015.27
782.554	21063.4
782.888	20854.14
783.222	20804.88
783.556	20657.76
783.889	20728.27
784.223	20521.95
784.557	20497.77
784.89	20500.03
785.224	20392.46
785.557	20359.69
785.891	20223.88
786.224	20100.26
786.558	20146.81
786.891	20034.05
787.224	19914.5
787.557	19773.72
787.891	19831.34
788.224	19847.39
788.557	19669.99
788.89	19648.97
789.223	19675.41
789.556	19499.37
789.888	19375.54
790.221	19372.82
790.554	19278.36
790.887	19204.24
791.219	19148.65
791.552	18997.01
791.884	19100.97
792.217	19026.84
792.549	18875.21
792.882	18765.38
793.214	18739.85
793.546	18877.47
793.879	18582.56
794.211	18542.79
794.543	18646.74
794.875	18562.45
795.207	18576.46
795.539	18419.63
795.871	18386.18
796.203	18270.93
796.535	18102.35
796.867	18083.37
797.198	18104.83
797.53	18030.49
797.862	17990.49
798.193	17979.64
798.525	17839.08
798.856	17870.94
799.188	17672.98
799.519	17624.17
799.85	17484.51
800.182	17489.48
800.513	17509.14
800.844	17321.58
801.175	17461.91
801.506	17346.44
801.837	17289.26
802.168	17227.8
802.499	17225.08
802.83	17094.47
803.161	17022.38
803.491	17030.06
803.822	16962.72
804.153	16863.29
804.483	16793.46
804.814	16726.79
805.145	16772.67
805.475	16678.88
805.805	16651.99
806.136	16670.07
806.466	16628.49
806.796	16536.29
807.126	16436.18
807.457	16407.25
807.787	16486.57
808.117	16229.4
808.447	16230.99
808.777	16326.8
809.107	16234.38
809.436	16027.6
809.766	16092.01
810.096	16056.98
810.426	16041.84
810.755	16011.1
811.085	16040.93
811.414	15844.1
811.744	15847.94
812.073	15781.28
812.403	15814.5
812.732	15694.28
813.061	15750.77
813.39	15595.52
813.719	15511.68
814.049	15630.78
814.378	15532.47
814.707	15439.37
815.036	15438.24
815.365	15406.37
815.693	15204.57
816.022	15281.18
816.351	15249.77
816.68	15120.51
817.008	15156.89
817.337	15050.68
817.665	15071.92
817.994	15059.04
818.322	15070.56
818.651	14956.67
818.979	14897.24
819.307	14954.86
819.636	14870.34
819.964	14822.21
820.292	14854.52
820.62	14845.49
820.948	14720.06
821.276	14724.36
821.604	14849.55
821.932	14780.18
822.259	14863.34
822.587	14797.8
822.915	14798.93
823.243	14741.99
823.57	14768.2
823.898	14770.69
824.225	14632.84
824.553	14704.92
824.88	14746.05
825.207	14700.86
825.535	14673.06
825.862	14709.22
826.189	14640.97
826.516	14703.34
826.843	14695.66
827.17	14700.18
827.497	14707.86
827.824	14694.75
828.151	14697.01
828.478	14665.83
828.805	14694.3
829.131	14613.85
829.458	14724.81
829.785	14622.67
830.111	14649.78
830.438	14740.63
830.764	14666.96
831.09	14634.42
831.417	14615.89
831.743	14587.19
832.069	14504.7
832.395	14480.75
832.722	14588.32
833.048	14479.39
833.374	14646.62
833.7	14464.7
834.026	14565.04
834.351	14483.69
834.677	14494.99
835.003	14472.39
835.329	14597.13
835.654	14373.41
835.98	14393.75
836.306	14367.53
836.631	14351.49
836.956	14338.83
837.282	14410.24
837.607	14309.23
837.932	14298.83
838.258	14200.76
838.583	14216.58
838.908	14106.52
839.233	14252.28
839.558	14155.11
839.883	14108.33
840.208	14091.83
840.533	14129.8
840.858	14005.73
841.182	14131.38
841.507	14020.2
841.832	14023.59
842.156	13943.14
842.481	14033.53
842.805	13941.78
843.13	13815.23
843.454	13822.46
843.778	13795.57
844.103	13687.55
844.427	13737.27
844.751	13747.66
845.075	13742.69
845.399	13667.21
845.723	13591.06
846.047	13646.87
846.371	13496.59
846.695	13503.83
847.019	13378.18
847.343	13310.38
847.666	13285.53
847.99	13193.78
848.313	13176.38
848.637	13075.14
848.96	13099.54
849.284	13018.19
849.607	12915.59
849.931	12948.36
850.254	12853.9
850.577	12801.47
850.9	12781.81
851.223	12767.8
851.546	12633.57
851.869	12571.87
852.192	12558.31
852.515	12447.58
852.838	12432.44
853.161	12426.34
853.483	12352.9
853.806	12336.4
854.129	12347.02
854.451	12199.45
854.774	12151.09
855.096	12103.18
855.419	12121.94
855.741	12097.54
856.063	11998.55
856.385	12007.37
856.708	11926.92
857.03	11897.31
857.352	11896.41
857.674	11806.92
857.996	11801.95
858.318	11726.47
858.64	11716.53
858.961	11722.86
859.283	11620.26
859.605	11627.94
859.926	11660.03
860.248	11535.06
860.57	11547.04
860.891	11522.63
861.212	11543.43
861.534	11514.05
861.855	11456.42
862.176	11445.35
862.498	11442.19
862.819	11379.36
863.14	11312.02
863.461	11330.1
863.782	11316.99
864.103	11337.1
864.424	11281.74
864.745	11251.46
865.065	11196.09
865.386	11150.89
865.707	11253.94
866.027	11138.69
866.348	11170.33
866.668	11064.12
866.989	11108.41
867.309	10956.32
867.63	11101.18
867.95	11137.33
868.27	11008.75
868.59	11016.66
868.91	11009.65
869.23	10985.47
869.55	10788.87
869.87	11006.94
870.19	10921.75
870.51	10933.95
870.83	10827.29
871.15	10918.81
871.469	10827.74
871.789	10831.35
872.109	10807.4
872.428	10675.2
872.748	10828.87
873.067	10765.82
873.386	10709.32
873.706	10715.2
874.025	10688.08
874.344	10695.09
874.663	10627.52
874.982	10680.85
875.301	10666.84
875.62	10614.86
875.939	10568.54
876.258	10593.39
876.577	10513.17
876.896	10520.4
877.214	10470.23
877.533	10472.04
877.852	10435.66
878.17	10489.44
878.489	10441.76
878.807	10386.17
879.125	10385.49
879.444	10359.73
879.762	10342.55
880.08	10342.33
880.398	10277.02
880.716	10299.62
881.034	10302.55
881.352	10261.65
881.67	10238.83
881.988	10282.67
882.306	10249.9
882.624	10196.79
882.941	10131.03
883.259	10104.82
883.577	10105.5
883.894	10130.58
884.212	9999.06
884.529	10045.84
884.846	9956.57
885.164	9998.16
885.481	9940.08
885.798	9960.64
886.115	9890.36
886.432	9872.51
886.75	9837.71
887.067	9842.23
887.383	9882.23
887.7	9815.34
888.017	9736.69
888.334	9790.93
888.651	9689.46
888.967	9724.49
889.284	9700.54
889.6	9648.56
889.917	9646.53
890.233	9648.56
890.55	9540.54
890.866	9528.79
891.182	9487.66
891.498	9496.7
891.815	9467.77
892.131	9405.85
892.447	9480.43
892.763	9406.76
893.079	9362.24
893.395	9336.93
893.71	9326.31
894.026	9319.3
894.342	9261.9
894.657	9237.05
894.973	9184.17
895.289	9221.45
895.604	9173.32
895.92	9094.45
896.235	9034.79
896.55	8984.85
896.865	8982.14
897.181	8936.71
897.496	8990.05
897.811	8966.77
898.126	8877.51
898.441	8845.87
898.756	8763.16
899.071	8802.93
899.386	8793.89
899.7	8689.49
900.015	8669.83
900.33	8645.42
900.644	8614.46
900.959	8614.91
901.273	8552.09
901.588	8494.47
901.902	8475.71
902.216	8491.75
902.531	8453.11
902.845	8452.89
903.159	8387.58
903.473	8358.2
903.787	8313.23
904.101	8310.74
904.415	8294.7
904.729	8240.24
905.042	8166.11
905.356	8169.73
905.67	8146
905.984	8173.34
906.297	8096.06
906.611	8088.37
906.924	8087.7
907.237	8020.35
907.551	8019.22
907.864	7886.57
908.177	7959.79
908.491	7944.88
908.804	7905.78
909.117	7826.46
909.43	7770.42
909.743	7735.16
910.056	7738.33
910.368	7694.26
910.681	7639.57
910.994	7641.83
911.307	7630.31
911.619	7577.43
911.932	7546.02
912.244	7504.66
912.557	7429.18
912.869	7498.11
913.181	7339.02
913.494	7331.11
913.806	7356.42
914.118	7332.91
914.43	7259.02
914.742	7256.31
915.054	7214.73
915.366	7219.92
915.678	7109.19
915.99	7131.11
916.302	7113.03
916.613	7010.66
916.925	7063.77
917.236	7050.89
917.548	6996.65
917.859	6927.5
918.171	6936.99
918.482	6901.74
918.794	6873.49
919.105	6832.36
919.416	6812.02
919.727	6794.85
920.038	6754.4
920.349	6719.82
920.66	6668.07
920.971	6701.97
921.282	6660.84
921.593	6599.37
921.903	6549.21
922.214	6539.72
922.525	6528.42
922.835	6510.56
923.146	6490.45
923.456	6491.58
923.767	6389.89
924.077	6392.83
924.387	6429.66
924.697	6327.29
925.008	6327.52
925.318	6290.46
925.628	6297.01
925.938	6243.68
926.248	6161.42
926.558	6162.55
926.867	6127.52
927.177	6134.98
927.487	6040.29
927.796	6071.25
928.106	6058.82
928.416	6015.66
928.725	6042.78
929.034	6035.1
929.344	5981.31
929.653	6011.37
929.962	5881.88
930.271	5866.29
930.581	5825.38
930.89	5813.63
931.199	5815.89
931.508	5748.32
931.817	5751.49
932.125	5732.28
932.434	5713.75
932.743	5693.64
933.051	5650.7
933.36	5631.26
933.669	5649.57
933.977	5579.74
934.286	5587.42
934.594	5572.96
934.902	5480.31
935.21	5464.04
935.519	5489.57
935.827	5440.99
936.135	5419.07
936.443	5348.33
936.751	5319.18
937.059	5356.02
937.367	5336.58
937.674	5335.9
937.982	5302.69
938.29	5222.24
938.597	5277.83
938.905	5151.5
939.213	5134.55
939.52	5155.12
939.827	5131.39
940.135	5163.48
940.442	5089.81
940.749	5048
941.056	5082.8
941.363	5004.39
941.67	4981.11
941.977	4960.77
942.284	4931.17
942.591	4930.04
942.898	4933.43
943.205	4873.77
943.511	4923.94
943.818	4858.4
944.125	4856.37
944.431	4850.04
944.738	4831.51
945.044	4771.85
945.35	4762.59
945.657	4772.53
945.963	4762.81
946.269	4720.55
946.575	4707.9
946.881	4642.14
947.187	4622.03
947.493	4608.92
947.799	4630.61
948.105	4589.71
948.41	4498.86
948.716	4556.72
949.022	4537.28
949.327	4518.3
949.633	4459.32
949.938	4473.1
950.244	4476.94
950.549	4436.95
950.854	4380.68
951.16	4416.38
951.465	4387.91
951.77	4307.23
952.075	4357.63
952.38	4349.49
952.685	4335.25
952.99	4254.35
953.294	4247.57
953.599	4222.71
953.904	4237.18
954.209	4181.58
954.513	4192.66
954.818	4173.22
955.122	4173.68
955.426	4115.37
955.731	4067.69
956.035	4035.6
956.339	4092.77
956.643	4050.97
956.948	4033.11
957.252	4046.22
957.556	4016.84
957.86	3970.52
958.163	3956.73
958.467	3934.13
958.771	3914.02
959.075	3897.3
959.378	3896.85
959.682	3903.85
959.985	3864.98
960.289	3861.59
960.592	3807.36
960.896	3833.57
961.199	3818.88
961.502	3794.02
961.805	3739.34
962.108	3753.12
962.411	3768.71
962.714	3706.8
963.017	3711.99
963.32	3679.9
963.623	3674.71
963.926	3647.36
964.228	3657.98
964.531	3639.45
964.833	3611.2
965.136	3580.02
965.438	3595.39
965.741	3556.74
966.043	3545.44
966.345	3496.18
966.648	3509.29
966.95	3520.81
967.252	3477.2
967.554	3448.27
967.856	3469.51
968.158	3409.85
968.46	3433.36
968.761	3418.44
969.063	3412.34
969.365	3382.96
969.666	3393.81
969.968	3342.51
970.269	3336.41
970.571	3294.38
970.872	3335.28
971.174	3310.65
971.475	3260.03
971.776	3255.28
972.077	3264.77
972.378	3214.15
972.679	3260.25
972.98	3189.75
973.281	3205.79
973.582	3187.03
973.883	3187.26
974.183	3151.1
974.484	3159.01
974.785	3160.14
975.085	3122.63
975.386	3120.82
975.686	3113.36
975.986	3096.19
976.287	3050.99
976.587	3053.25
976.887	3011.45
977.187	3053.48
977.487	2979.81
977.787	3030.88
978.087	2976.19
978.387	2985.68
978.687	2983.65
978.987	2919.47
979.286	2939.13
979.586	2926.02
979.885	2875.18
980.185	2877.66
980.484	2890.55
980.784	2874.5
981.083	2830.21
981.382	2878.57
981.682	2803.99
981.981	2862.52
982.28	2808.29
982.579	2806.03
982.878	2776.2
983.177	2800.38
983.475	2731.91
983.774	2728.74
984.073	2745.46
984.372	2684.68
984.67	2705.01
984.969	2711.79
985.267	2655.98
985.566	2691.23
985.864	2649.42
986.162	2676.77
986.461	2608.29
986.759	2589.31
987.057	2585.92
987.355	2571.46
987.653	2613.72
987.951	2584.11
988.249	2576.66
988.547	2535.75
988.844	2527.17
989.142	2538.92
989.44	2501.18
989.737	2519.48
990.035	2502.08
990.332	2461.86
990.63	2492.82
990.927	2429.54
991.224	2438.13
991.521	2405.59
991.819	2429.99
992.116	2376.21
992.413	2389.54
992.71	2384.12
993.006	2375.3
993.303	2380.95
993.6	2345.7
993.897	2347.73
994.193	2333.95
994.49	2298.24
994.787	2284.46
995.083	2307.96
995.379	2296.44
995.676	2275.87
995.972	2240.62
996.268	2234.97
996.565	2261.86
996.861	2226.83
997.157	2190.68
997.453	2192.26
997.749	2204.01
998.044	2206.95
998.34	2153.62
998.636	2169.89
998.932	2147.06
999.227	2152.03
999.523	2139.15
999.818	2141.41
1000.114	2107.52
1000.409	2093.96
1000.704	2117.91
1001	2087.63
1001.295	2063.67
1001.59	2072.94
1001.885	2037.01
1002.18	2046.5
1002.475	2025.71
1002.77	2007.63
1003.065	2005.82
1003.359	1983
1003.654	1971.93
1003.949	1974.19
1004.243	1990.23
1004.538	1977.35
1004.832	1927.86
1005.127	1934.19
1005.421	1932.83
1005.715	1912.94
1006.009	1918.14
1006.304	1909.33
1006.598	1869.1
1006.892	1891.48
1007.186	1897.8
1007.48	1869.33
1007.773	1858.48
1008.067	1831.59
1008.361	1780.29
1008.655	1798.37
1008.948	1791.82
1009.242	1776.22
1009.535	1781.2
1009.829	1764.25
1010.122	1789.78
1010.415	1753.17
1010.708	1731.93
1011.001	1717.02
1011.295	1736.23
1011.588	1712.05
1011.881	1701.88
1012.173	1677.24
1012.466	1677.47
1012.759	1686.74
1013.052	1649.22
1013.344	1641.99
1013.637	1677.92
1013.93	1631.82
1014.222	1608.55
1014.514	1629.56
1014.807	1613.97
1015.099	1614.42
1015.391	1574.2
1015.683	1557.93
1015.976	1552.05
1016.268	1548.89
1016.56	1549.34
1016.851	1553.41
1017.143	1522.45
1017.435	1519.96
1017.727	1496.23
1018.018	1494.65
1018.31	1493.07
1018.602	1498.04
1018.893	1470.47
1019.185	1493.97
1019.476	1427.76
1019.767	1456.01
1020.058	1450.58
1020.35	1440.64
1020.641	1414.65
1020.932	1433.18
1021.223	1398.61
1021.514	1383.01
1021.804	1368.78
1022.095	1372.62
1022.386	1365.39
1022.677	1357.25
1022.967	1334.65
1023.258	1336.01
1023.548	1355.67
1023.839	1323.36
1024.129	1318.16
1024.419	1318.16
1024.709	1295.56
1025	1286.75
1025.29	1289.68
1025.58	1267.76
1025.87	1272.96
1026.16	1259.63
1026.449	1256.92
1026.739	1248.1
1027.029	1217.82
1027.319	1207.88
1027.608	1203.13
1027.898	1231.61
1028.187	1227.76
1028.477	1206.07
1028.766	1200.42
1029.055	1157.26
1029.344	1143.02
1029.634	1144.83
1029.923	1145.96
1030.212	1147.09
1030.501	1128.33
1030.79	1129.01
1031.078	1155.9
1031.367	1119.29
1031.656	1094.66
1031.945	1081.33
1032.233	1089.46
1032.522	1076.36
1032.81	1062.57
1033.099	1072.97
1033.387	1057.83
1033.675	1056.47
1033.963	1056.92
1034.251	1055.57
1034.54	1040.88
1034.828	1045.17
1035.116	1033.19
1035.403	1013.31
1035.691	1013.98
1035.979	1020.54
1036.267	1010.14
1036.554	979.41
1036.842	972.86
1037.129	998.62
1037.417	1002.69
1037.704	985.74
1037.992	968.56
1038.279	945.51
1038.566	950.48
1038.853	950.48
1039.14	950.48
