Data from hue_70_FLMS001491_82.txt Node
Date: Mon Feb 06 15:21:33 GMT 2017
User: dcchb
Spectrometer: FLMS00149
Trigger mode: 0
Integration Time (sec): 2.000000E-2
Scans to average: 10
Electric dark correction enabled: true
Nonlinearity correction enabled: false
Boxcar width: 0
XAxis mode: Wavelengths
Number of Pixels in Spectrum: 2048
>>>>>Begin Spectral Data<<<<<
341.393	-32.85
341.776	-32.85
342.16	-32.85
342.543	-60.42
342.927	-77.14
343.31	-73.08
343.693	-88.44
344.077	-61.33
344.46	-68.56
344.843	-53.87
345.226	-37.15
345.61	-28.11
345.993	-9.12
346.376	0.59
346.759	6.47
347.142	27.49
347.525	53.7
347.908	69.29
348.291	66.35
348.674	99.8
349.057	95.96
349.44	115.84
349.823	138.22
350.206	168.5
350.588	182.28
350.971	190.64
351.354	212.57
351.737	222.06
352.119	230.42
352.502	255.28
352.884	289.17
353.267	287.59
353.65	313.35
354.032	283.07
354.414	306.35
354.797	310.19
355.179	328.27
355.562	303.18
355.944	354.48
356.326	340.7
356.709	338.44
357.091	330.3
357.473	331.66
357.855	319.68
358.238	337.99
358.62	342.28
359.002	331.66
359.384	350.64
359.766	332.34
360.148	309.06
360.53	352.45
360.912	321.49
361.294	327.36
361.676	321.49
362.057	325.1
362.439	323.3
362.821	348.15
363.203	335.27
363.584	340.7
363.966	315.84
364.348	305.9
364.729	323.3
365.111	322.62
365.493	316.07
365.874	317.2
366.256	333.24
366.637	314.48
367.019	330.53
367.4	322.39
367.781	310.87
368.163	325.78
368.544	297.76
368.925	307.7
369.306	302.73
369.688	287.14
370.069	302.05
370.45	284.2
370.831	294.14
371.212	294.14
371.593	297.53
371.974	293.47
372.355	306.12
372.736	311.32
373.117	306.57
373.498	325.33
373.879	305.67
374.26	306.57
374.641	316.07
375.021	330.53
375.402	313.81
375.783	312.22
376.163	323.52
376.544	324.65
376.925	283.98
377.305	304.09
377.686	301.38
378.066	326.91
378.447	335.5
378.827	328.95
379.208	339.57
379.588	334.14
379.968	328.27
380.349	330.08
380.729	320.13
381.109	336.86
381.489	338.44
381.87	320.13
382.25	344.54
382.63	316.74
383.01	351.77
383.39	343.86
383.77	341.6
384.15	323.3
384.53	335.5
384.91	337.53
385.29	338.66
385.67	334.82
386.049	361.71
386.429	332.56
386.809	351.77
387.189	327.14
387.568	339.79
387.948	352.45
388.328	364.88
388.707	347.93
389.087	349.28
389.466	327.14
389.846	353.58
390.225	330.3
390.605	348.38
390.984	356.06
391.363	356.97
391.743	363.07
392.122	374.14
392.501	366.46
392.881	342.28
393.26	331.66
393.639	365.1
394.018	381.15
394.397	365.78
394.776	369.4
395.155	372.56
395.534	353.13
395.913	361.04
396.292	392.9
396.671	392.45
397.05	387.7
397.429	376.4
397.808	381.15
398.186	377.53
398.565	367.82
398.944	395.39
399.323	363.97
399.701	386.35
400.08	387.02
400.458	388.61
400.837	394.93
401.215	375.5
401.594	398.1
401.972	390.87
402.351	393.13
402.729	396.06
403.107	413.69
403.486	383.18
403.864	384.54
404.242	391.09
404.62	408.04
404.999	411.2
405.377	385.89
405.755	414.59
406.133	396.74
406.511	391.54
406.889	417.98
407.267	406.91
407.645	424.76
408.023	414.82
408.401	410.98
408.779	441.71
409.156	435.16
409.534	422.28
409.912	430.64
410.29	436.06
410.667	457.3
411.045	432.22
411.422	427.25
411.8	451.43
412.178	445.78
412.555	451.43
412.933	424.76
413.31	431.54
413.687	457.08
414.065	443.52
414.442	460.47
414.819	467.93
415.197	455.27
415.574	459.79
415.951	457.53
416.328	484.42
416.705	473.12
417.082	478.32
417.46	477.64
417.837	492.56
418.214	484.2
418.591	475.38
418.967	489.17
419.344	474.25
419.721	497.76
420.098	462.73
420.475	500.69
420.852	503.63
421.228	503.4
421.605	507.7
421.982	531.65
422.358	507.25
422.735	521.03
423.111	504.76
423.488	526.91
423.864	513.12
424.241	530.97
424.617	547.92
424.994	542.5
425.37	550.41
425.746	555.38
426.123	549.05
426.499	503.86
426.875	527.81
427.251	557.41
427.627	543.18
428.003	576.4
428.379	575.04
428.756	587.24
429.132	575.72
429.507	592.44
429.883	575.49
430.259	599.67
430.635	585.89
431.011	580.01
431.387	601.26
431.763	615.72
432.138	599.9
432.514	611.42
432.89	613.01
433.265	620.46
433.641	607.81
434.016	630.18
434.392	636.06
434.767	651.65
435.143	636.28
435.518	655.04
435.894	658.43
436.269	651.88
436.644	672.44
437.02	667.24
437.395	663.63
437.77	683.51
438.145	686
438.52	696.39
438.895	695.26
439.271	701.37
439.646	694.36
440.021	695.49
440.395	716.28
440.77	717.86
441.145	712.21
441.52	713.79
441.895	720.8
442.27	743.85
442.645	721.93
443.019	733
443.394	740.01
443.769	730.29
444.143	733.46
444.518	757.18
444.892	744.98
445.267	752.66
445.641	757.86
446.016	781.59
446.39	759.9
446.764	757.18
447.139	767.35
447.513	760.12
447.887	786.56
448.262	790.18
448.636	791.31
449.01	787.24
449.384	803.06
449.758	812.32
450.132	848.48
450.506	827.92
450.88	829.27
451.254	849.61
451.628	817.75
452.002	834.02
452.376	852.77
452.75	867.69
453.123	839.44
453.497	886.9
453.871	883.28
454.244	896.16
454.618	888.48
454.992	911.76
455.365	909.95
455.739	918.08
456.112	939.55
456.486	941.59
456.859	945.43
457.232	947.46
457.606	929.83
457.979	999.44
458.352	984.07
458.725	1007.35
459.099	1023.39
459.472	1028.36
459.845	1030.17
460.218	1065.88
460.591	1066.55
460.964	1065.42
461.337	1102.71
461.71	1092.09
462.083	1129.6
462.456	1112.43
462.829	1106.1
463.201	1155.59
463.574	1161.24
463.947	1194.69
464.32	1163.95
464.692	1245.08
465.065	1215.48
465.438	1242.14
465.81	1258.19
466.183	1281.01
466.555	1284.4
466.928	1313.55
467.3	1338.19
467.672	1345.87
468.045	1370.05
468.417	1370.73
468.789	1400.78
469.161	1410.5
469.534	1425.19
469.906	1492.53
470.278	1506.77
470.65	1507.45
471.022	1565.52
471.394	1580.21
471.766	1596.71
472.138	1619.31
472.51	1667.89
472.882	1692.3
473.253	1735.91
473.625	1744.95
473.997	1836.7
474.369	1862.01
474.74	1897.94
475.112	1924.16
475.484	1979.3
475.855	2017.94
476.227	2066.3
476.598	2101.55
476.97	2148.79
477.341	2246.41
477.713	2303.36
478.084	2335.22
478.455	2411.15
478.827	2510.58
479.198	2569.11
479.569	2588.55
479.94	2687.98
480.311	2738.83
480.682	2839.61
481.053	2933.4
481.424	3004.58
481.795	3116.44
482.166	3205.93
482.537	3253.62
482.908	3395.76
483.279	3450.45
483.65	3553.95
484.021	3697.22
484.391	3760.49
484.762	3861.28
485.133	3981.96
485.503	4063.31
485.874	4230.99
486.244	4292.46
486.615	4446.13
486.985	4596.18
487.356	4723.18
487.726	4830.75
488.097	5008.37
488.467	5048.14
488.837	5245.2
489.207	5371.53
489.578	5495.36
489.948	5588.24
490.318	5804.06
490.688	5900.78
491.058	6026.88
491.428	6209.47
491.798	6337.15
492.168	6525.85
492.538	6646.97
492.908	6797.93
493.278	6968.77
493.648	7078.6
494.017	7272.04
494.387	7349.33
494.757	7488.98
495.126	7748.86
495.496	7824.79
495.866	7923.77
496.235	8142.07
496.605	8310.21
496.974	8419.13
497.344	8571.67
497.713	8701.83
498.082	8865.22
498.452	9030.19
498.821	9158.09
499.19	9275.83
499.559	9423.4
499.928	9561.92
500.298	9737.96
500.667	9884.85
501.036	9941.57
501.405	10085.07
501.774	10159.65
502.143	10352.64
502.512	10503.59
502.88	10644.16
503.249	10727.32
503.618	10908.55
503.987	10979.06
504.356	11061.32
504.724	11255.66
505.093	11276.45
505.462	11437.58
505.83	11571.36
506.199	11664.24
506.567	11895.42
506.936	11958.7
507.304	12186.94
507.672	12293.38
508.041	12329.76
508.409	12488.4
508.777	12673.93
509.145	12697.89
509.514	12824.89
509.882	12979.01
510.25	13035.73
510.618	13219
510.986	13202.73
511.354	13341.49
511.722	13520.46
512.09	13661.48
512.458	13734.7
512.826	13885.2
513.193	13962.03
513.561	14087.45
513.929	14197.73
514.297	14322.25
514.664	14387.33
515.032	14429.37
515.4	14559.31
515.767	14645.18
516.135	14680.66
516.502	14782.35
516.869	14970.37
517.237	15115.22
517.604	15012.63
517.972	15228.89
518.339	15326.29
518.706	15417.81
519.073	15511.82
519.44	15598.38
519.808	15751.82
520.175	15729.22
520.542	15920.85
520.909	16002.66
521.276	16009.89
521.643	16241.52
522.009	16316.55
522.376	16397.22
522.743	16484.68
523.11	16637.44
523.477	16756.31
523.843	16846.7
524.21	16974.38
524.577	17125.57
524.943	17112.46
525.31	17230.87
525.676	17458.21
526.043	17515.84
526.409	17543.86
526.776	17648.04
527.142	17749.05
527.508	17926.22
527.874	18051.42
528.241	18015.71
528.607	18055.26
528.973	18306.78
529.339	18203.73
529.705	18294.35
530.071	18441.24
530.437	18491.63
530.803	18581.12
531.169	18696.37
531.535	18585.87
531.901	18696.82
532.267	18767.56
532.632	18875.35
532.998	18870.83
533.364	18934.33
533.73	19046.65
534.095	19139.07
534.461	19237.6
534.826	19278.05
535.192	19227.88
535.557	19317.37
535.923	19325.73
536.288	19473.75
536.653	19451.83
537.019	19374.77
537.384	19436.24
537.749	19574.99
538.114	19537.25
538.479	19592.17
538.845	19669.68
539.21	19600.08
539.575	19641.66
539.94	19672.17
540.305	19699.96
540.67	19689.57
541.034	19804.59
541.399	19855.21
541.764	19846.63
542.129	19841.88
542.494	19865.61
542.858	19906.28
543.223	19876.68
543.587	20028.54
543.952	19979.73
544.316	19942.44
544.681	19972.95
545.045	20064.25
545.41	20087.52
545.774	20164.13
546.138	20103.12
546.503	20280.51
546.867	20132.04
547.231	20321.64
547.595	20358.93
547.959	20248.65
548.324	20193.73
548.688	20229.44
549.052	20352.37
549.416	20343.56
549.779	20257.69
550.143	20407.29
550.507	20378.59
550.871	20459.94
551.235	20404.35
551.599	20679.37
551.962	20534.74
552.326	20611.12
552.689	20642.99
553.053	20531.35
553.417	20639.82
553.78	20778.13
554.143	20739.71
554.507	20768.63
554.87	20738.35
555.234	20941.51
555.597	20789.65
555.96	20843.21
556.323	21026.71
556.686	21012.02
557.05	21077.1
557.413	21063.99
557.776	20992.58
558.139	21214.5
558.502	21163.43
558.865	21268.28
559.228	21346.02
559.59	21368.17
559.953	21367.71
560.316	21494.27
560.679	21479.35
561.041	21573.36
561.404	21770.87
561.767	21871.43
562.129	21659.46
562.492	21905.33
562.854	21915.72
563.217	21845.44
563.579	21988.26
563.941	22042.27
564.304	22103.97
564.666	22260.12
565.028	22301.48
565.39	22359.78
565.753	22339.21
566.115	22372.66
566.477	22479.32
566.839	22592.32
567.201	22644.29
567.563	22666.44
567.925	22748.7
568.287	22737.85
568.648	22880.22
569.01	23001.8
569.372	23024.39
569.734	22945.53
570.095	23155.69
570.457	23224.84
570.819	23099.87
571.18	23131.28
571.542	23302.13
571.903	23333.99
572.265	23378.28
572.626	23420.99
572.987	23594.55
573.349	23518.39
573.71	23606.98
574.071	23671.38
574.432	23652.4
574.794	23879.06
575.155	23583.02
575.516	23732.17
575.877	23733.98
576.238	23784.15
576.599	23960.87
576.96	23931.04
577.32	23905.28
577.681	24061.88
578.042	24028.44
578.403	24091.71
578.763	24124.25
579.124	24079.28
579.485	24247.41
579.845	24207.19
580.206	24173.97
580.566	24154.31
580.927	24178.94
581.287	24208.54
581.648	24203.35
582.008	24314.3
582.368	24218.71
582.728	24337.81
583.089	24227.75
583.449	24249
583.809	24359.95
584.169	24284.47
584.529	24337.81
584.889	24374.87
585.249	24160.18
585.609	24128.32
585.969	24343.46
586.329	24261.65
586.688	24360.4
587.048	24197.02
587.408	24309.56
587.768	24265.72
588.127	24207.87
588.487	24264.59
588.846	24383.23
589.206	24261.2
589.565	24210.58
589.925	24345.72
590.284	24293.29
590.643	24289.22
591.003	24320.41
591.362	24425.94
591.721	24341.42
592.08	24381.87
592.44	24449.22
592.799	24349.56
593.158	24354.98
593.517	24292.84
593.876	24422.1
594.235	24289.67
594.593	24335.32
594.952	24325.15
595.311	24288.99
595.67	24387.75
596.029	24434.53
596.387	24437.01
596.746	24451.25
597.104	24466.62
597.463	24348.88
597.822	24472.04
598.18	24296.23
598.538	24243.35
598.897	24481.98
599.255	24199.28
599.613	24652.6
599.972	24381.2
600.33	24564.92
600.688	24384.81
601.046	24549.55
601.404	24655.09
601.762	24620.06
602.12	24690.11
602.478	24583.68
602.836	24701.41
603.194	24637.69
603.552	24641.98
603.91	24557.46
604.268	24675.2
604.625	24544.13
604.983	24609.89
605.341	24538.48
605.698	24729.21
606.056	24746.84
606.413	24746.61
606.771	24885.59
607.128	24743.9
607.485	24677.91
607.843	24677.23
608.2	24996.32
608.557	25001.52
608.914	24864.12
609.272	24927.4
609.629	24989.31
609.986	25099.82
610.343	24998.13
610.7	25265.24
611.057	25180.27
611.414	25141.4
611.771	25220.72
612.127	25274.73
612.484	25168.29
612.841	25350.66
613.198	25163.32
613.554	25310.21
613.911	25441.96
614.267	25415.07
614.624	25455.07
614.98	25424.11
615.337	25510.2
615.693	25549.98
616.05	25521.28
616.406	25695.96
616.762	25609.41
617.118	25597.66
617.475	25612.8
617.831	25609.41
618.187	25733.7
618.543	25782.97
618.899	25863.19
619.255	25879.01
619.611	25863.87
619.967	25952.68
620.323	26067.7
620.678	25898.22
621.034	25798.33
621.39	25896.18
621.746	25856.41
622.101	26099.12
622.457	25872.46
622.812	26019.8
623.168	25975.5
623.523	25934.15
623.879	26097.31
624.234	25934.15
624.589	26075.39
624.945	26086.46
625.3	26075.16
625.655	26061.15
626.01	26162.84
626.365	26057.76
626.72	26130.98
627.075	26174.37
627.43	26112.67
627.785	26010.08
628.14	26041.49
628.495	26183.63
628.85	26035.61
629.205	26034.71
629.559	26148.15
629.914	26075.39
630.269	26049.17
630.623	26021.15
630.978	25948.39
631.332	26054.15
631.687	26067.25
632.041	25917.65
632.396	26053.24
632.75	25918.33
633.104	26011.43
633.459	25933.47
633.813	25806.24
634.167	25919.91
634.521	25905
634.875	25956.52
635.229	25874.72
635.583	25792.46
635.937	25746.58
636.291	25817.99
636.645	25703.87
636.999	25733.93
637.352	25811.89
637.706	25659.35
638.06	25737.54
638.413	25585.68
638.767	25642.63
639.121	25567.6
639.474	25422.52
639.828	25555.4
640.181	25512.01
640.534	25393.82
640.888	25308.4
641.241	25451.9
641.594	25390.43
641.947	25562.86
642.301	25399.02
642.654	25447.61
643.007	25339.81
643.36	25365.12
643.713	25342.3
644.066	25458.45
644.419	25245.35
644.771	25093.94
645.124	24761.07
645.477	24819.83
645.83	24647.4
646.182	24570.34
646.535	24486.05
646.888	24456.22
647.24	24496.45
647.593	24529.89
647.945	24496.45
648.298	24328.09
648.65	24367.86
649.002	24301.2
649.355	24437.01
649.707	24401.53
650.059	24458.93
650.411	24856.89
650.763	24828.41
651.115	25051.46
651.467	24914.97
651.819	24933.27
652.171	24926.27
652.523	24874.97
652.875	24865.7
653.227	24835.19
653.578	24973.72
653.93	24981.86
654.282	24781.86
654.633	24853.95
654.985	24907.96
655.337	24827.29
655.688	24877
656.039	24869.09
656.391	24649.89
656.742	24779.38
657.094	24800.17
657.445	24874.52
657.796	24866.15
658.147	24834.06
658.498	24794.97
658.849	24845.36
659.2	24917
659.551	24745.93
659.902	24895.98
660.253	24813.05
660.604	24884.01
660.955	24676.1
661.306	24828.87
661.656	24711.13
662.007	24882.42
662.358	24819.6
662.708	24791.81
663.059	24837.91
663.409	24712.94
663.76	24881.52
664.11	24822.99
664.461	24886.49
664.811	24848.3
665.161	24865.7
665.511	24744.58
665.862	24881.97
666.212	25010.78
666.562	24894.63
666.912	24860.96
667.262	24740.28
667.612	24743.22
667.962	24992.7
668.312	24758.81
668.662	24886.27
669.011	24850.34
669.361	24873.61
669.711	24756.1
670.06	24564.47
670.41	24648.98
670.76	24688.31
671.109	24679.49
671.459	24777.34
671.808	24626.16
672.157	24726.95
672.507	24488.08
672.856	24419.39
673.205	24683.11
673.554	24715.88
673.904	24561.53
674.253	24631.58
674.602	24613.73
674.951	24322.67
675.3	24109.56
675.649	24561.76
675.998	24475.66
676.346	24488.99
676.695	24432.72
677.044	24413.74
677.393	24439.5
677.741	24418.48
678.09	24311.14
678.438	24240.63
678.787	24416.67
679.135	24452.15
679.484	24271.14
679.832	24338.71
680.181	24152.95
680.529	24237.24
680.877	24050.36
681.225	24036.35
681.573	24188.43
681.922	24046.74
682.27	23943.69
682.618	23937.14
682.966	23868.21
683.314	23917.93
683.661	23882
684.009	23847.2
684.357	23772.17
684.705	23753.41
685.053	23783.02
685.4	23716.13
685.748	23613.31
686.095	23583.02
686.443	23442.46
686.79	23445.17
687.138	23457.6
687.485	23441.78
687.832	23385.06
688.18	23469.13
688.527	23341.22
688.874	23266.65
689.221	23318.62
689.568	23126.99
689.915	23117.5
690.262	23130.61
690.609	23042.47
690.956	23024.39
691.303	22845.87
691.65	22734.91
691.997	22727.68
692.344	22652.65
692.69	22660.56
693.037	22460.79
693.383	22373.11
693.73	22527.01
694.077	22339.44
694.423	22256.05
694.769	22163.17
695.116	22216.96
695.462	22221.7
695.808	22014.48
696.155	22170.86
696.501	21860.58
696.847	21806.35
697.193	21691.55
697.539	21738.1
697.885	21512.12
698.231	21588.05
698.577	21606.13
698.923	21381.5
699.269	21354.16
699.614	21319.81
699.96	21279.58
700.306	21245.23
700.651	21066.25
700.997	21046.37
701.342	21009.76
701.688	21098.34
702.033	20838.24
702.379	20899.7
702.724	20753.27
703.069	20733.83
703.415	20534.52
703.76	20553.05
704.105	20580.62
704.45	20465.14
704.795	20319.15
705.14	20347.4
705.485	20271.92
705.83	20210.01
706.175	20250.68
706.52	20149.44
706.865	20082.33
707.209	20076.9
707.554	19898.83
707.899	19880.97
708.243	19817.25
708.588	19763.46
708.932	19777.47
709.277	19698.38
709.621	19706.29
709.966	19592.39
710.31	19619.51
710.654	19506.3
710.998	19456.13
711.342	19476.01
711.687	19432.62
712.031	19277.37
712.375	19208.68
712.719	19349.91
713.063	19258.39
713.407	19194.21
713.75	19131.16
714.094	19133.88
714.438	18985.4
714.782	19015.23
715.125	18997.16
715.469	18975.46
715.812	18883.71
716.156	18835.35
716.499	18784.51
716.843	18825.18
717.186	18689.37
717.53	18845.3
717.873	18743.15
718.216	18711.06
718.559	18583.16
718.902	18480.11
719.246	18483.05
719.589	18555.13
719.932	18430.84
720.275	18441.01
720.617	18394.01
720.96	18310.39
721.303	18412.09
721.646	18318.3
721.989	18275.59
722.331	18241.92
722.674	18280.79
723.016	18307.68
723.359	18267.01
723.701	18220.91
724.044	18144.3
724.386	17991.98
724.729	18222.26
725.071	18117.18
725.413	18095.48
725.755	17998.09
726.097	18037.41
726.439	17948.37
726.782	18005.54
727.124	18018.42
727.465	17964.19
727.807	17881.03
728.149	17884.42
728.491	17838.32
728.833	17843.06
729.175	17825.21
729.516	17643.29
729.858	17781.82
730.199	17724.65
730.541	17781.14
730.882	17671.99
731.224	17756.51
731.565	17625.44
731.906	17723.97
732.248	17763.06
732.589	17639.68
732.93	17429.97
733.271	17583.18
733.612	17586.57
733.953	17675.16
734.294	17540.92
734.635	17528.04
734.976	17613.46
735.317	17443.75
735.658	17539.12
735.999	17501.15
736.339	17485.11
736.68	17621.15
737.021	17548.61
737.361	17339.8
737.702	17445.56
738.042	17494.14
738.383	17384.32
738.723	17473.13
739.063	17392.68
739.404	17502.28
739.744	17373.24
740.084	17391.32
740.424	17466.8
740.764	17399.23
741.104	17435.16
741.444	17340.7
741.784	17352.45
742.124	17435.61
742.464	17382.28
742.804	17429.06
743.143	17386.8
743.483	17489.4
743.823	17409.85
744.162	17361.04
744.502	17427.25
744.841	17460.93
745.181	17550.41
745.52	17441.94
745.86	17598.32
746.199	17537.53
746.538	17506.57
746.877	17756.28
747.216	17773.91
747.556	17690.3
747.895	17684.65
748.234	17722.16
748.573	17717.87
748.911	17738.21
749.25	17836.06
749.589	17781.14
749.928	17841.25
750.267	17959.89
750.605	17909.95
750.944	17985.88
751.283	18000.57
751.621	18101.59
751.96	18071.98
752.298	18144.07
752.636	18144.97
752.975	18271.3
753.313	18277.4
753.651	18417.28
753.989	18342.48
754.327	18425.87
754.666	18391.3
755.004	18589.03
755.342	18716.94
755.679	18709.71
756.017	18818.86
756.355	18882.36
756.693	18834.67
757.031	18969.36
757.368	18994.22
757.706	19066.08
758.044	19010.04
758.381	19181.33
758.719	19178.17
759.056	19237.83
759.394	19369.12
759.731	19348.79
760.068	19547.42
760.405	19478.27
760.743	19456.13
761.08	19669.23
761.417	19602.34
761.754	19680.98
762.091	19827.42
762.428	19679.62
762.765	19794.2
763.102	19836
763.438	19822.44
763.775	19848.43
764.112	19958.94
764.449	20020.63
764.785	19979.28
765.122	20047.3
765.458	20104.25
765.795	19989.9
766.131	20200.97
766.467	20086.62
766.804	20117.58
767.14	20084.13
767.476	20193.73
767.812	20099.95
768.148	20319.61
768.485	20135.66
768.821	20063.34
769.157	20254.98
769.492	20197.35
769.828	20157.13
770.164	20079.16
770.5	20004.36
770.836	20183.34
771.171	20119.16
771.507	19994.42
771.842	19921.88
772.178	20039.39
772.513	19987.41
772.849	20035.55
773.184	19904.25
773.519	19967.75
773.855	19780.64
774.19	19806.17
774.525	19719.85
774.86	19757.59
775.195	19796
775.53	19718.27
775.865	19618.16
776.2	19562.34
776.535	19460.65
776.87	19584.71
777.205	19407.54
777.539	19371.61
777.874	19437.6
778.209	19291.16
778.543	19316.7
778.878	19183.59
779.212	19217.26
779.547	19032.41
779.881	19207.32
780.215	19035.12
780.55	19084.16
780.884	18975.46
781.218	18958.51
781.552	18922.81
781.886	18928.01
782.22	18766.88
782.554	18795.58
782.888	18645.53
783.222	18527.56
783.556	18367.34
783.889	18410.73
784.223	18276.5
784.557	18268.59
784.89	18282.82
785.224	18213
785.557	18210.74
785.891	18218.87
786.224	18091.19
786.558	18059.78
786.891	17983.62
787.224	17848.71
787.557	17870.63
787.891	17946.79
788.224	17830.41
788.557	17782.72
788.89	17758.54
789.223	17721.03
789.556	17608.04
789.888	17499.34
790.221	17376.18
790.554	17331.66
790.887	17419.8
791.219	17389.97
791.552	17219.58
791.884	17156.75
792.217	17227.48
792.549	17169.41
792.882	17041.28
793.214	16999.92
793.546	17035.63
793.879	16918.79
794.211	16814.61
794.543	16791.56
794.875	16818.23
795.207	16824.56
795.539	16768.51
795.871	16628.86
796.203	16559.25
796.535	16465.47
796.867	16396.09
797.198	16257.79
797.53	16463.21
797.862	16194.07
798.193	16295.53
798.525	16232.03
798.856	16190.22
799.188	16055.09
799.519	16046.72
799.85	15947.07
800.182	15961.76
800.513	15912.49
800.844	15723.8
801.175	15798.82
801.506	15843.57
801.837	15744.13
802.168	15712.27
802.499	15659.62
802.83	15568.32
803.161	15475.21
803.491	15503.69
803.822	15524.7
804.153	15413.3
804.483	15362.68
804.814	15355.9
805.145	15226.18
805.475	15286.07
805.805	15206.97
806.136	15303.24
806.466	15163.81
806.796	15054.89
807.126	14990.26
807.457	14898.73
807.787	14933.31
808.117	14856.47
808.447	14851.28
808.777	14878.39
809.107	14838.85
809.436	14776.25
809.766	14746.19
810.096	14764.27
810.426	14619.42
810.755	14588.01
811.085	14525.86
811.414	14524.73
811.744	14448.8
812.073	14471.63
812.403	14442.02
812.732	14302.59
813.061	14245.19
813.39	14289.48
813.719	14247.9
814.049	14219.88
814.378	14197.73
814.707	14248.81
815.036	14154.57
815.365	14073.22
815.693	14013.56
816.022	13929.27
816.351	13917.74
816.68	13838.2
817.008	13945.09
817.337	13843.17
817.665	13759.55
817.994	13758.2
818.322	13848.82
818.651	13697.86
818.979	13626.68
819.307	13755.03
819.636	13657.86
819.964	13552.78
820.292	13610.4
820.62	13630.97
820.948	13488.83
821.276	13567.47
821.604	13472.56
821.932	13576.06
822.259	13554.14
822.587	13531.54
822.915	13495.83
823.243	13517.53
823.57	13436.4
823.898	13456.28
824.225	13464.42
824.553	13446.34
824.88	13503.74
825.207	13480.92
825.535	13465.1
825.862	13500.8
826.189	13459.9
826.516	13541.03
826.843	13521.14
827.17	13424.42
827.497	13536.28
827.824	13453.8
828.151	13504.87
828.478	13454.93
828.805	13488.6
829.131	13440.01
829.458	13475.95
829.785	13449.73
830.111	13397.76
830.438	13417.87
830.764	13448.38
831.09	13524.31
831.417	13395.04
831.743	13421.48
832.069	13419.68
832.395	13259.91
832.722	13350.3
833.048	13425.78
833.374	13390.52
833.7	13336.97
834.026	13336.97
834.351	13378.77
834.677	13273.01
835.003	13277.31
835.329	13355.5
835.654	13296.29
835.98	13200.47
836.306	13221.49
836.631	13216.97
836.956	13235.27
837.282	13224.2
837.607	13111.21
837.932	13136.29
838.258	13126.35
838.583	13058.33
838.908	12999.57
839.233	13043.87
839.558	13049.06
839.883	12992.34
840.208	12961.61
840.533	12923.42
840.858	12953.47
841.182	12954.38
841.507	12946.02
841.832	12848.16
842.156	12767.94
842.481	12843.19
842.805	12861.72
843.13	12736.3
843.454	12695.4
843.778	12716.64
844.103	12692.46
844.427	12640.94
844.751	12632.35
845.075	12535.18
845.399	12543.54
845.723	12453.37
846.047	12459.47
846.371	12339.25
846.695	12377.22
847.019	12262.19
847.343	12214.74
847.666	12099.03
847.99	12111.24
848.313	12063.78
848.637	11998.7
848.96	11959.83
849.284	11942.88
849.607	11906.27
849.931	11899.72
850.254	11708.99
850.577	11702.21
850.9	11629.89
851.223	11708.99
851.546	11557.35
851.869	11455.66
852.192	11627.63
852.515	11437.13
852.838	11425.15
853.161	11395.1
853.483	11350.58
853.806	11293.86
854.129	11283.91
854.451	11237.36
854.774	11111.26
855.096	11130.92
855.419	11187.42
855.741	11062.22
856.063	10981.32
856.385	11071.49
856.708	11036.24
857.03	10876.01
857.352	10934.54
857.674	10920.98
857.996	10953.3
858.318	10823.13
858.64	10835.11
858.961	10766.86
859.283	10785.17
859.605	10651.39
859.926	10740.2
860.248	10595.12
860.57	10642.57
860.891	10613.65
861.212	10611.61
861.534	10554.89
861.855	10504.5
862.176	10512.86
862.498	10502.92
862.819	10476.25
863.14	10481
863.461	10414.33
863.782	10417.49
864.103	10373.43
864.424	10325.52
864.745	10358.96
865.065	10268.57
865.386	10258.4
865.707	10276.71
866.027	10286.88
866.348	10232.87
866.668	10252.08
866.989	10261.34
867.309	10138.63
867.63	10124.17
867.95	10143.83
868.27	10092.08
868.59	10162.36
868.91	10151.74
869.23	10048.24
869.55	10005.53
869.87	10078.97
870.19	9975.92
870.51	10080.55
870.83	10023.61
871.15	9967.56
871.469	9971.86
871.789	10047.33
872.109	9981.57
872.428	9899.09
872.748	9963.5
873.067	9933.89
873.386	9859.77
873.706	10000.33
874.025	9793.33
874.344	9795.59
874.663	9811.63
874.982	9866.32
875.301	9778.19
875.62	9754.91
875.939	9758.53
876.258	9705.42
876.577	9652.54
876.896	9644.41
877.214	9638.53
877.533	9595.14
877.852	9658.64
878.17	9627.91
878.489	9547.91
878.807	9604.41
879.125	9577.06
879.444	9583.84
879.762	9552.43
880.08	9501.81
880.398	9536.39
880.716	9542.94
881.034	9407.58
881.352	9409.84
881.67	9443.96
881.988	9452.1
882.306	9388.82
882.624	9401.93
882.941	9317.86
883.259	9305.89
883.577	9327.81
883.894	9312.89
884.212	9216.4
884.529	9224.53
884.846	9183.18
885.164	9272.67
885.481	9198.09
885.798	9192.89
886.115	9123.97
886.432	9127.13
886.75	9055.5
887.067	9082.39
887.383	9109.73
887.7	9036.51
888.017	8977.08
888.334	9009.85
888.651	8961.04
888.967	8834.26
889.284	8926.46
889.6	8881.94
889.917	8803.3
890.233	8848.27
890.55	8847.14
890.866	8802.4
891.182	8748.61
891.498	8731.21
891.815	8708.39
892.131	8702.29
892.447	8609.63
892.763	8610.99
893.079	8560.59
893.395	8552.46
893.71	8539.35
894.026	8543.87
894.342	8502.52
894.657	8396.53
894.973	8455.74
895.289	8472.91
895.604	8416.87
895.92	8328.74
896.235	8295.52
896.55	8298.91
896.865	8257.55
897.181	8236.99
897.496	8304.78
897.811	8227.95
898.126	8158.12
898.441	8166.71
898.756	8160.15
899.071	8124.67
899.386	8126.26
899.7	8051
900.015	7962.87
900.33	7892.36
900.644	7963.77
900.959	7909.76
901.273	7852.59
901.588	7854.62
901.902	7779.6
902.216	7787.06
902.531	7789.54
902.845	7704.57
903.159	7652.82
903.473	7643.56
903.787	7629.77
904.101	7626.16
904.415	7606.49
904.729	7570.11
905.042	7510.45
905.356	7481.07
905.67	7452.37
905.984	7457.8
906.297	7411.47
906.611	7420.51
906.924	7387.74
907.237	7362.21
907.551	7294.19
907.864	7306.62
908.177	7253.06
908.491	7239.27
908.804	7168.99
909.117	7109.78
909.43	7133.74
909.743	7135.09
910.056	7115.66
910.368	7044.7
910.681	7014.19
910.994	6963.35
911.307	7004.93
911.619	6914.99
911.932	6974.2
912.244	6843.8
912.557	6935.55
912.869	6835.22
913.181	6815.56
913.494	6758.38
913.806	6778.49
914.118	6726.97
914.43	6686.07
914.742	6658.05
915.054	6604.26
915.366	6652.17
915.678	6559.97
915.99	6574.21
916.302	6565.39
916.613	6547.09
916.925	6467.09
917.236	6510.93
917.548	6438.39
917.859	6402.46
918.171	6363.14
918.482	6339.41
918.794	6312.97
919.105	6333.53
919.416	6218.28
919.727	6242.69
920.038	6206.98
920.349	6184.16
920.66	6185.29
920.971	6146.65
921.282	6146.65
921.593	6086.76
921.903	6047.89
922.214	6002.47
922.525	6004.28
922.835	5976.03
923.146	5982.58
923.456	5935.8
923.767	5899.42
924.077	5944.84
924.387	5832.76
924.697	5856.94
925.008	5813.1
925.318	5802.25
925.628	5825.3
925.938	5750.05
926.248	5742.14
926.558	5671.86
926.867	5678.41
927.177	5624.4
927.487	5631.41
927.796	5567.45
928.106	5549.6
928.416	5604.29
928.725	5576.04
929.034	5544.63
929.344	5482.03
929.653	5446.1
929.962	5420.34
930.271	5374.01
930.581	5392.54
930.89	5348.25
931.199	5361.58
931.508	5316.39
931.817	5351.41
932.125	5275.48
932.434	5286.56
932.743	5231.64
933.051	5159.1
933.36	5209.95
933.669	5167.46
933.977	5140.35
934.286	5103.28
934.594	5148.48
934.902	5035.04
935.21	5028.94
935.519	5039.33
935.827	5040.69
936.135	5035.49
936.443	4943.74
936.751	4923.63
937.059	4897.41
937.367	4918.88
937.674	4923.85
937.982	4913.01
938.29	4844.76
938.597	4882.95
938.905	4823.97
939.213	4794.82
939.52	4758.21
939.827	4744.88
940.135	4713.69
940.442	4672.79
940.749	4688.38
941.056	4676.4
941.363	4669.17
941.67	4644.31
941.977	4612
942.284	4573.58
942.591	4578.55
942.898	4548.27
943.205	4552.79
943.511	4539.91
943.818	4475.5
944.125	4457.65
944.431	4442.96
944.738	4417.65
945.044	4404.77
945.35	4414.04
945.657	4383.08
945.963	4317.77
946.269	4327.94
946.575	4361.83
946.881	4286.58
947.187	4282.74
947.493	4276.86
947.799	4230.54
948.105	4206.36
948.41	4212.46
948.716	4222.4
949.022	4172.69
949.327	4158.22
949.633	4129.98
949.938	4122.29
950.244	4107.6
950.549	4087.49
950.854	4073.71
951.16	4004.1
951.465	4026.48
951.77	4018.79
952.075	3982.18
952.38	3986.48
952.685	3987.83
952.99	3920.04
953.294	3962.3
953.599	3953.71
953.904	3886.37
954.209	3830.32
954.513	3846.59
954.818	3809.08
955.122	3840.49
955.426	3855.63
955.731	3829.19
956.035	3772.92
956.339	3748.74
956.643	3728.4
956.948	3746.71
957.252	3711.46
957.556	3680.95
957.86	3690.21
958.163	3662.19
958.467	3675.98
958.771	3662.42
959.075	3651.57
959.378	3593.72
959.682	3583.78
959.985	3572.93
960.289	3545.36
960.592	3507.39
960.896	3552.82
961.199	3538.81
961.502	3493.61
961.805	3462.65
962.108	3437.56
962.411	3450.9
962.714	3428.75
963.017	3429.2
963.32	3422.65
963.623	3405.93
963.926	3385.36
964.228	3369.77
964.531	3346.72
964.833	3366.61
965.136	3306.04
965.438	3300.39
965.741	3295.87
966.043	3253.16
966.345	3280.73
966.648	3230.56
966.95	3282.09
967.252	3207.97
967.554	3191.02
967.856	3209.1
968.158	3192.83
968.46	3183.79
968.761	3195.31
969.063	3129.55
969.365	3135.2
969.666	3102.88
969.968	3080.29
970.269	3060.85
970.571	3107.18
970.872	3069.21
971.174	3066.05
971.475	3026.95
971.776	3020.85
972.077	3021.53
972.378	2994.41
972.679	2999.61
972.98	2976.79
973.281	2929.33
973.582	2971.59
973.883	2938.6
974.183	2917.58
974.484	2921.19
974.785	2899.5
975.085	2868.99
975.386	2869.22
975.686	2853.17
975.986	2816.34
976.287	2824.47
976.587	2823.8
976.887	2770.69
977.187	2791.03
977.487	2791.48
977.787	2740.41
978.087	2732.72
978.387	2724.36
978.687	2704.7
978.987	2710.35
979.286	2699.51
979.586	2674.2
979.885	2687.3
980.185	2677.81
980.484	2654.99
980.784	2662.9
981.083	2638.72
981.382	2627.87
981.682	2625.16
981.981	2594.65
982.28	2603.91
982.579	2608.43
982.878	2547.64
983.177	2551.71
983.475	2563.01
983.774	2561.2
984.073	2520.3
984.372	2487.08
984.67	2523.69
984.969	2513.97
985.267	2497.93
985.566	2485.05
985.864	2464.94
986.162	2421.32
986.461	2445.95
986.759	2427.42
987.057	2403.24
987.355	2418.38
987.653	2407.31
987.951	2360.98
988.249	2392.39
988.547	2388.78
988.844	2321.66
989.142	2352.4
989.44	2318.05
989.737	2306.52
990.035	2318.72
990.332	2284.15
990.63	2303.36
990.927	2261.1
991.224	2285.5
991.521	2257.93
991.819	2239.86
992.116	2237.82
992.413	2223.81
992.71	2216.13
993.006	2213.87
993.303	2174.77
993.6	2179.29
993.897	2138.16
994.193	2171.84
994.49	2149.69
994.787	2156.92
995.083	2131.38
995.379	2118.28
995.676	2082.8
995.972	2092.74
996.268	2112.63
996.565	2075.11
996.861	2046.42
997.157	2064.95
997.453	2055.23
997.749	2051.84
998.044	2038.05
998.34	2072.18
998.636	2022.23
998.932	1994.21
999.227	1962.12
999.523	1973.2
999.818	1969.81
1000.114	1940.43
1000.409	1969.35
1000.704	1974.78
1001	1935.91
1001.295	1928.23
1001.59	1926.42
1001.885	1909.7
1002.18	1902.24
1002.475	1898.85
1002.77	1914.67
1003.065	1849.36
1003.359	1877.15
1003.654	1850.94
1003.949	1845.29
1004.243	1813.65
1004.538	1805.29
1004.832	1798.06
1005.127	1807.1
1005.421	1773.43
1005.715	1776.82
1006.009	1767.33
1006.304	1757.16
1006.598	1737.27
1006.892	1746.54
1007.186	1722.81
1007.48	1705.18
1007.773	1722.36
1008.067	1672.64
1008.361	1662.7
1008.655	1671.51
1008.948	1666.76
1009.242	1648.23
1009.535	1628.35
1009.829	1650.04
1010.122	1642.36
1010.415	1623.83
1010.708	1606.43
1011.001	1591.74
1011.295	1584.73
1011.588	1588.8
1011.881	1581.12
1012.173	1552.42
1012.466	1572.3
1012.759	1552.87
1013.052	1557.16
1013.344	1511.29
1013.637	1532.08
1013.93	1524.85
1014.222	1515.13
1014.514	1536.15
1014.807	1491.85
1015.099	1471.29
1015.391	1478.75
1015.683	1463.83
1015.976	1455.92
1016.268	1467.45
1016.56	1443.04
1016.851	1449.37
1017.143	1402.59
1017.435	1420.44
1017.727	1380.44
1018.018	1401.91
1018.31	1402.14
1018.602	1402.59
1018.893	1371.86
1019.185	1359.65
1019.476	1356.04
1019.767	1366.21
1020.058	1333.21
1020.35	1329.82
1020.641	1319.88
1020.932	1301.58
1021.223	1309.71
1021.514	1286.21
1021.804	1288.47
1022.095	1276.27
1022.386	1288.47
1022.677	1251.41
1022.967	1252.31
1023.258	1243.05
1023.548	1231.3
1023.839	1221.58
1024.129	1203.27
1024.419	1195.14
1024.709	1228.58
1025	1205.31
1025.29	1205.99
1025.58	1178.19
1025.87	1169.15
1026.16	1175.7
1026.449	1171.18
1026.739	1156.04
1027.029	1154.01
1027.319	1116.27
1027.608	1107.46
1027.898	1116.5
1028.187	1123.5
1028.477	1118.08
1028.766	1107.68
1029.055	1099.1
1029.344	1090.06
1029.634	1106.55
1029.923	1072.66
1030.212	1075.59
1030.501	1057.97
1030.79	1046.67
1031.078	1083.05
1031.367	1050.96
1031.656	1017.29
1031.945	1045.54
1032.233	1039.44
1032.522	1029.94
1032.81	1022.04
1033.099	1016.84
1033.387	1004.63
1033.675	983.62
1033.963	974.13
1034.251	982.04
1034.54	978.42
1034.828	969.61
1035.116	931.64
1035.403	963.51
1035.691	944.07
1035.979	939.78
1036.267	942.49
1036.554	955.37
1036.842	960.12
1037.129	933.45
1037.417	902.72
1037.704	889.61
1037.992	915.6
1038.279	898.87
1038.566	908.59
1038.853	908.59
1039.14	908.59
