Data from hue_32_FLMS001491_00076.txt Node
Date: Tue Feb 07 17:23:53 GMT 2017
User: dcchb
Spectrometer: FLMS00149
Trigger mode: 0
Integration Time (sec): 2.000000E-2
Scans to average: 10
Electric dark correction enabled: true
Nonlinearity correction enabled: false
Boxcar width: 0
XAxis mode: Wavelengths
Number of Pixels in Spectrum: 2048
>>>>>Begin Spectral Data<<<<<
341.393	-2.05
341.776	-2.05
342.16	-2.05
342.543	-67.58
342.927	-78.2
343.31	-69.84
343.693	-49.28
344.077	-62.84
344.46	-68.71
344.843	-34.36
345.226	-52.67
345.61	-38.66
345.993	-7.25
346.376	-20.35
346.759	13.32
347.142	43.15
347.525	35.69
347.908	55.13
348.291	69.59
348.674	65.75
349.057	121.34
349.44	101.9
349.823	136.03
350.206	159.08
350.588	187.33
350.971	234.33
351.354	249.7
351.737	253.54
352.119	226.87
352.502	252.41
352.884	263.48
353.267	298.51
353.65	295.57
354.032	308.68
354.414	294.44
354.797	329.92
355.179	311.62
355.562	315.46
355.944	332.41
356.326	336.25
356.709	329.02
357.091	347.1
357.473	347.1
357.855	343.93
358.238	335.34
358.62	327.66
359.002	337.38
359.384	343.03
359.766	343.93
360.148	339.86
360.53	349.81
360.912	342.8
361.294	324.72
361.676	344.38
362.057	335.8
362.439	333.76
362.821	336.93
363.203	324.72
363.584	314.1
363.966	333.99
364.348	320.88
364.729	333.08
365.111	326.53
365.493	317.27
365.874	321.56
366.256	308.9
366.637	312.97
367.019	332.86
367.4	322.24
367.781	295.35
368.163	307.1
368.544	317.72
368.925	313.42
369.306	320.43
369.688	322.24
370.069	308
370.45	303.71
370.831	326.98
371.212	315.91
371.593	321.33
371.974	331.73
372.355	310.49
372.736	318.17
373.117	322.01
373.498	334.89
373.879	301.67
374.26	336.25
374.641	329.69
375.021	321.79
375.402	331.5
375.783	324.05
376.163	321.56
376.544	333.76
376.925	327.89
377.305	335.12
377.686	298.28
378.066	325.63
378.447	332.41
378.827	312.97
379.208	331.28
379.588	328.11
379.968	320.66
380.349	322.24
380.729	339.64
381.109	348.68
381.489	341.22
381.87	345.97
382.25	338.96
382.63	340.32
383.01	359.3
383.39	332.18
383.77	348.45
384.15	351.62
384.53	366.08
384.91	340.54
385.29	373.31
385.67	346.42
386.049	353.42
386.429	354.1
386.809	353.2
387.189	368.79
387.568	356.13
387.948	363.37
388.328	346.87
388.707	364.04
389.087	348.45
389.466	377.6
389.846	347.32
390.225	368.11
390.605	369.69
390.984	379.86
391.363	373.31
391.743	385.29
392.122	362.24
392.501	343.25
392.881	380.77
393.26	394.55
393.639	373.08
394.018	379.64
394.397	386.42
394.776	384.61
395.155	386.19
395.534	368.56
395.913	388.68
396.292	405.4
396.671	364.72
397.05	396.81
397.429	376.25
397.808	384.38
398.186	396.13
398.565	399.07
398.944	400.88
399.323	401.11
399.701	395
400.08	399.98
400.458	407.88
400.837	390.94
401.215	410.6
401.594	385.96
401.972	404.72
402.351	385.06
402.729	394.33
403.107	393.65
403.486	423.48
403.864	428.9
404.242	427.32
404.62	416.7
404.999	413.99
405.377	409.69
405.755	414.89
406.133	426.19
406.511	408.11
406.889	440.2
407.267	428.45
407.645	435.91
408.023	438.62
408.401	434.55
408.779	440.43
409.156	447.66
409.534	456.02
409.912	448.34
410.29	449.69
410.667	438.84
411.045	456.02
411.422	475
411.8	435
412.178	479.07
412.555	467.32
412.933	474.78
413.31	488.79
413.687	463.02
414.065	485.62
414.442	491.95
414.819	492.18
415.197	477.49
415.574	512.29
415.951	513.42
416.328	479.97
416.705	499.41
417.082	510.48
417.46	515.45
417.837	512.51
418.214	524.27
418.591	492.18
418.967	502.8
419.344	518.16
419.721	549.8
420.098	503.93
420.475	533.08
420.852	524.49
421.228	511.38
421.605	517.03
421.982	521.1
422.358	531.72
422.735	537.15
423.111	551.84
423.488	571.95
423.864	543.93
424.241	566.07
424.617	559.07
424.994	560.88
425.37	561.33
425.746	578.5
426.123	565.17
426.499	577.15
426.875	589.35
427.251	594.32
427.627	586.64
428.003	578.05
428.379	599.74
428.756	603.59
429.132	603.59
429.507	616.92
429.883	637.71
430.259	617.37
430.635	625.28
431.011	628.22
431.387	644.26
431.763	642.91
432.138	623.02
432.514	648.1
432.89	634.55
433.265	663.47
433.641	666.18
434.016	664.6
434.392	677.03
434.767	692.62
435.143	707.54
435.518	696.01
435.894	697.59
436.269	703.92
436.644	700.31
437.02	701.89
437.395	737.59
437.77	721.1
438.145	730.81
438.52	728.1
438.895	739.85
439.271	741.44
439.646	730.81
440.021	743.24
440.395	744.37
440.77	753.86
441.145	783.69
441.52	752.06
441.895	760.87
442.27	771.04
442.645	740.53
443.019	780.08
443.394	782.56
443.769	806.52
444.143	783.47
444.518	798.83
444.892	802.68
445.267	825.73
445.641	818.95
446.016	830.47
446.39	820.98
446.764	824.14
447.139	813.98
447.513	841.55
447.887	851.71
448.262	850.13
448.636	825.73
449.01	842.22
449.384	848.78
449.758	864.37
450.132	857.82
450.506	882
450.88	866.86
451.254	866.4
451.628	893.52
452.002	856.23
452.376	915.22
452.75	924.93
453.123	921.09
453.497	943.69
453.871	941.43
454.244	924.26
454.618	946.4
454.992	956.8
455.365	947.76
455.739	986.17
456.112	957.47
456.486	997.7
456.859	1006.29
457.232	1026.17
457.606	1029.79
457.979	1017.36
458.352	1057.13
458.725	1052.16
459.099	1057.59
459.472	1063.69
459.845	1074.76
460.218	1073.4
460.591	1086.74
460.964	1117.24
461.337	1133.52
461.71	1135.55
462.083	1152.95
462.456	1148.2
462.829	1153.63
463.201	1201.08
463.574	1187.98
463.947	1223.23
464.32	1258.26
464.692	1257.81
465.065	1232.04
465.438	1256.22
465.81	1290.12
466.183	1269.11
466.555	1317.01
466.928	1320.63
467.3	1313.62
467.672	1356.33
468.045	1373.74
468.417	1410.8
468.789	1415.77
469.161	1457.35
469.534	1458.25
469.906	1489.44
470.278	1503.45
470.65	1521.3
471.022	1524.69
471.394	1590.45
471.766	1597.91
472.138	1619.15
472.51	1643.78
472.882	1666.83
473.253	1697.57
473.625	1734.18
473.997	1760.39
474.369	1775.53
474.74	1819.6
475.112	1838.58
475.484	1886.49
475.855	1934.17
476.227	1956.54
476.598	2004.23
476.97	2004.9
477.341	2075.19
477.713	2134.84
478.084	2138.01
478.455	2241.51
478.827	2225.46
479.198	2342.75
479.569	2333.94
479.94	2436.08
480.311	2435.4
480.682	2531.67
481.053	2571.67
481.424	2636.3
481.795	2730.54
482.166	2763.53
482.537	2821.15
482.908	2896.41
483.279	2975.5
483.65	2974.82
484.021	3079.23
484.391	3164.87
484.762	3223.86
485.133	3281.26
485.503	3316.06
485.874	3429.73
486.244	3507.69
486.615	3579.33
486.985	3634.24
487.356	3711.75
487.726	3800.11
488.097	3910.62
488.467	3946.32
488.837	3978.64
489.207	4116.26
489.578	4184.28
489.948	4292.53
490.318	4371.85
490.688	4428.12
491.058	4532.97
491.428	4626.98
491.798	4696.59
492.168	4803.48
492.538	4835.34
492.908	4899.07
493.278	5021.1
493.648	5078.72
494.017	5145.16
494.387	5271.49
494.757	5301.09
495.126	5414.98
495.496	5421.76
495.866	5508.09
496.235	5588.54
496.605	5684.58
496.974	5732.04
497.344	5845.48
497.713	5881.41
498.082	5953.28
498.452	6046.38
498.821	6099.26
499.19	6144.23
499.559	6236.21
499.928	6222.42
500.298	6263.32
500.667	6395.07
501.036	6447.95
501.405	6524.56
501.774	6537.22
502.143	6668.74
502.512	6703.31
502.88	6757.55
503.249	6790.09
503.618	6848.62
503.987	6936.98
504.356	6917.54
504.724	6997.32
505.093	7091.78
505.462	7100.82
505.83	7179.01
506.199	7204.32
506.567	7341.26
506.936	7333.8
507.304	7488.15
507.672	7499.68
508.041	7503.52
508.409	7608.83
508.777	7662.61
509.145	7717.07
509.514	7693.57
509.882	7828.03
510.25	7806.79
510.618	7933.79
510.986	7929.72
511.354	7953.68
511.722	8040.9
512.09	8101.24
512.458	8122.94
512.826	8225.53
513.193	8269.15
513.561	8261.01
513.929	8296.94
514.297	8409.03
514.664	8395.02
515.032	8505.52
515.4	8547.33
515.767	8526.32
516.135	8612.19
516.502	8522.47
516.869	8707.1
517.237	8744.16
517.604	8757.27
517.972	8879.98
518.339	8837.27
518.706	8950.26
519.073	8857.83
519.44	8972.18
519.808	9068.45
520.175	9012.63
520.542	9167.2
520.909	9241.32
521.276	9210.59
521.643	9293.75
522.009	9313.87
522.376	9431.6
522.743	9400.42
523.11	9545.95
523.477	9556.12
523.843	9645.83
524.21	9657.36
524.577	9783.91
524.943	9816.45
525.31	9914.53
525.676	10007.41
526.043	9977.58
526.409	9995.88
526.776	10093.51
527.142	10197.46
527.508	10273.16
527.874	10340.05
528.241	10331.01
528.607	10382.09
528.973	10456.21
529.339	10422.08
529.705	10573.49
530.071	10643.77
530.437	10671.12
530.803	10755.64
531.169	10751.34
531.535	10776.2
531.901	10843.32
532.267	10894.61
532.632	10920.15
532.998	11008.06
533.364	11008.74
533.73	10993.6
534.095	11207.37
534.461	11165.57
534.826	11305.45
535.192	11249.86
535.557	11297.32
535.923	11421.61
536.288	11413.47
536.653	11490.08
537.019	11461.61
537.384	11552.68
537.749	11549.96
538.114	11674.48
538.479	11655.5
538.845	11670.87
539.21	11782.05
539.575	11774.59
539.94	11833.12
540.305	11958.77
540.67	11920.12
541.034	12046.67
541.399	12148.82
541.764	12070.18
542.129	12166.22
542.494	12194.69
542.858	12262.49
543.223	12199.21
543.587	12338.19
543.952	12328.93
544.316	12384.97
544.681	12366.21
545.045	12386.1
545.41	12558.53
545.774	12602.14
546.138	12619.54
546.503	12686.21
546.867	12644.17
547.231	12822.93
547.595	12824.06
547.959	12864.51
548.324	12915.13
548.688	12980.21
549.052	12997.16
549.416	13060.89
549.779	13028.12
550.143	13084.39
550.507	13170.26
550.871	13266.08
551.235	13226.53
551.599	13297.26
551.962	13364.38
552.326	13388.33
552.689	13482.34
553.053	13411.61
553.417	13365.28
553.78	13607.54
554.143	13542.68
554.507	13669.23
554.87	13715.11
555.234	13847.08
555.597	13721.88
555.96	13831.94
556.323	13862.45
556.686	13857.7
557.05	13976.12
557.413	14018.15
557.776	14127.75
558.139	14190.12
558.502	14166.62
558.865	14210.23
559.228	14207.52
559.59	14328.42
559.953	14381.53
560.316	14548.53
560.679	14473.28
561.041	14606.16
561.404	14591.47
561.767	14721.18
562.129	14628.08
562.492	14753.04
562.854	14807.51
563.217	14769.32
563.579	14796.88
563.941	14929.76
564.304	14911.46
564.666	14968.18
565.028	15133.83
565.39	15068.52
565.753	15146.71
566.115	15246.59
566.477	15228.06
566.839	15386.25
567.201	15408.39
567.563	15575.85
567.925	15584.43
568.287	15618.56
568.648	15587.37
569.01	15698.33
569.372	15812.68
569.734	15790.76
570.095	15925.89
570.457	15889.74
570.819	15997.08
571.18	15998.21
571.542	16172.44
571.903	16206.11
572.265	16294.7
572.626	16360.46
572.987	16403.62
573.349	16499.44
573.71	16525.88
574.071	16630.51
574.432	16689.49
574.794	16842.25
575.155	16857.17
575.516	16879.99
575.877	17145.75
576.238	17184.84
576.599	17292.19
576.96	17405.4
577.32	17465.29
577.681	17557.72
578.042	17790.7
578.403	17876.58
578.763	17996.8
579.124	18152.95
579.485	18302.78
579.845	18564.47
580.206	18552.94
580.566	18719.72
580.927	18918.13
581.287	19058.24
581.648	19172.59
582.008	19401.74
582.368	19437.67
582.728	19862.29
583.089	19961.49
583.449	20135.05
583.809	20234.03
584.169	20547.92
584.529	20717.86
584.889	21078.75
585.249	21044.86
585.609	21278.52
585.969	21644.61
586.329	21730.71
586.688	22057.26
587.048	22327.08
587.408	22527.53
587.768	22725.49
588.127	22887.75
588.487	23086.84
588.846	23626.03
589.206	23552.59
589.565	23860.83
589.925	24275.28
590.284	24408.38
590.643	24701.48
591.003	25034.81
591.362	25399.77
591.721	25607
592.08	25906.65
592.44	26050.37
592.799	26555.9
593.158	26637.93
593.517	26838.6
593.876	27271.81
594.235	27397.68
594.593	27634.74
594.952	27965.58
595.311	28132.81
595.67	28448.05
596.029	28913.58
596.387	29125.55
596.746	29403.05
597.104	29537.51
597.463	29809.82
597.822	30136.59
598.18	30257.27
598.538	30582.46
598.897	30958.72
599.255	31009.34
599.613	31684.12
599.972	31653.16
600.33	31843.22
600.688	32132.47
601.046	32357.78
601.404	32759.58
601.762	32904.21
602.12	33218.32
602.478	33440.01
602.836	33674.81
603.194	33637.97
603.552	34006.78
603.91	34115.7
604.268	34313.66
604.625	34529.02
604.983	34721.33
605.341	34872.97
605.698	35294.2
606.056	35547.53
606.413	35553.85
606.771	35949.55
607.128	36124.46
607.485	36065.48
607.843	36374.17
608.2	36618.46
608.557	36820.94
608.914	36879.69
609.272	37102.74
609.629	37295.73
609.986	37589.73
610.343	37572.33
610.7	38013.68
611.057	38107.46
611.414	38174.12
611.771	38224.07
612.127	38672.19
612.484	38751.06
612.841	39105.17
613.198	38881.22
613.554	39064.04
613.911	39313.98
614.267	39447.99
614.624	39489.79
614.98	39663.58
615.337	40101.3
615.693	40087.52
616.05	40155.99
616.406	40390.34
616.762	40385.82
617.118	40314.41
617.475	40517.34
617.831	40674.4
618.187	40837.1
618.543	40931.79
618.899	41254.49
619.255	41296.98
619.611	41245.91
619.967	41550.08
620.323	41656.74
620.678	41563.19
621.034	41598.44
621.39	41596.63
621.746	41712.11
622.101	42256.73
622.457	41932.67
622.812	41966.34
623.168	42279.1
623.523	42353.67
623.879	42445.42
624.234	42283.17
624.589	42388.7
624.945	42518.64
625.3	42561.8
625.655	42489.72
626.01	42741.46
626.365	42800.89
626.72	42733.78
627.075	42885.19
627.43	42836.15
627.785	42704.63
628.14	42763.83
628.495	43067.1
628.85	42905.75
629.205	42801.8
629.559	43070.04
629.914	42966.09
630.269	43181.68
630.623	42973.77
630.978	42811.06
631.332	43122.47
631.687	43149.81
632.041	43071.17
632.396	43042.47
632.75	43074.33
633.104	43116.14
633.459	42966.99
633.813	42950.04
634.167	42964.96
634.521	43066.65
634.875	43152.07
635.229	42971.29
635.583	42906.43
635.937	42982.81
636.291	42872.3
636.645	42967.22
636.999	42913.89
637.352	43179.87
637.706	42824.62
638.06	43003.6
638.413	42924.73
638.767	42818.97
639.121	43058.06
639.474	42728.81
639.828	42766.32
640.181	42789.6
640.534	42796.83
640.888	42691.29
641.241	42708.69
641.594	42773.32
641.947	42872.98
642.301	42764.96
642.654	42667.11
643.007	42844.28
643.36	42716.15
643.713	42758.64
644.066	42767.45
644.419	42682.71
644.771	42236.16
645.124	42054.47
645.477	41869.17
645.83	41556.41
646.182	41562.73
646.535	41458.33
646.888	41421.27
647.24	41357.99
647.593	41565.9
647.945	41489.74
648.298	41270.77
648.65	41270.99
649.002	41129.98
649.355	41411.55
649.707	41462.17
650.059	41571.32
650.411	41997.75
650.763	41931.54
651.115	42313.22
651.467	42280.91
651.819	42115.71
652.171	41965.21
652.523	42116.17
652.875	42030.07
653.227	41922.73
653.578	42254.47
653.93	42092.66
654.282	41812.45
654.633	41797.08
654.985	41960.24
655.337	41952.56
655.688	41872.78
656.039	42004.53
656.391	41686.57
656.742	41794.37
657.094	41849.28
657.445	42014.47
657.796	41997.07
658.147	41695.84
658.498	41800.92
658.849	42000.24
659.2	41745.78
659.551	41654.94
659.902	41737.42
660.253	41602.96
660.604	41704.65
660.955	41604.54
661.306	41699
661.656	41549.63
662.007	41666.46
662.358	41701.71
662.708	41655.16
663.059	41739.23
663.409	41436.18
663.76	41709.4
664.11	41661.26
664.461	41823.97
664.811	41782.39
665.161	41655.84
665.511	41600.25
665.862	41665.33
666.212	41682.96
666.562	41716.63
666.912	41643.64
667.262	41582.4
667.612	41522.06
667.962	41476.64
668.312	41492
668.662	41677.31
669.011	41443.42
669.361	41615.84
669.711	41527.26
670.06	41473.92
670.41	41420.82
670.76	41227.15
671.109	41479.57
671.459	41175.63
671.808	41278
672.157	41365.9
672.507	41219.24
672.856	41260.14
673.205	41226.7
673.554	41420.59
673.904	41258.34
674.253	41432.12
674.602	41093.37
674.951	40703.1
675.3	40485.25
675.649	41148.73
675.998	41076.65
676.346	41185.34
676.695	41321.84
677.044	40765.69
677.393	41146.7
677.741	41116.19
678.09	41063.76
678.438	40901.74
678.787	41045.23
679.135	41003.2
679.484	40684.57
679.832	40841.4
680.181	40736.09
680.529	40888.85
680.877	40665.36
681.225	40702.64
681.573	40807.27
681.922	40564.34
682.27	40380.62
682.618	40518.69
682.966	40465.59
683.314	40511.01
683.661	40259.72
684.009	40151.47
684.357	40095.43
684.705	40031.25
685.053	40153.51
685.4	40038.03
685.748	39951.03
686.095	39917.81
686.443	39799.39
686.79	39654.31
687.138	39803.69
687.485	39734.76
687.832	39605.5
688.18	39667.42
688.527	39304.26
688.874	39371.83
689.221	39256.81
689.568	39170.93
689.915	39097.71
690.262	39106.3
690.609	38853.65
690.956	38802.13
691.303	38754
691.65	38634.22
691.997	38699.99
692.344	38334.8
692.69	38356.49
693.037	38408.24
693.383	38151.75
693.73	38243.05
694.077	38082.37
694.423	37994.47
694.769	38013
695.116	37841.48
695.462	37876.28
695.808	37666.34
696.155	37862.04
696.501	37532.33
696.847	37500.47
697.193	37084.89
697.539	37415.95
697.885	37130.53
698.231	36966.47
698.577	36954.72
698.923	36959.01
699.269	36794.5
699.614	36562.87
699.96	36573.94
700.306	36644.9
700.651	36554.05
700.997	36314.74
701.342	36168.3
701.688	36203.1
702.033	36109.54
702.379	36061.18
702.724	35992.03
703.069	36022.99
703.415	35539.16
703.76	35640.63
704.105	35687.41
704.45	35542.33
704.795	35330.13
705.14	35190.02
705.485	35222.11
705.83	35080.87
706.175	35082.45
706.52	35049.46
706.865	34890.37
707.209	34938.95
707.554	34714.78
707.899	34843.59
708.243	34585.29
708.588	34554.11
708.932	34346.2
709.277	34318.63
709.621	34424.17
709.966	34142.14
710.31	34301.23
710.654	33967.45
710.998	34147.56
711.342	33988.7
711.687	33735.14
712.031	33643.17
712.375	33616.05
712.719	33784.86
713.063	33548.48
713.407	33732.88
713.75	33592.55
714.094	33501.7
714.438	33349.17
714.782	33296.74
715.125	33229.85
715.469	33161.15
715.812	33077.53
716.156	32966.8
716.499	32863.3
716.843	33005.45
717.186	32725
717.53	32889.97
717.873	32871.89
718.216	32771.55
718.559	32703.98
718.902	32448.4
719.246	32394.84
719.589	32326.14
719.932	32282.53
720.275	32218.57
720.617	32239.59
720.96	32228.74
721.303	32089.54
721.646	32086.37
721.989	31942.42
722.331	32040.27
722.674	31923.21
723.016	31978.58
723.359	31927.96
723.701	31995.3
724.044	31778.81
724.386	31594.18
724.729	31723.22
725.071	31584.47
725.413	31576.1
725.755	31526.61
726.097	31418.37
726.439	31180.41
726.782	31276.9
727.124	31333.63
727.465	31151.03
727.807	31325.04
728.149	31085.72
728.491	31024.93
728.833	31083.01
729.175	31072.39
729.516	30913.07
729.858	30858.61
730.199	30808.44
730.541	30725.73
730.882	30790.59
731.224	30857.93
731.565	30669.24
731.906	30762.57
732.248	30644.38
732.589	30549.01
732.93	30500.65
733.271	30390.83
733.612	30437.15
733.953	30487.77
734.294	30332.3
734.635	30285.29
734.976	30275.57
735.317	30161.9
735.658	30231.51
735.999	30110.15
736.339	29981.57
736.68	30244.61
737.021	30000.1
737.361	29772.76
737.702	29933.44
738.042	29878.07
738.383	29901.12
738.723	29926.88
739.063	29759.88
739.404	29737.74
739.744	29729.37
740.084	29632.43
740.424	29745.64
740.764	29536.16
741.104	29689.15
741.444	29447.8
741.784	29357.86
742.124	29365.32
742.464	29438.31
742.804	29347.69
743.143	29344.98
743.483	29308.37
743.823	29158.32
744.162	29137.98
744.502	29176.17
744.841	29067.47
745.181	29173.91
745.52	28990.18
745.86	29008.71
746.199	28979.11
746.538	28904.54
746.877	29066.79
747.216	28967.59
747.556	28974.82
747.895	28751.32
748.234	28635.17
748.573	28634.26
748.911	28595.62
749.25	28645.11
749.589	28492.34
749.928	28661.61
750.267	28494.15
750.605	28541.38
750.944	28479.24
751.283	28308.62
751.621	28420.26
751.96	28180.94
752.298	28222.75
752.636	28190.88
752.975	28069.76
753.313	28031.57
753.651	28084.45
753.989	27934.17
754.327	27958.57
754.666	27732.59
755.004	27689.65
755.342	27826.37
755.679	27789.99
756.017	27566.27
756.355	27730.78
756.693	27538.02
757.031	27651.91
757.368	27430
757.706	27367.63
758.044	27294.18
758.381	27461.41
758.719	27230.91
759.056	27363.11
759.394	27179.16
759.731	26862.78
760.068	26914.08
760.405	26884.93
760.743	26718.61
761.08	26701.66
761.417	26612.39
761.754	26645.16
762.091	26557.93
762.428	26503.92
762.765	26355
763.102	26338.5
763.438	26235
763.775	26140.32
764.112	26112.29
764.449	26156.13
764.785	26066.65
765.122	25846.76
765.458	25782.36
765.795	25628.24
766.131	25756.6
766.467	25619.65
766.804	25494.46
767.14	25341.24
767.476	25338.53
767.812	25266.44
768.148	25393.89
768.485	25125.43
768.821	24883.17
769.157	24893.34
769.492	24820.35
769.828	24958.2
770.164	24656.29
770.5	24612.67
770.836	24583.52
771.171	24298.33
771.507	24471.66
771.842	24286.35
772.178	24184.43
772.513	24128.17
772.849	24061.95
773.184	23949.86
773.519	23819.47
773.855	23798
774.19	23734.73
774.525	23643.88
774.86	23659.7
775.195	23492.7
775.53	23352.59
775.865	23282.99
776.2	23210
776.535	23052.04
776.87	23044.13
777.205	22941.98
777.539	22781.76
777.874	22829.22
778.209	22646.4
778.543	22607.53
778.878	22488.66
779.212	22423.8
779.547	22410.92
779.881	22438.49
780.215	22205.5
780.55	22370.25
780.884	22131.61
781.218	22160.53
781.552	22031.72
781.886	21947.88
782.22	21787.21
782.554	21677.16
782.888	21501.79
783.222	21372.53
783.556	21456.6
783.889	21389.03
784.223	21260.44
784.557	21179.77
784.89	21235.81
785.224	21131.63
785.557	20988.13
785.891	20816.16
786.224	20776.39
786.558	20760.57
786.891	20576.39
787.224	20586.34
787.557	20537.52
787.891	20550.63
788.224	20531.65
788.557	20387.7
788.89	20336.85
789.223	20289.17
789.556	20167.37
789.888	20068.16
790.221	19935.96
790.554	19891.89
790.887	19914.26
791.219	19789.75
791.552	19768.73
791.884	19674.04
792.217	19603.76
792.549	19451.45
792.882	19488.96
793.214	19320.61
793.546	19380.49
793.879	19276.32
794.211	19096.88
794.543	19143.89
794.875	19153.38
795.207	19169.88
795.539	19060.95
795.871	19008.75
796.203	18801.53
796.535	18782.32
796.867	18735.31
797.198	18640.4
797.53	18653.51
797.862	18446.05
798.193	18431.14
798.525	18419.84
798.856	18365.6
799.188	18296.91
799.519	18246.29
799.85	18030.47
800.182	18064.14
800.513	18115.22
800.844	17895.79
801.175	17992.28
801.506	17999.29
801.837	17877.93
802.168	17751.61
802.499	17779.41
802.83	17667.77
803.161	17601.1
803.491	17595.68
803.822	17485.63
804.153	17470.94
804.483	17340.09
804.814	17288.34
805.145	17346.65
805.475	17276.14
805.805	17236.82
806.136	17225.97
806.466	17122.93
806.796	17017.17
807.126	17005.64
807.457	16953.44
807.787	17057.39
808.117	16837.28
808.447	16791.18
808.777	16841.12
809.107	16693.78
809.436	16662.6
809.766	16687.46
810.096	16597.29
810.426	16526.78
810.755	16560.45
811.085	16454.47
811.414	16413.34
811.744	16285.21
812.073	16230.97
812.403	16240.24
812.732	16197.07
813.061	16185.1
813.39	16066.23
813.719	16040.47
814.049	16146.23
814.378	16049.73
814.707	15922.51
815.036	15930.64
815.365	15868.04
815.693	15719.57
816.022	15799.8
816.351	15747.37
816.68	15731.55
817.008	15749.85
817.337	15572.91
817.665	15457.21
817.994	15629.18
818.322	15582.63
818.651	15485
818.979	15355.29
819.307	15452.23
819.636	15392.8
819.964	15328.17
820.292	15348.28
820.62	15303.31
820.948	15194.16
821.276	15396.42
821.604	15268.28
821.932	15327.27
822.259	15259.02
822.587	15249.53
822.915	15161.4
823.243	15221.28
823.57	15161.4
823.898	15157.55
824.225	15147.16
824.553	15127.5
824.88	15159.14
825.207	15198.46
825.535	15214.05
825.862	15182.41
826.189	15071
826.516	15148.97
826.843	15201.62
827.17	15118.01
827.497	15249.53
827.824	15162.3
828.151	15218.12
828.478	15035.07
828.805	15127.72
829.131	15106.48
829.458	15089.08
829.785	15062.64
830.111	15114.39
830.438	15129.98
830.764	15192.13
831.09	15101.51
831.417	15021.29
831.743	15150.55
832.069	15080.27
832.395	15025.58
832.722	15069.42
833.048	14965.02
833.374	15061.51
833.7	14964.79
834.026	14993.94
834.351	14905.13
834.677	14942.42
835.003	15042.53
835.329	14909.42
835.654	14871.01
835.98	14854.74
836.306	14849.09
836.631	14811.35
836.956	14897.45
837.282	14836.66
837.607	14693.84
837.932	14763.44
838.258	14686.15
838.583	14672.14
838.908	14598.25
839.233	14595.53
839.558	14592.14
839.883	14585.82
840.208	14525.03
840.533	14542.43
840.858	14446.16
841.182	14562.54
841.507	14533.16
841.832	14329.55
842.156	14388.76
842.481	14391.47
842.805	14360.96
843.13	14342.66
843.454	14318.71
843.778	14226.73
844.103	14132.95
844.427	14240.97
844.751	14136.34
845.075	14195.77
845.399	14053.18
845.723	14006.17
846.047	14012.27
846.371	13850.02
846.695	13877.81
847.019	13739.74
847.343	13741.32
847.666	13676.24
847.99	13617.93
848.313	13617.03
848.637	13578.84
848.96	13520.76
849.284	13419.75
849.607	13275.57
849.931	13319.86
850.254	13249.13
850.577	13217.04
850.9	13043.48
851.223	13124.39
851.546	13002.81
851.869	12982.47
852.192	12954.45
852.515	12833.55
852.838	12816.15
853.161	12752.42
853.483	12772.53
853.806	12708.13
854.129	12642.59
854.451	12560.11
854.774	12460.9
855.096	12532.09
855.419	12512.43
855.741	12415.93
856.063	12378.19
856.385	12362.6
856.708	12332.99
857.03	12234.24
857.352	12327.8
857.674	12217.52
857.996	12133.9
858.318	12104.75
858.64	12119.67
858.961	12061.82
859.283	12002.16
859.605	12046.22
859.926	11953.8
860.248	12027.01
860.57	11938.88
860.891	11954.7
861.212	11864.76
861.534	11814.59
861.855	11843.06
862.176	11794.93
862.498	11768.72
862.819	11832.44
863.14	11658.44
863.461	11685.1
863.782	11677.87
864.103	11688.72
864.424	11662.28
864.745	11568.04
865.065	11587.7
865.386	11456.41
865.707	11520.13
866.027	11513.36
866.348	11538.44
866.668	11470.87
866.989	11486.46
867.309	11355.39
867.63	11408.5
867.95	11342.29
868.27	11400.59
868.59	11299.8
868.91	11290.31
869.23	11286.92
869.55	11290.54
869.87	11286.92
870.19	11211.22
870.51	11251.44
870.83	11296.19
871.15	11117.21
871.469	11177.55
871.789	11164.66
872.109	11143.65
872.428	11074.5
872.748	11128.96
873.067	11116.53
873.386	11051.9
873.706	11014.16
874.025	10983.65
874.344	11005.57
874.663	10991.11
874.982	10980.26
875.301	10971.67
875.62	10946.59
875.939	10962.18
876.258	10891.45
876.577	10840.83
876.896	10865.69
877.214	10776.2
877.533	10751.34
877.852	10784.34
878.17	10812.58
878.489	10821.85
878.807	10752.92
879.125	10666.37
879.444	10739.82
879.762	10662.98
880.08	10768.29
880.398	10625.47
880.716	10700.95
881.034	10563.1
881.352	10582.31
881.67	10610.1
881.988	10620.27
882.306	10474.51
882.624	10554.28
882.941	10468.19
883.259	10436.77
883.577	10401.75
883.894	10370.79
884.212	10341.18
884.529	10388.64
884.846	10366.94
885.164	10326.04
885.481	10240.85
885.798	10315.19
886.115	10199.94
886.432	10210.34
886.75	10215.54
887.067	10150.23
887.383	10143.22
887.7	10139.15
888.017	10076.78
888.334	10105.93
888.651	10006.73
888.967	10029.1
889.284	10010.12
889.6	9918.37
889.917	9876.34
890.233	9939.61
890.55	9878.6
890.866	9847.41
891.182	9875.43
891.498	9778.03
891.815	9722.22
892.131	9715.89
892.447	9679.51
892.763	9683.8
893.079	9667.3
893.395	9595.67
893.71	9552.28
894.026	9590.02
894.342	9524.26
894.657	9507.31
894.973	9450.13
895.289	9493.07
895.604	9460.3
895.92	9404.03
896.235	9347.76
896.55	9315
896.865	9256.92
897.181	9283.58
897.496	9263.7
897.811	9179.63
898.126	9162.91
898.441	9145.96
898.756	9084.27
899.071	9030.03
899.386	9002.91
899.7	9007.43
900.015	8946.64
900.33	8874.78
900.644	8914.78
900.959	8906.64
901.273	8864.16
901.588	8859.41
901.902	8739.64
902.216	8775.57
902.531	8722.69
902.845	8729.93
903.159	8573.77
903.473	8629.36
903.787	8572.42
904.101	8525.64
904.415	8591.85
904.729	8497.62
905.042	8425.3
905.356	8427.79
905.67	8424.85
905.984	8381.91
906.297	8397.51
906.611	8324.96
906.924	8285.42
907.237	8320.67
907.551	8218.75
907.864	8264.18
908.177	8165.19
908.491	8163.84
908.804	8122.71
909.117	8046.1
909.43	8065.31
909.743	7964.07
910.056	7993.9
910.368	7969.95
910.681	7843.85
910.994	7922.49
911.307	7890.63
911.619	7750.29
911.932	7771.31
912.244	7743.74
912.557	7694.92
912.869	7645.21
913.181	7654.25
913.494	7668.71
913.806	7556.85
914.118	7523.18
914.43	7504.2
914.742	7487.92
915.054	7409.28
915.366	7403.63
915.678	7410.64
915.99	7371.54
916.302	7319.79
916.613	7267.37
916.925	7273.01
917.236	7205.45
917.548	7176.52
917.859	7222.17
918.171	7097.2
918.482	7088.84
918.794	7025.79
919.105	7098.78
919.416	7001.38
919.727	7016.98
920.038	6990.31
920.349	6900.37
920.66	6861.27
920.971	6882.74
921.282	6846.13
921.593	6805.23
921.903	6736.76
922.214	6776.76
922.525	6737.21
922.835	6658.34
923.146	6645.23
923.456	6591.68
923.767	6618.34
924.077	6601.17
924.387	6517.55
924.697	6516.88
925.008	6492.47
925.318	6503.54
925.628	6447.73
925.938	6442.75
926.248	6427.84
926.558	6348.75
926.867	6284.79
927.177	6283.66
927.487	6311.23
927.796	6240.05
928.106	6246.83
928.416	6191.69
928.725	6212.03
929.034	6141.75
929.344	6157.56
929.653	6155.76
929.962	6040.73
930.271	6064.69
930.581	6033.73
930.89	5961.41
931.199	5955.76
931.508	5977.23
931.817	5987.17
932.125	5928.19
932.434	5884.35
932.743	5821.98
933.051	5820.4
933.36	5803
933.669	5763
933.977	5751.47
934.286	5748.31
934.594	5726.61
934.902	5662.21
935.21	5662.66
935.519	5630.35
935.827	5620.18
936.135	5550.57
936.443	5529.78
936.751	5525.72
937.059	5515.32
937.367	5452.27
937.674	5476.9
937.982	5479.39
938.29	5425.61
938.597	5416.11
938.905	5394.87
939.213	5313.74
939.52	5314.65
939.827	5296.57
940.135	5265.61
940.442	5207.53
940.749	5239.17
941.056	5173.41
941.363	5184.93
941.67	5160.53
941.977	5161.88
942.284	5076.24
942.591	5120.08
942.898	5097.03
943.205	5047.99
943.511	5042.34
943.818	5050.93
944.125	4998.27
944.431	4975.45
944.738	4972.06
945.044	4924.38
945.35	4889.8
945.657	4849.8
945.963	4865.39
946.269	4803.93
946.575	4805.74
946.881	4791.72
947.187	4780.65
947.493	4765.28
947.799	4685.29
948.105	4728.68
948.41	4697.94
948.716	4691.39
949.022	4624.5
949.327	4654.33
949.633	4596.02
949.938	4590.6
950.244	4579.07
950.549	4541.56
950.854	4528.45
951.16	4523.93
951.465	4479.42
951.77	4444.16
952.075	4449.59
952.38	4450.94
952.685	4455.01
952.99	4400.55
953.294	4402.13
953.599	4354
953.904	4337.95
954.209	4284.17
954.513	4286.88
954.818	4264.05
955.122	4283.94
955.426	4258.86
955.731	4203.72
956.035	4230.84
956.339	4222.02
956.643	4173.66
956.948	4129.59
957.252	4150.84
957.556	4118.3
957.86	4133.89
958.163	4103.38
958.467	4083.04
958.771	4035.13
959.075	4038.52
959.378	3956.27
959.682	4025.19
959.985	3980.67
960.289	3949.26
960.592	3952.42
960.896	3903.84
961.199	3876.95
961.502	3925.76
961.805	3864.29
962.108	3839.21
962.411	3842.14
962.714	3796.5
963.017	3813.67
963.32	3844.4
963.623	3756.95
963.926	3775.25
964.228	3759.44
964.531	3735.93
964.833	3734.35
965.136	3675.14
965.438	3660.91
965.741	3666.33
966.043	3656.39
966.345	3636.73
966.648	3604.18
966.95	3598.54
967.252	3551.76
967.554	3568.48
967.856	3590.63
968.158	3526.45
968.46	3551.08
968.761	3483.28
969.063	3474.02
969.365	3480.8
969.666	3437.64
969.968	3430.63
970.269	3434.02
970.571	3406.68
970.872	3392.67
971.174	3369.84
971.475	3316.96
971.776	3382.95
972.077	3329.39
972.378	3347.69
972.679	3315.6
972.98	3317.86
973.281	3301.14
973.582	3285.1
973.883	3250.75
974.183	3224.08
974.484	3218.88
974.785	3240.8
975.085	3224.31
975.386	3174.59
975.686	3163.52
975.986	3133.01
976.287	3138.66
976.587	3080.81
976.887	3094.14
977.187	3105.44
977.487	3117.87
977.787	3096.18
978.087	3070.64
978.387	3066.12
978.687	3068.38
978.987	3005.33
979.286	2981.83
979.586	2996.97
979.885	2958.78
980.185	2964.88
980.484	2928.72
980.784	2960.81
981.083	2949.51
981.382	2899.57
981.682	2876.29
981.981	2886.46
982.28	2873.81
982.579	2825
982.878	2850.08
983.177	2831.78
983.475	2794.71
983.774	2764.66
984.073	2780.7
984.372	2802.62
984.67	2767.6
984.969	2766.47
985.267	2752
985.566	2772.34
985.864	2767.37
986.162	2719.69
986.461	2658.22
986.759	2687.82
987.057	2650.54
987.355	2630.43
987.653	2690.31
987.951	2619.58
988.249	2641.5
988.547	2647.15
988.844	2601.73
989.142	2583.87
989.44	2575.29
989.737	2591.78
990.035	2550.65
990.332	2545.68
990.63	2552.91
990.927	2531.44
991.224	2505.68
991.521	2487.15
991.819	2487.38
992.116	2508.39
992.413	2466.14
992.71	2459.13
993.006	2453.71
993.303	2429.98
993.6	2422.75
993.897	2371.45
994.193	2401.73
994.49	2395.4
994.787	2384.1
995.083	2334.39
995.379	2298.23
995.676	2333.94
995.972	2335.97
996.268	2312.47
996.565	2296.42
996.861	2325.35
997.157	2310.21
997.453	2245.35
997.749	2261.62
998.044	2251.68
998.34	2238.57
998.636	2235.63
998.932	2207.84
999.227	2187.95
999.523	2160.61
999.818	2189.08
1000.114	2131
1000.409	2135.75
1000.704	2123.77
1001	2137.78
1001.295	2098.69
1001.59	2096.43
1001.885	2123.09
1002.18	2089.65
1002.475	2076.77
1002.77	2070.44
1003.065	2040.38
1003.359	2069.54
1003.654	2050.78
1003.949	2016.88
1004.243	1997.45
1004.538	1992.7
1004.832	1970.33
1005.127	2015.3
1005.421	1970.33
1005.715	1934.62
1006.009	1942.76
1006.304	1957.45
1006.598	1895.3
1006.892	1926.94
1007.186	1890.56
1007.48	1893.04
1007.773	1877.22
1008.067	1896.43
1008.361	1880.16
1008.655	1860.5
1008.948	1851.69
1009.242	1844.91
1009.535	1810.79
1009.829	1818.47
1010.122	1793.84
1010.415	1815.31
1010.708	1753.61
1011.001	1784.8
1011.295	1763.78
1011.588	1759.04
1011.881	1731.47
1012.173	1748.41
1012.466	1697.57
1012.759	1701.64
1013.052	1722.65
1013.344	1675.2
1013.637	1702.77
1013.93	1664.35
1014.222	1661.64
1014.514	1664.8
1014.807	1650.56
1015.099	1615.08
1015.391	1651.69
1015.683	1595.65
1015.976	1602.88
1016.268	1580.06
1016.56	1583
1016.851	1587.97
1017.143	1571.47
1017.435	1575.76
1017.727	1560.85
1018.018	1518.36
1018.31	1528.76
1018.602	1542.32
1018.893	1502.09
1019.185	1541.41
1019.476	1517.46
1019.767	1479.27
1020.058	1481.08
1020.35	1477.69
1020.641	1434.3
1020.932	1466.39
1021.223	1428.65
1021.514	1444.69
1021.804	1394.07
1022.095	1394.75
1022.386	1396.33
1022.677	1372.61
1022.967	1390.91
1023.258	1349.78
1023.548	1344.81
1023.839	1372.83
1024.129	1331.25
1024.419	1332.83
1024.709	1312.27
1025	1316.79
1025.29	1326.28
1025.58	1314.53
1025.87	1300.06
1026.16	1243.34
1026.449	1288.54
1026.739	1264.36
1027.029	1268.2
1027.319	1278.6
1027.608	1237.02
1027.898	1225.49
1028.187	1230.46
1028.477	1198.37
1028.766	1210.58
1029.055	1213.97
1029.344	1183.68
1029.634	1202.89
1029.923	1186.85
1030.212	1191.59
1030.501	1160.86
1030.79	1151.59
1031.078	1138.71
1031.367	1139.16
1031.656	1111.37
1031.945	1143.68
1032.233	1126.51
1032.522	1119.05
1032.81	1116.79
1033.099	1098.49
1033.387	1092.16
1033.675	1079.51
1033.963	1070.69
1034.251	1075.66
1034.54	1060.3
1034.828	1053.07
1035.116	1044.7
1035.403	1006.97
1035.691	1040.41
1035.979	1004.48
1036.267	1026.63
1036.554	1015.1
1036.842	1014.87
1037.129	1021.2
1037.417	997.25
1037.704	985.95
1037.992	994.99
1038.279	1004.48
1038.566	947.98
1038.853	947.98
1039.14	947.98
