Data from hue_310_FLMS001491_60.txt Node
Date: Mon Feb 06 15:49:54 GMT 2017
User: dcchb
Spectrometer: FLMS00149
Trigger mode: 0
Integration Time (sec): 2.000000E-2
Scans to average: 10
Electric dark correction enabled: true
Nonlinearity correction enabled: false
Boxcar width: 0
XAxis mode: Wavelengths
Number of Pixels in Spectrum: 2048
>>>>>Begin Spectral Data<<<<<
341.393	2.6
341.776	2.6
342.16	2.6
342.543	-52.99
342.927	-64.52
343.31	-67
343.693	-62.71
344.077	-59.09
344.46	-66.78
344.843	-56.16
345.226	-31.07
345.61	-30.62
345.993	-13.67
346.376	-0.56
346.759	3.5
347.142	28.81
347.525	39.66
347.908	48.25
348.291	74.24
348.674	71.07
349.057	122.14
349.44	133.89
349.823	150.84
350.206	180.67
350.588	187.68
350.971	204.4
351.354	225.42
351.737	240.11
352.119	246.21
352.502	265.42
352.884	266.55
353.267	285.98
353.65	282.14
354.032	283.04
354.414	297.05
354.797	311.74
355.179	325.3
355.562	309.26
355.944	333.66
356.326	326.88
356.709	341.12
357.091	324.4
357.473	346.09
357.855	325.08
358.238	338.86
358.62	347
359.002	331.4
359.384	351.97
359.766	322.36
360.148	342.7
360.53	334.34
360.912	337.96
361.294	344.74
361.676	353.1
362.057	356.71
362.439	333.44
362.821	324.4
363.203	324.85
363.584	328.47
363.966	336.38
364.348	340.22
364.729	324.85
365.111	339.77
365.493	333.44
365.874	316.26
366.256	331.18
366.637	321.01
367.019	318.3
367.4	343.15
367.781	319.65
368.163	307.22
368.544	312.87
368.925	297.51
369.306	327.56
369.688	312.65
370.069	322.14
370.45	331.18
370.831	301.12
371.212	310.84
371.593	339.31
371.974	303.83
372.355	320.33
372.736	301.57
373.117	311.52
373.498	304.51
373.879	324.62
374.26	324.62
374.641	327.34
375.021	317.17
375.402	317.62
375.783	319.43
376.163	325.98
376.544	327.11
376.925	313.33
377.305	343.61
377.686	323.27
378.066	337.05
378.447	333.89
378.827	322.36
379.208	344.28
379.588	327.34
379.968	350.39
380.349	334.12
380.729	330.95
381.109	337.96
381.489	337.28
381.87	328.69
382.25	315.13
382.63	337.28
383.01	329.82
383.39	361.91
383.77	334.79
384.15	336.6
384.53	338.41
384.91	332.31
385.29	328.01
385.67	338.18
386.049	352.42
386.429	338.41
386.809	355.13
387.189	356.71
387.568	347.67
387.948	376.37
388.328	364.4
388.707	370.95
389.087	363.49
389.466	371.4
389.846	361.23
390.225	383.38
390.605	348.35
390.984	369.37
391.363	367.33
391.743	366.88
392.122	374.11
392.501	382.48
392.881	385.19
393.26	373.66
393.639	394.68
394.018	394
394.397	376.83
394.776	387
395.155	385.87
395.534	390.39
395.913	400.33
396.292	387.45
396.671	401.46
397.05	409.37
397.429	408.92
397.808	407.56
398.186	396.71
398.565	401.46
398.944	410.05
399.323	411.4
399.701	404.4
400.08	403.72
400.458	412.98
400.837	430.16
401.215	419.31
401.594	445.3
401.972	427.22
402.351	428.35
402.729	417.28
403.107	412.31
403.486	426.77
403.864	438.52
404.242	425.64
404.62	432.42
404.999	447.33
405.377	433.55
405.755	452.76
406.133	453.66
406.511	455.69
406.889	464.06
407.267	464.06
407.645	478.07
408.023	493.43
408.401	476.03
408.779	492.53
409.156	501.79
409.534	499.31
409.912	502.47
410.29	524.17
410.667	518.97
411.045	523.49
411.422	518.07
411.8	545.86
412.178	537.95
412.555	529.14
412.933	544.05
413.31	545.41
413.687	550.38
414.065	564.17
414.442	582.7
414.819	602.58
415.197	612.07
415.574	597.61
415.951	633.54
416.328	606.2
416.705	635.35
417.082	662.24
417.46	659.76
417.837	662.92
418.214	653.66
418.591	659.3
418.967	677.84
419.344	703.15
419.721	720.32
420.098	690.49
420.475	708.34
420.852	720.77
421.228	719.19
421.605	717.61
421.982	754.44
422.358	755.57
422.735	765.52
423.111	783.14
423.488	789.24
423.864	788.34
424.241	796.25
424.617	832.18
424.994	812.97
425.37	802.58
425.746	831.5
426.123	847.55
426.499	866.98
426.875	848.9
427.251	881.45
427.627	861.79
428.003	882.8
428.379	875.12
428.756	910.6
429.132	895
429.507	925.06
429.883	933.2
430.259	938.62
430.635	973.87
431.011	955.57
431.387	976.13
431.763	1011.84
432.138	1001.89
432.514	1028.79
432.89	1038.28
433.265	1068.79
433.641	1063.14
434.016	1070.14
434.392	1070.59
434.767	1095.45
435.143	1072.4
435.518	1112.4
435.894	1157.37
436.269	1122.34
436.644	1146.75
437.02	1153.53
437.395	1174.77
437.77	1179.52
438.145	1202.34
438.52	1229.23
438.895	1199.18
439.271	1215.22
439.646	1233.53
440.021	1246.18
440.395	1253.19
440.77	1242.79
441.145	1278.5
441.52	1273.3
441.895	1292.28
442.27	1295.22
442.645	1290.47
443.019	1294.77
443.394	1316.24
443.769	1300.19
444.143	1288.67
444.518	1351.26
444.892	1311.72
445.267	1341.77
445.641	1362.34
446.016	1326.86
446.39	1329.8
446.764	1334.99
447.139	1346.74
447.513	1365.27
447.887	1373.86
448.262	1407.53
448.636	1367.31
449.01	1394.65
449.384	1363.92
449.758	1422.67
450.132	1419.96
450.506	1441.88
450.88	1436.01
451.254	1427.19
451.628	1441.66
452.002	1428.55
452.376	1457.93
452.75	1463.8
453.123	1448.44
453.497	1489.57
453.871	1532.95
454.244	1520.3
454.618	1536.12
454.992	1548.32
455.365	1531.37
455.739	1541.99
456.112	1571.15
456.486	1537.02
456.859	1566.85
457.232	1611.82
457.606	1618.38
457.979	1577.25
458.352	1627.19
458.725	1660.41
459.099	1662.67
459.472	1667.41
459.845	1678.49
460.218	1720.52
460.591	1695.89
460.964	1694.98
461.337	1752.38
461.71	1737.92
462.083	1776.79
462.456	1769.56
462.829	1759.61
463.201	1826.51
463.574	1789.22
463.947	1836.9
464.32	1830.8
464.692	1858.37
465.065	1859.5
465.438	1891.59
465.81	1939.95
466.183	1900.18
466.555	1957.12
466.928	1942.66
467.3	1982.89
467.672	1979.72
468.045	2005.03
468.417	2012.26
468.789	1995.54
469.161	2032.38
469.534	2083.45
469.906	2066.95
470.278	2115.76
470.65	2074.63
471.022	2134.29
471.394	2190.79
471.766	2191.47
472.138	2189.89
472.51	2207.74
472.882	2247.29
473.253	2271.69
473.625	2290.45
473.997	2309.88
474.369	2332.26
474.74	2373.84
475.112	2383.78
475.484	2387.39
475.855	2436.21
476.227	2461.07
476.598	2531.57
476.97	2491.35
477.341	2545.36
477.713	2619.48
478.084	2596.2
478.455	2644.34
478.827	2673.72
479.198	2715.97
479.569	2704.67
479.94	2780.83
480.311	2800.49
480.682	2799.36
481.053	2858.12
481.424	2885.01
481.795	2981.28
482.166	2942.63
482.537	2978.11
482.908	3055.17
483.279	3048.85
483.65	3093.82
484.021	3091.56
484.391	3115.51
484.762	3162.52
485.133	3177.88
485.503	3218.79
485.874	3290.65
486.244	3270.54
486.615	3331.55
486.985	3331.1
487.356	3380.82
487.726	3415.84
488.097	3462.62
488.467	3468.95
488.837	3510.76
489.207	3564.31
489.578	3606.8
489.948	3587.59
490.318	3650.64
490.688	3662.84
491.058	3706.46
491.428	3750.07
491.798	3759.11
492.168	3837.53
492.538	3821.26
492.908	3824.65
493.278	3877.07
493.648	3851.09
494.017	3952.33
494.387	3995.49
494.757	3978.99
495.126	3975.83
495.496	4024.87
495.866	4047.24
496.235	4118.42
496.605	4084.53
496.974	4154.13
497.344	4150.51
497.713	4179.44
498.082	4169.04
498.452	4199.32
498.821	4232.32
499.19	4256.27
499.559	4285.65
499.928	4271.64
500.298	4287.91
500.667	4314.35
501.036	4318.19
501.405	4359.09
501.774	4374.24
502.143	4400.22
502.512	4402.26
502.88	4448.81
503.249	4415.82
503.618	4451.07
503.987	4522.03
504.356	4492.88
504.724	4529.71
505.093	4472.09
505.462	4489.49
505.83	4578.52
506.199	4603.38
506.567	4637.28
506.936	4603.38
507.304	4659.88
507.672	4644.51
508.041	4690.61
508.409	4718.18
508.777	4730.16
509.145	4710.95
509.514	4780.78
509.882	4764.06
510.25	4786.65
510.618	4804.28
510.986	4768.8
511.354	4825.52
511.722	4828.91
512.09	4912.07
512.458	4859.42
512.826	4913.88
513.193	4882.47
513.561	4926.31
513.929	4955.91
514.297	5002.69
514.664	5021.45
515.032	5005.63
515.4	4979.87
515.767	5020.09
516.135	5032.3
516.502	4997.04
516.869	5098.51
517.237	5106.87
517.604	5098.96
517.972	5115.46
518.339	5121.11
518.706	5127.21
519.073	5126.98
519.44	5139.86
519.808	5227.32
520.175	5195
520.542	5195.91
520.909	5222.12
521.276	5200.2
521.643	5328.79
522.009	5320.65
522.376	5300.31
522.743	5376.02
523.11	5338.28
523.477	5451.95
523.843	5421.44
524.21	5466.64
524.577	5474.32
524.943	5462.79
525.31	5542.11
525.676	5593.86
526.043	5586.18
526.409	5572.62
526.776	5635.45
527.142	5631.83
527.508	5713.18
527.874	5701.88
528.241	5724.48
528.607	5796.57
528.973	5810.81
529.339	5835.67
529.705	5858.94
530.071	5914.08
530.437	5934.19
530.803	5932.39
531.169	5972.84
531.535	5952.72
531.901	6024.59
532.267	6010.35
532.632	6058.03
532.998	6039.5
533.364	6152.72
533.73	6189.1
534.095	6191.14
534.461	6158.82
534.826	6192.49
535.192	6225.49
535.557	6278.37
535.923	6287.86
536.288	6315.88
536.653	6370.79
537.019	6390
537.384	6366.95
537.749	6388.19
538.114	6432.71
538.479	6401.75
538.845	6448.98
539.21	6474.97
539.575	6480.39
539.94	6571.69
540.305	6547.74
540.67	6529.66
541.034	6629.54
541.399	6648.53
541.764	6624.12
542.129	6674.06
542.494	6684.91
542.858	6811.01
543.223	6790.44
543.587	6848.97
543.952	6809.88
544.316	6843.77
544.681	6888.75
545.045	6921.96
545.41	6970.78
545.774	6957.44
546.138	7027.5
546.503	6992.47
546.867	7074.96
547.231	7077.22
547.595	7094.62
547.959	7188.4
548.324	7147.95
548.688	7186.82
549.052	7149.76
549.416	7187.72
549.779	7247.83
550.143	7293.25
550.507	7282.86
550.871	7284.22
551.235	7267.94
551.599	7363.54
551.962	7358.79
552.326	7392.01
552.689	7450.31
553.053	7401.95
553.417	7425
553.78	7504.55
554.143	7519.69
554.507	7517.66
554.87	7569.63
555.234	7652.79
555.597	7602.17
555.96	7625.22
556.323	7607.82
556.686	7635.62
557.05	7688.72
557.413	7693.47
557.776	7763.52
558.139	7782.28
558.502	7844.65
558.865	7861.38
559.228	7839
559.59	7832.9
559.953	7879.23
560.316	7996.51
560.679	7913.13
561.041	7963.07
561.404	8065.44
561.767	8063.63
562.129	8032.22
562.492	8083.97
562.854	8102.05
563.217	8082.84
563.579	8120.13
563.941	8142.72
564.304	8132.1
564.666	8199.67
565.028	8286.22
565.39	8297.52
565.753	8329.84
566.115	8328.03
566.477	8405.54
566.839	8355.83
567.201	8394.24
567.563	8428.82
567.925	8507.23
568.287	8507.69
568.648	8552.88
569.01	8572.32
569.372	8621.13
569.734	8572.09
570.095	8641.24
570.457	8753.78
570.819	8779.54
571.18	8741.58
571.542	8865.87
571.903	8866.32
572.265	8921.91
572.626	8973.44
572.987	8967.79
573.349	9028.12
573.71	9085.98
574.071	9150.83
574.432	9220.66
574.794	9311.73
575.155	9342.92
575.516	9299.53
575.877	9447.55
576.238	9497.26
576.599	9628.11
576.96	9666.75
577.32	9693.87
577.681	9801.21
578.042	9949
578.403	9998.72
578.763	10090.24
579.124	10140.41
579.485	10274.19
579.845	10450.01
580.206	10461.76
580.566	10657.91
580.927	10759.38
581.287	10892.03
581.648	11036.21
582.008	11199.82
582.368	11280.27
582.728	11516.42
583.089	11701.5
583.449	11805.68
583.809	11996.86
584.169	12149.17
584.529	12374.48
584.889	12657.41
585.249	12749.61
585.609	12906.44
585.969	13209.94
586.329	13411.51
586.688	13616.25
587.048	13874.78
587.408	14046.07
587.768	14382.56
588.127	14598.15
588.487	14793.85
588.846	15173.73
589.206	15269.32
589.565	15587.5
589.925	16096.19
590.284	16239.23
590.643	16502.5
591.003	16876.96
591.362	17070.62
591.721	17361.92
592.08	17694.34
592.44	17983.14
592.799	18268.79
593.158	18521.89
593.517	18905.83
593.876	19207.97
594.235	19491.8
594.593	19776.54
594.952	20162.29
595.311	20357.54
595.67	20730.19
596.029	21214.7
596.387	21415.37
596.746	21781.46
597.104	22004.51
597.463	22310.94
597.822	22769.68
598.18	22979.4
598.538	23234.53
598.897	23773.73
599.255	23745.7
599.613	24416.42
599.972	24528.51
600.33	24973.47
600.688	25093.92
601.046	25410.97
601.404	25816.16
601.762	25994.01
602.12	26421.11
602.478	26648.68
602.836	26955.56
603.194	27070.81
603.552	27488.66
603.91	27579.73
604.268	27991.02
604.625	28194.17
604.983	28554.16
605.341	28646.37
605.698	29070.31
606.056	29396.85
606.413	29634.36
606.771	29937.18
607.128	30140.56
607.485	30234.8
607.843	30590.95
608.2	30853.31
608.557	31157.26
608.914	31309.35
609.272	31746.85
609.629	31954.3
609.986	32373.05
610.343	32334.63
610.7	32812.58
611.057	32834.73
611.414	33065.23
611.771	33128.73
612.127	33597.42
612.484	33728.94
612.841	34017.75
613.198	34008.26
613.554	34213.68
613.911	34596.04
614.267	34655.02
614.624	34810.5
614.98	35152.86
615.337	35323.25
615.693	35390.14
616.05	35600.53
616.406	35956.68
616.762	35902.67
617.118	36093.63
617.475	36290.01
617.831	36308.99
618.187	36580.17
618.543	36759.37
618.899	37134.28
619.255	37091.79
619.611	37024
619.967	37594.38
620.323	37447.94
620.678	37501.95
621.034	37576.07
621.39	37884.54
621.746	37758.44
622.101	38233.68
622.457	38097.42
622.812	38257.64
623.168	38435.49
623.523	38449.5
623.879	38618.53
624.234	38539.89
624.589	38794.12
624.945	38941.01
625.3	39012.19
625.655	39152.98
626.01	39183.49
626.365	39105.3
626.72	39137.61
627.075	39274.11
627.43	39310.49
627.785	39371.73
628.14	39413.31
628.495	39637.71
628.85	39468.68
629.205	39449.47
629.559	39882.23
629.914	39596.36
630.269	39861.21
630.623	39819.86
630.978	39719.52
631.332	39993.19
631.687	40134.42
632.041	39988.21
632.396	40108.66
632.75	40041.77
633.104	40166.29
633.459	40056.46
633.813	40084.71
634.167	40033.41
634.521	40084.48
634.875	40135.33
635.229	40099.4
635.583	39977.82
635.937	40034.77
636.291	40053.3
636.645	40067.08
636.999	40062.34
637.352	40193.86
637.706	39920.19
638.06	40123.35
638.413	39864.83
638.767	40044.94
639.121	40150.47
639.474	39854.43
639.828	39818.5
640.181	39974.43
640.534	40018.95
640.888	40041.09
641.241	39726.75
641.594	39839.52
641.947	40048.33
642.301	39884.71
642.654	39836.35
643.007	39921.78
643.36	39843.13
643.713	39901.21
644.066	40088.1
644.419	39796.35
644.771	39614.89
645.124	39224.84
645.477	39241.57
645.83	39004.29
646.182	38880.45
646.535	38664.86
646.888	38871.86
647.24	38659.89
647.593	38769.72
647.945	38887.9
648.298	38605.2
648.65	38610.4
649.002	38493.56
649.355	38710.96
649.707	38559.55
650.059	38713.9
650.411	39169.25
650.763	39236.6
651.115	39712.52
651.467	39482.24
651.819	39621.67
652.171	39389.59
652.523	39423.94
652.875	39440.43
653.227	39370.6
653.578	39637.94
653.93	39466.65
654.282	39386.2
654.633	39169.7
654.985	39430.04
655.337	39347.33
655.688	39396.82
656.039	39563.82
656.391	39054.23
656.742	39178.52
657.094	39303.94
657.445	39382.81
657.796	39265.75
658.147	39142.59
658.498	39246.54
658.849	39188.01
659.2	39062.36
659.551	39022.82
659.902	39202.47
660.253	39143.04
660.604	39279.53
660.955	38987.56
661.306	39103.49
661.656	39119.99
662.007	39050.61
662.358	39022.82
662.708	39039.99
663.059	39082.02
663.409	38787.12
663.76	39117.28
664.11	39066.88
664.461	39199.53
664.811	39103.27
665.161	39115.47
665.511	38961.35
665.862	38915.7
666.212	39122.02
666.562	39139.42
666.912	39001.8
667.262	38926.1
667.612	38994.79
667.962	39007.67
668.312	38954.57
668.662	39187.11
669.011	38922.71
669.361	38983.95
669.711	38830.05
670.06	38785.76
670.41	38944.63
670.76	38938.07
671.109	39010.39
671.459	38912.99
671.808	38834.12
672.157	39050.61
672.507	38671.19
672.856	38819.21
673.205	38927.45
673.554	38985.3
673.904	38754.57
674.253	38921.12
674.602	38746.89
674.951	38249.28
675.3	38077.76
675.649	38687.91
675.998	38707.34
676.346	38670.06
676.695	38856.04
677.044	38474.13
677.393	38535.14
677.741	38550.96
678.09	38581.25
678.438	38457.86
678.787	38567.69
679.135	38621.92
679.484	38243.18
679.832	38316.39
680.181	38062.84
680.529	38392.78
680.877	38290.41
681.225	38114.37
681.573	38465.09
681.922	38037.98
682.27	37957.76
682.618	38042.5
682.966	37937.65
683.314	37936.52
683.661	37850.64
684.009	37747.14
684.357	37722.96
684.705	37573.81
685.053	37646.35
685.4	37659.69
685.748	37449.98
686.095	37463.99
686.443	37309.87
686.79	37307.61
687.138	37329.3
687.485	37373.59
687.832	37144.45
688.18	37275.52
688.527	37048.86
688.874	37039.59
689.221	36980.84
689.568	36974.28
689.915	36835.98
690.262	36897.22
690.609	36716.89
690.956	36517.57
691.303	36459.04
691.65	36332.04
691.997	36310.8
692.344	36283.68
692.69	36082.33
693.037	36167.3
693.383	35956.68
693.73	36058.15
694.077	35755.11
694.423	35758.72
694.769	35707.2
695.116	35426.53
695.462	35673.75
695.808	35459.97
696.155	35503.13
696.501	35233.99
696.847	35172.97
697.193	34967.33
697.539	35089.13
697.885	34843.04
698.231	34761.46
698.577	34798.97
698.923	34761.91
699.269	34621.35
699.614	34413.45
699.96	34415.48
700.306	34291.87
700.651	34280.57
700.997	33987.69
701.342	34131.87
701.688	34073.34
702.033	33990.18
702.379	33991.76
702.724	33663.86
703.069	34027.24
703.415	33540.47
703.76	33550.64
704.105	33709.06
704.45	33387.26
704.795	33314.27
705.14	33153.82
705.485	33199.69
705.83	33117.21
706.175	33004.44
706.52	32949.98
706.865	32970.55
707.209	32721.06
707.554	32670.67
707.899	32782.53
708.243	32523.55
708.588	32608.3
708.932	32293.5
709.277	32348.87
709.621	32252.6
709.966	32165.59
710.31	32234.29
710.654	31953.62
710.998	32012.6
711.342	32081.3
711.687	31985.71
712.031	31717.7
712.375	31808.09
712.719	31713.4
713.063	31640.86
713.407	31783.68
713.75	31388.89
714.094	31577.36
714.438	31462.56
714.782	31490.36
715.125	31298.27
715.469	31286.97
715.812	31068.67
716.156	30971.05
716.499	31033.42
716.843	30929.7
717.186	30875.69
717.53	30973.76
717.873	30949.58
718.216	30855.57
718.559	30703.26
718.902	30562.25
719.246	30665.07
719.589	30561.34
719.932	30345.3
720.275	30592.53
720.617	30315.7
720.96	30344.63
721.303	30295.81
721.646	30200.67
721.989	30114.35
722.331	30175.36
722.674	30165.87
723.016	30222.37
723.359	29997.97
723.701	30076.61
724.044	29833.9
724.386	29747.35
724.729	29917.52
725.071	29671.2
725.413	29673.91
725.755	29744.19
726.097	29695.83
726.439	29505.78
726.782	29566.12
727.124	29626
727.465	29282.05
727.807	29382.62
728.149	29222.62
728.491	29145.79
728.833	29357.76
729.175	29183.75
729.516	29120.03
729.858	29049.07
730.199	29040.25
730.541	29073.25
730.882	28914.83
731.224	29170.19
731.565	28875.96
731.906	28810.88
732.248	28837.32
732.589	28603.65
732.93	28722.3
733.271	28653.14
733.612	28734.95
733.953	28708.51
734.294	28586.93
734.635	28442.08
734.976	28500.61
735.317	28307.17
735.658	28407.73
735.999	28329.09
736.339	28340.16
736.68	28414.73
737.021	28256.09
737.361	28314.4
737.702	28275.75
738.042	28226.94
738.383	28112.82
738.723	28190.33
739.063	27986.95
739.404	28003.44
739.744	27898.36
740.084	27932.26
740.424	27898.59
740.764	27851.81
741.104	27945.82
741.444	27829.66
741.784	27699.5
742.124	27749.89
742.464	27602.1
742.804	27625.6
743.143	27585.38
743.483	27591.48
743.823	27474.19
744.162	27457.24
744.502	27553.51
744.841	27344.93
745.181	27348.32
745.52	27231.71
745.86	27349
746.199	27164.14
746.538	27047.54
746.877	27237.36
747.216	27217.02
747.556	27053.86
747.895	27160.53
748.234	26943.59
748.573	27067.42
748.911	26849.8
749.25	26775.45
749.589	26690.71
749.928	26768.45
750.267	26676.25
750.605	26716.7
750.944	26633.76
751.283	26611.39
751.621	26564.61
751.96	26344.73
752.298	26415.24
752.636	26389.48
752.975	26248.91
753.313	26191.51
753.651	26250.5
753.989	26240.55
754.327	26185.64
754.666	25970.96
755.004	25977.74
755.342	26017.96
755.679	25896.38
756.017	25677.63
756.355	25857.74
756.693	25749.94
757.031	25733
757.368	25670.4
757.706	25502.04
758.044	25488.48
758.381	25470.63
758.719	25363.29
759.056	25337.98
759.394	25262.5
759.731	25030.87
760.068	25029.29
760.405	25024.09
760.743	24897.54
761.08	25072.22
761.417	24764.89
761.754	24624.55
762.091	24686.24
762.428	24684.44
762.765	24481.28
763.102	24495.74
763.438	24285.58
763.775	24155.18
764.112	24322.64
764.449	24314.73
764.785	24135.3
765.122	23913.83
765.458	23906.38
765.795	23970.1
766.131	23924
766.467	23829.09
766.804	23677
767.14	23634.07
767.476	23622.09
767.812	23451.93
768.148	23452.15
768.485	23322.44
768.821	23265.26
769.157	23118.15
769.492	23166.06
769.828	23005.16
770.164	22905.73
770.5	22925.84
770.836	22843.13
771.171	22668.67
771.507	22598.84
771.842	22448.56
772.178	22419.86
772.513	22340.09
772.849	22246.53
773.184	22275.01
773.519	22246.53
773.855	22099.87
774.19	21993.88
774.525	21936.03
774.86	21973.77
775.195	21780.78
775.53	21769.71
775.865	21557.06
776.2	21544.86
776.535	21383.51
776.87	21360.46
777.205	21368.82
777.539	21130.4
777.874	21254.92
778.209	21089.05
778.543	20962.5
778.878	20920.92
779.212	20823.97
779.547	20714.37
779.881	20775.39
780.215	20616.07
780.55	20603.19
780.884	20476.41
781.218	20362.29
781.552	20448.84
781.886	20264.44
782.22	20107.15
782.554	20235.29
782.888	19916.43
783.222	19966.59
783.556	19857.67
783.889	19783.77
784.223	19734.28
784.557	19598.92
784.89	19696.77
785.224	19578.13
785.557	19576.1
785.891	19393.28
786.224	19380.85
786.558	19284.35
786.891	19149.44
787.224	19151.25
787.557	19023.34
787.891	18980.4
788.224	18987.86
788.557	18977.02
788.89	18830.58
789.223	18833.06
789.556	18681.88
789.888	18629.45
790.221	18630.58
790.554	18479.18
790.887	18442.34
791.219	18328.9
791.552	18317.82
791.884	18232.18
792.217	18124.16
792.549	18101.11
792.882	17974.56
793.214	17967.32
793.546	17991.73
793.879	17840.77
794.211	17704.28
794.543	17755.13
794.875	17665.86
795.207	17747.89
795.539	17628.8
795.871	17579.09
796.203	17439.43
796.535	17331.86
796.867	17340.67
797.198	17283.27
797.53	17223.61
797.862	17095.03
798.193	17201.02
798.525	17034.92
798.856	17031.08
799.188	16837.64
799.519	16852.55
799.85	16755.15
800.182	16742.72
800.513	16721.03
800.844	16548.83
801.175	16590.86
801.506	16573.24
801.837	16517.42
802.168	16400.59
802.499	16374.15
802.83	16349.74
803.161	16344.09
803.491	16263.41
803.822	16255.05
804.153	16158.56
804.483	16078.56
804.814	16026.58
805.145	15998.11
805.475	15990.65
805.805	15872.46
806.136	15943.87
806.466	15826.14
806.796	15838.11
807.126	15646.48
807.457	15646.26
807.787	15686.93
808.117	15624.33
808.447	15507.05
808.777	15556.77
809.107	15491.91
809.436	15453.27
809.766	15520.83
810.096	15334.4
810.426	15266.15
810.755	15418.01
811.085	15231.12
811.414	15208.07
811.744	15070.45
812.073	15122.2
812.403	15043.79
812.732	14931.02
813.061	14965.14
813.39	14872.04
813.719	14883.79
814.049	14994.52
814.378	14862.1
814.707	14831.36
815.036	14776
815.365	14701.2
815.693	14581.42
816.022	14660.52
816.351	14568.32
816.68	14491.94
817.008	14495.78
817.337	14404.48
817.665	14363.13
817.994	14394.54
818.322	14324.93
818.651	14352.05
818.979	14183.24
819.307	14279.96
819.636	14281.09
819.964	14205.16
820.292	14249
820.62	14187.76
820.948	14149.57
821.276	14128.1
821.604	14113.19
821.932	14154.32
822.259	14192.51
822.587	14071.16
822.915	13963.14
823.243	14167.65
823.57	14019.18
823.898	14055.79
824.225	14050.59
824.553	14045.62
824.88	14006.98
825.207	14018.73
825.535	13998.39
825.862	13997.71
826.189	14061.44
826.516	14126.97
826.843	14145.73
827.17	14062.79
827.497	14078.16
827.824	14079.06
828.151	14127.2
828.478	14104.37
828.805	14061.66
829.131	14009.46
829.458	14062.34
829.785	13998.84
830.111	14012.4
830.438	14106.41
830.764	14108.67
831.09	14048.56
831.417	13879.07
831.743	13965.17
832.069	13993.87
832.395	13955.68
832.722	14001.33
833.048	13915.91
833.374	13973.76
833.7	13828.22
834.026	13913.65
834.351	13865.96
834.677	13889.01
835.003	13906.87
835.329	13776.7
835.654	13811.73
835.98	13706.65
836.306	13809.24
836.631	13742.58
836.956	13779.19
837.282	13714.78
837.607	13695.8
837.932	13673.43
838.258	13619.64
838.583	13666.19
838.908	13653.31
839.233	13601.11
839.558	13580.55
839.883	13461
840.208	13447.67
840.533	13473.21
840.858	13456.93
841.182	13385.52
841.507	13514.11
841.832	13341.46
842.156	13374.22
842.481	13356.37
842.805	13265.75
843.13	13254.45
843.454	13261.23
843.778	13140.56
844.103	13191.86
844.427	13127
844.751	13138.07
845.075	12995.93
845.399	13106.89
845.723	12903.95
846.047	12991.18
846.371	12923.16
846.695	12904.86
847.019	12765.2
847.343	12714.58
847.666	12640.91
847.99	12583.28
848.313	12551.42
848.637	12532.44
848.96	12474.14
849.284	12437.75
849.607	12412.44
849.931	12398.21
850.254	12186.01
850.577	12181.26
850.9	12119.12
851.223	12069.17
851.546	12002.06
851.869	11990.53
852.192	11965.22
852.515	11890.2
852.838	11912.12
853.161	11778.11
853.483	11732.46
853.806	11752.57
854.129	11731.78
854.451	11742.86
854.774	11625.12
855.096	11607.27
855.419	11535.63
855.741	11465.57
856.063	11445.91
856.385	11366.82
856.708	11436.42
857.03	11278.01
857.352	11408.63
857.674	11252.02
857.996	11256.99
858.318	11190.55
858.64	11216.32
858.961	11179.71
859.283	11107.62
859.605	11088.41
859.926	11085.25
860.248	11098.58
860.57	10968.86
860.891	11004.12
861.212	11001.18
861.534	10885.25
861.855	10985.59
862.176	10917.57
862.498	10894.97
862.819	10873.05
863.14	10834.63
863.461	10869.66
863.782	10734.07
864.103	10764.35
864.424	10750.34
864.745	10763.22
865.065	10728.64
865.386	10721.86
865.707	10640.74
866.027	10740.17
866.348	10618.82
866.668	10594.64
866.989	10618.59
867.309	10614.98
867.63	10538.37
867.95	10509.44
868.27	10458.82
868.59	10591.47
868.91	10484.81
869.23	10488.88
869.55	10404.13
869.87	10476.22
870.19	10339.5
870.51	10359.16
870.83	10444.36
871.15	10287.98
871.469	10359.61
871.789	10305.6
872.109	10325.72
872.428	10254.31
872.748	10270.13
873.067	10170.02
873.386	10233.52
873.706	10226.28
874.025	10171.14
874.344	10200.3
874.663	10221.54
874.982	10138.83
875.301	10106.29
875.62	10109.45
875.939	10137.02
876.258	10169.11
876.577	10057.48
876.896	10016.12
877.214	10001.88
877.533	10051.15
877.852	10072.39
878.17	10009.34
878.489	10071.71
878.807	10029.68
879.125	9957.59
879.444	9939.29
879.762	9934.09
880.08	9874.43
880.398	9925.28
880.716	9835.79
881.034	9804.37
881.352	9789.01
881.67	9810.25
881.988	9789.46
882.306	9767.09
882.624	9791.49
882.941	9664.04
883.259	9686.19
883.577	9663.59
883.894	9648.45
884.212	9584.04
884.529	9608.9
884.846	9572.06
885.164	9637.6
885.481	9563.93
885.798	9501.11
886.115	9429.7
886.432	9488.68
886.75	9469.02
887.067	9484.16
887.383	9404.16
887.7	9426.53
888.017	9343.6
888.334	9348.79
888.651	9370.94
888.967	9306.99
889.284	9233.54
889.6	9276.48
889.917	9117.84
890.233	9171.85
890.55	9090.95
890.866	9140.44
891.182	9093.21
891.498	9034.45
891.815	9070.61
892.131	9023.38
892.447	8975.02
892.763	8937.73
893.079	8958.97
893.395	8876.94
893.71	8936.83
894.026	8792.88
894.342	8904.74
894.657	8792.2
894.973	8781.8
895.289	8799.66
895.604	8845.08
895.92	8703.16
896.235	8687.79
896.55	8624.07
896.865	8588.14
897.181	8579.55
897.496	8556.5
897.811	8534.13
898.126	8504.3
898.441	8442.83
898.756	8472.88
899.071	8405.54
899.386	8450.29
899.7	8365.99
900.015	8334.58
900.33	8241.25
900.644	8235.38
900.959	8254.59
901.273	8228.37
901.588	8202.38
901.902	8178.66
902.216	8095.04
902.531	8083.97
902.845	8098.43
903.159	7957.64
903.473	7949.28
903.787	7942.73
904.101	7893.01
904.415	7876.74
904.729	7888.95
905.042	7783.64
905.356	7857.76
905.67	7841.04
905.984	7755.62
906.297	7708.61
906.611	7706.8
906.924	7665
907.237	7672.91
907.551	7647.37
907.864	7528.05
908.177	7559.91
908.491	7548.84
908.804	7469.75
909.117	7438.11
909.43	7410.54
909.743	7369.64
910.056	7351.78
910.368	7309.3
910.681	7273.37
910.994	7206.25
911.307	7249.41
911.619	7233.82
911.932	7185.91
912.244	7095.97
912.557	7105.01
912.869	7074.28
913.181	7107.27
913.494	7011.45
913.806	6973.26
914.118	6996.99
914.43	6984.56
914.742	6942.76
915.054	6916.54
915.366	6878.58
915.678	6883.55
915.99	6805.13
916.302	6755.19
916.613	6750.44
916.925	6750.67
917.236	6694.63
917.548	6685.59
917.859	6665.7
918.171	6600.39
918.482	6553.84
918.794	6569.43
919.105	6567.85
919.416	6460.06
919.727	6469.1
920.038	6477.68
920.349	6381.41
920.66	6392.94
920.971	6404.92
921.282	6379.38
921.593	6291.7
921.903	6298.25
922.214	6322.43
922.525	6250.34
922.835	6185.49
923.146	6158.6
923.456	6168.76
923.767	6154.3
924.077	6201.08
924.387	6119.95
924.697	6047.86
925.008	6053.51
925.318	6053.06
925.628	6065.04
925.938	5982.78
926.248	5968.09
926.558	5880.18
926.867	5897.59
927.177	5886.96
927.487	5810.81
927.796	5773.97
928.106	5792.73
928.416	5736.01
928.725	5809.23
929.034	5677.25
929.344	5700.53
929.653	5706.86
929.962	5634.09
930.271	5611.49
930.581	5593.19
930.89	5592.73
931.199	5545.28
931.508	5519.74
931.817	5500.31
932.125	5486.07
932.434	5449.46
932.743	5404.94
933.051	5453.08
933.36	5357.26
933.669	5333.53
933.977	5313.65
934.286	5318.17
934.594	5269.8
934.902	5232.74
935.21	5241.33
935.519	5236.13
935.827	5235
936.135	5187.1
936.443	5130.6
936.751	5123.82
937.059	5100.09
937.367	5092.63
937.674	5093.09
937.982	5070.49
938.29	5036.14
938.597	4995.01
938.905	4979.87
939.213	4976.48
939.52	4944.16
939.827	4943.26
940.135	4887.22
940.442	4867.33
940.749	4842.7
941.056	4853.09
941.363	4786.88
941.67	4772.87
941.977	4745.3
942.284	4728.8
942.591	4724.51
942.898	4729.03
943.205	4703.94
943.511	4683.38
943.818	4659.65
944.125	4611.07
944.431	4612.42
944.738	4622.14
945.044	4546.89
945.35	4536.49
945.657	4514.57
945.963	4455.14
946.269	4500.11
946.575	4508.92
946.881	4457.17
947.187	4455.14
947.493	4414.69
947.799	4407
948.105	4355.25
948.41	4342.82
948.716	4381.69
949.022	4379.88
949.327	4343.05
949.633	4268.48
949.938	4288.36
950.244	4244.52
950.549	4261.47
950.854	4182.38
951.16	4216.5
951.465	4161.36
951.77	4169.04
952.075	4173.56
952.38	4160.46
952.685	4132.43
952.99	4103.28
953.294	4084.3
953.599	4050.4
953.904	4029.16
954.209	4055.37
954.513	3980.12
954.818	4012.21
955.122	3953.46
955.426	3970.63
955.731	3956.85
956.035	3919.78
956.339	3900.35
956.643	3885.43
956.948	3905.55
957.252	3843.85
957.556	3848.37
957.86	3809.28
958.163	3809.5
958.467	3819.45
958.771	3771.31
959.075	3747.36
959.378	3735.16
959.682	3729.51
959.985	3709.62
960.289	3682.95
960.592	3629.85
960.896	3596.4
961.199	3632.33
961.502	3637.31
961.805	3624.65
962.108	3598.66
962.411	3616.97
962.714	3579.45
963.017	3519.34
963.32	3580.58
963.623	3519.79
963.926	3511.43
964.228	3510.53
964.531	3473.02
964.833	3466.24
965.136	3444.09
965.438	3396.63
965.741	3397.31
966.043	3406.8
966.345	3419.01
966.648	3372.91
966.95	3383.3
967.252	3342.62
967.554	3344.88
967.856	3297.65
968.158	3273.93
968.46	3263.98
968.761	3271.67
969.063	3252
969.365	3225.79
969.666	3244.1
969.968	3221.05
970.269	3199.12
970.571	3163.65
970.872	3169.3
971.174	3132.91
971.475	3159.8
971.776	3123.19
972.077	3095.17
972.378	3109.41
972.679	3121.16
972.98	3065.12
973.281	3066.7
973.582	3077.09
973.883	3036.42
974.183	3053.59
974.484	3021.73
974.785	2991.22
975.085	2976.76
975.386	2983.31
975.686	2955.74
975.986	2918.68
976.287	2937.89
976.587	2917.78
976.887	2877.33
977.187	2885.91
977.487	2896.99
977.787	2887.95
978.087	2821.51
978.387	2836.2
978.687	2803.43
978.987	2824.67
979.286	2766.37
979.586	2772.24
979.885	2794.39
980.185	2796.65
980.484	2760.94
980.784	2737.22
981.083	2741.06
981.382	2711.45
981.682	2719.59
981.981	2703.77
982.28	2692.25
982.579	2693.6
982.878	2692.25
983.177	2626.03
983.475	2667.84
983.774	2654.96
984.073	2617.9
984.372	2573.38
984.67	2606.82
984.969	2590.1
985.267	2582.19
985.566	2540.61
985.864	2549.42
986.162	2551.46
986.461	2555.98
986.759	2530.22
987.057	2488.64
987.355	2461.29
987.653	2467.84
987.951	2450.9
988.249	2463.33
988.547	2442.31
988.844	2431.91
989.142	2461.29
989.44	2435.53
989.737	2446.83
990.035	2406.38
990.332	2381.75
990.63	2372.03
990.927	2359.82
991.224	2347.4
991.521	2321.63
991.819	2324.35
992.116	2322.09
992.413	2292.93
992.71	2293.39
993.006	2283.44
993.303	2251.58
993.6	2262.2
993.897	2268.3
994.193	2265.82
994.49	2235.76
994.787	2211.35
995.083	2238.47
995.379	2216.1
995.676	2211.81
995.972	2189.89
996.268	2152.82
996.565	2149.44
996.861	2141.98
997.157	2166.16
997.453	2137.01
997.749	2094.97
998.044	2080.28
998.34	2098.81
998.636	2066.95
998.932	2072.6
999.227	2054.52
999.523	2054.97
999.818	2047.74
1000.114	2025.37
1000.409	2030.12
1000.704	2014.75
1001	2015.2
1001.295	1973.39
1001.59	1972.72
1001.885	1965.03
1002.18	1969.78
1002.475	1913.06
1002.77	1932.27
1003.065	1941.76
1003.359	1934.98
1003.654	1909.89
1003.949	1898.14
1004.243	1901.08
1004.538	1869.44
1004.832	1890.01
1005.127	1876.67
1005.421	1847.75
1005.715	1855.88
1006.009	1825.38
1006.304	1833.29
1006.598	1822.66
1006.892	1796.68
1007.186	1782.66
1007.48	1805.04
1007.773	1753.97
1008.067	1767.3
1008.361	1735.66
1008.655	1767.3
1008.948	1737.47
1009.242	1734.53
1009.535	1732.04
1009.829	1695.66
1010.122	1714.19
1010.415	1711.03
1010.708	1692.72
1011.001	1657.7
1011.295	1668.32
1011.588	1638.94
1011.881	1621.77
1012.173	1655.89
1012.466	1623.35
1012.759	1637.13
1013.052	1599.84
1013.344	1582.22
1013.637	1586.06
1013.93	1549.45
1014.222	1573.63
1014.514	1549
1014.807	1527.08
1015.099	1529.79
1015.391	1546.29
1015.683	1485.5
1015.976	1533.18
1016.268	1519.85
1016.56	1488.44
1016.851	1493.18
1017.143	1488.21
1017.435	1492.96
1017.727	1481.43
1018.018	1439.62
1018.31	1419.51
1018.602	1441.21
1018.893	1444.82
1019.185	1419.74
1019.476	1398.95
1019.767	1415.22
1020.058	1387.65
1020.35	1352.62
1020.641	1377.25
1020.932	1366.86
1021.223	1338.61
1021.514	1338.38
1021.804	1321.21
1022.095	1328.89
1022.386	1325.05
1022.677	1302.9
1022.967	1277.14
1023.258	1297.03
1023.548	1274.2
1023.839	1294.09
1024.129	1273.75
1024.419	1261.32
1024.709	1245.05
1025	1271.94
1025.29	1245.05
1025.58	1228.33
1025.87	1219.74
1026.16	1208.89
1026.449	1221.32
1026.739	1195.79
1027.029	1176.13
1027.319	1182.91
1027.608	1162.12
1027.898	1133.19
1028.187	1150.82
1028.477	1175.45
1028.766	1152.85
1029.055	1147.43
1029.344	1117.6
1029.634	1089.35
1029.923	1096.81
1030.212	1096.36
1030.501	1108.56
1030.79	1104.94
1031.078	1095
1031.367	1080.76
1031.656	1077.15
1031.945	1084.38
1032.233	1060.65
1032.522	1049.12
1032.81	1024.94
1033.099	1021.56
1033.387	1029.92
1033.675	1001.22
1033.963	1016.36
1034.251	1010.26
1034.54	1015.68
1034.828	1014.55
1035.116	1003.7
1035.403	994.21
1035.691	973.19
1035.979	992.86
1036.267	978.17
1036.554	952.86
1036.842	936.81
1037.129	941.11
1037.417	956.02
1037.704	947.66
1037.992	928.22
1038.279	918.28
1038.566	922.8
1038.853	922.8
1039.14	922.8
