Data from hue_32_FLMS001491_00064.txt Node
Date: Tue Feb 07 17:23:44 GMT 2017
User: dcchb
Spectrometer: FLMS00149
Trigger mode: 0
Integration Time (sec): 2.000000E-2
Scans to average: 10
Electric dark correction enabled: true
Nonlinearity correction enabled: false
Boxcar width: 0
XAxis mode: Wavelengths
Number of Pixels in Spectrum: 2048
>>>>>Begin Spectral Data<<<<<
341.393	-27.08
341.776	-27.08
342.16	-27.08
342.543	-42.67
342.927	-60.07
343.31	-81.31
343.693	-62.33
344.077	-74.98
344.46	-56.23
344.843	-49.22
345.226	-32.95
345.61	-32.27
345.993	-14.42
346.376	-6.74
346.759	-0.64
347.142	12.47
347.525	55.41
347.908	50.66
348.291	86.59
348.674	94.5
349.057	111.45
349.44	138.34
349.823	141.28
350.206	170.21
350.588	205.01
350.971	213.82
351.354	236.87
351.737	257.44
352.119	285.23
352.502	266.93
352.884	276.65
353.267	289.07
353.65	292.69
354.032	296.76
354.414	311.22
354.797	315.74
355.179	362.74
355.562	333.14
355.944	343.99
356.326	339.92
356.709	335.17
357.091	334.95
357.473	334.5
357.855	326.36
358.238	339.02
358.62	351.45
359.002	348.06
359.384	357.55
359.766	325.91
360.148	332.46
360.53	350.54
360.912	334.5
361.294	353.48
361.676	333.59
362.057	318.9
362.439	346.7
362.821	337.89
363.203	324.78
363.584	339.69
363.966	353.03
364.348	324.55
364.729	305.12
365.111	346.7
365.493	323.42
365.874	329.75
366.256	340.37
366.637	314.84
367.019	321.84
367.4	325.68
367.781	308.96
368.163	314.61
368.544	322.75
368.925	320.49
369.306	350.09
369.688	306.47
370.069	324.1
370.45	319.58
370.831	308.96
371.212	338.11
371.593	319.36
371.974	313.71
372.355	310.99
372.736	316.87
373.117	334.5
373.498	308.51
373.879	339.02
374.26	306.02
374.641	326.59
375.021	325.68
375.402	333.59
375.783	309.64
376.163	332.91
376.544	349.64
376.925	325.46
377.305	322.29
377.686	338.56
378.066	326.14
378.447	329.3
378.827	325.91
379.208	348.96
379.588	331.56
379.968	331.33
380.349	339.92
380.729	341.95
381.109	348.06
381.489	335.63
381.87	355.29
382.25	318.9
382.63	339.24
383.01	351.9
383.39	336.3
383.77	354.61
384.15	363.87
384.53	359.58
384.91	350.77
385.29	365.91
385.67	346.7
386.049	353.93
386.429	363.87
386.809	353.93
387.189	355.06
387.568	355.29
387.948	358.23
388.328	364.55
388.707	376.3
389.087	380.82
389.466	374.5
389.846	367.04
390.225	375.63
390.605	356.19
390.984	384.44
391.363	371.56
391.743	381.95
392.122	377.21
392.501	387.38
392.881	385.12
393.26	390.99
393.639	404.1
394.018	385.12
394.397	376.3
394.776	401.39
395.155	408.39
395.534	400.03
395.913	393.03
396.292	386.47
396.671	386.7
397.05	382.41
397.429	405.68
397.808	405.23
398.186	398.22
398.565	402.29
398.944	391.44
399.323	393.25
399.701	430.54
400.08	393.93
400.458	398.9
400.837	418.34
401.215	401.16
401.594	434.83
401.972	402.52
402.351	429.18
402.729	405.91
403.107	424.21
403.486	451.56
403.864	416.75
404.242	447.94
404.62	430.77
404.999	419.01
405.377	424.89
405.755	414.04
406.133	436.42
406.511	435.51
406.889	430.31
407.267	435.74
407.645	438.67
408.023	462.86
408.401	439.35
408.779	440.71
409.156	459.47
409.534	468.96
409.912	471.89
410.29	481.61
410.667	457.66
411.045	475.74
411.422	465.79
411.8	475.96
412.178	471.22
412.555	485.91
412.933	497.43
413.31	471.67
413.687	510.09
414.065	497.88
414.442	491.33
414.819	504.89
415.197	520.48
415.574	493.59
415.951	496.53
416.328	496.98
416.705	521.84
417.082	508.96
417.46	511.67
417.837	523.87
418.214	528.16
418.591	512.8
418.967	543.53
419.344	532.91
419.721	535.4
420.098	542.4
420.475	552.12
420.852	537.43
421.228	552.34
421.605	548.5
421.982	548.73
422.358	549.86
422.735	550.54
423.111	572.68
423.488	567.49
423.864	589.63
424.241	566.81
424.617	582.4
424.994	574.49
425.37	575.39
425.746	570.87
426.123	607.94
426.499	599.8
426.875	611.55
427.251	617.88
427.627	609.74
428.003	608.16
428.379	631.44
428.756	616.07
429.132	645.45
429.507	623.08
429.883	650.65
430.259	642.06
430.635	656.75
431.011	624.21
431.387	655.17
431.763	679.57
432.138	668.95
432.514	675.96
432.89	662.85
433.265	686.13
433.641	699.46
434.016	692.91
434.392	727.03
434.767	703.53
435.143	726.12
435.518	722.06
435.894	733.36
436.269	725.9
436.644	733.36
437.02	718.44
437.395	739.91
437.77	738.55
438.145	767.48
438.52	755.73
438.895	772
439.271	743.98
439.646	786.69
440.021	777.42
440.395	795.73
440.77	774.49
441.145	788.04
441.52	808.38
441.895	801.6
442.27	796.86
442.645	799.12
443.019	819.68
443.394	810.42
443.769	844.54
444.143	810.64
444.518	826.24
444.892	837.31
445.267	874.82
445.641	845.9
446.016	851.09
446.39	837.99
446.764	868.04
447.139	847.25
447.513	860.81
447.887	863.3
448.262	860.81
448.636	878.66
449.01	918.21
449.384	917.53
449.758	910.53
450.132	910.07
450.506	911.2
450.88	933.35
451.254	916.85
451.628	912.33
452.002	957.31
452.376	952.11
452.75	963.86
453.123	965.67
453.497	947.59
453.871	990.75
454.244	988.94
454.618	999.79
454.992	1033.46
455.365	1015.16
455.739	1044.99
456.112	1048.15
456.486	1018.09
456.859	1049.51
457.232	1039.56
457.606	1076.17
457.979	1063.07
458.352	1094.48
458.725	1087.25
459.099	1113.23
459.472	1131.99
459.845	1186.45
460.218	1165.44
460.591	1160.01
460.964	1168.6
461.337	1171.54
461.71	1202.5
462.083	1242.95
462.456	1239.78
462.829	1243.85
463.201	1264.19
463.574	1279.78
463.947	1263.06
464.32	1328.82
464.692	1319.78
465.065	1330.4
465.438	1334.02
465.81	1368.59
466.183	1386.45
466.555	1396.16
466.928	1436.84
467.3	1401.36
467.672	1446.56
468.045	1485.65
468.417	1463.05
468.789	1489.49
469.161	1510.96
469.534	1554.35
469.906	1566.78
470.278	1558.42
470.65	1604.75
471.022	1647.91
471.394	1693.33
471.766	1683.61
472.138	1719.77
472.51	1718.19
472.882	1797.06
473.253	1817.62
473.625	1846.77
473.997	1843.84
474.369	1901.24
474.74	1933.1
475.112	1956.83
475.484	1974.45
475.855	2046.09
476.227	2089.7
476.598	2122.02
476.97	2166.54
477.341	2208.57
477.713	2264.16
478.084	2302.58
478.455	2338.29
478.827	2411.28
479.198	2470.94
479.569	2523.82
479.94	2582.57
480.311	2616.24
480.682	2699.41
481.053	2754.09
481.424	2836.13
481.795	2874.54
482.166	2958.61
482.537	3007.19
482.908	3090.81
483.279	3160.86
483.65	3213.29
484.021	3301.88
484.391	3373.74
484.762	3442.21
485.133	3481.08
485.503	3539.16
485.874	3658.25
486.244	3695.54
486.615	3838.81
486.985	3885.14
487.356	3975.53
487.726	4016.66
488.097	4168.29
488.467	4174.85
488.837	4284.68
489.207	4395.86
489.578	4482.18
489.948	4559.02
490.318	4710.88
490.688	4718.56
491.058	4842.4
491.428	4909.29
491.798	5001.72
492.168	5118.33
492.538	5206.01
492.908	5282.62
493.278	5379.79
493.648	5426.11
494.017	5534.13
494.387	5608.03
494.757	5631.31
495.126	5799.89
495.496	5835.37
495.866	5877.85
496.235	6011.64
496.605	6097.74
496.974	6160.11
497.344	6230.39
497.713	6255.47
498.082	6374.34
498.452	6467.89
498.821	6522.13
499.19	6533.88
499.559	6613.43
499.928	6707.21
500.298	6819.3
500.667	6855.91
501.036	6895.23
501.405	6990.59
501.774	7057.26
502.143	7097.71
502.512	7132.28
502.88	7191.04
503.249	7260.64
503.618	7328.44
503.987	7336.8
504.356	7460.19
504.724	7556
505.093	7613.4
505.462	7657.47
505.83	7682.33
506.199	7749.67
506.567	7869.21
506.936	7904.24
507.304	7953.05
507.672	8044.35
508.041	8111.02
508.409	8220.39
508.777	8213.16
509.145	8297.45
509.514	8326.38
509.882	8320.73
510.25	8408.63
510.618	8424.68
510.986	8538.8
511.354	8579.7
511.722	8702.41
512.09	8771.34
512.458	8724.78
512.826	8866.25
513.193	8864.22
513.561	8934.95
513.929	8977.43
514.297	9045.68
514.664	9094.49
515.032	9196.86
515.4	9266.47
515.767	9257.2
516.135	9289.74
516.502	9195.28
516.869	9432.11
517.237	9456.97
517.604	9427.14
517.972	9502.84
518.339	9588.72
518.706	9578.55
519.073	9579
519.44	9629.17
519.808	9818.99
520.175	9781.03
520.542	9872.1
520.909	10010.63
521.276	9927.01
521.643	9990.97
522.009	10068.25
522.376	10193.22
522.743	10187.12
523.11	10313.9
523.477	10412.42
523.843	10421.69
524.21	10557.5
524.577	10539.88
524.943	10656.26
525.31	10707.33
525.676	10730.38
526.043	10859.42
526.409	10951.62
526.776	10945.97
527.142	11060.99
527.508	11032.52
527.874	11120.43
528.241	11189.13
528.607	11218.73
528.973	11368.56
529.339	11383.47
529.705	11430.93
530.071	11620.53
530.437	11555.22
530.803	11599.96
531.169	11705.05
531.535	11705.27
531.901	11740.98
532.267	11799.28
532.632	11880.18
532.998	11889.22
533.364	12000.18
533.73	12011.03
534.095	12119.05
534.461	12134.86
534.826	12281.08
535.192	12286.5
535.557	12378.25
535.923	12313.16
536.288	12449.88
536.653	12559.03
537.019	12551.35
537.384	12558.13
537.749	12574.18
538.114	12556.1
538.479	12601.97
538.845	12666.6
539.21	12721.29
539.575	12760.16
539.94	12832.47
540.305	12999.47
540.67	12944.56
541.034	13054.84
541.399	13022.98
541.764	13135.52
542.129	13131.9
542.494	13269.52
542.858	13300.03
543.223	13311.33
543.587	13425.23
543.952	13341.39
544.316	13427.03
544.681	13449.41
545.045	13608.95
545.41	13602.85
545.774	13613.7
546.138	13636.29
546.503	13762.17
546.867	13671.1
547.231	13811.66
547.595	13854.82
547.959	13877.87
548.324	13945.89
548.688	13925.33
549.052	14077.64
549.416	14133.23
549.779	14128.48
550.143	14134.81
550.507	14274.02
550.871	14335.26
551.235	14401.25
551.599	14426.78
551.962	14409.16
552.326	14512.43
552.689	14604.86
553.053	14516.04
553.417	14589.72
553.78	14780.22
554.143	14681.24
554.507	14855.7
554.87	14838.3
555.234	14931.85
555.597	15004.62
555.96	14956.03
556.323	15079.19
556.686	15017.73
557.05	15185.86
557.413	15234.9
557.776	15194.22
558.139	15348.79
558.502	15356.93
558.865	15349.24
559.228	15442.35
559.59	15551.05
559.953	15601.44
560.316	15667.65
560.679	15604.38
561.041	15727.54
561.404	15765.73
561.767	15887.76
562.129	15860.87
562.492	16069.68
562.854	15972.5
563.217	16013.18
563.579	16080.52
563.941	16166.85
564.304	16263.34
564.666	16318.94
565.028	16370.69
565.39	16482.77
565.753	16465.15
566.115	16564.58
566.477	16577.01
566.839	16725.25
567.201	16744.69
567.563	16776.55
567.925	16899.26
568.287	16868.3
568.648	16907.85
569.01	17056.09
569.372	17147.39
569.734	17091.8
570.095	17223.77
570.457	17267.84
570.819	17351.9
571.18	17292.47
571.542	17482.29
571.903	17514.84
572.265	17708.5
572.626	17665.57
572.987	17763.42
573.349	17916.86
573.71	17873.92
574.071	18046.35
574.432	18056.06
574.794	18258.09
575.155	18244.08
575.516	18326.79
575.877	18473
576.238	18546.45
576.599	18689.72
576.96	18744.18
577.32	18886.78
577.681	19062.82
578.042	19204.28
578.403	19261.91
578.763	19448.12
579.124	19505.74
579.485	19716.13
579.845	19987.31
580.206	19935.79
580.566	20100.3
580.927	20242.45
581.287	20526.28
581.648	20517.24
582.008	20868.87
582.368	21013.5
582.728	21115.65
583.089	21292.14
583.449	21488.52
583.809	21642.41
584.169	21913.82
584.529	22140.25
584.889	22352.67
585.249	22457.98
585.609	22690.52
585.969	23108.81
586.329	23108.36
586.688	23355.36
587.048	23624.96
587.408	23813.88
587.768	23918.74
588.127	24266.52
588.487	24482.34
588.846	24897.01
589.206	24945.38
589.565	25204.35
589.925	25583.78
590.284	25749.65
590.643	26029.41
591.003	26251.56
591.362	26616.07
591.721	26868.04
592.08	27030.29
592.44	27418.76
592.799	27714.12
593.158	27810.61
593.517	28099.64
593.876	28434.77
594.235	28766.52
594.593	28902.56
594.952	29204.47
595.311	29376.67
595.67	29655.76
596.029	30218
596.387	30309.53
596.746	30622.51
597.104	30719.46
597.463	30989.96
597.822	31290.07
598.18	31517.86
598.538	31740.22
598.897	32110.38
599.255	32226.77
599.613	32744.04
599.972	32661.56
600.33	33065.61
600.688	33080.98
601.046	33491.14
601.404	33854.52
601.762	33828.31
602.12	34402.98
602.478	34428.97
602.836	34703.54
603.194	34670.54
603.552	34835.74
603.91	35137.2
604.268	35319.57
604.625	35516.17
604.983	35842.26
605.341	35895.14
605.698	36201.35
606.056	36519.76
606.413	36595.01
606.771	36803.82
607.128	37075.23
607.485	37065.96
607.843	37166.07
608.2	37578.04
608.557	37860.74
608.914	37848.54
609.272	38107.97
609.629	38170.34
609.986	38546.37
610.343	38509.54
610.7	38996.53
611.057	38847.61
611.414	39050.54
611.771	39211.21
612.127	39462.73
612.484	39574.6
612.841	39667.93
613.198	39820.01
613.554	39921.93
613.911	40172.32
614.267	40401.24
614.624	40369.83
614.98	40569.15
615.337	40739.08
615.693	40777.28
616.05	40844.62
616.406	41220.2
616.762	41212.29
617.118	41173.2
617.475	41168
617.831	41398.05
618.187	41595.78
618.543	41602.34
618.899	41860.18
619.255	42019.95
619.611	41953.06
619.967	42148.31
620.323	42313.96
620.678	42134.53
621.034	42323.9
621.39	42423.79
621.746	42316.44
622.101	42843.44
622.457	42617.9
622.812	42802.76
623.168	42872.14
623.523	42952.59
623.879	43038.46
624.234	42943.55
624.589	43137.89
624.945	43152.13
625.3	43373.82
625.655	43196.87
626.01	43356.42
626.365	43392.12
626.72	43414.04
627.075	43333.59
627.43	43541.27
627.785	43395.96
628.14	43607.03
628.495	43711.44
628.85	43604.32
629.205	43513.7
629.559	43777.42
629.914	43607.94
630.269	43759.8
630.623	43633.47
630.978	43447.04
631.332	43724.09
631.687	43899
632.041	43663.3
632.396	43676.41
632.75	43608.84
633.104	43811.55
633.459	43577.65
633.813	43673.24
634.167	43717.76
634.521	43761.6
634.875	43820.36
635.229	43653.36
635.583	43534.49
635.937	43645.22
636.291	43517.54
636.645	43482.06
636.999	43566.35
637.352	43706.24
637.706	43652
638.06	43622.85
638.413	43586.24
638.767	43423.76
639.121	43539.01
639.474	43320.49
639.828	43389.18
640.181	43582.17
640.534	43571.1
640.888	43254.27
641.241	43238.23
641.594	43301.5
641.947	43418.56
642.301	43261.5
642.654	43367.94
643.007	43275.29
643.36	43297.89
643.713	43281.62
644.066	43317.32
644.419	42997.56
644.771	42969.31
645.124	42705.81
645.477	42604.8
645.83	42336.33
646.182	42033.29
646.535	41982.89
646.888	42139.05
647.24	41799.4
647.593	42188.31
647.945	41979.5
648.298	41832.61
648.65	41824.03
649.002	41779.51
649.355	42011.59
649.707	41948.32
650.059	41964.14
650.411	42593.05
650.763	42475.08
651.115	42881.63
651.467	42694.74
651.819	42847.96
652.171	42714.85
652.523	42739.48
652.875	42648.64
653.227	42384.69
653.578	42814.74
653.93	42648.19
654.282	42522.54
654.633	42477.12
654.985	42695.87
655.337	42555.76
655.688	42590.33
656.039	42644.34
656.391	42327.74
656.742	42562.09
657.094	42502.65
657.445	42716.43
657.796	42477.57
658.147	42376.33
658.498	42350.12
658.849	42443.45
659.2	42460.62
659.551	42266.28
659.902	42382.43
660.253	42358.48
660.604	42307.4
660.955	42184.24
661.306	42407.97
661.656	42188.09
662.007	42298.37
662.358	42314.64
662.708	42261.08
663.059	42193.28
663.409	41981.31
663.76	42240.06
664.11	42275.09
664.461	42371.36
664.811	42266.05
665.161	42253.17
665.511	42207.07
665.862	42272.83
666.212	42313.51
666.562	42327.52
666.912	42170.68
667.262	42068.99
667.612	42202.1
667.962	42149.22
668.312	42308.76
668.662	42338.36
669.011	42122.78
669.361	42078.26
669.711	42123.68
670.06	42087.07
670.41	42027.86
670.76	41958.71
671.109	42072.16
671.459	42126.84
671.808	41913.74
672.157	42164.58
672.507	41839.39
672.856	41869.68
673.205	41805.04
673.554	42061.08
673.904	41932.05
674.253	42097.01
674.602	41952.61
674.951	41352.4
675.3	41225.63
675.649	41822.67
675.998	41720.08
676.346	41907.64
676.695	41899.96
677.044	41749.23
677.393	41839.62
677.741	41691.83
678.09	41707.87
678.438	41647.99
678.787	41736.57
679.135	41715.33
679.484	41335
679.832	41633.75
680.181	41141.33
680.529	41404.6
680.877	41275.34
681.225	41288
681.573	41484.83
681.922	41121
682.27	40986.76
682.618	41067.89
682.966	40961.9
683.314	41032.18
683.661	40846.88
684.009	40726.88
684.357	40612.53
684.705	40780.89
685.053	40632.19
685.4	40633.1
685.748	40485.31
686.095	40524.4
686.443	40243.73
686.79	40326.21
687.138	40287.34
687.485	40340.68
687.832	40097.75
688.18	40181.36
688.527	39968.93
688.874	40016.17
689.221	39958.31
689.568	39787.02
689.915	39626.12
690.262	39562.84
690.609	39570.75
690.956	39530.75
691.303	39399.91
691.65	39168.05
691.997	39168.28
692.344	38987.27
692.69	39024.55
693.037	38907.49
693.383	38683.55
693.73	38913.37
694.077	38762.86
694.423	38659.14
694.769	38463.21
695.116	38523.32
695.462	38368.75
695.808	38231.81
696.155	38368.3
696.501	38008.53
696.847	38196.1
697.193	37654.19
697.539	37972.6
697.885	37567.19
698.231	37639.28
698.577	37655.32
698.923	37587.3
699.269	37309.57
699.614	37093.53
699.96	37130.59
700.306	37180.99
700.651	36987.77
700.997	36834.55
701.342	36817.38
701.688	36684.5
702.033	36648.34
702.379	36624.39
702.724	36493.32
703.069	36657.61
703.415	36105.99
703.76	36115.93
704.105	36106.44
704.45	36058.53
704.795	35832.09
705.14	35767.24
705.485	35735.6
705.83	35632.33
706.175	35679.78
706.52	35586.9
706.865	35445.89
707.209	35330.86
707.554	35171.55
707.899	35431.88
708.243	35129.74
708.588	35052
708.932	34831.22
709.277	34802.07
709.621	34881.61
709.966	34730.65
710.31	34747.83
710.654	34391.91
710.998	34563.88
711.342	34523.2
711.687	34306.94
712.031	34184.23
712.375	34041.41
712.719	34115.3
713.063	34106.72
713.407	34149.88
713.75	33965.7
714.094	33933.84
714.438	33740.62
714.782	33889.55
715.125	33646.39
715.469	33777.91
715.812	33501.31
716.156	33397.58
716.499	33461.54
716.843	33508.09
717.186	33256.8
717.53	33509.67
717.873	33355.78
718.216	33295.89
718.559	33184.48
718.902	32925.5
719.246	32969.8
719.589	32947.2
719.932	32806.19
720.275	32864.94
720.617	32869.69
720.96	32742.01
721.303	32775
721.646	32698.39
721.989	32471.5
722.331	32573.65
722.674	32592.41
723.016	32447.55
723.359	32417.95
723.701	32372.07
724.044	32140.44
724.386	32044.62
724.729	32224.73
725.071	32176.82
725.413	31992.2
725.755	32049.82
726.097	31941.8
726.439	31796.95
726.782	31744.74
727.124	31919.88
727.465	31805.08
727.807	31637.4
728.149	31628.14
728.491	31422.27
728.833	31556.95
729.175	31399.67
729.516	31435.15
729.858	31508.82
730.199	31424.75
730.541	31262.27
730.882	31329.39
731.224	31411.19
731.565	31143.63
731.906	31079.23
732.248	31157.42
732.589	31023.86
732.93	30949.06
733.271	30992.9
733.612	30943.18
733.953	30928.27
734.294	30766.01
734.635	30736.86
734.976	30785.9
735.317	30663.19
735.658	30657.77
735.999	30630.88
736.339	30502.07
736.68	30562.4
737.021	30562.4
737.361	30311.56
737.702	30477.43
738.042	30342.3
738.383	30338.45
738.723	30322.18
739.063	30182.3
739.404	30404.21
739.744	30219.81
740.084	30087.61
740.424	30214.16
740.764	30075.86
741.104	30255.52
741.444	30018.46
741.784	29853.04
742.124	30076.54
742.464	29925.81
742.804	29873.16
743.143	29766.72
743.483	29728.3
743.823	29665.7
744.162	29635.2
744.502	29573.5
744.841	29597
745.181	29605.82
745.52	29488.76
745.86	29572.15
746.199	29469.1
746.538	29469.32
746.877	29537.8
747.216	29444.24
747.556	29437.46
747.895	29275.66
748.234	29165.38
748.573	29164.02
748.911	29095.55
749.25	29105.04
749.589	29001.09
749.928	28984.82
750.267	29021.2
750.605	28907.3
750.944	28834.31
751.283	28759.74
751.621	28893.52
751.96	28545.73
752.298	28647.65
752.636	28594.32
752.975	28528.56
753.313	28360.65
753.651	28455.79
753.989	28277.49
754.327	28348
754.666	28319.98
755.004	28255.12
755.342	28230.03
755.679	28268.45
756.017	28032.98
756.355	28085.63
756.693	27985.3
757.031	27969.48
757.368	27846.77
757.706	27851.97
758.044	27716.83
758.381	27786.2
758.719	27582.14
759.056	27695.13
759.394	27545.08
759.731	27430.51
760.068	27462.6
760.405	27210.4
760.743	27225.77
761.08	27203.39
761.417	27036.17
761.754	27025.09
762.091	26916.85
762.428	26883.86
762.765	26773.35
763.102	26771.09
763.438	26788.49
763.775	26569.29
764.112	26495.62
764.449	26501.49
764.785	26381.27
765.122	26211.56
765.458	26194.38
765.795	26136.53
766.131	26074.61
766.467	25988.29
766.804	25866.93
767.14	25737.22
767.476	25703.77
767.812	25651.35
768.148	25655.64
768.485	25415.42
768.821	25299.72
769.157	25317.57
769.492	25320.28
769.828	25308.98
770.164	25034.64
770.5	24944.02
770.836	25063.56
771.171	24831.03
771.507	24692.27
771.842	24508.1
772.178	24579.96
772.513	24430.59
772.849	24483.47
773.184	24345.16
773.519	24317.37
773.855	24212.97
774.19	24061.33
774.525	23857.04
774.86	23943.37
775.195	23938.17
775.53	23823.6
775.865	23637.61
776.2	23478.07
776.535	23359.2
776.87	23403.27
777.205	23206.21
777.539	23173.9
777.874	23137.51
778.209	23049.15
778.543	22966.67
778.878	22806.45
779.212	22850.74
779.547	22621.82
779.881	22712.89
780.215	22571.65
780.55	22533.24
780.884	22319.91
781.218	22335.27
781.552	22373.92
781.886	22218.22
782.22	22063.64
782.554	22017.54
782.888	21836.98
783.222	21724.22
783.556	21663.88
783.889	21614.84
784.223	21591.79
784.557	21400.61
784.89	21469.53
785.224	21348.86
785.557	21262.76
785.891	21277.67
786.224	21038.59
786.558	21080.84
786.891	20870.68
787.224	20862.09
787.557	20786.39
787.891	20714.3
788.224	20771.47
788.557	20644.25
788.89	20606.05
789.223	20591.37
789.556	20458.04
789.888	20403.57
790.221	20164.48
790.554	20135.33
790.887	20164.03
791.219	20044.71
791.552	19968.1
791.884	19926.75
792.217	19951.16
792.549	19877.49
792.882	19736.25
793.214	19565.63
793.546	19695.8
793.879	19534.9
794.211	19444.05
794.543	19514.11
794.875	19356.37
795.207	19339.42
795.539	19275.02
795.871	19182.81
796.203	19039.99
796.535	18916.16
796.867	18956.15
797.198	18842.26
797.53	18847.46
797.862	18729.72
798.193	18781.24
798.525	18686.78
798.856	18664.64
799.188	18530.4
799.519	18414.7
799.85	18267.58
800.182	18390.07
800.513	18254.25
800.844	18215.38
801.175	18293.8
801.506	18219.45
801.837	18042.28
802.168	18028.27
802.499	18068.72
802.83	17908.95
803.161	17880.93
803.491	17849.06
803.822	17890.87
804.153	17706.24
804.483	17634.38
804.814	17577.21
805.145	17480.03
805.475	17508.51
805.805	17506.02
806.136	17391.45
806.466	17442.52
806.796	17444.33
807.126	17232.58
807.457	17176.09
807.787	17142.87
808.117	17098.8
808.447	17037.11
808.777	16965.25
809.107	17019.48
809.436	16833.05
809.766	16859.26
810.096	16754.18
810.426	16734.29
810.755	16739.72
811.085	16759.15
811.414	16627.85
811.744	16422.89
812.073	16475.77
812.403	16540.62
812.732	16433.96
813.061	16423.11
813.39	16327.97
813.719	16296.79
814.049	16279.84
814.378	16295.21
814.707	16181.76
815.036	16208.66
815.365	16116
815.693	16024.03
816.022	16029.23
816.351	16011.82
816.68	15857.25
817.008	15908.32
817.337	15731.38
817.665	15725.73
817.994	15746.52
818.322	15825.84
818.651	15637.6
818.979	15567.32
819.307	15639.63
819.636	15587.2
819.964	15453.2
820.292	15547.2
820.62	15440.09
820.948	15453.2
821.276	15480.54
821.604	15463.59
821.932	15472.18
822.259	15483.93
822.587	15513.76
822.915	15334.1
823.243	15447.55
823.57	15412.52
823.898	15382.91
824.225	15285.06
824.553	15368.68
824.88	15303.82
825.207	15409.58
825.535	15317.38
825.862	15343.59
826.189	15357.83
826.516	15396.93
826.843	15504.72
827.17	15358.28
827.497	15388.11
827.824	15376.81
828.151	15382.91
828.478	15362.8
828.805	15424.04
829.131	15403.25
829.458	15391.28
829.785	15238.74
830.111	15308.11
830.438	15336.14
830.764	15382.46
831.09	15350.37
831.417	15223.14
831.743	15359.86
832.069	15270.83
832.395	15304.95
832.722	15267.89
833.048	15217.95
833.374	15252.97
833.7	15118.97
834.026	15198.74
834.351	15177.27
834.677	15216.37
835.003	15245.07
835.329	15151.73
835.654	15106.31
835.98	15100.21
836.306	15041.23
836.631	15058.86
836.956	15072.87
837.282	15031.06
837.607	14960.78
837.932	14899.76
838.258	14934.79
838.583	14906.09
838.908	14846.43
839.233	14924.62
839.558	14826.09
839.883	14706.1
840.208	14675.59
840.533	14706.77
840.858	14686.21
841.182	14690.28
841.507	14705.19
841.832	14579.09
842.156	14598.98
842.481	14586.33
842.805	14478.31
843.13	14513.56
843.454	14548.81
843.778	14487.12
844.103	14374.35
844.427	14334.13
844.751	14375.94
845.075	14329.38
845.399	14290.51
845.723	14159.44
846.047	14229.5
846.371	14053.46
846.695	14079.45
847.019	13882.16
847.343	13900.02
847.666	13881.03
847.99	13810.98
848.313	13868.15
848.637	13672
848.96	13712
849.284	13581.83
849.607	13469.29
849.931	13571.44
850.254	13352.23
850.577	13304.33
850.9	13227.72
851.223	13276.76
851.546	13249.19
851.869	13147.95
852.192	13176.65
852.515	13082.18
852.838	12967.16
853.161	12946.37
853.483	12932.58
853.806	12942.3
854.129	12842.64
854.451	12873.38
854.774	12701.86
855.096	12681.74
855.419	12715.19
855.741	12676.32
856.063	12544.57
856.385	12578.24
856.708	12509.54
857.03	12507.06
857.352	12485.82
857.674	12465.93
857.996	12377.12
858.318	12354.29
858.64	12347.51
858.961	12287.63
859.283	12204.92
859.605	12199.04
859.926	12211.02
860.248	12157.46
860.57	12050.57
860.891	12079.5
861.212	12015.09
861.534	12010.8
861.855	11947.52
862.176	11944.81
862.498	11924.47
862.819	11981.65
863.14	11876.34
863.461	11809.68
863.782	11826.85
864.103	11799.28
864.424	11796.79
864.745	11787.3
865.065	11729.9
865.386	11649.23
865.707	11676.8
866.027	11698.04
866.348	11645.39
866.668	11663.01
866.989	11607.87
867.309	11531.26
867.63	11624.14
867.95	11532.62
868.27	11460.76
868.59	11502.34
868.91	11424.6
869.23	11451.49
869.55	11364.49
869.87	11456.46
870.19	11418.95
870.51	11398.84
870.83	11408.56
871.15	11375.11
871.469	11330.82
871.789	11357.03
872.109	11351.16
872.428	11302.8
872.748	11276.58
873.067	11212.85
873.386	11319.07
873.706	11259.41
874.025	11106.64
874.344	11153.2
874.663	11122.24
874.982	11150.03
875.301	11139.41
875.62	11063.71
875.939	11053.09
876.258	11057.38
876.577	11015.12
876.896	10981.9
877.214	10921.11
877.533	10914.78
877.852	10916.59
878.17	11001.56
878.489	10968.34
878.807	10884.5
879.125	10866.42
879.444	10912.07
879.762	10858.74
880.08	10840.66
880.398	10832.98
880.716	10786.88
881.034	10756.6
881.352	10776.93
881.67	10726.09
881.988	10667.11
882.306	10671.85
882.624	10608.13
882.941	10572.42
883.259	10572.87
883.577	10544.4
883.894	10550.73
884.212	10508.69
884.529	10516.15
884.846	10463.04
885.164	10500.33
885.481	10425.98
885.798	10447
886.115	10378.75
886.432	10440.9
886.75	10315.93
887.067	10339.88
887.383	10246.33
887.7	10205.65
888.017	10250.85
888.334	10268.02
888.651	10259.21
888.967	10192.54
889.284	10074.35
889.6	10124.75
889.917	10050.4
890.233	10065.99
890.55	9974.24
890.866	10025.77
891.182	9938.09
891.498	9917.97
891.815	9872.55
892.131	9879.56
892.447	9858.31
892.763	9776.96
893.079	9786.23
893.395	9682.73
893.71	9707.13
894.026	9712.56
894.342	9659.9
894.657	9619.45
894.973	9592.78
895.289	9570.64
895.604	9599.34
895.92	9476.18
896.235	9436.63
896.55	9437.08
896.865	9441.6
897.181	9427.59
897.496	9423.3
897.811	9382.85
898.126	9276.41
898.441	9235.96
898.756	9190.99
899.071	9131.1
899.386	9216.3
899.7	9136.07
900.015	9173.59
900.33	8934.95
900.644	9042.06
900.959	9029.64
901.273	8991.44
901.588	8881.39
901.902	8934.27
902.216	8845.46
902.531	8860.83
902.845	8776.53
903.159	8716.2
903.473	8690.66
903.787	8717.1
904.101	8650.89
904.415	8701.28
904.729	8647.27
905.042	8617.67
905.356	8601.4
905.67	8547.16
905.984	8526.37
906.297	8508.75
906.611	8428.3
906.924	8397.79
907.237	8382.65
907.551	8335.42
907.864	8355.08
908.177	8322.31
908.491	8290.45
908.804	8164.57
909.117	8178.13
909.43	8105.59
909.743	8075.54
910.056	8108.53
910.368	8081.64
910.681	8005.26
910.994	7954.18
911.307	7935.2
911.619	7849.33
911.932	7934.75
912.244	7822.44
912.557	7818.14
912.869	7768.2
913.181	7768.65
913.494	7704.02
913.806	7619.28
914.118	7749.22
914.43	7570.92
914.742	7611.14
915.054	7541.09
915.366	7526.17
915.678	7465.61
915.99	7444.59
916.302	7385.38
916.613	7361.43
916.925	7349.23
917.236	7379.06
917.548	7319.17
917.859	7284.82
918.171	7238.04
918.482	7219.51
918.794	7199.18
919.105	7122.11
919.416	7113.3
919.727	7061.55
920.038	7081.66
920.349	6997.82
920.66	6997.82
920.971	7003.47
921.282	6913.31
921.593	6898.17
921.903	6916.92
922.214	6876.92
922.525	6830.82
922.835	6807.1
923.146	6745.63
923.456	6767.77
923.767	6696.59
924.077	6696.59
924.387	6601.9
924.697	6599.64
925.008	6607.55
925.318	6512.87
925.628	6556.71
925.938	6514.22
926.248	6487.33
926.558	6402.59
926.867	6431.96
927.177	6423.83
927.487	6349.03
927.796	6337.28
928.106	6343.15
928.416	6283.27
928.725	6250.73
929.034	6202.37
929.344	6207.56
929.653	6194
929.962	6156.72
930.271	6123.72
930.581	6116.04
930.89	6075.36
931.199	6068.81
931.508	6045.53
931.817	6037.62
932.125	6003.27
932.434	5936.38
932.743	5943.39
933.051	5892.77
933.36	5860.91
933.669	5820.23
933.977	5807.8
934.286	5820
934.594	5803.73
934.902	5730.51
935.21	5734.13
935.519	5700.68
935.827	5699.33
936.135	5650.06
936.443	5581.82
936.751	5555.83
937.059	5577.3
937.367	5557.86
937.674	5561.25
937.982	5500.46
938.29	5513.34
938.597	5499.56
938.905	5433.8
939.213	5440.35
939.52	5352.67
939.827	5369.84
940.135	5337.98
940.442	5314.25
940.749	5296.85
941.056	5303.86
941.363	5252.33
941.67	5193.35
941.977	5172.11
942.284	5107.03
942.591	5147.25
942.898	5163.97
943.205	5097.99
943.511	5118.55
943.818	5034.26
944.125	5035.62
944.431	5041.49
944.738	4972.79
945.044	4976.63
945.35	4924.66
945.657	4958.1
945.963	4865
946.269	4913.13
946.575	4900.25
946.881	4865.45
947.187	4831.78
947.493	4852.34
947.799	4835.17
948.105	4755.85
948.41	4773.48
948.716	4756.53
949.022	4708.17
949.327	4686.25
949.633	4662.29
949.938	4655.97
950.244	4659.81
950.549	4627.04
950.854	4578.23
951.16	4543.65
951.465	4541.17
951.77	4547.72
952.075	4514.27
952.38	4526.48
952.685	4464.33
952.99	4431.11
953.294	4422.3
953.599	4423.2
953.904	4400.6
954.209	4393.37
954.513	4350.89
954.818	4342.3
955.122	4337.56
955.426	4273.6
955.731	4320.38
956.035	4244.22
956.339	4276.09
956.643	4228.63
956.948	4222.76
957.252	4194.51
957.556	4184.11
957.86	4171.46
958.163	4156.54
958.467	4093.95
958.771	4098.24
959.075	4121.52
959.378	4036.55
959.682	4083.32
959.985	4041.97
960.289	4025.02
960.592	4000.84
960.896	3993.38
961.199	3995.19
961.502	3931.92
961.805	3935.31
962.108	3917.45
962.411	3936.21
962.714	3884.69
963.017	3859.83
963.32	3884.01
963.623	3872.93
963.926	3841.75
964.228	3792.49
964.531	3778.02
964.833	3789.55
965.136	3743.67
965.438	3732.15
965.741	3723.79
966.043	3712.26
966.345	3690.57
966.648	3658.48
966.95	3648.76
967.252	3638.36
967.554	3613.05
967.856	3634.07
968.158	3547.97
968.46	3551.59
968.761	3580.74
969.063	3531.7
969.365	3487.63
969.666	3516.79
969.968	3500.06
970.269	3482.66
970.571	3457.35
970.872	3485.15
971.174	3418.48
971.475	3475.21
971.776	3404.92
972.077	3349.56
972.378	3381.2
972.679	3405.6
972.98	3380.52
973.281	3336
973.582	3307.07
973.883	3299.84
974.183	3337.36
974.484	3225.27
974.785	3230.47
975.085	3253.06
975.386	3250.35
975.686	3261.2
975.986	3223.01
976.287	3190.47
976.587	3175.78
976.887	3152.28
977.187	3127.64
977.487	3148.21
977.787	3112.05
978.087	3104.59
978.387	3083.35
978.687	3096.01
978.987	3060.07
979.286	3020.08
979.586	3039.96
979.885	3013.52
980.185	2994.54
980.484	2989.34
980.784	2981.88
981.083	2938.5
981.382	2924.26
981.682	2909.8
981.981	2922.9
982.28	2929.91
982.579	2889.91
982.878	2890.81
983.177	2881.1
983.475	2892.17
983.774	2821.89
984.073	2804.26
984.372	2816.01
984.67	2818.73
984.969	2828.89
985.267	2784.15
985.566	2790.93
985.864	2767.2
986.162	2783.47
986.461	2725.62
986.759	2730.37
987.057	2727.88
987.355	2663.7
987.653	2683.14
987.951	2707.09
988.249	2687.88
988.547	2634.1
988.844	2653.08
989.142	2630.26
989.44	2607.21
989.737	2632.97
990.035	2597.71
990.332	2601.56
990.63	2583.25
990.927	2564.49
991.224	2571.05
991.521	2530.15
991.819	2527.43
992.116	2500.77
992.413	2550.48
992.71	2524.27
993.006	2484.04
993.303	2468.23
993.6	2438.62
993.897	2444.95
994.193	2452.86
994.49	2409.7
994.787	2417.61
995.083	2394.1
995.379	2380.09
995.676	2396.82
995.972	2345.29
996.268	2338.51
996.565	2352.75
996.861	2308.68
997.157	2328.34
997.453	2277.5
997.749	2281.56
998.044	2263.03
998.34	2289.02
998.636	2261.68
998.932	2222.58
999.227	2207.67
999.523	2216.26
999.818	2232.07
1000.114	2238.18
1000.409	2171.74
1000.704	2199.08
1001	2164.73
1001.295	2092.64
1001.59	2175.58
1001.885	2151.4
1002.18	2107.33
1002.475	2096.48
1002.77	2105.07
1003.065	2078.63
1003.359	2075.69
1003.654	2051.06
1003.949	2064.17
1004.243	2030.05
1004.538	2015.81
1004.832	2019.88
1005.127	2010.16
1005.421	1989.59
1005.715	1983.49
1006.009	2003.15
1006.304	1970.39
1006.598	1956.15
1006.892	1950.73
1007.186	1920.22
1007.48	1948.01
1007.773	1929.26
1008.067	1930.16
1008.361	1881.57
1008.655	1878.41
1008.948	1874.57
1009.242	1841.35
1009.535	1842.25
1009.829	1839.32
1010.122	1826.89
1010.415	1818.98
1010.708	1793.22
1011.001	1800
1011.295	1768.81
1011.588	1786.89
1011.881	1815.81
1012.173	1749.15
1012.466	1766.32
1012.759	1764.97
1013.052	1745.53
1013.344	1751.18
1013.637	1718.19
1013.93	1720.45
1014.222	1685.87
1014.514	1660.34
1014.807	1658.53
1015.099	1665.08
1015.391	1648.59
1015.683	1646.78
1015.976	1618.3
1016.268	1596.61
1016.56	1578.08
1016.851	1592.32
1017.143	1573.56
1017.435	1583.73
1017.727	1544.18
1018.018	1553.22
1018.31	1545.09
1018.602	1557.06
1018.893	1529.04
1019.185	1517.29
1019.476	1525.2
1019.767	1490.62
1020.058	1508.25
1020.35	1472.09
1020.641	1487.91
1020.932	1469.61
1021.223	1451.53
1021.514	1437.07
1021.804	1429.84
1022.095	1431.64
1022.386	1423.28
1022.677	1395.49
1022.967	1412.66
1023.258	1376.28
1023.548	1353.91
1023.839	1353.68
1024.129	1355.03
1024.419	1370.63
1024.709	1337.86
1025	1344.19
1025.29	1336.96
1025.58	1299.9
1025.87	1287.24
1026.16	1294.25
1026.449	1301.48
1026.739	1296.28
1027.029	1305.54
1027.319	1262.38
1027.608	1247.02
1027.898	1263.74
1028.187	1241.37
1028.477	1224.19
1028.766	1207.69
1029.055	1187.58
1029.344	1208.82
1029.634	1205.66
1029.923	1232.33
1030.212	1181.93
1030.501	1162.27
1030.79	1171.31
1031.078	1176.73
1031.367	1137.41
1031.656	1146.23
1031.945	1155.49
1032.233	1149.62
1032.522	1132.22
1032.81	1125.44
1033.099	1097.64
1033.387	1129.28
1033.675	1121.82
1033.963	1078.66
1034.251	1087.92
1034.54	1063.52
1034.828	1102.39
1035.116	1064.65
1035.403	1066
1035.691	1051.54
1035.979	1056.74
1036.267	1041.6
1036.554	1053.57
1036.842	1025.78
1037.129	1013.58
1037.417	990.75
1037.704	1004.54
1037.992	1002.05
1038.279	1004.08
1038.566	1004.99
1038.853	1004.99
1039.14	1004.99
