Data from hue_350_FLMS001491_8.txt Node
Date: Mon Feb 06 15:37:29 GMT 2017
User: dcchb
Spectrometer: FLMS00149
Trigger mode: 0
Integration Time (sec): 2.000000E-2
Scans to average: 10
Electric dark correction enabled: true
Nonlinearity correction enabled: false
Boxcar width: 0
XAxis mode: Wavelengths
Number of Pixels in Spectrum: 2048
>>>>>Begin Spectral Data<<<<<
341.393	9.49
341.776	9.49
342.16	9.49
342.543	-86.1
342.927	-65.54
343.31	-83.39
343.693	-63.95
344.077	-63.28
344.46	-66.44
344.843	-35.71
345.226	-29.6
345.61	-49.49
345.993	-37.06
346.376	-6.78
346.759	20.11
347.142	36.61
347.525	30.28
347.908	71.86
348.291	62.37
348.674	98.08
349.057	116.38
349.44	115.7
349.823	136.04
350.206	163.39
350.588	182.59
350.971	209.71
351.354	233.89
351.737	228.24
352.119	231.63
352.502	267.34
352.884	267.56
353.267	262.59
353.65	302.82
354.032	297.85
354.414	313.89
354.797	307.79
355.179	317.05
355.562	323.38
355.944	327.45
356.326	318.64
356.709	327
357.091	336.94
357.473	343.95
357.855	329.26
358.238	348.24
358.62	354.57
359.002	335.13
359.384	317.05
359.766	320.22
360.148	336.04
360.53	318.18
360.912	327.9
361.294	332.42
361.676	343.95
362.057	326.32
362.439	341.91
362.821	338.97
363.203	310.73
363.584	340.78
363.966	297.17
364.348	333.55
364.729	318.18
365.111	311.63
365.493	318.41
365.874	308.92
366.256	321.12
366.637	301.69
367.019	312.31
367.4	308.01
367.781	312.99
368.163	313.44
368.544	308.47
368.925	310.5
369.306	322.03
369.688	311.63
370.069	325.64
370.45	314.57
370.831	298.52
371.212	298.07
371.593	300.56
371.974	329.93
372.355	322.7
372.736	328.13
373.117	311.63
373.498	317.51
373.879	315.47
374.26	310.95
374.641	306.66
375.021	299.43
375.402	327.22
375.783	313.44
376.163	358.63
376.544	310.05
376.925	315.25
377.305	303.27
377.686	317.96
378.066	332.87
378.447	346.21
378.827	335.36
379.208	321.57
379.588	328.35
379.968	336.49
380.349	334
380.729	348.01
381.109	343.72
381.489	360.22
381.87	334.45
382.25	336.04
382.63	350.73
383.01	332.87
383.39	346.21
383.77	347.79
384.15	336.49
384.53	369.03
384.91	339.65
385.29	360.44
385.67	343.04
386.049	345.3
386.429	353.66
386.809	331.97
387.189	362.02
387.568	348.24
387.948	371.06
388.328	353.44
388.707	369.71
389.087	360.22
389.466	345.08
389.846	366.77
390.225	357.73
390.605	341.91
390.984	365.87
391.363	381.01
391.743	363.83
392.122	355.24
392.501	390.72
392.881	361.57
393.26	347.34
393.639	374.91
394.018	363.83
394.397	354.79
394.776	366.32
395.155	381.91
395.534	393.44
395.913	374.45
396.292	382.81
396.671	379.43
397.05	369.71
397.429	386.66
397.808	376.94
398.186	399.99
398.565	413.55
398.944	375.81
399.323	380.33
399.701	368.8
400.08	381.46
400.458	395.92
400.837	400.89
401.215	400.67
401.594	411.74
401.972	405.64
402.351	398.86
402.729	389.14
403.107	381.23
403.486	400.67
403.864	409.03
404.242	417.84
404.62	431.85
404.999	407.45
405.377	427.56
405.755	401.8
406.133	416.71
406.511	418.75
406.889	428.92
407.267	434.34
407.645	449.71
408.023	435.92
408.401	433.43
408.779	438.86
409.156	441.8
409.534	433.89
409.912	438.63
410.29	442.47
410.667	451.29
411.045	463.04
411.422	459.42
411.8	455.36
412.178	436.37
412.555	457.16
412.933	438.63
413.31	482.25
413.687	473.66
414.065	479.08
414.442	485.41
414.819	480.89
415.197	485.64
415.574	502.36
415.951	509.37
416.328	503.49
416.705	503.26
417.082	477.05
417.46	496.94
417.837	505.98
418.214	504.39
418.591	511.17
418.967	513.88
419.344	543.04
419.721	542.81
420.098	546.2
420.475	533.55
420.852	538.06
421.228	535.81
421.605	559.99
421.982	544.62
422.358	551.4
422.735	552.53
423.111	572.41
423.488	547.33
423.864	557.27
424.241	562.02
424.617	542.81
424.994	571.96
425.37	592.98
425.746	610.15
426.123	583.71
426.499	587.56
426.875	597.05
427.251	599.76
427.627	598.85
428.003	611.74
428.379	621.9
428.756	613.09
429.132	615.58
429.507	625.29
429.883	633.2
430.259	640.89
430.635	664.84
431.011	663.03
431.387	653.54
431.763	670.49
432.138	674.78
432.514	669.59
432.89	679.98
433.265	681.11
433.641	705.52
434.016	701.68
434.392	722.01
434.767	723.37
435.143	727.44
435.518	733.09
435.894	754.56
436.269	716.37
436.644	739.64
437.02	748.91
437.395	767.44
437.77	765.18
438.145	760.21
438.52	787.55
438.895	781
439.271	800.66
439.646	781.67
440.021	802.24
440.395	796.14
440.77	780.54
441.145	793.88
441.52	803.37
441.895	806.76
442.27	821.45
442.645	820.77
443.019	832.97
443.394	827.77
443.769	837.49
444.143	830.49
444.518	824.84
444.892	821.22
445.267	842.92
445.641	862.58
446.016	857.38
446.39	862.58
446.764	888.11
447.139	877.04
447.513	893.08
447.887	872.97
448.262	886.08
448.636	883.37
449.01	896.7
449.384	895.34
449.758	908.22
450.132	915
450.506	883.82
450.88	927.89
451.254	904.61
451.628	919.98
452.002	941.67
452.376	938.73
452.75	946.87
453.123	955.23
453.497	978.51
453.871	957.71
454.244	952.52
454.618	995.23
454.992	978.51
455.365	987.09
455.739	1006.53
456.112	1016.02
456.486	1023.48
456.859	1055.79
457.232	1043.14
457.606	1054.44
457.979	1072.74
458.352	1096.47
458.725	1098.73
459.099	1058.96
459.472	1110.71
459.845	1112.97
460.218	1115.45
460.591	1127.65
460.964	1119.52
461.337	1155.9
461.71	1177.6
462.083	1180.31
462.456	1186.64
462.829	1192.06
463.201	1207.88
463.574	1208.56
463.947	1242.23
464.32	1235.9
464.692	1247.42
465.065	1256.69
465.438	1294.66
465.81	1286.29
466.183	1305.73
466.555	1335.78
466.928	1314.09
467.3	1316.12
467.672	1342.79
468.045	1364.03
468.417	1360.19
468.789	1418.72
469.161	1413.3
469.534	1421.43
469.906	1458.04
470.278	1475.67
470.65	1488.55
471.022	1510.69
471.394	1547.76
471.766	1565.16
472.138	1543.69
472.51	1596.57
472.882	1599.28
473.253	1619.17
473.625	1650.35
473.997	1686.51
474.369	1694.42
474.74	1701.88
475.112	1727.86
475.484	1752.04
475.855	1804.7
476.227	1843.12
476.598	1872.95
476.97	1840.18
477.341	1904.36
477.713	1942.1
478.084	1935.99
478.455	2015.99
478.827	2022.55
479.198	2056.44
479.569	2067.29
479.94	2131.47
480.311	2150.23
480.682	2210.34
481.053	2245.82
481.424	2296.66
481.795	2321.07
482.166	2348.64
482.537	2347.06
482.908	2455.75
483.279	2438.81
483.65	2484.91
484.021	2559.03
484.391	2552.48
484.762	2598.8
485.133	2605.13
485.503	2678.35
485.874	2717.44
486.244	2749.98
486.615	2798.8
486.985	2778.91
487.356	2869.53
487.726	2889.42
488.097	2976.87
488.467	2964.89
488.837	3044.89
489.207	3102.52
489.578	3126.92
489.948	3134.61
490.318	3208.96
490.688	3221.61
491.058	3268.84
491.428	3328.27
491.798	3318.56
492.168	3420.02
492.538	3456.18
492.908	3424.32
493.278	3506.57
493.648	3555.16
494.017	3626.12
494.387	3573.24
494.757	3603.07
495.126	3668.83
495.496	3654.14
495.866	3740.01
496.235	3768.71
496.605	3741.14
496.974	3867.69
497.344	3887.13
497.713	3884.19
498.082	3902.72
498.452	3956.96
498.821	3962.83
499.19	3943.63
499.559	4048.03
499.928	4029.72
500.298	4086.22
500.667	4107.24
501.036	4124.41
501.405	4125.99
501.774	4143.39
502.143	4184.75
502.512	4229.95
502.88	4267.23
503.249	4203.28
503.618	4304.75
503.987	4313.33
504.356	4339.55
504.724	4285.54
505.093	4436.04
505.462	4378.42
505.83	4384.52
506.199	4417.06
506.567	4456.38
506.936	4491.41
507.304	4544.06
507.672	4522.37
508.041	4550.16
508.409	4534.12
508.777	4622.93
509.145	4638.97
509.514	4672.65
509.882	4702.02
510.25	4711.29
510.618	4771.63
510.986	4748.12
511.354	4735.47
511.722	4815.69
512.09	4815.47
512.458	4791.74
512.826	4829.7
513.193	4864.5
513.561	4862.47
513.929	4926.2
514.297	4892.75
514.664	4933.66
515.032	4951.28
515.4	4998.96
515.767	5004.39
516.135	5026.08
516.502	5030.15
516.869	5066.08
517.237	5058.4
517.604	5067.44
517.972	5112.41
518.339	5135.46
518.706	5122.8
519.073	5209.13
519.44	5174.55
519.808	5268.11
520.175	5284.61
520.542	5281.22
520.909	5309.92
521.276	5242.8
521.643	5319.18
522.009	5362.57
522.376	5455.68
522.743	5419.97
523.11	5440.31
523.477	5467.2
523.843	5483.7
524.21	5569.57
524.577	5617.25
524.943	5607.99
525.31	5613.41
525.676	5636.01
526.043	5686.63
526.409	5738.61
526.776	5770.7
527.142	5720.75
527.508	5732.73
527.874	5872.84
528.241	5915.55
528.607	5931.37
528.973	5982.67
529.339	5974.98
529.705	6032.61
530.071	6055.89
530.437	6064.25
530.803	6095.88
531.169	6120.74
531.535	6073.96
531.901	6157.35
532.267	6156.9
532.632	6235.99
532.998	6238.25
533.364	6261.76
533.73	6287.29
534.095	6310.12
534.461	6319.61
534.826	6372.94
535.192	6376.33
535.557	6458.36
535.923	6414.97
536.288	6509.43
536.653	6454.07
537.019	6477.8
537.384	6567.96
537.749	6551.01
538.114	6603.44
538.479	6586.49
538.845	6618.36
539.21	6647.06
539.575	6698.13
539.94	6733.61
540.305	6810.89
540.67	6764.57
541.034	6788.3
541.399	6792.82
541.764	6798.01
542.129	6813.61
542.494	6918.91
542.858	6910.55
543.223	6930.44
543.587	6983.09
543.952	6973.6
544.316	7014.5
544.681	7000.95
545.045	7038.23
545.41	7163.65
545.774	7136.54
546.138	7198.68
546.503	7143.99
546.867	7195.52
547.231	7238.23
547.595	7288.62
547.959	7315.29
548.324	7292.01
548.688	7308.96
549.052	7403.87
549.416	7349.19
549.779	7411.56
550.143	7413.82
550.507	7461.72
550.871	7492.91
551.235	7494.49
551.599	7610.87
551.962	7555.06
552.326	7595.51
552.689	7668.05
553.053	7650.65
553.417	7667.37
553.78	7755.95
554.143	7714.83
554.507	7714.6
554.87	7777.87
555.234	7861.49
555.597	7783.52
555.96	7831.88
556.323	7906.01
556.686	7909.17
557.05	7905.55
557.413	7944.65
557.776	7940.36
558.139	7987.81
558.502	7961.15
558.865	8049.28
559.228	8092.89
559.59	8094.02
559.953	8124.08
560.316	8209.05
560.679	8195.04
561.041	8221.25
561.404	8210.18
561.767	8328.82
562.129	8276.62
562.492	8425.09
562.854	8399.78
563.217	8397.07
563.579	8417.86
563.941	8439.55
564.304	8449.04
564.666	8552.32
565.028	8529.27
565.39	8580.11
565.753	8606.55
566.115	8628.25
566.477	8644.74
566.839	8644.97
567.201	8724.74
567.563	8727.23
567.925	8804.29
568.287	8817.17
568.648	8792.09
569.01	8864.63
569.372	8929.93
569.734	8905.75
570.095	8990.05
570.457	9005.41
570.819	9101.91
571.18	9040.67
571.542	9209.02
571.903	9185.97
572.265	9209.02
572.626	9271.62
572.987	9335.8
573.349	9395.23
573.71	9457.6
574.071	9496.93
574.432	9523.14
574.794	9545.29
575.155	9548.22
575.516	9562.23
575.877	9743.92
576.238	9803.13
576.599	9887.65
576.96	9920.64
577.32	9958.16
577.681	10051.71
578.042	10106.85
578.403	10167.64
578.763	10253.06
579.124	10314.98
579.485	10501.87
579.845	10606.5
580.206	10679.04
580.566	10722.88
580.927	10767.17
581.287	11006.49
581.648	11067.28
582.008	11261.62
582.368	11302.98
582.728	11487.83
583.089	11648.51
583.449	11804.44
583.809	11971.21
584.169	12088.5
584.529	12228.61
584.889	12542.27
585.249	12576.62
585.609	12755.14
585.969	12959.89
586.329	13203.72
586.688	13358.29
587.048	13562.58
587.408	13698.62
587.768	13973.19
588.127	14188.1
588.487	14408.43
588.846	14697.01
589.206	14766.62
589.565	15023.11
589.925	15379.26
590.284	15632.81
590.643	15758.23
591.003	16015.17
591.362	16372.9
591.721	16553.24
592.08	16835.26
592.44	17098.76
592.799	17413.33
593.158	17680.21
593.517	17999.3
593.876	18177.83
594.235	18435.67
594.593	18733.97
594.952	19188.65
595.311	19242.66
595.67	19580.5
596.029	20006.03
596.387	20193.37
596.746	20592
597.104	20787.48
597.463	21044.19
597.822	21307.91
598.18	21495.03
598.538	21733.21
598.897	22136.59
599.255	22261.56
599.613	22878.72
599.972	22969.79
600.33	23224.93
600.688	23485.71
601.046	23859.71
601.404	24128.18
601.762	24404.78
602.12	24688.16
602.478	24988.27
602.836	25197.53
603.194	25404.08
603.552	25612.66
603.91	25790.96
604.268	26231.63
604.625	26310.04
604.983	26633.65
605.341	26743.7
605.698	27141.66
606.056	27359.73
606.413	27616.45
606.771	27859.61
607.128	28137.34
607.485	28417.33
607.843	28528.52
608.2	28805.12
608.557	29178.67
608.914	29240.59
609.272	29627.24
609.629	29722.16
609.986	30027.46
610.343	30240.33
610.7	30546.32
611.057	30741.56
611.414	30760.32
611.771	31018.62
612.127	31269.91
612.484	31329.57
612.841	31672.84
613.198	31690.24
613.554	31961.87
613.911	32203.45
614.267	32204.58
614.624	32406.83
614.98	32678.46
615.337	32832.81
615.693	32919.13
616.05	33012.01
616.406	33301.27
616.762	33391.66
617.118	33541.49
617.475	33724.31
617.831	33747.14
618.187	34126.56
618.543	34090.4
618.899	34472.09
619.255	34417.17
619.611	34547.11
619.967	34780.33
620.323	34993.88
620.678	34902.13
621.034	34900.55
621.39	35151.84
621.746	35051.06
622.101	35708.67
622.457	35523.59
622.812	35522.46
623.168	35761.55
623.523	35873.41
623.879	35986.62
624.234	36002.67
624.589	36041.09
624.945	36128.32
625.3	36228.43
625.655	36265.26
626.01	36446.05
626.365	36505.93
626.72	36455.31
627.075	36514.07
627.43	36691.01
627.785	36526.27
628.14	36756.77
628.495	36845.13
628.85	36853.49
629.205	36785.93
629.559	37085.58
629.914	37003.55
630.269	36960.38
630.623	36983.21
630.978	36833.16
631.332	37094.84
631.687	37168.51
632.041	36981.63
632.396	37037.44
632.75	37054.84
633.104	37192.24
633.459	37141.85
633.813	37154.05
634.167	37222.75
634.521	37100.49
634.875	37321.05
635.229	37273.6
635.583	37043.77
635.937	37175.29
636.291	37128.74
636.645	37270.21
636.999	37202.64
637.352	37256.65
637.706	37027.5
638.06	37228.63
638.413	37209.42
638.767	37183.88
639.121	37251
639.474	37054.62
639.828	37170.1
640.181	37190.66
640.534	37172.81
640.888	37063.66
641.241	36961.06
641.594	36969.42
641.947	37045.35
642.301	37128.52
642.654	37146.59
643.007	37146.14
643.36	36984.79
643.713	37059.36
644.066	36979.82
644.419	36918.13
644.771	36682.88
645.124	36425.93
645.477	36376.22
645.83	36076.79
646.182	36028.43
646.535	35907.53
646.888	35983.69
647.24	35701.21
647.593	36125.6
647.945	35929.45
648.298	35778.04
648.65	35660.08
649.002	35783.24
649.355	35796.8
649.707	35797.93
650.059	36004.48
650.411	36317.46
650.763	36524.01
651.115	36792.48
651.467	36615.31
651.819	36767.17
652.171	36704.57
652.523	36540.73
652.875	36722.65
653.227	36378.93
653.578	36730.11
653.93	36713.61
654.282	36458.48
654.633	36372.15
654.985	36613.5
655.337	36405.37
655.688	36415.99
656.039	36544.35
656.391	36186.39
656.742	36357.91
657.094	36387.29
657.445	36665.48
657.796	36370.57
658.147	36374.86
658.498	36347.07
658.849	36489.89
659.2	36176.45
659.551	36265.04
659.902	36402.66
660.253	36314.75
660.604	36327.63
660.955	36249.44
661.306	36405.14
661.656	36270.46
662.007	36326.5
662.358	36225.71
662.708	36327.18
663.059	36192.04
663.409	36086.96
663.76	36305.26
664.11	36210.12
664.461	36094.87
664.811	36154.08
665.161	36150.69
665.511	36146.62
665.862	36191.59
666.212	36302.32
666.562	36375.31
666.912	36154.76
667.262	36163.57
667.612	36181.42
667.962	36252.83
668.312	36177.13
668.662	36219.39
669.011	36158.37
669.361	36172.61
669.711	36016.23
670.06	36019.62
670.41	35951.6
670.76	35995.44
671.109	36041.76
671.459	36082.67
671.808	35925.16
672.157	36179.39
672.507	35862.11
672.856	35891.49
673.205	35878.38
673.554	36006.96
673.904	35854.42
674.253	36126.73
674.602	35989.56
674.951	35411.72
675.3	35231.39
675.649	35670.7
675.998	35750.25
676.346	35771.94
676.695	35945.5
677.044	35628.22
677.393	35724.71
677.741	35661.21
678.09	35653.53
678.438	35669.34
678.787	35673.41
679.135	35734.43
679.484	35471.16
679.832	35537.14
680.181	35396.36
680.529	35498.73
680.877	35416.24
681.225	35419.63
681.573	35542.79
681.922	35255.57
682.27	35186.87
682.618	35110.04
682.966	35195.68
683.314	35225.29
683.661	35025.75
684.009	34815.13
684.357	34747.79
684.705	34755.92
685.053	34733.1
685.4	34728.35
685.748	34656.94
686.095	34531.52
686.443	34583.72
686.79	34531.3
687.138	34583.05
687.485	34440.22
687.832	34576.94
688.18	34491.52
688.527	34331.3
688.874	34284.3
689.221	34188.48
689.568	34090.86
689.915	34049.5
690.262	33987.81
690.609	33848.15
690.956	33792.78
691.303	33703.07
691.65	33437.54
691.997	33586.46
692.344	33434.38
692.69	33361.38
693.037	33523.41
693.383	33196.19
693.73	33244.1
694.077	33048.85
694.423	32939.02
694.769	32877.55
695.116	32919.36
695.462	32803.88
695.808	32690.67
696.155	32719.37
696.501	32535.64
696.847	32542.42
697.193	32405.7
697.539	32374.29
697.885	32078.48
698.231	32080.74
698.577	32083
698.923	31980.4
699.269	31963
699.614	31763.68
699.96	31749.67
700.306	31736.11
700.651	31547.65
700.997	31464.71
701.342	31413.41
701.688	31396.46
702.033	31274.43
702.379	31312.85
702.724	31190.59
703.069	31172.74
703.415	30828.12
703.76	31008
704.105	30874.22
704.45	30908.79
704.795	30643.49
705.14	30544.51
705.485	30573.21
705.83	30305.87
706.175	30405.08
706.52	30335.7
706.865	30173.22
707.209	30185.87
707.554	30109.94
707.899	30220
708.243	30022.04
708.588	29980.23
708.932	29843.96
709.277	29762.83
709.621	29694.81
709.966	29533.23
710.31	29718.09
710.654	29390.64
710.998	29438.32
711.342	29462.95
711.687	29413.92
712.031	29316.74
712.375	29101.61
712.719	29133.25
713.063	29176.63
713.407	29154.71
713.75	28980.03
714.094	28986.36
714.438	28914.49
714.782	29005.57
715.125	28755.4
715.469	28839.92
715.812	28768.51
716.156	28451.91
716.499	28542.3
716.843	28494.17
717.186	28349.54
717.53	28577.78
717.873	28535.07
718.216	28341.63
718.559	28266.6
718.902	28138.02
719.246	28155.19
719.589	27989.55
719.932	27936.44
720.275	28035.65
720.617	28014.86
720.96	27855.99
721.303	27900.51
721.646	27931.69
721.989	27655.77
722.331	27853.73
722.674	27651.48
723.016	27582.33
723.359	27604.7
723.701	27629.56
724.044	27308.21
724.386	27245.16
724.729	27522.44
725.071	27401.77
725.413	27324.93
725.755	27308.66
726.097	27203.35
726.439	27083.13
726.782	27032.06
727.124	27241.54
727.465	27105.05
727.807	27046.97
728.149	27038.61
728.491	26898.95
728.833	27032.74
729.175	26877.71
729.516	26755.68
729.858	26843.59
730.199	26715.91
730.541	26672.74
730.882	26763.36
731.224	26771.73
731.565	26621.22
731.906	26482.47
732.248	26570.37
732.589	26386.42
732.93	26479.76
733.271	26295.13
733.612	26342.58
733.953	26395.46
734.294	26268.46
734.635	26291.29
734.976	26318.86
735.317	26176.26
735.658	26089.48
735.999	26151.85
736.339	26079.77
736.68	26198.41
737.021	25943.05
737.361	25957.74
737.702	26090.84
738.042	25968.13
738.383	25928.36
738.723	25859.66
739.063	25853.56
739.404	25768.81
739.744	25647.24
740.084	25745.31
740.424	25713.9
740.764	25626.67
741.104	25754.13
741.444	25497.18
741.784	25485.21
742.124	25480.91
742.464	25444.3
742.804	25371.31
743.143	25428.94
743.483	25345.77
743.823	25248.6
744.162	25283.63
744.502	25284.53
744.841	25122.73
745.181	25126.34
745.52	25047.93
745.86	25236.62
746.199	25149.17
746.538	25027.14
746.877	25060.36
747.216	24993.47
747.556	25150.98
747.895	24913.7
748.234	24881.61
748.573	24805.22
748.911	24844.54
749.25	24796.41
749.589	24592.8
749.928	24673.02
750.267	24615.62
750.605	24688.84
750.944	24581.27
751.283	24518.23
751.621	24489.75
751.96	24435.06
752.298	24455.4
752.636	24415.4
752.975	24232.58
753.313	24127.95
753.651	24351.45
753.989	24149.2
754.327	24110.33
754.666	23992.59
755.004	24113.94
755.342	24035.98
755.679	24043.66
756.017	23837.34
756.355	23967.51
756.693	23651.36
757.031	23871.24
757.368	23728.19
757.706	23639.38
758.044	23659.94
758.381	23561.19
758.719	23490
759.056	23508.99
759.394	23339.95
759.731	23327.52
760.068	23275.32
760.405	23201.42
760.743	23108.09
761.08	23164.59
761.417	22981.09
761.754	23035.1
762.091	22863.81
762.428	22882.34
762.765	22657.48
763.102	22848.89
763.438	22647.77
763.775	22439.64
764.112	22595.79
764.449	22494.55
764.785	22327.1
765.122	22276.93
765.458	22261.11
765.795	22156.71
766.131	22179.3
766.467	22052.53
766.804	21959.65
767.14	21882.36
767.476	21920.55
767.812	21815.47
768.148	21846.21
768.485	21633.1
768.821	21527.12
769.157	21492.77
769.492	21363.96
769.828	21343.62
770.164	21220.23
770.5	21251.19
770.836	21148.14
771.171	20921.71
771.507	21013.01
771.842	20841.71
772.178	20835.84
772.513	20858.21
772.849	20729.4
773.184	20554.26
773.519	20607.59
773.855	20504.77
774.19	20489.18
774.525	20459.35
774.86	20328.28
775.195	20254.61
775.53	20187.72
775.865	20120.83
776.2	19927.84
776.535	19806.71
776.87	19830.44
777.205	19822.08
777.539	19679.26
777.874	19766.71
778.209	19542.09
778.543	19517.68
778.878	19357.46
779.212	19390
779.547	19284.69
779.881	19286.72
780.215	19147.07
780.55	19127.41
780.884	19041.76
781.218	19080.4
781.552	18996.34
781.886	19000.4
782.22	18831.6
782.554	18636.57
782.888	18535.33
783.222	18527.2
783.556	18403.36
783.889	18400.65
784.223	18368.33
784.557	18229.8
784.89	18303.47
785.224	18119.07
785.557	18000.43
785.891	17987.78
786.224	17894.22
786.558	17950.26
786.891	17817.38
787.224	17719.31
787.557	17596.37
787.891	17668.91
788.224	17513.89
788.557	17578.75
788.89	17552.31
789.223	17410.16
789.556	17245.65
789.888	17286.1
790.221	17180.79
790.554	17054.92
790.887	17108.02
791.219	17064.64
791.552	16932.89
791.884	16914.13
792.217	16826
792.549	16731.31
792.882	16761.14
793.214	16660.35
793.546	16601.6
793.879	16561.6
794.211	16397.99
794.543	16529.51
794.875	16431.43
795.207	16419.46
795.539	16345.33
795.871	16278.67
796.203	16156.64
796.535	16080.93
796.867	16021.5
797.198	16050.43
797.53	15988.28
797.862	15923.42
798.193	15986.7
798.525	15902.63
798.856	15826.25
799.188	15674.84
799.519	15645.01
799.85	15568.63
800.182	15557.56
800.513	15569.76
800.844	15439.82
801.175	15433.27
801.506	15459.03
801.837	15383.55
802.168	15356.66
802.499	15276.43
802.83	15188.75
803.161	15123.44
803.491	15092.03
803.822	15130.22
804.153	15008.19
804.483	15000.96
804.814	14879.83
805.145	14873.96
805.475	14835.09
805.805	14834.86
806.136	14787.18
806.466	14770.01
806.796	14775.43
807.126	14633.06
807.457	14572.72
807.787	14480.98
808.117	14415.21
808.447	14426.97
808.777	14487.08
809.107	14340.87
809.436	14361.66
809.766	14325.73
810.096	14392.62
810.426	14308.55
810.755	14191.49
811.085	14243.24
811.414	14194.66
811.744	14050.7
812.073	13977.26
812.403	14000.31
812.732	13969.58
813.061	13968.9
813.39	13881.89
813.719	13849.81
814.049	13958.5
814.378	13815.46
814.707	13771.39
815.036	13770.03
815.365	13624.27
815.693	13662.92
816.022	13615.01
816.351	13525.97
816.68	13509.25
817.008	13462.02
817.337	13451.4
817.665	13417.95
817.994	13407.78
818.322	13421.57
818.651	13319.65
818.979	13267.9
819.307	13331.63
819.636	13253.21
819.964	13151.29
820.292	13152.65
820.62	13131.63
820.948	13179.54
821.276	13161.91
821.604	13107.23
821.932	13162.59
822.259	13111.29
822.587	13109.49
822.915	13175.02
823.243	13097.73
823.57	13107.45
823.898	13168.24
824.225	13026.1
824.553	13053.89
824.88	12974.8
825.207	13085.53
825.535	13033.56
825.862	13054.12
826.189	13000.34
826.516	13058.41
826.843	13074.23
827.17	13083.27
827.497	13098.19
827.824	13002.37
828.151	13038.75
828.478	12998.98
828.805	13084.18
829.131	13013.44
829.458	13010.05
829.785	12942.26
830.111	12958.3
830.438	13072.88
830.764	13029.26
831.09	13061.13
831.417	12973.67
831.743	12984.97
832.069	12997.85
832.395	12921.69
832.722	12949.94
833.048	12926.21
833.374	12958.76
833.7	12885.76
834.026	12893.67
834.351	12970.51
834.677	12985.2
835.003	12938.64
835.329	12916.72
835.654	12814.58
835.98	12788.14
836.306	12799.44
836.631	12714.24
836.956	12845.54
837.282	12798.53
837.607	12696.84
837.932	12653.68
838.258	12723.73
838.583	12695.26
838.908	12682.38
839.233	12698.2
839.558	12623.17
839.883	12548.82
840.208	12548.82
840.533	12500.69
840.858	12543.62
841.182	12515.6
841.507	12484.87
841.832	12337.53
842.156	12392.44
842.481	12428.83
842.805	12356.74
843.13	12287.81
843.454	12266.34
843.778	12277.42
844.103	12298.21
844.427	12216.4
844.751	12178.66
845.075	12095.5
845.399	12150.64
845.723	12078.33
846.047	12084.2
846.371	11922.4
846.695	11929.18
847.019	11801.72
847.343	11743.42
847.666	11734.15
847.99	11643.99
848.313	11714.04
848.637	11655.96
848.96	11596.76
849.284	11517.44
849.607	11459.81
849.931	11459.13
850.254	11427.95
850.577	11300.95
850.9	11294.62
851.223	11269.08
851.546	11219.14
851.869	11125.58
852.192	11204.23
852.515	11067.73
852.838	11047.17
853.161	11124.45
853.483	10937.34
853.806	10960.84
854.129	10862.31
854.451	10882.2
854.774	10835.42
855.096	10807.17
855.419	10796.33
855.741	10776.89
856.063	10652.83
856.385	10683.79
856.708	10573.06
857.03	10626.61
857.352	10586.16
857.674	10529.44
857.996	10487.63
858.318	10451.25
858.64	10473.17
858.961	10473.17
859.283	10397.01
859.605	10326.28
859.926	10320.63
860.248	10340.52
860.57	10244.25
860.891	10263.01
861.212	10210.58
861.534	10201.54
861.855	10083.35
862.176	10124.71
862.498	10163.12
862.819	10130.81
863.14	10040.87
863.461	10062.79
863.782	9995.44
864.103	10050.13
864.424	9980.53
864.745	9954.09
865.065	9909.8
865.386	9956.35
865.707	9907.54
866.027	9914.09
866.348	9849.46
866.668	9901.89
866.989	9852.85
867.309	9788.44
867.63	9833.87
867.95	9867.76
868.27	9734.43
868.59	9759.29
868.91	9765.62
869.23	9747.31
869.55	9670.48
869.87	9725.62
870.19	9746.64
870.51	9710.25
870.83	9732.17
871.15	9583.02
871.469	9644.27
871.789	9688.33
872.109	9635.45
872.428	9578.96
872.748	9599.07
873.067	9543.7
873.386	9536.02
873.706	9544.61
874.025	9432.07
874.344	9480.2
874.663	9467.77
874.982	9467.1
875.301	9434.78
875.62	9403.82
875.939	9380.77
876.258	9427.55
876.577	9392.75
876.896	9368.79
877.214	9303.26
877.533	9364.95
877.852	9334.9
878.17	9334.67
878.489	9308
878.807	9317.95
879.125	9235.24
879.444	9276.14
879.762	9174
880.08	9236.14
880.398	9135.35
880.716	9186.65
881.034	9127.22
881.352	9169.48
881.67	9094.22
881.988	9093.09
882.306	9114.34
882.624	9010.84
882.941	8955.02
883.259	8975.81
883.577	8959.76
883.894	8945.3
884.212	8942.36
884.529	8894.23
884.846	8944.17
885.164	8898.75
885.481	8841.58
885.798	8818.75
886.115	8796.83
886.432	8760.9
886.75	8788.47
887.067	8799.54
887.383	8755.93
887.7	8825.3
888.017	8684.29
888.334	8635.25
888.651	8673.22
888.967	8671.86
889.284	8608.36
889.6	8624.86
889.917	8526.78
890.233	8524.07
890.55	8513.9
890.866	8465.77
891.182	8462.83
891.498	8448.82
891.815	8448.59
892.131	8402.04
892.447	8446.78
892.763	8293.57
893.079	8311.19
893.395	8316.62
893.71	8249.95
894.026	8251.76
894.342	8203.85
894.657	8136.28
894.973	8120.69
895.289	8129.73
895.604	8133.57
895.92	8033.24
896.235	8027.36
896.55	8077.3
896.865	8012.22
897.181	7999.79
897.496	7968.15
897.811	7966.12
898.126	7927.02
898.441	7919.57
898.756	7841.83
899.071	7808.61
899.386	7824.88
899.7	7699.91
900.015	7741.04
900.33	7649.29
900.644	7648.61
900.959	7656.3
901.273	7618.78
901.588	7555.06
901.902	7544.43
902.216	7529.07
902.531	7512.8
902.845	7523.87
903.159	7467.37
903.473	7428.51
903.787	7397.32
904.101	7299.92
904.415	7355.29
904.729	7330.2
905.042	7201.39
905.356	7247.72
905.67	7239.36
905.984	7246.14
906.297	7202.97
906.611	7145.8
906.924	7212.47
907.237	7113.49
907.551	7088.63
907.864	7041.62
908.177	7065.58
908.491	7093.37
908.804	7003.21
909.117	6960.27
909.43	6912.81
909.743	6920.95
910.056	6908.74
910.368	6835.07
910.681	6820.39
910.994	6817.45
911.307	6801.86
911.619	6696.77
911.932	6729.09
912.244	6689.32
912.557	6705.13
912.869	6624.68
913.181	6636.89
913.494	6576.78
913.806	6523.67
914.118	6537
914.43	6465.37
914.742	6504.91
915.054	6430.79
915.366	6414.75
915.678	6391.02
915.99	6349.89
916.302	6277.8
916.613	6330.46
916.925	6264.92
917.236	6240.06
917.548	6257.46
917.859	6165.94
918.171	6159.84
918.482	6116
918.794	6169.78
919.105	6138.82
919.416	6078.48
919.727	6008.66
920.038	6068.32
920.349	6005.49
920.66	5967.75
920.971	5938.15
921.282	5902.22
921.593	5903.57
921.903	5869.9
922.214	5846.4
922.525	5841.43
922.835	5767.76
923.146	5798.04
923.456	5763.69
923.767	5708.55
924.077	5731.37
924.387	5661.32
924.697	5627.2
925.008	5598.95
925.318	5652.51
925.628	5593.07
925.938	5606.63
926.248	5553.98
926.558	5570.02
926.867	5515.11
927.177	5442.12
927.487	5454.77
927.796	5412.51
928.106	5427.65
928.416	5375
928.725	5368.67
929.034	5348.56
929.344	5324.15
929.653	5320.31
929.962	5277.38
930.271	5262.01
930.581	5214.55
930.89	5193.99
931.199	5197.15
931.508	5158.96
931.817	5159.86
932.125	5132.52
932.434	5096.82
932.743	5047.32
933.051	5031.51
933.36	4997.61
933.669	5011.39
933.977	4954.9
934.286	4942.92
934.594	4950.6
934.902	4925.75
935.21	4890.72
935.519	4906.31
935.827	4860.21
936.135	4857.73
936.443	4796.94
936.751	4802.59
937.059	4805.3
937.367	4760.33
937.674	4742.02
937.982	4701.35
938.29	4664.06
938.597	4660.22
938.905	4640.1
939.213	4645.3
939.52	4596.26
939.827	4585.64
940.135	4566.21
940.442	4550.39
940.749	4525.53
941.056	4514.91
941.363	4472.2
941.67	4513.78
941.977	4403.95
942.284	4394.69
942.591	4396.49
942.898	4411.41
943.205	4405.99
943.511	4380
943.818	4374.8
944.125	4275.37
944.431	4311.98
944.738	4298.87
945.044	4311.07
945.35	4267.68
945.657	4182.04
945.963	4198.31
946.269	4215.93
946.575	4224.52
946.881	4157.4
947.187	4170.74
947.493	4133
947.799	4096.16
948.105	4114.92
948.41	4067.92
948.716	4105.65
949.022	4045.54
949.327	4058.2
949.633	4000.35
949.938	4029.95
950.244	3990.4
950.549	3977.97
950.854	3936.85
951.16	3914.93
951.465	3877.19
951.77	3875.38
952.075	3837.87
952.38	3837.64
952.685	3851.65
952.99	3837.64
953.294	3795.83
953.599	3805.1
953.904	3752.9
954.209	3780.24
954.513	3750.41
954.818	3720.13
955.122	3687.36
955.426	3700.92
955.731	3671.77
956.035	3663.63
956.339	3630.86
956.643	3626.12
956.948	3613.69
957.252	3616.63
957.556	3592
957.86	3543.18
958.163	3563.97
958.467	3572.11
958.771	3562.39
959.075	3506.8
959.378	3475.16
959.682	3511.77
959.985	3457.54
960.289	3435.62
960.592	3449.4
960.896	3407.82
961.199	3434.26
961.502	3384.32
961.805	3354.94
962.108	3359.01
962.411	3317.2
962.714	3316.07
963.017	3369.18
963.32	3335.28
963.623	3289.41
963.926	3273.13
964.228	3259.12
964.531	3242.17
964.833	3232.01
965.136	3212.34
965.438	3203.08
965.741	3200.82
966.043	3155.17
966.345	3161.27
966.648	3117.88
966.95	3160.14
967.252	3139.58
967.554	3103.42
967.856	3118.34
968.158	3072.24
968.46	3072.69
968.761	3052.12
969.063	3061.61
969.365	3050.99
969.666	3065.68
969.968	3030.2
970.269	2960.15
970.571	3030.43
970.872	2997.89
971.174	2940.04
971.475	2932.58
971.776	2931.45
972.077	2907.49
972.378	2956.53
972.679	2877.66
972.98	2904.78
973.281	2877.66
973.582	2865.24
973.883	2868.85
974.183	2839.93
974.484	2827.95
974.785	2806.93
975.085	2799.7
975.386	2799.93
975.686	2746.59
975.986	2783.88
976.287	2755.86
976.587	2742.98
976.887	2714.28
977.187	2755.41
977.487	2715.86
977.787	2716.31
978.087	2678.35
978.387	2686.71
978.687	2678.57
978.987	2668.63
979.286	2632.47
979.586	2618.91
979.885	2635.41
980.185	2601.51
980.484	2587.95
980.784	2589.31
981.083	2581.63
981.382	2526.26
981.682	2516.32
981.981	2530.78
982.28	2548.63
982.579	2486.94
982.878	2546.83
983.177	2490.56
983.475	2473.38
983.774	2485.13
984.073	2468.86
984.372	2463.66
984.67	2413.04
984.969	2454.17
985.267	2403.1
985.566	2412.14
985.864	2379.82
986.162	2378.47
986.461	2380.05
986.759	2345.25
987.057	2349.77
987.355	2357.23
987.653	2303.44
987.951	2294.63
988.249	2277.45
988.547	2324.91
988.844	2319.04
989.142	2274.52
989.44	2269.32
989.737	2254.4
990.035	2278.13
990.332	2229.55
990.63	2203.56
990.927	2223.67
991.224	2224.12
991.521	2235.42
991.819	2207.63
992.116	2182.32
992.413	2141.41
992.71	2195.2
993.006	2157.01
993.303	2139.6
993.6	2145.93
993.897	2155.42
994.193	2126.05
994.49	2087.4
994.787	2130.57
995.083	2075.88
995.379	2054.41
995.676	2079.04
995.972	2028.2
996.268	2067.06
996.565	2045.37
996.861	1991.59
997.157	2009.44
997.453	2027.07
997.749	1985.26
998.044	1971.93
998.34	1954.75
998.636	1979.16
998.932	1928.76
999.227	1942.1
999.523	1961.76
999.818	1941.42
1000.114	1890.35
1000.409	1900.06
1000.704	1905.26
1001	1846.28
1001.295	1875.43
1001.59	1876.33
1001.885	1891.7
1002.18	1865.49
1002.475	1860.29
1002.77	1806.28
1003.065	1798.82
1003.359	1815.32
1003.654	1787.52
1003.949	1790.24
1004.243	1790.91
1004.538	1781.42
1004.832	1747.98
1005.127	1754.53
1005.421	1721.08
1005.715	1719.5
1006.009	1728.32
1006.304	1715.44
1006.598	1683.12
1006.892	1686.74
1007.186	1692.84
1007.48	1667.3
1007.773	1688.09
1008.067	1640.41
1008.361	1633.86
1008.655	1639.5
1008.948	1626.17
1009.242	1605.16
1009.535	1594.99
1009.829	1590.47
1010.122	1587.3
1010.415	1587.08
1010.708	1562.22
1011.001	1590.47
1011.295	1571.03
1011.588	1557.93
1011.881	1564.25
1012.173	1546.4
1012.466	1526.06
1012.759	1529.45
1013.052	1524.48
1013.344	1496.68
1013.637	1499.4
1013.93	1506.63
1014.222	1490.36
1014.514	1477.7
1014.807	1469.57
1015.099	1453.97
1015.391	1470.24
1015.683	1429.11
1015.976	1419.17
1016.268	1406.29
1016.56	1397.03
1016.851	1386.18
1017.143	1377.14
1017.435	1394.09
1017.727	1360.87
1018.018	1382.11
1018.31	1346.63
1018.602	1345.95
1018.893	1337.82
1019.185	1355.22
1019.476	1334.65
1019.767	1329.91
1020.058	1333.3
1020.35	1299.85
1020.641	1312.28
1020.932	1288.33
1021.223	1293.3
1021.514	1267.31
1021.804	1261.89
1022.095	1249.23
1022.386	1258.5
1022.677	1252.85
1022.967	1239.06
1023.258	1205.62
1023.548	1212.17
1023.839	1203.13
1024.129	1192.96
1024.419	1182.57
1024.709	1182.12
1025	1178.05
1025.29	1158.16
1025.58	1148.67
1025.87	1164.49
1026.16	1125.39
1026.449	1147.99
1026.739	1169.46
1027.029	1128.33
1027.319	1096.47
1027.608	1127.65
1027.898	1116.81
1028.187	1116.81
1028.477	1105.96
1028.766	1100.08
1029.055	1092.17
1029.344	1089.69
1029.634	1055.57
1029.923	1057.83
1030.212	1054.44
1030.501	1046.53
1030.79	1039.07
1031.078	1067.09
1031.367	1032.06
1031.656	1057.37
1031.945	1001.33
1032.233	1003.14
1032.522	1001.56
1032.81	982.57
1033.099	986.87
1033.387	998.39
1033.675	952.07
1033.963	975.34
1034.251	947.32
1034.54	969.24
1034.828	961.1
1035.116	961.1
1035.403	928.79
1035.691	953.87
1035.979	969.92
1036.267	936.25
1036.554	906.42
1036.842	909.58
1037.129	893.99
1037.417	887.43
1037.704	903.71
1037.992	876.36
1038.279	890.37
1038.566	903.71
1038.853	903.71
1039.14	903.71
