Data from hue_150_FLMS001491_00047.txt Node
Date: Tue Feb 07 16:54:06 GMT 2017
User: dcchb
Spectrometer: FLMS00149
Trigger mode: 0
Integration Time (sec): 2.000000E-2
Scans to average: 10
Electric dark correction enabled: true
Nonlinearity correction enabled: false
Boxcar width: 0
XAxis mode: Wavelengths
Number of Pixels in Spectrum: 2048
>>>>>Begin Spectral Data<<<<<
341.393	-18.33
341.776	-18.33
342.16	-18.33
342.543	-36.64
342.927	-66.92
343.31	-69.86
343.693	-54.04
344.077	-80.03
344.46	-50.2
344.843	-61.27
345.226	-44.32
345.61	-44.09
345.993	-12.46
346.376	15.79
346.759	-3.64
347.142	8.56
347.525	33.42
347.908	57.37
348.291	90.82
348.674	93.08
349.057	120.87
349.44	133.53
349.823	133.53
350.206	152.28
350.588	195.67
350.971	213.3
351.354	218.05
351.737	246.29
352.119	248.1
352.502	253.75
352.884	300.08
353.267	285.39
353.65	298.04
354.032	298.72
354.414	296.69
354.797	285.39
355.179	311.83
355.562	302.79
355.944	309.34
356.326	317.48
356.709	323.81
357.091	329.23
357.473	337.59
357.855	346.63
358.238	338.04
358.62	343.47
359.002	333.97
359.384	319.96
359.766	346.18
360.148	331.49
360.53	333.75
360.912	348.66
361.294	332.84
361.676	314.09
362.057	339.62
362.439	334.2
362.821	326.97
363.203	312.51
363.584	340.08
363.966	321.32
364.348	325.61
364.729	332.62
365.111	319.06
365.493	326.52
365.874	311.83
366.256	304.14
366.637	321.77
367.019	312.05
367.4	295.33
367.781	305.27
368.163	317.48
368.544	330.81
368.925	302.79
369.306	315.9
369.688	306.18
370.069	322.68
370.45	318.38
370.831	307.53
371.212	293.75
371.593	306.18
371.974	307.99
372.355	310.47
372.736	316.57
373.117	313.64
373.498	315.67
373.879	311.6
374.26	315.67
374.641	303.47
375.021	304.14
375.402	320.42
375.783	305.05
376.163	327.19
376.544	331.49
376.925	324.48
377.305	349.34
377.686	316.8
378.066	311.38
378.447	329.68
378.827	353.41
379.208	332.84
379.588	317.48
379.968	328.32
380.349	310.7
380.729	332.84
381.109	340.53
381.489	321.32
381.87	342.11
382.25	326.97
382.63	343.47
383.01	351.37
383.39	351.15
383.77	334.43
384.15	336.23
384.53	364.48
384.91	334.88
385.29	349.12
385.67	331.04
386.049	347.53
386.429	337.82
386.809	343.92
387.189	369
387.568	355.22
387.948	365.39
388.328	355.22
388.707	353.63
389.087	352.73
389.466	351.37
389.846	351.15
390.225	371.49
390.605	356.8
390.984	375.78
391.363	367.42
391.743	363.8
392.122	383.92
392.501	350.7
392.881	376.91
393.26	400.19
393.639	373.75
394.018	365.39
394.397	372.62
394.776	370.81
395.155	391.83
395.534	380.98
395.913	362.9
396.292	373.75
396.671	391.37
397.05	404.93
397.429	370.36
397.808	374.65
398.186	376.46
398.565	380.53
398.944	396.57
399.323	413.52
399.701	395.67
400.08	400.41
400.458	409.23
400.837	411.94
401.215	394.76
401.594	401.09
401.972	413.75
402.351	387.31
402.729	422.79
403.107	400.41
403.486	413.97
403.864	396.35
404.242	413.97
404.62	430.92
404.999	417.36
405.377	411.94
405.755	435.21
406.133	417.81
406.511	435.44
406.889	448.77
407.267	449.68
407.645	441.77
408.023	427.53
408.401	446.97
408.779	436.57
409.156	442.67
409.534	452.39
409.912	458.04
410.29	459.85
410.667	453.29
411.045	468.43
411.422	464.59
411.8	486.96
412.178	477.7
412.555	481.09
412.933	486.74
413.31	479.06
413.687	484.48
414.065	485.38
414.442	483.8
414.819	489.68
415.197	493.74
415.574	489.45
415.951	499.17
416.328	510.01
416.705	517.25
417.082	488.09
417.46	510.24
417.837	512.27
418.214	514.31
418.591	504.59
418.967	500.07
419.344	529
419.721	532.39
420.098	528.77
420.475	540.97
420.852	535.1
421.228	561.76
421.605	532.61
421.982	544.59
422.358	557.47
422.735	561.76
423.111	565.38
423.488	561.31
423.864	601.09
424.241	567.41
424.617	592.72
424.994	575.32
425.37	590.24
425.746	571.71
426.123	601.31
426.499	583.23
426.875	600.63
427.251	618.03
427.627	614.64
428.003	628.2
428.379	641.76
428.756	617.81
429.132	645.6
429.507	651.48
429.883	643.12
430.259	624.81
430.635	653.51
431.011	659.84
431.387	665.49
431.763	681.99
432.138	675.89
432.514	693.74
432.89	703.68
433.265	709.33
433.641	719.05
434.016	704.13
434.392	719.95
434.767	722.21
435.143	712.5
435.518	749.56
435.894	751.14
436.269	751.82
436.644	736.68
437.02	769.9
437.395	776.9
437.77	761.53
438.145	773.96
438.52	780.29
438.895	792.72
439.271	786.62
439.646	798.37
440.021	795.21
440.395	828.42
440.77	807.18
441.145	821.87
441.52	848.99
441.895	830.91
442.27	832.72
442.645	837.01
443.019	845.37
443.394	860.51
443.769	850.57
444.143	854.41
444.518	860.74
444.892	889.89
445.267	885.37
445.641	892.6
446.016	889.21
446.39	923.56
446.764	935.99
447.139	891.02
447.513	933.51
447.887	920.4
448.262	945.48
448.636	950.46
449.01	960.4
449.384	950.68
449.758	948.65
450.132	950
450.506	1001.3
450.88	978.03
451.254	985.03
451.628	979.38
452.002	1009.44
452.376	991.36
452.75	1035.42
453.123	1019.83
453.497	1019.61
453.871	1044.46
454.244	1067.51
454.618	1079.72
454.992	1088.53
455.365	1102.09
455.739	1080.4
456.112	1114.52
456.486	1124.01
456.859	1142.99
457.232	1152.94
457.606	1165.14
457.979	1153.61
458.352	1206.49
458.725	1208.75
459.099	1232.71
459.472	1234.29
459.845	1251.01
460.218	1284.91
460.591	1262.99
460.964	1272.93
461.337	1323.1
461.71	1330.11
462.083	1388.18
462.456	1352.7
462.829	1374.17
463.201	1403.32
463.574	1400.16
463.947	1410.1
464.32	1448.97
464.692	1480.16
465.065	1504.56
465.438	1521.51
465.81	1512.02
466.183	1556.54
466.555	1601.74
466.928	1596.31
467.3	1614.62
467.672	1641.96
468.045	1675.41
468.417	1656.43
468.789	1727.38
469.161	1733.71
469.534	1759.93
469.906	1817.78
470.278	1851.45
470.65	1858.91
471.022	1940.71
471.394	1964.67
471.766	1998.34
472.138	1994.95
472.51	2073.82
472.882	2102.29
473.253	2129.41
473.625	2176.64
473.997	2217.31
474.369	2264.09
474.74	2290.08
475.112	2349.74
475.484	2406.24
475.855	2468.83
476.227	2486.91
476.598	2597.42
476.97	2634.25
477.341	2704.76
477.713	2806.45
478.084	2809.16
478.455	2912.44
478.827	2949.27
479.198	3057.29
479.569	3094.13
479.94	3211.19
480.311	3255.71
480.682	3391.07
481.053	3473.55
481.424	3553.32
481.795	3674.9
482.166	3743.6
482.537	3794.45
482.908	3938.63
483.279	4000.09
483.65	4132.29
484.021	4234.44
484.391	4313.53
484.762	4363.02
485.133	4524.37
485.503	4601.66
485.874	4811.14
486.244	4822.67
486.615	5005.94
486.985	5089.78
487.356	5312.6
487.726	5317.57
488.097	5484.12
488.467	5632.14
488.837	5773.61
489.207	5847.05
489.578	5967.27
489.948	6120.71
490.318	6295.4
490.688	6378.56
491.058	6521.83
491.428	6702.17
491.798	6728.83
492.168	6956.62
492.538	7032.1
492.908	7202.95
493.278	7294.24
493.648	7390.51
494.017	7590.73
494.387	7740.11
494.757	7799.99
495.126	7966.77
495.496	8042.92
495.866	8166.08
496.235	8281.79
496.605	8411.73
496.974	8561.78
497.344	8605.17
497.713	8717.03
498.082	8763.36
498.452	8974.88
498.821	9055.33
499.19	9107.53
499.559	9243.8
499.928	9280.41
500.298	9453.06
500.667	9509.1
501.036	9607.63
501.405	9737.34
501.774	9665.03
502.143	9871.58
502.512	10001.06
502.88	10054.62
503.249	10130.1
503.618	10212.36
503.987	10234.96
504.356	10385.91
504.724	10436.08
505.093	10469.3
505.462	10554.72
505.83	10706.13
506.199	10752.91
506.567	10852.79
506.936	10905.9
507.304	11088.95
507.672	11064.31
508.041	11149.28
508.409	11228.6
508.777	11360.35
509.145	11374.36
509.514	11313.35
509.882	11458.88
510.25	11414.59
510.618	11573
510.986	11563.74
511.354	11706.56
511.722	11807.12
512.09	11844.41
512.458	11857.97
512.826	11950.62
513.193	12018.19
513.561	11968.92
513.929	12104.06
514.297	12109.03
514.664	12214.79
515.032	12173.44
515.4	12300.67
515.767	12295.47
516.135	12345.41
516.502	12280.55
516.869	12479.42
517.237	12478.51
517.604	12439.87
517.972	12502.47
518.339	12549.47
518.706	12619.3
519.073	12538.63
519.44	12725.29
519.808	12737.94
520.175	12692.29
520.542	12909.69
520.909	12899.97
521.276	12879.63
521.643	12898.62
522.009	12892.74
522.376	12944.04
522.743	13033.53
523.11	13068.55
523.477	13222
523.843	13162.11
524.21	13240.3
524.577	13272.39
524.943	13383.35
525.31	13308.1
525.676	13331.15
526.043	13380.18
526.409	13414.99
526.776	13603.91
527.142	13565.49
527.508	13468.32
527.874	13594.64
528.241	13473.74
528.607	13514.42
528.973	13682.32
529.339	13510.12
529.705	13610.46
530.071	13708.76
530.437	13727.07
530.803	13727.52
531.169	13748.99
531.535	13668.09
531.901	13607.75
532.267	13676.22
532.632	13721.64
532.998	13718.93
533.364	13665.83
533.73	13604.36
534.095	13732.72
534.461	13653.85
534.826	13618.14
535.192	13657.69
535.557	13707.41
535.923	13600.07
536.288	13711.48
536.653	13621.99
537.019	13532.95
537.384	13643.45
537.749	13590.12
538.114	13536.79
538.479	13444.36
538.845	13462.44
539.21	13392.84
539.575	13368.66
539.94	13379.28
540.305	13367.08
540.67	13276.01
541.034	13324.14
541.399	13325.05
541.764	13259.74
542.129	13304.93
542.494	13177.03
542.858	13234.43
543.223	13198.04
543.587	13260.19
543.952	13246.86
544.316	13197.59
544.681	13097.71
545.045	13067.2
545.41	13075.79
545.774	12989.01
546.138	13027.43
546.503	13015.67
546.867	12903.59
547.231	12989.46
547.595	12990.36
547.959	12901.1
548.324	12850.48
548.688	12805.28
549.052	12743.37
549.416	12751.5
549.779	12703.59
550.143	12695.23
550.507	12704.72
550.871	12702.24
551.235	12640.54
551.599	12653.88
551.962	12598.96
552.326	12639.41
552.689	12639.19
553.053	12575.01
553.417	12502.24
553.78	12577.27
554.143	12506.08
554.507	12502.47
554.87	12462.24
555.234	12506.08
555.597	12463.6
555.96	12418.18
556.323	12520.77
556.686	12407.33
557.05	12449.59
557.413	12426.99
557.776	12464.05
558.139	12407.33
558.502	12416.37
558.865	12407.1
559.228	12474.9
559.59	12406.43
559.953	12407.33
560.316	12446.65
560.679	12429.02
561.041	12437.38
561.404	12499.53
561.767	12549.92
562.129	12464.28
562.492	12598.06
562.854	12452.98
563.217	12508.34
563.579	12524.16
563.941	12471.06
564.304	12484.16
564.666	12587.66
565.028	12477.38
565.39	12617.49
565.753	12597.15
566.115	12560.55
566.477	12553.31
566.839	12544.95
567.201	12637.83
567.563	12611.84
567.925	12664.95
568.287	12656.36
568.648	12635.8
569.01	12626.53
569.372	12739.75
569.734	12612.52
570.095	12701.56
570.457	12682.35
570.819	12774.78
571.18	12794.66
571.542	12807.32
571.903	12802.12
572.265	12841.67
572.626	12770.26
572.987	12809.8
573.349	12754.66
573.71	12832.4
574.071	12845.96
574.432	12930.48
574.794	12896.81
575.155	12892.06
575.516	12858.84
575.877	12858.84
576.238	12910.59
576.599	12906.53
576.96	12953.98
577.32	12949.24
577.681	12997.6
578.042	12864.04
578.403	12892.51
578.763	12959.86
579.124	12953.53
579.485	12982.68
579.845	13000.31
580.206	12983.81
580.566	12888.9
580.927	12991.04
581.287	12997.6
581.648	12960.08
582.008	12942.68
582.368	12984.72
582.728	12951.95
583.089	12990.59
583.449	12905.85
583.809	12915.11
584.169	12973.87
584.529	12850.71
584.889	12996.24
585.249	12920.31
585.609	12849.35
585.969	12882.12
586.329	12858.84
586.688	12887.32
587.048	12969.35
587.408	12815.91
587.768	12844.38
588.127	12808.45
588.487	12811.84
588.846	12923.47
589.206	12750.82
589.565	12825.85
589.925	12970.7
590.284	12801.44
590.643	12785.85
591.003	12785.85
591.362	12938.39
591.721	12807.32
592.08	12850.48
592.44	12871.72
592.799	12849.35
593.158	12785.62
593.517	12788.56
593.876	12857.49
594.235	12667.44
594.593	12718.96
594.952	12760.99
595.311	12703.14
595.67	12704.95
596.029	12784.95
596.387	12752.86
596.746	12726.19
597.104	12704.27
597.463	12689.13
597.822	12779.3
598.18	12742.46
598.538	12689.36
598.897	12740.65
599.255	12572.97
599.613	12852.52
599.972	12741.56
600.33	12716.47
600.688	12623.14
601.046	12748.11
601.404	12820.65
601.762	12727.09
602.12	12785.62
602.478	12804.83
602.836	12851.61
603.194	12756.02
603.552	12770.03
603.91	12622.69
604.268	12714.89
604.625	12695.01
604.983	12718.28
605.341	12679.19
605.698	12779.3
606.056	12730.48
606.413	12766.19
606.771	12739.52
607.128	12741.56
607.485	12711.73
607.843	12621.79
608.2	12798.28
608.557	12842.57
608.914	12771.16
609.272	12865.17
609.629	12777.26
609.986	12854.55
610.343	12803.93
610.7	12828.11
611.057	12895.9
611.414	12878.05
611.771	12859.75
612.127	12948.11
612.484	12963.47
612.841	12974.55
613.198	12886.19
613.554	12961.44
613.911	12937.71
614.267	12907.65
614.624	12925.51
614.98	12974.09
615.337	12961.89
615.693	13036.92
616.05	12923.47
616.406	13083.02
616.762	13047.31
617.118	12995.56
617.475	12970.93
617.831	13068.1
618.187	13073.07
618.543	13067.2
618.899	13149.46
619.255	13125.28
619.611	13097.25
619.967	13111.04
620.323	13235.56
620.678	13105.39
621.034	13113.07
621.39	13146.74
621.746	13077.59
622.101	13185.16
622.457	13133.19
622.812	13215.9
623.168	13118.5
623.523	13153.52
623.879	13163.24
624.234	13057.48
624.589	13122.11
624.945	13159.4
625.3	13203.47
625.655	13139.74
626.01	13233.52
626.365	13115.79
626.72	13064.26
627.075	13051.83
627.43	13032.85
627.785	13072.85
628.14	13079.18
628.495	13115.79
628.85	13037.82
629.205	12987.2
629.559	13033.75
629.914	12979.52
630.269	13106.75
630.623	13063.36
630.978	12938.39
631.332	12989.69
631.687	12985.84
632.041	12967.09
632.396	12985.39
632.75	12986.75
633.104	12989.23
633.459	12956.24
633.813	12876.24
634.167	12858.62
634.521	12954.43
634.875	12920.54
635.229	12920.76
635.583	12886.19
635.937	12807.32
636.291	12749.92
636.645	12797.38
636.999	12694.78
637.352	12810.93
637.706	12718.51
638.06	12777.94
638.413	12701.56
638.767	12693.65
639.121	12728
639.474	12645.51
639.828	12663.59
640.181	12622.92
640.534	12723.93
640.888	12572.52
641.241	12595.35
641.594	12593.54
641.947	12610.49
642.301	12636.25
642.654	12683.25
643.007	12570.49
643.36	12505.18
643.713	12561
644.066	12631.73
644.419	12512.19
644.771	12451.85
645.124	12270.61
645.477	12279.87
645.83	12302.7
646.182	12200.1
646.535	12124.17
646.888	12151.97
647.24	12067.23
647.593	12110.84
647.945	12076.49
648.298	12082.37
648.65	11997.4
649.002	12064.51
649.355	12140.22
649.707	12069.94
650.059	12223.38
650.411	12264.06
650.763	12278.52
651.115	12441
651.467	12396.48
651.819	12443.94
652.171	12363.04
652.523	12397.39
652.875	12386.31
653.227	12387.22
653.578	12449.59
653.93	12428.8
654.282	12382.02
654.633	12334.11
654.985	12345.18
655.337	12356.26
655.688	12412.98
656.039	12358.06
656.391	12267.9
656.742	12336.82
657.094	12312.19
657.445	12381.57
657.796	12354.45
658.147	12324.85
658.498	12226.09
658.849	12337.73
659.2	12367.33
659.551	12255.69
659.902	12376.6
660.253	12329.37
660.604	12348.12
660.955	12332.3
661.306	12382.02
661.656	12308.57
662.007	12332.3
662.358	12423.15
662.708	12454.56
663.059	12415.69
663.409	12326.88
663.76	12466.08
664.11	12364.84
664.461	12354.9
664.811	12392.41
665.161	12431.74
665.511	12386.76
665.862	12386.76
666.212	12429.25
666.562	12388.12
666.912	12345.64
667.262	12345.41
667.612	12379.53
667.962	12389.93
668.312	12376.14
668.662	12462.24
669.011	12389.25
669.361	12387.89
669.711	12400.78
670.06	12383.6
670.41	12347.44
670.76	12245.53
671.109	12421.11
671.459	12338.63
671.808	12235.58
672.157	12290.5
672.507	12297.28
672.856	12213.66
673.205	12212.08
673.554	12273.1
673.904	12257.73
674.253	12351.96
674.602	12188.35
674.951	12085.08
675.3	11969.15
675.649	12243.49
675.998	12222.7
676.346	12250.27
676.695	12250.95
677.044	12149.48
677.393	12180.22
677.741	12163.27
678.09	12110.39
678.438	12128.92
678.787	12115.59
679.135	12149.26
679.484	12030.16
679.832	12000.33
680.181	12038.53
680.529	12043.04
680.877	12019.09
681.225	11947.23
681.573	11991.07
681.922	11948.58
682.27	11882.6
682.618	11887.79
682.966	11812.32
683.314	11794.69
683.661	11798.53
684.009	11815.48
684.357	11742.04
684.705	11713.79
685.053	11709.27
685.4	11705.2
685.748	11636.73
686.095	11587.46
686.443	11558.09
686.79	11604.41
687.138	11638.99
687.485	11630.63
687.832	11580.91
688.18	11544.98
688.527	11503.4
688.874	11447.58
689.221	11388.37
689.568	11415.94
689.915	11377.53
690.262	11349.28
690.609	11300.92
690.956	11251.65
691.303	11268.83
691.65	11204.87
691.997	11265.21
692.344	11085.78
692.69	11134.37
693.037	11149.06
693.383	10994.48
693.73	11051.43
694.077	10990.42
694.423	11005.78
694.769	10933.24
695.116	10904.54
695.462	10877.2
695.808	10795.39
696.155	10835.85
696.501	10743.42
696.847	10726.47
697.193	10595.85
697.539	10596.98
697.885	10595.4
698.231	10477.44
698.577	10528.51
698.923	10549.98
699.269	10376.65
699.614	10398.57
699.96	10342.52
700.306	10356.08
700.651	10300.49
700.997	10206.48
701.342	10204.9
701.688	10164
702.033	10178.46
702.379	10118.58
702.724	10048.75
703.069	10135.75
703.415	10013.95
703.76	9976.43
704.105	9920.39
704.45	10011.46
704.795	9930.33
705.14	9791.58
705.485	9779.83
705.83	9796.1
706.175	9805.36
706.52	9798.58
706.865	9723.78
707.209	9729.43
707.554	9680.4
707.899	9744.35
708.243	9642.88
708.588	9579.61
708.932	9571.7
709.277	9534.86
709.621	9629.32
709.966	9507.29
710.31	9571.47
710.654	9436.56
710.998	9459.16
711.342	9406.96
711.687	9391.36
712.031	9407.63
712.375	9333.29
712.719	9280.41
713.063	9295.09
713.407	9336.45
713.75	9245.38
714.094	9286.96
714.438	9207.64
714.782	9245.6
715.125	9193.4
715.469	9196.11
715.812	9103.46
716.156	9049.45
716.499	9094.65
716.843	9086.06
717.186	9061.65
717.53	9076.34
717.873	9141.65
718.216	9148.66
718.559	8962.9
718.902	8958.61
719.246	9015.55
719.589	8935.56
719.932	8940.53
720.275	8926.29
720.617	8927.42
720.96	8935.1
721.303	8905.05
721.646	8947.76
721.989	8779.63
722.331	8855.78
722.674	8825.73
723.016	8841.77
723.359	8792.06
723.701	8875.22
724.044	8776.69
724.386	8698.05
724.729	8788.22
725.071	8821.43
725.413	8798.61
725.755	8790.7
726.097	8712.74
726.439	8713.64
726.782	8695.79
727.124	8791.6
727.465	8691.49
727.807	8710.7
728.149	8680.2
728.491	8650.37
728.833	8753.87
729.175	8702.79
729.516	8682.91
729.858	8721.78
730.199	8656.69
730.541	8639.29
730.882	8688.33
731.224	8652.85
731.565	8612.4
731.906	8658.05
732.248	8635.22
732.589	8658.5
732.93	8694.43
733.271	8537.15
733.612	8646.98
733.953	8651.27
734.294	8601.55
734.635	8599.07
734.976	8639.52
735.317	8633.19
735.658	8645.62
735.999	8649.91
736.339	8607.66
736.68	8640.42
737.021	8670.25
737.361	8613.76
737.702	8713.19
738.042	8580.09
738.383	8666.18
738.723	8714.32
739.063	8604.04
739.404	8688.78
739.744	8641.78
740.084	8625.96
740.424	8710.7
740.764	8739.4
741.104	8695.34
741.444	8775.33
741.784	8716.58
742.124	8759.74
742.464	8766.07
742.804	8848.78
743.143	8771.94
743.483	8807.2
743.823	8755.45
744.162	8793.41
744.502	8917.03
744.841	8922.67
745.181	8995.67
745.52	8911.38
745.86	8941.88
746.199	8995.89
746.538	9079.73
746.877	9070.69
747.216	9166.28
747.556	9203.35
747.895	9208.32
748.234	9176.45
748.573	9237.24
748.911	9317.47
749.25	9399.95
749.589	9394.08
749.928	9474.98
750.267	9535.54
750.605	9602.21
750.944	9677.68
751.283	9747.96
751.621	9791.35
751.96	9869.77
752.298	9986.38
752.636	10064.34
752.975	10161.51
753.313	10192.25
753.651	10280.38
753.989	10361.28
754.327	10427.49
754.666	10474.95
755.004	10661.39
755.342	10767.6
755.679	10917.2
756.017	10983.41
756.355	11176.18
756.693	11199.68
757.031	11434.93
757.368	11531.42
757.706	11761.24
758.044	11735.71
758.381	11935.03
758.719	12040.56
759.056	12262.25
759.394	12418.4
759.731	12492.75
760.068	12662.46
760.405	12742.69
760.743	12922.57
761.08	13103.13
761.417	13171.38
761.754	13379.96
762.091	13521.88
762.428	13656.34
762.765	13764.13
763.102	14074.18
763.438	14106.27
763.775	14222.65
764.112	14404.79
764.449	14566.14
764.785	14718.45
765.122	14810.88
765.458	14944.66
765.795	15046.13
766.131	15337.2
766.467	15415.84
766.804	15451.32
767.14	15600.01
767.476	15788.94
767.812	15787.58
768.148	15988.03
768.485	16027.8
768.821	16148.25
769.157	16266.44
769.492	16427.11
769.828	16555.24
770.164	16502.81
770.5	16704.39
770.836	16743.03
771.171	16890.83
771.507	16966.31
771.842	16916.59
772.178	17087.66
772.513	17174.21
772.849	17278.61
773.184	17367.88
773.519	17463.47
773.855	17474.31
774.19	17497.82
774.525	17607.64
774.86	17689
775.195	17735.78
775.53	17726.06
775.865	17677.7
776.2	17765.15
776.535	17740.75
776.87	17755.44
777.205	17872.5
777.539	17911.59
777.874	18010.8
778.209	17909.56
778.543	17997.69
778.878	17916.79
779.212	18010.12
779.547	17983.68
779.881	18052.15
780.215	18019.16
780.55	18064.81
780.884	17999.27
781.218	18089.21
781.552	18016.22
781.886	18109.1
782.22	17983.91
782.554	17964.7
782.888	17981.19
783.222	17954.98
783.556	17934.64
783.889	17971.02
784.223	17855.55
784.557	17909.11
784.89	17940.07
785.224	17903.46
785.557	17852.38
785.891	17870.24
786.224	17893.96
786.558	17919.95
786.891	17793.18
787.224	17684.93
787.557	17748.88
787.891	17811.48
788.224	17755.66
788.557	17755.66
788.89	17713.86
789.223	17688.77
789.556	17687.87
789.888	17590.24
790.221	17655.33
790.554	17410.81
790.887	17483.35
791.219	17416.46
791.552	17427.99
791.884	17418.72
792.217	17392.51
792.549	17306.86
792.882	17273.64
793.214	17129.01
793.546	17282.46
793.879	17204.94
794.211	17013.76
794.543	17200.42
794.875	16981.67
795.207	17097.38
795.539	17071.61
795.871	16974.67
796.203	16887.89
796.535	16941.22
796.867	16799.3
797.198	16794.56
797.53	16821.45
797.862	16703.04
798.193	16774.22
798.525	16676.6
798.856	16683.6
799.188	16537.62
799.519	16454
799.85	16444.51
800.182	16536.26
800.513	16472.08
800.844	16255.14
801.175	16449.93
801.506	16368.58
801.837	16351.63
802.168	16219.43
802.499	16220.34
802.83	15973.56
803.161	16116.16
803.491	16115.25
803.822	16112.99
804.153	16013.34
804.483	15983.73
804.814	15910.74
805.145	15902.6
805.475	15900.8
805.805	15877.07
806.136	15808.14
806.466	15818.76
806.796	15726.11
807.126	15680.69
807.457	15590.75
807.787	15621.48
808.117	15600.69
808.447	15485.44
808.777	15564.53
809.107	15480.24
809.436	15391.88
809.766	15453.35
810.096	15357.76
810.426	15282.73
810.755	15303.98
811.085	15330.64
811.414	15324.31
811.744	15129.29
812.073	15168.39
812.403	15207.48
812.732	15087.03
813.061	15091.55
813.39	15070.99
813.719	14968.62
814.049	15007.71
814.378	15026.7
814.707	14838.45
815.036	14919.81
815.365	14923.65
815.693	14775.85
816.022	14816.98
816.351	14697.44
816.68	14748.74
817.008	14703.54
817.337	14642.98
817.665	14532.47
817.994	14589.87
818.322	14638.46
818.651	14548.06
818.979	14499.03
819.307	14575.18
819.636	14424.45
819.964	14471.46
820.292	14484.34
820.62	14486.6
820.948	14384.45
821.276	14507.16
821.604	14349.65
821.932	14431
822.259	14446.6
822.587	14410.21
822.915	14383.77
823.243	14477.78
823.57	14408.18
823.898	14422.42
824.225	14353.27
824.553	14326.83
824.88	14363.44
825.207	14371.57
825.535	14430.1
825.862	14428.97
826.189	14340.16
826.516	14400.72
826.843	14411.8
827.17	14392.14
827.497	14456.77
827.824	14435.3
828.151	14419.03
828.478	14392.81
828.805	14501.06
829.131	14416.99
829.458	14294.51
829.785	14378.12
830.111	14419.03
830.438	14436.88
830.764	14424
831.09	14468.74
831.417	14322.31
831.743	14432.36
832.069	14401.85
832.395	14295.64
832.722	14402.3
833.048	14322.53
833.374	14413.15
833.7	14280.05
834.026	14273.27
834.351	14294.96
834.677	14301.29
835.003	14343.32
835.329	14279.82
835.654	14295.19
835.98	14145.14
836.306	14130.67
836.631	14097.23
836.956	14237.11
837.282	14178.58
837.607	14056.78
837.932	14109.88
838.258	14109.66
838.583	14062.88
838.908	14038.47
839.233	13919.83
839.558	14020.17
839.883	13909.66
840.208	13901.53
840.533	13928.42
840.858	13926.39
841.182	13947.85
841.507	13928.19
841.832	13765.71
842.156	13772.49
842.481	13816.11
842.805	13762.32
843.13	13740.18
843.454	13708.31
843.778	13598.03
844.103	13632.61
844.427	13509.45
844.751	13617.69
845.075	13532.27
845.399	13461.31
845.723	13391.26
846.047	13515.77
846.371	13358.04
846.695	13371.82
847.019	13226.97
847.343	13142.23
847.666	13117.14
847.99	13020.87
848.313	13033.3
848.637	13003.02
848.96	12923.93
849.284	12941.78
849.607	12864.04
849.931	12759.41
850.254	12702.91
850.577	12567.32
850.9	12536.14
851.223	12563.48
851.546	12478.97
851.869	12429.48
852.192	12510.6
852.515	12342.25
852.838	12361
853.161	12267.22
853.483	12214.79
853.806	12115.59
854.129	12254.79
854.451	12179.54
854.774	12085.98
855.096	12042.37
855.419	12060.9
855.741	11994.68
856.063	11910.62
856.385	11902.94
856.708	11797.63
857.03	11786.1
857.352	11759.66
857.674	11738.42
857.996	11685.31
858.318	11628.59
858.64	11653.45
858.961	11533.45
859.283	11570.97
859.605	11531.42
859.926	11522.38
860.248	11488.48
860.57	11490.52
860.891	11495.94
861.212	11477.18
861.534	11389.73
861.855	11304.08
862.176	11404.19
862.498	11300.01
862.819	11412.78
863.14	11220.47
863.461	11344.31
863.782	11238.77
864.103	11206.91
864.424	11156.51
864.745	11184.99
865.065	11156.51
865.386	11124.43
865.707	11058.89
866.027	11128.94
866.348	10988.61
866.668	11130.3
866.989	11003.98
867.309	10983.19
867.63	10931.66
867.95	10937.54
868.27	10829.74
868.59	10893.02
868.91	10904.09
869.23	10929.85
869.55	10844.88
869.87	10849.4
870.19	10946.12
870.51	10838.78
870.83	10923.75
871.15	10756.07
871.469	10719.24
871.789	10820.7
872.109	10798.78
872.428	10670.2
872.748	10739.35
873.067	10690.99
873.386	10707.49
873.706	10685.57
874.025	10661.39
874.344	10569.86
874.663	10611.67
874.982	10586.59
875.301	10616.64
875.62	10537.55
875.939	10559.02
876.258	10536.19
876.577	10439.47
876.896	10485.35
877.214	10451.9
877.533	10464.78
877.852	10503.2
878.17	10398.79
878.489	10420.49
878.807	10394.05
879.125	10384.78
879.444	10347.27
879.762	10352.92
880.08	10365.8
880.398	10282.64
880.716	10364.22
881.034	10209.87
881.352	10223.88
881.67	10198.12
881.988	10200.38
882.306	10184.56
882.624	10150.44
882.941	10092.59
883.259	10037
883.577	10088.07
883.894	10056.88
884.212	10071.12
884.529	10060.5
884.846	9950.9
885.164	9921.52
885.481	9930.78
885.798	9973.49
886.115	9874.74
886.432	9881.07
886.75	9830.9
887.067	9843.1
887.383	9743.22
887.7	9854.4
888.017	9722.88
888.334	9764.91
888.651	9694.18
888.967	9721.52
889.284	9604.92
889.6	9636.78
889.917	9525.15
890.233	9568.53
890.55	9473.39
890.866	9491.93
891.182	9451.02
891.498	9477.46
891.815	9483.11
892.131	9349.56
892.447	9419.61
892.763	9307.98
893.079	9305.49
893.395	9279.5
893.71	9267.52
894.026	9253.74
894.342	9208.09
894.657	9195.44
894.973	9146.17
895.289	9062.11
895.604	9123.8
895.92	9051.71
896.235	9025.05
896.55	9051.71
896.865	8961.09
897.181	8886.97
897.496	8892.85
897.811	8891.04
898.126	8896.69
898.441	8840.64
898.756	8824.15
899.071	8703.92
899.386	8702.79
899.7	8675
900.015	8639.74
900.33	8551.39
900.644	8555.68
900.959	8553.87
901.273	8579.86
901.588	8468
901.902	8447.43
902.216	8389.58
902.531	8389.36
902.845	8443.82
903.159	8229.13
903.473	8265.07
903.787	8237.95
904.101	8219.87
904.415	8190.49
904.729	8073.66
905.042	8102.81
905.356	8096.93
905.67	8094.45
905.984	8076.6
906.297	8090.38
906.611	7973.77
906.924	7952.53
907.237	7926.32
907.551	7884.74
907.864	7952.08
908.177	7808.81
908.491	7757.73
908.804	7730.84
909.117	7731.52
909.43	7665.08
909.743	7569.72
910.056	7651.52
910.368	7630.28
910.681	7569.94
910.994	7559.55
911.307	7520.9
911.619	7408.14
911.932	7467.57
912.244	7414.69
912.557	7406.56
912.869	7387.12
913.181	7311.42
913.494	7279.55
913.806	7244.08
914.118	7185.55
914.43	7185.09
914.742	7218.54
915.054	7161.59
915.366	7108.71
915.678	7139.67
915.99	7098.32
916.302	7000.24
916.613	6929.96
916.925	6919.79
917.236	6914.82
917.548	6947.59
917.859	6894.71
918.171	6885.89
918.482	6788.72
918.794	6829.62
919.105	6795.5
919.416	6723.86
919.727	6710.53
920.038	6676.86
920.349	6663.53
920.66	6698.55
920.971	6675.95
921.282	6656.75
921.593	6559.8
921.903	6565.45
922.214	6567.71
922.525	6480.71
922.835	6473.25
923.146	6461.5
923.456	6373.36
923.767	6389.63
924.077	6357.09
924.387	6325.46
924.697	6337.43
925.008	6297.43
925.318	6287.72
925.628	6302.86
925.938	6193.93
926.248	6202.29
926.558	6149.87
926.867	6115.52
927.177	6112.81
927.487	6092.92
927.796	6040.72
928.106	6035.75
928.416	5991
928.725	5985.35
929.034	5959.82
929.344	5959.36
929.653	5945.35
929.962	5874.85
930.271	5851.57
930.581	5842.76
930.89	5820.16
931.199	5751.46
931.508	5786.49
931.817	5751.91
932.125	5763.44
932.434	5665.36
932.743	5626.26
933.051	5623.1
933.36	5621.97
933.669	5575.42
933.977	5572.48
934.286	5570.67
934.594	5475.08
934.902	5490
935.21	5487.29
935.519	5484.57
935.827	5500.62
936.135	5395.31
936.443	5329.1
936.751	5379.49
937.059	5341.3
937.367	5297.23
937.674	5337.01
937.982	5301.08
938.29	5214.75
938.597	5180.17
938.905	5198.03
939.213	5190.12
939.52	5161.64
939.827	5180.4
940.135	5130.91
940.442	5094.53
940.749	5088.43
941.056	5094.98
941.363	5016.56
941.67	5038.94
941.977	5024.02
942.284	4953.74
942.591	4923.23
942.898	4930.92
943.205	4940.63
943.511	4922.1
943.818	4919.16
944.125	4841.43
944.431	4805.5
944.738	4847.53
945.044	4779.51
945.35	4771.6
945.657	4747.19
945.963	4738.83
946.269	4731.37
946.575	4665.84
946.881	4640.53
947.187	4630.81
947.493	4642.11
947.799	4636.23
948.105	4589.23
948.41	4578.83
948.716	4580.42
949.022	4571.83
949.327	4512.62
949.633	4444.37
949.938	4473.3
950.244	4457.71
950.549	4425.39
950.854	4402.57
951.16	4362.57
951.465	4379.97
951.77	4366.18
952.075	4354.43
952.38	4323.7
952.685	4300.65
952.99	4291.16
953.294	4294.32
953.599	4258.84
953.904	4192.86
954.209	4199.18
954.513	4196.02
954.818	4201.22
955.122	4153.76
955.426	4166.64
955.731	4114.67
956.035	4086.64
956.339	4082.35
956.643	4086.87
956.948	4091.16
957.252	4037.15
957.556	4023.82
957.86	4000.77
958.163	3992.64
958.467	3936.14
958.771	3967.55
959.075	3957.38
959.378	3907.89
959.682	3839.19
959.985	3873.09
960.289	3875.58
960.592	3857.05
960.896	3840.77
961.199	3808.46
961.502	3813.2
961.805	3788.8
962.108	3775.47
962.411	3750.38
962.714	3715.58
963.017	3733.66
963.32	3744.96
963.623	3685.98
963.926	3691.4
964.228	3646.43
964.531	3652.98
964.833	3633.77
965.136	3568.92
965.438	3601.23
965.741	3545.87
966.043	3575.92
966.345	3549.48
966.648	3510.39
966.95	3522.59
967.252	3495.93
967.554	3457.51
967.856	3452.54
968.158	3431.97
968.46	3422.93
968.761	3417.06
969.063	3434.23
969.365	3402.14
969.666	3355.82
969.968	3345.19
970.269	3326.89
970.571	3367.11
970.872	3316.27
971.174	3310.39
971.475	3290.73
971.776	3259.55
972.077	3271.75
972.378	3261.35
972.679	3274.46
972.98	3221.13
973.281	3177.74
973.582	3170.28
973.883	3198.98
974.183	3138.65
974.484	3202.83
974.785	3162.83
975.085	3135.71
975.386	3122.6
975.686	3117.4
975.986	3099.78
976.287	3074.24
976.587	3053.22
976.887	3032.66
977.187	3008.48
977.487	3039.67
977.787	2998.76
978.087	2988.59
978.387	2985.66
978.687	2987.46
978.987	2942.04
979.286	2970.52
979.586	2962.83
979.885	2900.01
980.185	2911.08
980.484	2849.84
980.784	2869.5
981.083	2863.4
981.382	2843.51
981.682	2845.09
981.981	2826.11
982.28	2798.54
982.579	2791.31
982.878	2778.88
983.177	2746.34
983.475	2750.18
983.774	2745.21
984.073	2721.93
984.372	2740.46
984.67	2713.8
984.969	2700.01
985.267	2689.84
985.566	2669.96
985.864	2670.64
986.162	2635.38
986.461	2638.77
986.759	2623.18
987.057	2622.95
987.355	2592.45
987.653	2629.96
987.951	2582.28
988.249	2553.8
988.547	2551.32
988.844	2545.89
989.142	2553.8
989.44	2533.24
989.737	2517.87
990.035	2517.19
990.332	2504.31
990.63	2476.06
990.927	2469.96
991.224	2417.08
991.521	2448.72
991.819	2442.62
992.116	2418.67
992.413	2401.94
992.71	2412.56
993.006	2392.45
993.303	2367.14
993.6	2361.94
993.897	2354.71
994.193	2349.51
994.49	2340.48
994.787	2358.78
995.083	2312
995.379	2303.19
995.676	2275.84
995.972	2267.26
996.268	2245.11
996.565	2267.26
996.861	2204.43
997.157	2215.96
997.453	2263.87
997.749	2185.9
998.044	2186.58
998.34	2171.67
998.636	2208.28
998.932	2140.03
999.227	2158.56
999.523	2170.08
999.818	2156.98
1000.114	2117.66
1000.409	2128.28
1000.704	2114.49
1001	2079.92
1001.295	2064.78
1001.59	2044.89
1001.885	2054.16
1002.18	2018.9
1002.475	2010.99
1002.77	1999.02
1003.065	2040.37
1003.359	1989.3
1003.654	2000.82
1003.949	1975.06
1004.243	1951.33
1004.538	1942.29
1004.832	1934.61
1005.127	1939.81
1005.421	1916.08
1005.715	1917.89
1006.009	1898.23
1006.304	1913.14
1006.598	1895.06
1006.892	1881.5
1007.186	1830.66
1007.48	1844.44
1007.773	1869.3
1008.067	1836.08
1008.361	1807.61
1008.655	1821.39
1008.948	1832.47
1009.242	1803.09
1009.535	1735.52
1009.829	1754.73
1010.122	1775.52
1010.415	1768.06
1010.708	1748.4
1011.001	1714.73
1011.295	1698.46
1011.588	1715.18
1011.881	1702.75
1012.173	1714.5
1012.466	1682.41
1012.759	1664.11
1013.052	1655.07
1013.344	1632.7
1013.637	1637.44
1013.93	1620.04
1014.222	1591.57
1014.514	1607.39
1014.807	1594.96
1015.099	1567.61
1015.391	1583.88
1015.683	1579.82
1015.976	1543.66
1016.268	1541.4
1016.56	1539.59
1016.851	1527.39
1017.143	1516.99
1017.435	1505.47
1017.727	1506.6
1018.018	1502.31
1018.31	1514.51
1018.602	1471.57
1018.893	1459.82
1019.185	1456.2
1019.476	1456.2
1019.767	1474.06
1020.058	1409.43
1020.35	1414.17
1020.641	1406.26
1020.932	1399.26
1021.223	1406.49
1021.514	1382.31
1021.804	1383.66
1022.095	1375.3
1022.386	1362.42
1022.677	1359.26
1022.967	1334.85
1023.258	1357
1023.548	1317.68
1023.839	1306.15
1024.129	1302.76
1024.419	1337.79
1024.709	1283.33
1025	1307.06
1025.29	1252.59
1025.58	1244.01
1025.87	1248.53
1026.16	1246.04
1026.449	1257.79
1026.739	1226.38
1027.029	1228.64
1027.319	1202.2
1027.608	1213.73
1027.898	1190.67
1028.187	1182.77
1028.477	1191.13
1028.766	1161.75
1029.055	1146.83
1029.344	1190.9
1029.634	1191.13
1029.923	1145.93
1030.212	1170.11
1030.501	1153.16
1030.79	1122.65
1031.078	1117.68
1031.367	1100.51
1031.656	1115.42
1031.945	1108.87
1032.233	1110.9
1032.522	1096.44
1032.81	1064.8
1033.099	1087.17
1033.387	1078.81
1033.675	1056.89
1033.963	1069.55
1034.251	1040.17
1034.54	1034.29
1034.828	1067.29
1035.116	1034.75
1035.403	1019.15
1035.691	1021.41
1035.979	985.93
1036.267	1007.18
1036.554	972.83
1036.842	964.24
1037.129	987.52
1037.417	946.61
1037.704	960.4
1037.992	960.62
1038.279	937.35
1038.566	952.49
1038.853	952.49
1039.14	952.49
