Data from hue_30_FLMS001491_1.txt Node
Date: Mon Feb 06 15:04:33 GMT 2017
User: dcchb
Spectrometer: FLMS00149
Trigger mode: 0
Integration Time (sec): 2.000000E-2
Scans to average: 10
Electric dark correction enabled: true
Nonlinearity correction enabled: false
Boxcar width: 0
XAxis mode: Wavelengths
Number of Pixels in Spectrum: 2048
>>>>>Begin Spectral Data<<<<<
341.393	-11.5
341.776	-11.5
342.16	-11.5
342.543	-60.54
342.927	-36.13
343.31	-64.15
343.693	-75.9
344.077	-58.73
344.46	-50.59
344.843	-42.46
345.226	-33.42
345.61	-20.99
345.993	-29.35
346.376	-15.56
346.759	9.97
347.142	22.85
347.525	15.4
347.908	66.92
348.291	83.87
348.674	95.62
349.057	96.52
349.44	128.61
349.823	140.82
350.206	169.06
350.588	181.94
350.971	205.9
351.354	211.55
351.737	257.42
352.119	255.39
352.502	264.88
352.884	278.44
353.267	286.57
353.65	301.49
354.032	284.99
354.414	305.1
354.797	303.52
355.179	328.83
355.562	311.21
355.944	317.08
356.326	319.57
356.709	353.92
357.091	327.03
357.473	333.35
357.855	313.69
358.238	355.27
358.62	337.87
359.002	337.65
359.384	345.78
359.766	344.88
360.148	333.58
360.53	350.53
360.912	349.4
361.294	343.75
361.676	317.76
362.057	326.35
362.439	352.34
362.821	320.02
363.203	342.39
363.584	311.88
363.966	337.42
364.348	318.66
364.729	298.55
365.111	315.27
365.493	324.99
365.874	327.03
366.256	311.88
366.637	328.83
367.019	305.56
367.4	317.31
367.781	305.56
368.163	313.47
368.544	321.83
368.925	295.84
369.306	320.02
369.688	314.82
370.069	286.35
370.45	301.04
370.831	294.26
371.212	314.14
371.593	295.84
371.974	325.67
372.355	319.79
372.736	308.04
373.117	321.6
373.498	307.36
373.879	322.28
374.26	306.46
374.641	313.92
375.021	313.92
375.402	323.86
375.783	309.62
376.163	334.71
376.544	311.21
376.925	308.72
377.305	328.38
377.686	318.44
378.066	311.21
378.447	334.03
378.827	325.44
379.208	328.83
379.588	319.79
379.968	337.87
380.349	323.41
380.729	321.6
381.109	329.06
381.489	339.91
381.87	341.04
382.25	346.91
382.63	332.9
383.01	331.54
383.39	354.14
383.77	358.21
384.15	334.26
384.53	348.49
384.91	348.49
385.29	357.53
385.67	332.67
386.049	337.65
386.429	342.39
386.809	343.3
387.189	340.58
387.568	353.01
387.948	350.08
388.328	347.36
388.707	362.5
389.087	339.45
389.466	352.34
389.846	336.97
390.225	361.15
390.605	349.62
390.984	347.36
391.363	352.11
391.743	360.24
392.122	352.11
392.501	371.09
392.881	363.63
393.26	352.34
393.639	362.73
394.018	357.98
394.397	368.38
394.776	369.06
395.155	366.8
395.534	379.45
395.913	362.73
396.292	372.9
396.671	380.58
397.05	381.49
397.429	370.87
397.808	384.65
398.186	386.23
398.565	377.87
398.944	372
399.323	374.26
399.701	373.8
400.08	377.19
400.458	389.85
400.837	400.47
401.215	369.51
401.594	393.46
401.972	395.27
402.351	399.34
402.729	405.67
403.107	379.23
403.486	397.98
403.864	394.82
404.242	395.5
404.62	400.24
404.999	374.93
405.377	413.8
405.755	409.28
406.133	411.32
406.511	416.97
406.889	393.92
407.267	406.35
407.645	409.28
408.023	419
408.401	413.35
408.779	397.98
409.156	407.7
409.534	414.48
409.912	434.82
410.29	415.61
410.667	437.08
411.045	436.17
411.422	424.2
411.8	419
412.178	428.49
412.555	436.63
412.933	428.94
413.31	454.25
413.687	453.12
414.065	450.19
414.442	462.16
414.819	442.5
415.197	447.47
415.574	470.98
415.951	451.99
416.328	472.11
416.705	482.05
417.082	476.4
417.46	455.61
417.837	475.72
418.214	466.23
418.591	462.16
418.967	481.37
419.344	491.77
419.721	478.66
420.098	493.57
420.475	499
420.852	485.21
421.228	513.01
421.605	499.45
421.982	505.55
422.358	490.41
422.735	524.08
423.111	518.66
423.488	503.97
423.864	507.36
424.241	507.13
424.617	531.77
424.994	531.77
425.37	516.17
425.746	506
426.123	546.45
426.499	556.17
426.875	511.88
427.251	539
427.627	548.94
428.003	542.61
428.379	542.39
428.756	561.37
429.132	589.62
429.507	565.89
429.883	570.41
430.259	562.27
430.635	578.54
431.011	574.7
431.387	576.74
431.763	599.33
432.138	602.5
432.514	591.43
432.89	574.7
433.265	608.83
433.641	629.62
434.016	609.28
434.392	596.85
434.767	615.38
435.143	627.81
435.518	600.46
435.894	631.42
436.269	628.26
436.644	619.45
437.02	626.68
437.395	631.88
437.77	633.23
438.145	646.79
438.52	620.35
438.895	685.21
439.271	644.31
439.646	679.33
440.021	673.46
440.395	689.05
440.77	690.41
441.145	666.9
441.52	702.38
441.895	689.5
442.27	690.86
442.645	675.94
443.019	720.24
443.394	706
443.769	710.07
444.143	705.32
444.518	693.34
444.892	704.19
445.267	754.58
445.641	724.98
446.016	737.41
446.39	731.53
446.764	736.05
447.139	736.73
447.513	747.81
447.887	745.09
448.262	751.65
448.636	748.03
449.01	765.88
449.384	744.64
449.758	766.34
450.132	774.7
450.506	807.24
450.88	798.43
451.254	774.7
451.628	813.79
452.002	806.56
452.376	818.54
452.75	810.4
453.123	815.37
453.497	801.82
453.871	817.63
454.244	845.43
454.618	867.8
454.992	831.42
455.365	865.77
455.739	855.6
456.112	878.65
456.486	869.61
456.859	873
457.232	878.65
457.606	858.54
457.979	906.9
458.352	943.96
458.725	925.43
459.099	941.47
459.472	967.69
459.845	938.08
460.218	960
460.591	974.92
460.964	958.42
461.337	983.28
461.71	989.38
462.083	992.54
462.456	1011.75
462.829	1023.28
463.201	1029.83
463.574	1035.03
463.947	1046.78
464.32	1086.78
464.692	1089.49
465.065	1094.01
465.438	1076.16
465.81	1122.03
466.183	1118.19
466.555	1158.64
466.928	1143.95
467.3	1169.94
467.672	1165.87
468.045	1195.93
468.417	1203.16
468.789	1211.3
469.161	1220.79
469.534	1228.7
469.906	1262.82
470.278	1267.11
470.65	1289.49
471.022	1297.17
471.394	1320.45
471.766	1329.48
472.138	1367.22
472.51	1385.75
472.882	1407.22
473.253	1445.64
473.625	1435.7
473.997	1473.89
474.369	1486.77
474.74	1520.21
475.112	1552.3
475.484	1587.56
475.855	1604.05
476.227	1641.57
476.598	1649.02
476.97	1656.26
477.341	1734.22
477.713	1754.33
478.084	1786.65
478.455	1837.95
478.827	1854.22
479.198	1922.69
479.569	1895.12
479.94	1965.4
480.311	2013.08
480.682	2035
481.053	2093.53
481.424	2129.01
481.795	2167.88
482.166	2210.82
482.537	2243.13
482.908	2340.76
483.279	2336.92
483.65	2369.68
484.021	2436.8
484.391	2459.85
484.762	2499.85
485.133	2579.62
485.503	2611.49
485.874	2644.93
486.244	2733.74
486.615	2773.97
486.985	2841.99
487.356	2896.68
487.726	2945.71
488.097	2980.29
488.467	3025.03
488.837	3111.58
489.207	3152.26
489.578	3181.64
489.948	3270.9
490.318	3314.52
490.688	3352.48
491.058	3424.8
491.428	3479.71
491.798	3548.41
492.168	3621.85
492.538	3624.34
492.908	3668.63
493.278	3724.22
493.648	3830.66
494.017	3806.93
494.387	3907.72
494.757	3973.94
495.126	4007.15
495.496	4038.11
495.866	4064.55
496.235	4121.5
496.605	4145.46
496.974	4223.19
497.344	4303.87
497.713	4339.12
498.082	4378.9
498.452	4463.64
498.821	4432
499.19	4462.96
499.559	4534.37
499.928	4573.24
500.298	4624.09
500.667	4676.06
501.036	4648.49
501.405	4733.69
501.774	4788.83
502.143	4798.55
502.512	4801.26
502.88	4894.81
503.249	4893.01
503.618	4899.11
503.987	5026.11
504.356	5004.19
504.724	5071.31
505.093	5071.53
505.462	5054.13
505.83	5155.37
506.199	5206.9
506.567	5291.87
506.936	5281.47
507.304	5287.57
507.672	5314.01
508.041	5369.6
508.409	5441.92
508.777	5433.33
509.145	5454.57
509.514	5492.99
509.882	5502.03
510.25	5546.55
510.618	5607.79
510.986	5617.73
511.354	5694.79
511.722	5696.38
512.09	5786.32
512.458	5748.58
512.826	5803.72
513.193	5842.36
513.561	5799.88
513.929	5817.73
514.297	5905.18
514.664	5935.24
515.032	5963.26
515.4	5999.64
515.767	6055.01
516.135	6092.07
516.502	6071.96
516.869	6122.35
517.237	6189.24
517.604	6145.86
517.972	6151.28
518.339	6208
518.706	6211.39
519.073	6271.5
519.44	6317.6
519.808	6315.79
520.175	6321.22
520.542	6391.27
520.909	6393.31
521.276	6434.21
521.643	6498.16
522.009	6509.24
522.376	6497.03
522.743	6565.05
523.11	6615.9
523.477	6706.29
523.843	6676.01
524.21	6759.62
524.577	6832.39
524.943	6821.54
525.31	6840.53
525.676	6926.63
526.043	6900.64
526.409	6989.45
526.776	7050.69
527.142	7090.01
527.508	7142.21
527.874	7067.87
528.241	7162.33
528.607	7203.45
528.973	7237.13
529.339	7209.33
529.705	7252.49
530.071	7388.99
530.437	7357.12
530.803	7481.87
531.169	7471.02
531.535	7457.91
531.901	7515.54
532.267	7554.63
532.632	7585.82
532.998	7649.09
533.364	7675.76
533.73	7700.84
534.095	7741.75
534.461	7728.86
534.826	7810.22
535.192	7820.84
535.557	7903.55
535.923	7866.49
536.288	7934.73
536.653	7961.17
537.019	7989.65
537.384	7960.95
537.749	8082.75
538.114	8055.41
538.479	8119.59
538.845	8120.72
539.21	8111.23
539.575	8203.2
539.94	8237.33
540.305	8214.95
540.67	8267.83
541.034	8350.77
541.399	8342.86
541.764	8343.09
542.129	8457.21
542.494	8458.79
542.858	8500.6
543.223	8529.07
543.587	8576.75
543.952	8568.62
544.316	8611.78
544.681	8613.36
545.045	8685.68
545.41	8713.02
545.774	8811.1
546.138	8742.17
546.503	8709.4
546.867	8866.24
547.231	8845.67
547.595	8876.63
547.959	8956.18
548.324	8931.09
548.688	8924.99
549.052	9035.72
549.416	9036.17
549.779	9057.64
550.143	9186
550.507	9196.4
550.871	9162.95
551.235	9182.61
551.599	9313.68
551.962	9286.34
552.326	9323.17
552.689	9337.18
553.053	9320.91
553.417	9265.77
553.78	9482.94
554.143	9471.87
554.507	9551.42
554.87	9467.8
555.234	9602.49
555.597	9557.29
555.96	9567.23
556.323	9619.21
556.686	9710.51
557.05	9658.53
557.413	9715.7
557.776	9758.19
558.139	9774.91
558.502	9826.89
558.865	9800.9
559.228	9905.08
559.59	9888.36
559.953	9952.31
560.316	10041.8
560.679	10002.93
561.041	10042.93
561.404	10149.82
561.767	10155.92
562.129	10176.48
562.492	10185.07
562.854	10264.84
563.217	10301.68
563.579	10252.87
563.941	10241.11
564.304	10369.02
564.666	10440.88
565.028	10427.32
565.39	10480.88
565.753	10523.37
566.115	10574.89
566.477	10539.41
566.839	10608.79
567.201	10698.05
567.563	10633.42
567.925	10801.55
568.287	10716.81
568.648	10781.44
569.01	10934.2
569.372	10969.23
569.734	10976.69
570.095	11049.91
570.457	11013.07
570.819	11084.93
571.18	11182.56
571.542	11171.71
571.903	11295.78
572.265	11193.86
572.626	11323.57
572.987	11382.78
573.349	11489.22
573.71	11459.39
574.071	11523.57
574.432	11534.41
574.794	11717.69
575.155	11754.07
575.516	11683.34
575.877	11889.21
576.238	11938.02
576.599	12017.11
576.96	12042.88
577.32	12277.45
577.681	12288.52
578.042	12378.46
578.403	12363.09
578.763	12630.43
579.124	12689.19
579.485	12785.23
579.845	12875.85
580.206	12953.81
580.566	13077.65
580.927	13183.18
581.287	13484.65
581.648	13486.45
582.008	13769.84
582.368	13746.56
582.728	13955.14
583.089	14068.81
583.449	14213.67
583.809	14472.19
584.169	14608.01
584.529	14765.97
584.889	15032.85
585.249	15112.85
585.609	15203.92
585.969	15558.72
586.329	15656.34
586.688	15927.52
587.048	16093.84
587.408	16272.59
587.768	16466.04
588.127	16726.59
588.487	16925.23
588.846	17223.08
589.206	17337.65
589.565	17579.45
589.925	17870.74
590.284	18065.32
590.643	18396.38
591.003	18621.69
591.362	18913.66
591.721	19135.34
592.08	19353.19
592.44	19643.81
592.799	19874.99
593.158	20085.83
593.517	20354.3
593.876	20600.39
594.235	20858.01
594.593	21159.7
594.952	21530.31
595.311	21637.65
595.67	21964.42
596.029	22297.3
596.387	22522.37
596.746	22888.01
597.104	22926.88
597.463	23141.34
597.822	23588.56
598.18	23668.11
598.538	23975.22
598.897	24362.1
599.255	24367.75
599.613	25020.84
599.972	24875.08
600.33	25406.14
600.688	25421.51
601.046	25704.21
601.404	26228.94
601.762	26257.87
602.12	26573.57
602.478	26696.73
602.836	27041.8
603.194	27088.13
603.552	27320.67
603.91	27381.46
604.268	27796.59
604.625	27837.71
604.983	28234.31
605.341	28296.91
605.698	28630.24
606.056	28919.49
606.413	29019.83
606.771	29217.11
607.128	29451.46
607.485	29423.21
607.843	29707.27
608.2	29987.26
608.557	30345.67
608.914	30325.33
609.272	30666.11
609.629	30833.79
609.986	31120.34
610.343	31084.41
610.7	31381.58
611.057	31479.65
611.414	31535.7
611.771	31802.36
612.127	32065.85
612.484	32102.69
612.841	32391.04
613.198	32493.64
613.554	32512.85
613.911	32808.66
614.267	32904.25
614.624	33004.13
614.98	33243.9
615.337	33551.46
615.693	33504.91
616.05	33453.39
616.406	33972.02
616.762	33791
617.118	33967.5
617.475	34070.54
617.831	34308.28
618.187	34312.12
618.543	34443.42
618.899	34728.15
619.255	34683.64
619.611	34801.37
619.967	34972.67
620.323	35175.83
620.678	35125.21
621.034	35042.5
621.39	35136.51
621.746	35253.79
622.101	35724.51
622.457	35396.16
622.812	35466.21
623.168	35735.59
623.523	35833.21
623.879	35934.22
624.234	35738.07
624.589	35976.94
624.945	36115.46
625.3	36155.01
625.655	36166.99
626.01	36224.84
626.365	36377.83
626.72	36331.73
627.075	36434.32
627.43	36438.39
627.785	36293.31
628.14	36486.75
628.495	36579.18
628.85	36665.5
629.205	36555
629.559	36804.26
629.914	36518.84
630.269	36632.51
630.623	36644.94
630.978	36663.25
631.332	36778.27
631.687	36925.84
632.041	36740.53
632.396	36867.76
632.75	36730.36
633.104	36856.23
633.459	36765.39
633.813	36720.87
634.167	36760.64
634.521	36884.26
634.875	36761.32
635.229	36801.77
635.583	36642.68
635.937	36735.33
636.291	36611.27
636.645	36683.13
636.999	36707.76
637.352	36849.23
637.706	36529.46
638.06	36762.68
638.413	36621.66
638.767	36584.15
639.121	36760.87
639.474	36515.45
639.828	36573.98
640.181	36544.6
640.534	36656.01
640.888	36521.1
641.241	36439.52
641.594	36578.95
641.947	36630.25
642.301	36509.35
642.654	36591.83
643.007	36435.68
643.36	36488.79
643.713	36485.62
644.066	36642.91
644.419	36300.32
644.771	36136.03
645.124	35836.15
645.477	35739.65
645.83	35647.68
646.182	35526.55
646.535	35352.32
646.888	35422.83
647.24	35202.27
647.593	35615.14
647.945	35381.92
648.298	35230.74
648.65	35135.83
649.002	35157.3
649.355	35282.04
649.707	35297.41
650.059	35268.93
650.411	35919.31
650.763	35882.25
651.115	36241.56
651.467	36104.84
651.819	36184.16
652.171	36069.59
652.523	35742.59
652.875	35955.69
653.227	35823.49
653.578	36050.83
653.93	36024.84
654.282	35807.9
654.633	35729.03
654.985	35801.8
655.337	35828.46
655.688	35818.97
656.039	35993.66
656.391	35616.04
656.742	35643.38
657.094	35695.13
657.445	35932.42
657.796	35679.54
658.147	35604.52
658.498	35636.61
658.849	35805.64
659.2	35554.12
659.551	35644.29
659.902	35684.29
660.253	35665.31
660.604	35669.82
660.955	35471.41
661.306	35724.29
661.656	35430.51
662.007	35566.78
662.358	35546.21
662.708	35709.6
663.059	35496.27
663.409	35382.15
663.76	35614.69
664.11	35656.49
664.461	35542.82
664.811	35646.32
665.161	35557.96
665.511	35501.47
665.862	35588.92
666.212	35554.12
666.562	35682.25
666.912	35371.08
667.262	35528.13
667.612	35478.64
667.962	35510.51
668.312	35508.47
668.662	35662.37
669.011	35480.9
669.361	35414.01
669.711	35514.57
670.06	35395.71
670.41	35470.51
670.76	35257.41
671.109	35502.82
671.459	35370.4
671.808	35302.83
672.157	35490.39
672.507	35140.8
672.856	35300.79
673.205	35213.34
673.554	35352.77
673.904	35131.08
674.253	35212.66
674.602	35230.74
674.951	34567.93
675.3	34539.46
675.649	35212.44
675.998	35130.18
676.346	35123.4
676.695	35258.99
677.044	35026.45
677.393	35113.23
677.741	35180.8
678.09	35043.17
678.438	34854.71
678.787	35076.62
679.135	35096.73
679.484	34727.93
679.832	35045.21
680.181	34858.32
680.529	34856.29
680.877	34703.75
681.225	34596.18
681.573	34909.62
681.922	34567.03
682.27	34592.11
682.618	34521.15
682.966	34500.14
683.314	34472.12
683.661	34460.59
684.009	34303.31
684.357	34169.07
684.705	34278.22
685.053	34174.72
685.4	34061.51
685.748	33896.09
686.095	34028.51
686.443	33852.92
686.79	33736.32
687.138	33838.46
687.485	33911.23
687.832	33695.19
688.18	33778.12
688.527	33628.75
688.874	33617.22
689.221	33503.78
689.568	33362.09
689.915	33474.4
690.262	33352.6
690.609	33159.38
690.956	33148.31
691.303	33107.86
691.65	33066.05
691.997	32864.93
692.344	32879.39
692.69	32696.34
693.037	32711.48
693.383	32528.66
693.73	32631.71
694.077	32404.83
694.423	32462.68
694.769	32244.38
695.116	32369.35
695.462	32148.34
695.808	32096.13
696.155	32059.3
696.501	31877.83
696.847	31878.06
697.193	31655.24
697.539	31643.49
697.885	31547
698.231	31411.86
698.577	31459.77
698.923	31565.07
699.269	31213.44
699.614	31196.04
699.96	31029.04
700.306	30991.3
700.651	30917.41
700.997	30743.63
701.342	30801.48
701.688	30721.25
702.033	30642.84
702.379	30535.27
702.724	30633.57
703.069	30585.21
703.415	30134.83
703.76	30277.2
704.105	30223.64
704.45	30105.68
704.795	30025.45
705.14	29944.33
705.485	29890.99
705.83	29845.8
706.175	29845.35
706.52	29613.26
706.865	29640.83
707.209	29543.43
707.554	29515.18
707.899	29591.79
708.243	29317.45
708.588	29381.18
708.932	29178.92
709.277	29142.31
709.621	29064.12
709.966	28996.33
710.31	29075.87
710.654	28711.36
710.998	28961.53
711.342	28818.48
711.687	28683.57
712.031	28638.6
712.375	28555.21
712.719	28585.04
713.063	28409.68
713.407	28724.47
713.75	28351.83
714.094	28360.64
714.438	28260.3
714.782	28279.96
715.125	28194.99
715.469	28138.72
715.812	28046.75
716.156	27943.02
716.499	27993.64
716.843	27922.68
717.186	27721.11
717.53	27931.5
717.873	27848.34
718.216	27807.88
718.559	27695.57
718.902	27575.12
719.246	27519.98
719.589	27522.69
719.932	27331.51
720.275	27417.61
720.617	27364.51
720.96	27337.84
721.303	27320.44
721.646	27309.37
721.989	27208.35
722.331	27316.37
722.674	27236.15
723.016	27119.32
723.359	27098.07
723.701	27148.01
724.044	26856.72
724.386	26831.19
724.729	26906.44
725.071	26740.79
725.413	26785.54
725.755	26875.25
726.097	26633.45
726.439	26570.4
726.782	26534.02
727.124	26741.25
727.465	26557.52
727.807	26393.68
728.149	26380.8
728.491	26325.66
728.833	26387.58
729.175	26184.2
729.516	26172.67
729.858	26186.46
730.199	26321.6
730.541	26160.24
730.882	26087.03
731.224	26184.2
731.565	26036.41
731.906	25986.92
732.248	25954.37
732.589	25927.26
732.93	25795.06
733.271	25863.75
733.612	25784.44
733.953	25833.02
734.294	25672.57
734.635	25649.3
734.976	25690.88
735.317	25530.88
735.658	25568.4
735.999	25533.82
736.339	25426.48
736.68	25680.71
737.021	25484.78
737.361	25373.82
737.702	25455.63
738.042	25419.25
738.383	25270.32
738.723	25351.68
739.063	25358.01
739.404	25278.69
739.744	25172.02
740.084	25116.43
740.424	25172.93
740.764	25044.12
741.104	25167.28
741.444	25064.68
741.784	24940.39
742.124	24979.71
742.464	24959.6
742.804	24849.32
743.143	24893.39
743.483	24721.41
743.823	24698.14
744.162	24778.81
744.502	24745.37
744.841	24769.77
745.181	24748.76
745.52	24575.65
745.86	24581.98
746.199	24716.67
746.538	24618.82
746.877	24680.28
747.216	24631.92
747.556	24508.08
747.895	24513.28
748.234	24311.71
748.573	24367.52
748.911	24279.39
749.25	24353.96
749.589	24206.4
749.928	24131.15
750.267	24242.78
750.605	24136.34
750.944	23979.06
751.283	23934.54
751.621	24020.87
751.96	23996.69
752.298	23891.15
752.636	23928.21
752.975	23892.06
753.313	23882.11
753.651	23892.73
753.989	23701.33
754.327	23800.76
754.666	23516.47
755.004	23650.03
755.342	23719.86
755.679	23587.43
756.017	23575.91
756.355	23572.97
756.693	23488.9
757.031	23410.26
757.368	23274.9
757.706	23201.23
758.044	23130.27
758.381	23247.1
758.719	23165.07
759.056	23114.67
759.394	23100.89
759.731	22912.42
760.068	22968.92
760.405	22807.34
760.743	22742.03
761.08	22934.79
761.417	22646.21
761.754	22627.68
762.091	22484.63
762.428	22505.43
762.765	22375.94
763.102	22372.32
763.438	22310.85
763.775	22257.52
764.112	22277.41
764.449	22287.13
764.785	22132.1
765.122	21920.13
765.458	21862.28
765.795	21927.81
766.131	21820.02
766.467	21795.84
766.804	21685.56
767.14	21707.93
767.476	21639.01
767.812	21423.87
768.148	21525.79
768.485	21314.5
768.821	21181.62
769.157	21316.08
769.492	21196.76
769.828	21144.56
770.164	20944.56
770.5	20969.65
770.836	20931.68
771.171	20846.03
771.507	20706.83
771.842	20588.64
772.178	20568.3
772.513	20585.93
772.849	20450.56
773.184	20359.27
773.519	20326.5
773.855	20312.26
774.19	20145.04
774.525	20130.57
774.86	20140.97
775.195	20141.42
775.53	19939.39
775.865	19834.99
776.2	19773.07
776.535	19696.23
776.87	19651.71
777.205	19582.79
777.539	19429.12
777.874	19493.98
778.209	19331.05
778.543	19272.29
778.878	19046.53
779.212	19120.88
779.547	19026.65
779.881	19075.01
780.215	18968.8
780.55	18968.8
780.884	18757.95
781.218	18841.11
781.552	18762.47
781.886	18553.89
782.22	18536.49
782.554	18573.1
782.888	18381.92
783.222	18237.74
783.556	18167.23
783.889	18215.14
784.223	18067.12
784.557	18016.73
784.89	18127.91
785.224	17943.06
785.557	17855.38
785.891	17791.65
786.224	17763.18
786.558	17780.35
786.891	17610.64
787.224	17476.63
787.557	17466.46
787.891	17473.47
788.224	17437.08
788.557	17369.74
788.89	17302.85
789.223	17281.16
789.556	17074.83
789.888	17120.93
790.221	17034.83
790.554	16949.64
790.887	16876.87
791.219	16724.11
791.552	16837.78
791.884	16760.72
792.217	16667.16
792.549	16585.13
792.882	16600.27
793.214	16461.06
793.546	16436.66
793.879	16351.69
794.211	16197.34
794.543	16342.65
794.875	16311.69
795.207	16285.02
795.539	16172.48
795.871	16060.62
796.203	15975.88
796.535	15939.95
796.867	15924.81
797.198	15864.24
797.53	15876.22
797.862	15831.93
798.193	15749.67
798.525	15697.02
798.856	15667.64
799.188	15452.73
799.519	15467.19
799.85	15433.29
800.182	15466.74
800.513	15339.29
800.844	15260.87
801.175	15350.59
801.506	15231.04
801.837	15160.31
802.168	15184.94
802.499	15172.96
802.83	15066.98
803.161	14980.65
803.491	14975.45
803.822	14986.98
804.153	14875.34
804.483	14804.61
804.814	14701.11
805.145	14728.91
805.475	14586.09
805.805	14639.42
806.136	14594.22
806.466	14561.91
806.796	14574.79
807.126	14441
807.457	14377.05
807.787	14481.46
808.117	14238.52
808.447	14175.02
808.777	14250.28
809.107	14366.88
809.436	14148.58
809.766	14249.82
810.096	14112.43
810.426	14060.68
810.755	14171.41
811.085	14016.83
811.414	14026.33
811.744	13878.53
812.073	13933.9
812.403	13862.26
812.732	13735.49
813.061	13763.06
813.39	13679.67
813.719	13549.73
814.049	13767.8
814.378	13631.31
814.707	13588.82
815.036	13551.08
815.365	13505.21
815.693	13415.72
816.022	13492.33
816.351	13347.02
816.68	13330.98
817.008	13347.47
817.337	13226.35
817.665	13259.57
817.994	13263.63
818.322	13208.04
818.651	13148.61
818.979	13045.56
819.307	13157.87
819.636	13157.2
819.964	13030.42
820.292	13162.17
820.62	13120.59
820.948	12955.62
821.276	13075.16
821.604	12965.11
821.932	12974.83
822.259	13035.84
822.587	12905.45
822.915	12930.76
823.243	12953.81
823.57	12897.32
823.898	13010.08
824.225	12912.01
824.553	12883.76
824.88	12950.65
825.207	12999.23
825.535	12912.91
825.862	12896.19
826.189	12916.52
826.516	12927.15
826.843	12972.79
827.17	12890.76
827.497	12919.69
827.824	12869.75
828.151	12996.07
828.478	12859.58
828.805	12922.63
829.131	12842.85
829.458	12804.21
829.785	12798.79
830.111	12835.62
830.438	12909.75
830.764	12858
831.09	12866.81
831.417	12837.88
831.743	12839.46
832.069	12862.29
832.395	12817.77
832.722	12804.89
833.048	12741.16
833.374	12762.18
833.7	12764.66
834.026	12852.35
834.351	12779.81
834.677	12739.35
835.003	12758.56
835.329	12671.33
835.654	12693.48
835.98	12653.71
836.306	12585.01
836.631	12540.94
836.956	12617.1
837.282	12636.08
837.607	12620.04
837.932	12590.88
838.258	12582.3
838.583	12548.85
838.908	12526.7
839.233	12540.26
839.558	12514.73
839.883	12358.8
840.208	12376.2
840.533	12357.67
840.858	12364.45
841.182	12407.39
841.507	12347.27
841.832	12158.8
842.156	12280.16
842.481	12171.01
842.805	12216.43
843.13	12119.94
843.454	12180.05
843.778	12112.48
844.103	12075.19
844.427	12041.75
844.751	12008.75
845.075	11950.45
845.399	12003.78
845.723	11871.13
846.047	11898.02
846.371	11861.41
846.695	11802.88
847.019	11660.51
847.343	11675.65
847.666	11564.7
847.99	11523.57
848.313	11561.76
848.637	11504.81
848.96	11466.85
849.284	11570.57
849.607	11364.7
849.931	11328.77
850.254	11262.33
850.577	11227.76
850.9	11176.68
851.223	11088.1
851.546	11137.36
851.869	11030.02
852.192	11038.38
852.515	10882
852.838	10895.33
853.161	10915.9
853.483	10820.08
853.806	10760.88
854.129	10826.64
854.451	10776.69
854.774	10746.41
855.096	10622.57
855.419	10637.94
855.741	10563.59
856.063	10612.86
856.385	10544.16
856.708	10428.68
857.03	10446.53
857.352	10499.64
857.674	10397.49
857.996	10432.97
858.318	10331.28
858.64	10330.15
858.961	10305.07
859.283	10270.49
859.605	10225.75
859.926	10238.86
860.248	10189.14
860.57	10175.58
860.891	10143.72
861.212	10103.04
861.534	10028.24
861.855	10128.12
862.176	10062.36
862.498	10020.1
862.819	10027.11
863.14	10004.96
863.461	9962.93
863.782	9873.89
864.103	9927.45
864.424	9837.28
864.745	9918.41
865.065	9849.71
865.386	9861.69
865.707	9838.41
866.027	9808.58
866.348	9765.42
866.668	9772.88
866.989	9697.63
867.309	9658.53
867.63	9733.56
867.95	9721.13
868.27	9648.81
868.59	9595.26
868.91	9649.27
869.23	9705.99
869.55	9594.8
869.87	9628.02
870.19	9572.66
870.51	9532.21
870.83	9550.96
871.15	9461.7
871.469	9575.82
871.789	9531.3
872.109	9626.44
872.428	9478.65
872.748	9475.03
873.067	9474.13
873.386	9477.29
873.706	9420.8
874.025	9414.24
874.344	9382.15
874.663	9419.89
874.982	9382.83
875.301	9290.41
875.62	9420.35
875.939	9310.52
876.258	9315.72
876.577	9212.44
876.896	9205.21
877.214	9227.81
877.533	9294.93
877.852	9244.76
878.17	9289.05
878.489	9194.14
878.807	9193.68
879.125	9190.07
879.444	9179.45
879.762	9159.34
880.08	9148.26
880.398	9068.72
880.716	9144.19
881.034	9043.63
881.352	9025.55
881.67	9037.98
881.988	8965.44
882.306	8997.31
882.624	8973.8
882.941	8908.27
883.259	8905.1
883.577	8875.73
883.894	8832.34
884.212	8866.01
884.529	8889.96
884.846	8801.38
885.164	8767.48
885.481	8781.72
885.798	8794.37
886.115	8674.15
886.432	8784.66
886.75	8727.93
887.067	8687.94
887.383	8597.32
887.7	8647.26
888.017	8594.83
888.334	8623.76
888.651	8530.43
888.967	8523.65
889.284	8497.66
889.6	8471.67
889.917	8371.56
890.233	8409.3
890.55	8486.13
890.866	8398.45
891.182	8351.67
891.498	8344.89
891.815	8362.07
892.131	8333.37
892.447	8247.72
892.763	8242.75
893.079	8127.05
893.395	8211.11
893.71	8219.93
894.026	8177.67
894.342	8082.3
894.657	8083.21
894.973	8071.23
895.289	8066.93
895.604	8110.78
895.92	7980.61
896.235	8015.18
896.55	7964.56
896.865	7901.97
897.181	7914.17
897.496	7889.99
897.811	7835.08
898.126	7786.72
898.441	7778.13
898.756	7781.29
899.071	7754.17
899.386	7695.19
899.7	7627.85
900.015	7664.23
900.33	7615.65
900.644	7538.14
900.959	7617.46
901.273	7568.64
901.588	7505.14
901.902	7479.38
902.216	7408.2
902.531	7435.76
902.845	7358.7
903.159	7398.03
903.473	7335.65
903.787	7264.92
904.101	7281.87
904.415	7301.53
904.729	7240.06
905.042	7235.54
905.356	7187.86
905.67	7165.49
905.984	7226.05
906.297	7099.73
906.611	7069.45
906.924	7057.47
907.237	7036.68
907.551	7041.43
907.864	6970.92
908.177	6995.55
908.491	6933.63
908.804	6939.28
909.117	6882.11
909.43	6846.18
909.743	6762.79
910.056	6787.87
910.368	6735.44
910.681	6709.68
910.994	6729.34
911.307	6693.41
911.619	6658.84
911.932	6688.89
912.244	6609.35
912.557	6612.74
912.869	6529.12
913.181	6519.18
913.494	6456.13
913.806	6474.43
914.118	6423.59
914.43	6413.42
914.742	6450.71
915.054	6418.84
915.366	6337.71
915.678	6335.23
915.99	6283.25
916.302	6247.77
916.613	6186.76
916.925	6183.14
917.236	6201
917.548	6157.83
917.859	6170.04
918.171	6138.17
918.482	6052.07
918.794	6033.99
919.105	6012.98
919.416	6012.53
919.727	5984.28
920.038	5975.24
920.349	5923.71
920.66	5923.49
920.971	5924.62
921.282	5870.83
921.593	5866.31
921.903	5805.3
922.214	5743.38
922.525	5802.59
922.835	5704.29
923.146	5700.67
923.456	5730.73
923.767	5667.45
924.077	5653.44
924.387	5604.4
924.697	5575.93
925.008	5562.37
925.318	5572.76
925.628	5563.72
925.938	5541.13
926.248	5456.83
926.558	5460.22
926.867	5468.59
927.177	5401.24
927.487	5362.83
927.796	5371.19
928.106	5332.77
928.416	5323.5
928.725	5300.68
929.034	5298.87
929.344	5269.49
929.653	5266.56
929.962	5228.59
930.271	5187.69
930.581	5173.45
930.89	5093
931.199	5102.04
931.508	5108.37
931.817	5116.5
932.125	5077.41
932.434	5071.08
932.743	5002.38
933.051	5006.68
933.36	4949.5
933.669	4938.43
933.977	4973.46
934.286	4873.8
934.594	4887.81
934.902	4855.27
935.21	4867.24
935.519	4829.28
935.827	4808.04
936.135	4820.92
936.443	4796.51
936.751	4730.53
937.059	4765.1
937.367	4673.8
937.674	4721.26
937.982	4692.11
938.29	4619.57
938.597	4628.61
938.905	4587.25
939.213	4595.39
939.52	4583.64
939.827	4525.78
940.135	4573.47
940.442	4503.19
940.749	4530.76
941.056	4491.89
941.363	4446.47
941.67	4458.89
941.977	4421.38
942.284	4379.35
942.591	4376.64
942.898	4375.28
943.205	4327.82
943.511	4307.03
943.818	4299.8
944.125	4289.86
944.431	4240.14
944.738	4262.29
945.044	4208.28
945.35	4211.89
945.657	4178
945.963	4180.94
946.269	4143.87
946.575	4150.43
946.881	4107.72
947.187	4089.41
947.493	4098.9
947.799	4098.23
948.105	4043.09
948.41	3987.72
948.716	4011.67
949.022	3993.82
949.327	4002.63
949.633	3971.9
949.938	4000.83
950.244	3947.5
950.549	3936.2
950.854	3906.37
951.16	3862.07
951.465	3858.91
951.77	3806.26
952.075	3865.46
952.38	3788.63
952.685	3795.41
952.99	3755.64
953.294	3763.55
953.599	3752.7
953.904	3733.04
954.209	3699.37
954.513	3719.25
954.818	3668.86
955.122	3663.21
955.426	3678.35
955.731	3656.43
956.035	3628.41
956.339	3617.11
956.643	3637.67
956.948	3570.56
957.252	3529.43
957.556	3558.8
957.86	3556.54
958.163	3524.91
958.467	3472.25
958.771	3485.81
959.075	3539.14
959.378	3454.85
959.682	3490.11
959.985	3435.64
960.289	3439.71
960.592	3426.83
960.896	3379.37
961.199	3374.4
961.502	3317.91
961.805	3353.61
962.108	3331.69
962.411	3323.56
962.714	3272.26
963.017	3295.53
963.32	3286.04
963.623	3250.11
963.926	3239.72
964.228	3219.6
964.531	3224.35
964.833	3224.35
965.136	3189.77
965.438	3180.74
965.741	3154.52
966.043	3176.67
966.345	3130.12
966.648	3175.54
966.95	3093.51
967.252	3073.39
967.554	3067.29
967.856	3092.6
968.158	3082.43
968.46	3030.91
968.761	2996.79
969.063	2999.05
969.365	3000.63
969.666	2984.81
969.968	2939.61
970.269	2953.62
970.571	2962.44
970.872	2927.41
971.174	2943.68
971.475	2905.71
971.776	2921.99
972.077	2880.63
972.378	2917.24
972.679	2897.13
972.98	2801.76
973.281	2813.74
973.582	2862.78
973.883	2819.62
974.183	2839.95
974.484	2789.56
974.785	2780.52
975.085	2750.46
975.386	2726.28
975.686	2761.31
975.986	2758.83
976.287	2724.25
976.587	2709.34
976.887	2692.39
977.187	2676.79
977.487	2662.11
977.787	2642.22
978.087	2630.24
978.387	2640.41
978.687	2641.09
978.987	2619.85
979.286	2639.05
979.586	2616.68
979.885	2582.11
980.185	2545.05
980.484	2591.37
980.784	2551.37
981.083	2549.11
981.382	2526.74
981.682	2556.8
981.981	2489
982.28	2514.54
982.579	2450.81
982.878	2487.42
983.177	2491.26
983.475	2492.17
983.774	2447.87
984.073	2431.83
984.372	2425.28
984.67	2427.54
984.969	2432.51
985.267	2397.93
985.566	2376.91
985.864	2360.19
986.162	2327.65
986.461	2344.6
986.759	2352.06
987.057	2326.29
987.355	2282.45
987.653	2315.45
987.951	2296.01
988.249	2291.49
988.547	2289.69
988.844	2241.78
989.142	2284.04
989.44	2222.12
989.737	2216.24
990.035	2204.94
990.332	2251.04
990.63	2199.52
990.927	2178.95
991.224	2195.68
991.521	2199.07
991.819	2155.23
992.116	2141.44
992.413	2163.59
992.71	2161.1
993.006	2153.87
993.303	2132.85
993.6	2089.46
993.897	2103.25
994.193	2081.78
994.49	2096.24
994.787	2053.76
995.083	2042.01
995.379	2073.19
995.676	2049.01
995.972	2027.77
996.268	2018.28
996.565	2015.34
996.861	1985.96
997.157	1986.87
997.453	2016.02
997.749	1971.73
998.044	1953.42
998.34	1969.02
998.636	1919.53
998.932	1941.45
999.227	1948.9
999.523	1916.59
999.818	1906.42
1000.114	1922.01
1000.409	1890.6
1000.704	1867.55
1001	1897.38
1001.295	1842.47
1001.59	1860.77
1001.885	1850.83
1002.18	1842.01
1002.475	1814.44
1002.77	1824.84
1003.065	1778.74
1003.359	1812.18
1003.654	1771.06
1003.949	1746.65
1004.243	1769.25
1004.538	1752.3
1004.832	1795.69
1005.127	1746.2
1005.421	1752.98
1005.715	1743.03
1006.009	1713.2
1006.304	1701
1006.598	1637.27
1006.892	1688.8
1007.186	1672.75
1007.48	1653.54
1007.773	1638.18
1008.067	1615.8
1008.361	1609.48
1008.655	1620.78
1008.948	1611.51
1009.242	1617.84
1009.535	1600.44
1009.829	1589.59
1010.122	1588.69
1010.415	1559.31
1010.708	1579.65
1011.001	1575.35
1011.295	1519.31
1011.588	1539.42
1011.881	1531.06
1012.173	1508.01
1012.466	1519.08
1012.759	1503.72
1013.052	1488.8
1013.344	1467.11
1013.637	1489.03
1013.93	1468.46
1014.222	1449.03
1014.514	1455.36
1014.807	1455.58
1015.099	1421.23
1015.391	1446.54
1015.683	1409.93
1015.976	1421.46
1016.268	1423.95
1016.56	1388.24
1016.851	1413.32
1017.143	1354.12
1017.435	1358.41
1017.727	1375.13
1018.018	1341.46
1018.31	1343.27
1018.602	1345.08
1018.893	1319.32
1019.185	1334
1019.476	1306.43
1019.767	1295.36
1020.058	1306.43
1020.35	1278.19
1020.641	1269.15
1020.932	1296.49
1021.223	1307.34
1021.514	1267.57
1021.804	1258.98
1022.095	1277.28
1022.386	1244.97
1022.677	1226.66
1022.967	1225.76
1023.258	1221.69
1023.548	1194.35
1023.839	1174.23
1024.129	1151.41
1024.419	1190.51
1024.709	1172.2
1025	1159.09
1025.29	1144.86
1025.58	1142.37
1025.87	1144.63
1026.16	1126.33
1026.449	1150.28
1026.739	1130.17
1027.029	1099.66
1027.319	1129.49
1027.608	1105.31
1027.898	1104.41
1028.187	1086.55
1028.477	1061.02
1028.766	1091.07
1029.055	1040.23
1029.344	1060.79
1029.634	1064.18
1029.923	1051.98
1030.212	1059.89
1030.501	1038.42
1030.79	1024.41
1031.078	1025.76
1031.367	1051.75
1031.656	1007.01
1031.945	1003.39
1032.233	1031.41
1032.522	974.01
1032.81	992.77
1033.099	997.06
1033.387	992.54
1033.675	956.84
1033.963	968.14
1034.251	957.07
1034.54	971.75
1034.828	950.96
1035.116	920.91
1035.403	931.76
1035.691	935.37
1035.979	934.47
1036.267	917.07
1036.554	917.97
1036.842	884.07
1037.129	931.08
1037.417	876.62
1037.704	899.67
1037.992	881.14
1038.279	877.52
1038.566	899.89
1038.853	899.89
1039.14	899.89
