Data from hue_330_FLMS001491_82.txt Node
Date: Mon Feb 06 15:46:02 GMT 2017
User: dcchb
Spectrometer: FLMS00149
Trigger mode: 0
Integration Time (sec): 2.000000E-2
Scans to average: 10
Electric dark correction enabled: true
Nonlinearity correction enabled: false
Boxcar width: 0
XAxis mode: Wavelengths
Number of Pixels in Spectrum: 2048
>>>>>Begin Spectral Data<<<<<
341.393	-6.06
341.776	-6.06
342.16	-6.06
342.543	-71.59
342.927	-56.91
343.31	-71.37
343.693	-66.85
344.077	-56
344.46	-66.17
344.843	-57.13
345.226	-64.36
345.61	-37.7
345.993	-6.06
346.376	1.85
346.759	18.8
347.142	27.61
347.525	27.16
347.908	81.4
348.291	81.62
348.674	88.18
349.057	99.02
349.44	135.86
349.823	147.84
350.206	179.47
350.588	211.34
350.971	217.66
351.354	226.7
351.737	243.2
352.119	276.65
352.502	266.02
352.884	275.74
353.267	279.36
353.65	306.47
354.032	306.25
354.414	303.09
354.797	306.93
355.179	336.98
355.562	325.91
355.944	341.5
356.326	330.43
356.709	343.54
357.091	344.67
357.473	338.79
357.855	346.02
358.238	341.5
358.62	335.63
359.002	351.45
359.384	324.55
359.766	354.84
360.148	358.9
360.53	364.33
360.912	325.68
361.294	348.28
361.676	333.37
362.057	354.84
362.439	329.53
362.821	324.55
363.203	313.03
363.584	312.58
363.966	332.24
364.348	338.56
364.729	330.43
365.111	334.72
365.493	332.91
365.874	303.31
366.256	298.79
366.637	323.42
367.019	329.75
367.4	322.52
367.781	320.49
368.163	313.25
368.544	323.2
368.925	304.44
369.306	329.53
369.688	307.38
370.069	324.1
370.45	302.86
370.831	310.09
371.212	323.65
371.593	322.75
371.974	340.37
372.355	313.48
372.736	339.47
373.117	343.99
373.498	317.32
373.879	309.19
374.26	324.33
374.641	318.68
375.021	320.71
375.402	341.73
375.783	336.76
376.163	341.73
376.544	357.1
376.925	326.81
377.305	337.21
377.686	315.74
378.066	345.12
378.447	329.53
378.827	332.01
379.208	355.06
379.588	336.08
379.968	334.72
380.349	321.62
380.729	351.67
381.109	339.24
381.489	348.28
381.87	346.25
382.25	353.71
382.63	336.76
383.01	348.28
383.39	354.38
383.77	355.29
384.15	341.95
384.53	363.87
384.91	337.43
385.29	364.1
385.67	346.47
386.049	350.77
386.429	350.32
386.809	341.5
387.189	358.23
387.568	329.75
387.948	385.57
388.328	357.32
388.707	379.02
389.087	344.44
389.466	362.29
389.846	373.14
390.225	386.25
390.605	383.54
390.984	367.04
391.363	377.43
391.743	380.6
392.122	360.48
392.501	368.62
392.881	378.11
393.26	390.54
393.639	376.3
394.018	389.18
394.397	409.98
394.776	392.8
395.155	388.96
395.534	387.38
395.913	416.75
396.292	395.51
396.671	402.07
397.05	414.27
397.429	403.42
397.808	402.97
398.186	397.09
398.565	394.16
398.944	420.6
399.323	403.2
399.701	406.81
400.08	419.92
400.458	406.36
400.837	410.43
401.215	414.95
401.594	412.69
401.972	410.2
402.351	428.05
402.729	414.72
403.107	432.57
403.486	442.06
403.864	442.29
404.242	408.85
404.62	425.79
404.999	433.03
405.377	436.64
405.755	428.05
406.133	436.87
406.511	453.59
406.889	463.76
407.267	443.65
407.645	461.95
408.023	456.75
408.401	485
408.779	465.34
409.156	467.6
409.534	460.82
409.912	477.09
410.29	496.75
410.667	493.36
411.045	493.59
411.422	515.28
411.8	479.35
412.178	512.8
412.555	531.55
412.933	546.69
413.31	526.58
413.687	531.55
414.065	550.31
414.442	555.51
414.819	538.33
415.197	595.05
415.574	558.9
415.951	573.13
416.328	565.45
416.705	591.21
417.082	579.91
417.46	595.51
417.837	610.2
418.214	610.42
418.591	600.25
418.967	618.11
419.344	627.82
419.721	625.79
420.098	635.73
420.475	662.17
420.852	633.92
421.228	660.59
421.605	633.25
421.982	668.27
422.358	674.6
422.735	657.43
423.111	673.7
423.488	680.48
423.864	693.36
424.241	676.86
424.617	726.35
424.994	707.82
425.37	731.55
425.746	732.68
426.123	727.48
426.499	748.95
426.875	764.77
427.251	746.24
427.627	757.08
428.003	752.11
428.379	778.55
428.756	796.63
429.132	793.47
429.507	796.63
429.883	813.81
430.259	841.83
430.635	832.79
431.011	822.17
431.387	851.77
431.763	861.26
432.138	860.58
432.514	866.69
432.89	887.25
433.265	890.19
433.641	884.76
434.016	893.8
434.392	933.35
434.767	935.16
435.143	945.33
435.518	942.39
435.894	958.44
436.269	991.88
436.644	976.74
437.02	960.92
437.395	986.23
437.77	988.26
438.145	1006.8
438.52	1023.52
438.895	1019.9
439.271	1029.17
439.646	1052.9
440.021	1039.79
440.395	1065.55
440.77	1010.86
441.145	1053.12
441.52	1091.09
441.895	1080.01
442.27	1092.44
442.645	1070.3
443.019	1068.49
443.394	1090.86
443.769	1080.92
444.143	1113.69
444.518	1118.88
444.892	1126.11
445.267	1125.44
445.641	1110.97
446.016	1121.82
446.39	1118.66
446.764	1141.26
447.139	1149.62
447.513	1175.6
447.887	1154.59
448.262	1152.78
448.636	1136.28
449.01	1191.2
449.384	1195.49
449.758	1175.6
450.132	1188.03
450.506	1211.54
450.88	1193.46
451.254	1206.34
451.628	1208.6
452.002	1208.6
452.376	1237.75
452.75	1242.27
453.123	1265.32
453.497	1237.75
453.871	1272.33
454.244	1275.94
454.618	1284.75
454.992	1316.39
455.365	1298.09
455.739	1338.09
456.112	1301.7
456.486	1323.62
456.859	1314.13
457.232	1373.34
457.606	1355.03
457.979	1369.27
458.352	1394.58
458.725	1416.95
459.099	1427.35
459.472	1415.15
459.845	1419.21
460.218	1473.9
460.591	1465.77
460.964	1447.24
461.337	1479.78
461.71	1506.22
462.083	1525.88
462.456	1557.52
462.829	1531.08
463.201	1530.85
463.574	1552.32
463.947	1561.36
464.32	1592.32
464.692	1612.66
465.065	1621.02
465.438	1620.79
465.81	1623.05
466.183	1664.41
466.555	1671.18
466.928	1676.61
467.3	1689.04
467.672	1697.17
468.045	1727.68
468.417	1735.36
468.789	1754.35
469.161	1770.17
469.534	1810.84
469.906	1822.37
470.278	1845.64
470.65	1860.11
471.022	1879.99
471.394	1933.32
471.766	1894.68
472.138	1949.6
472.51	1965.41
472.882	1972.87
473.253	2004.28
473.625	2028.69
473.997	2091.06
474.369	2063.49
474.74	2089.03
475.112	2134.22
475.484	2128.8
475.855	2185.3
476.227	2183.26
476.598	2215.13
476.97	2261.68
477.341	2292.19
477.713	2313.43
478.084	2353.88
478.455	2415.12
478.827	2396.14
479.198	2439.75
479.569	2422.8
479.94	2504.84
480.311	2504.16
480.682	2590.48
481.053	2638.39
481.424	2661.89
481.795	2665.51
482.166	2702.34
482.537	2715.23
482.908	2782.79
483.279	2804.49
483.65	2826.18
484.021	2859.4
484.391	2950.47
484.762	2940.76
485.133	2944.37
485.503	3016.69
485.874	3061.66
486.244	3082.22
486.615	3138.72
486.985	3129.68
487.356	3206.06
487.726	3232.73
488.097	3240.18
488.467	3277.7
488.837	3311.82
489.207	3353.63
489.578	3388.65
489.948	3387.75
490.318	3445.38
490.688	3460.52
491.058	3567.41
491.428	3561.3
491.798	3598.14
492.168	3660.51
492.538	3656.67
492.908	3707.52
493.278	3777.34
493.648	3740.51
494.017	3789.32
494.387	3809.43
494.757	3843.78
495.126	3895.99
495.496	3851.47
495.866	3944.12
496.235	3927.17
496.605	3955.19
496.974	3970.79
497.344	4000.16
497.713	4072.7
498.082	4068.41
498.452	4105.92
498.821	4119.93
499.19	4130.56
499.559	4154.06
499.928	4154.06
500.298	4197.67
500.667	4249.65
501.036	4238.35
501.405	4278.8
501.774	4293.71
502.143	4302.08
502.512	4331.45
502.88	4340.27
503.249	4377.55
503.618	4332.81
503.987	4347.27
504.356	4424.56
504.724	4448.29
505.093	4449.42
505.462	4422.07
505.83	4472.92
506.199	4451.68
506.567	4580.94
506.936	4558.11
507.304	4587.04
507.672	4569.41
508.041	4626.36
508.409	4664.33
508.777	4685.57
509.145	4703.2
509.514	4707.72
509.882	4728.05
510.25	4683.54
510.618	4733.93
510.986	4776.64
511.354	4766.7
511.722	4820.48
512.09	4844.21
512.458	4846.24
512.826	4890.76
513.193	4855.28
513.561	4893.02
513.929	4921.49
514.297	4920.36
514.664	4986.58
515.032	4949.06
515.4	4975.28
515.767	5022.74
516.135	5023.41
516.502	5008.5
516.869	5073.58
517.237	5084.88
517.604	5000.36
517.972	5075.84
518.339	5104.54
518.706	5110.64
519.073	5104.54
519.44	5188.83
519.808	5182.28
520.175	5194.48
520.542	5227.7
520.909	5274.48
521.276	5261.37
521.643	5263.18
522.009	5286.01
522.376	5332.56
522.743	5361.03
523.11	5387.7
523.477	5414.14
523.843	5404.87
524.21	5482.84
524.577	5510.41
524.943	5568.26
525.31	5568.94
525.676	5557.18
526.043	5615.04
526.409	5647.35
526.776	5689.16
527.142	5682.15
527.508	5774.35
527.874	5770.29
528.241	5784.52
528.607	5798.53
528.973	5859.55
529.339	5848.25
529.705	5932.99
530.071	5970.05
530.437	5985.87
530.803	5989.94
531.169	6035.82
531.535	5991.3
531.901	6057.06
532.267	6045.08
532.632	6049.83
532.998	6095.25
533.364	6179.31
533.73	6159.43
534.095	6177.06
534.461	6281.91
534.826	6260.89
535.192	6340.67
535.557	6339.08
535.923	6320.33
536.288	6372.76
536.653	6385.41
537.019	6382.7
537.384	6405.98
537.749	6417.5
538.114	6560.77
538.479	6485.75
538.845	6485.07
539.21	6511.06
539.575	6567.33
539.94	6623.15
540.305	6630.38
540.67	6649.36
541.034	6602.35
541.399	6700.66
541.764	6737.49
542.129	6711.05
542.494	6740.88
542.858	6803.93
543.223	6829.47
543.587	6839.18
543.952	6900.2
544.316	6846.19
544.681	6933.19
545.045	6982.68
545.41	7016.36
545.774	7030.59
546.138	7028.33
546.503	7066.07
546.867	7058.39
547.231	7188.33
547.595	7163.7
547.959	7197.59
548.324	7212.73
548.688	7208.44
549.052	7270.13
549.416	7235.11
549.779	7255.22
550.143	7251.38
550.507	7351.94
550.871	7441.88
551.235	7387.64
551.599	7392.84
551.962	7420.19
552.326	7445.5
552.689	7528.66
553.053	7461.09
553.417	7540.18
553.78	7572.27
554.143	7574.31
554.507	7595.55
554.87	7600.75
555.234	7689.11
555.597	7641.65
555.96	7710.35
556.323	7678.71
556.686	7719.39
557.05	7780.63
557.413	7749.44
557.776	7752.15
558.139	7832.6
558.502	7864.69
558.865	7885.26
559.228	7957.35
559.59	8019.27
559.953	7926.84
560.316	8033.96
560.679	8009.32
561.041	8113.28
561.404	8087.06
561.767	8085.25
562.129	8141.3
562.492	8168.87
562.854	8213.84
563.217	8223.78
563.579	8214.74
563.941	8232.14
564.304	8278.47
564.666	8385.13
565.028	8327.06
565.39	8390.33
565.753	8419.71
566.115	8422.65
566.477	8416.32
566.839	8527.73
567.201	8565.01
567.563	8490.44
567.925	8612.47
568.287	8679.14
568.648	8662.19
569.01	8693.6
569.372	8759.59
569.734	8714.62
570.095	8693.37
570.457	8836.65
570.819	8859.92
571.18	8859.02
571.542	8909.64
571.903	8927.72
572.265	9007.49
572.626	9059.47
572.987	9076.19
573.349	9113.48
573.71	9217.43
574.071	9221.49
574.432	9253.13
574.794	9415.16
575.155	9414.26
575.516	9425.56
575.877	9505.78
576.238	9555.95
576.599	9648.83
576.96	9686.57
577.32	9822.38
577.681	9879.78
578.042	9946
578.403	9971.76
578.763	10069.83
579.124	10177.85
579.485	10356.83
579.845	10401.8
580.206	10543.04
580.566	10648.35
580.927	10763.6
581.287	10834.11
581.648	10950.26
582.008	11109.81
582.368	11190.93
582.728	11346.64
583.089	11551.83
583.449	11657.14
583.809	11810.81
584.169	12024.13
584.529	12192.49
584.889	12475.87
585.249	12571.46
585.609	12738.46
585.969	13047.16
586.329	13113.82
586.688	13375.51
587.048	13631.55
587.408	13688.95
587.768	13960.81
588.127	14182.95
588.487	14459.55
588.846	14787.45
589.206	15005.98
589.565	15218.4
589.925	15534.78
590.284	15663.81
590.643	16032.84
591.003	16332.95
591.362	16509.89
591.721	16768.19
592.08	16977.9
592.44	17393.94
592.799	17619.92
593.158	17912.57
593.517	18147.14
593.876	18397.98
594.235	18647.91
594.593	19035.93
594.952	19348.01
595.311	19619.41
595.67	19916.58
596.029	20300.3
596.387	20571.48
596.746	20885.59
597.104	21038.81
597.463	21290.56
597.822	21769.41
598.18	21898.68
598.538	22280.36
598.897	22612.1
599.255	22635.15
599.613	23221.8
599.972	23415.7
600.33	23675.58
600.688	23899.07
601.046	24205.73
601.404	24559.85
601.762	24772.27
602.12	25185.59
602.478	25465.59
602.836	25711.68
603.194	25807.27
603.552	26133.14
603.91	26230.09
604.268	26783.97
604.625	26828.04
604.983	27262.83
605.341	27328.82
605.698	27724.06
606.056	28054.9
606.413	28176.25
606.771	28500.99
607.128	28642
607.485	28746.18
607.843	29107.75
608.2	29434.52
608.557	29650.79
608.914	29756.77
609.272	30117.22
609.629	30260.26
609.986	30562.63
610.343	30592.91
610.7	31190.63
611.057	31118.77
611.414	31407.35
611.771	31553.34
612.127	31848.92
612.484	32000.1
612.841	32266.99
613.198	32368.46
613.554	32471.05
613.911	32852.06
614.267	33066.07
614.624	33140.19
614.98	33239.17
615.337	33666.28
615.693	33669.21
616.05	33670.12
616.406	34080.05
616.762	33959.6
617.118	34219.26
617.475	34416.31
617.831	34516.42
618.187	34711.45
618.543	34900.37
618.899	35176.97
619.255	35167.25
619.611	35243.41
619.967	35556.62
620.323	35788.03
620.678	35711.42
621.034	35706.22
621.39	35895.37
621.746	35761.81
622.101	36356.6
622.457	36275.25
622.812	36303.72
623.168	36434.11
623.523	36487.67
623.879	36746.65
624.234	36499.42
624.589	36834.33
624.945	36957.49
625.3	36975.12
625.655	37036.58
626.01	37096.69
626.365	37171.27
626.72	37139.86
627.075	37253.75
627.43	37206.07
627.785	37261.21
628.14	37404.26
628.495	37573.29
628.85	37537.36
629.205	37454.42
629.559	37804.25
629.914	37715.43
630.269	37758.6
630.623	37636.79
630.978	37613.52
631.332	37903.9
631.687	38051.7
632.041	37862.1
632.396	37982.55
632.75	37763.57
633.104	38001.3
633.459	37812.83
633.813	37953.17
634.167	37973.06
634.521	38000.4
634.875	38000.85
635.229	38046.73
635.583	37836.34
635.937	37967.63
636.291	37956.11
636.645	37955.88
636.999	37951.36
637.352	38138.93
637.706	37816.22
638.06	38089.21
638.413	37940.29
638.767	37901.42
639.121	38025.26
639.474	37886.73
639.828	37913.85
640.181	37974.86
640.534	37968.31
640.888	37880.4
641.241	37773.96
641.594	37920.4
641.947	37970.57
642.301	37862.78
642.654	37912.27
643.007	37945.03
643.36	37908.88
643.713	37776.68
644.066	37924.02
644.419	37796.56
644.771	37598.38
645.124	37248.78
645.477	37249.01
645.83	36983.25
646.182	36885.4
646.535	36701
646.888	36907.55
647.24	36558.18
647.593	36767.89
647.945	36731.28
648.298	36642.24
648.65	36450.84
649.002	36506.2
649.355	36706.65
649.707	36567.67
650.059	36658.51
650.411	37193.41
650.763	37143.02
651.115	37465.95
651.467	37438.38
651.819	37522.22
652.171	37342.34
652.523	37211.72
652.875	37387.31
653.227	37196.8
653.578	37418.04
653.93	37362
654.282	37253.3
654.633	37128.56
654.985	37300.08
655.337	37258.05
655.688	37289.68
656.039	37308.67
656.391	37021.44
656.742	37042.01
657.094	37319.29
657.445	37322.9
657.796	37226.41
658.147	37200.19
658.498	37162.68
658.849	37195.9
659.2	37272.06
659.551	37012.18
659.902	37248.78
660.253	37156.13
660.604	37185.96
660.955	36898.73
661.306	37106.86
661.656	37032.06
662.007	37048.33
662.358	37166.52
662.708	37037.94
663.059	37004.72
663.409	36940.54
663.76	37132.4
664.11	36895.8
664.461	37166.75
664.811	37091.95
665.161	37041.55
665.511	36921.78
665.862	37090.14
666.212	37096.47
666.562	37034.1
666.912	37098.5
667.262	36869.81
667.612	36963.36
667.962	36943.25
668.312	36849.69
668.662	37010.14
669.011	36909.13
669.361	36917.49
669.711	36755.01
670.06	36738.74
670.41	36722.92
670.76	36848.34
671.109	36950.26
671.459	36888.79
671.808	36847.66
672.157	36857.83
672.507	36704.16
672.856	36799.07
673.205	36681.79
673.554	37072.29
673.904	36653.54
674.253	36841.11
674.602	36803.14
674.951	36344.4
675.3	36013.56
675.649	36688.8
675.998	36610.15
676.346	36494
676.695	36792.75
677.044	36447.67
677.393	36591.17
677.741	36584.17
678.09	36391.85
678.438	36458.74
678.787	36565.63
679.135	36427.33
679.484	36172.65
679.832	36450.61
680.181	36310.5
680.529	36360.67
680.877	36187.57
681.225	36160
681.573	36327
681.922	36086.33
682.27	36083.16
682.618	36049.49
682.966	35846.11
683.314	35993.45
683.661	35886.78
684.009	35670.29
684.357	35553.68
684.705	35582.84
685.053	35697.86
685.4	35726.11
685.748	35440.92
686.095	35513.01
686.443	35434.36
686.79	35297.65
687.138	35209.74
687.485	35214.48
687.832	35161.6
688.18	35260.36
688.527	35056.52
688.874	34972
689.221	34983.53
689.568	34896.07
689.915	34820.14
690.262	34754.16
690.609	34651.33
690.956	34607.49
691.303	34582.41
691.65	34412.92
691.997	34508.74
692.344	34247.73
692.69	34153.04
693.037	34231.91
693.383	33982.2
693.73	34151.23
694.077	33901.07
694.423	33815.42
694.769	33833.05
695.116	33790.34
695.462	33547.86
695.808	33630.12
696.155	33612.72
696.501	33399.84
696.847	33270.58
697.193	33349.9
697.539	33263.12
697.885	33076.23
698.231	32894.54
698.577	32907.2
698.923	32821.55
699.269	32722.8
699.614	32577.72
699.96	32513.99
700.306	32476.25
700.651	32390.6
700.997	32326.88
701.342	32222.25
701.688	32258.86
702.033	32088.01
702.379	32036.04
702.724	32022.03
703.069	32076.26
703.415	31650.96
703.76	31648.7
704.105	31624.52
704.45	31652.54
704.795	31447.8
705.14	31483.96
705.485	31425.43
705.83	31149.05
706.175	31251.65
706.52	31084.87
706.865	31176.4
707.209	30924.2
707.554	30933.01
707.899	31015.72
708.243	30897.99
708.588	30988.38
708.932	30538.67
709.277	30613.02
709.621	30606.24
709.966	30464.55
710.31	30551.33
710.654	30289.64
710.998	30274.73
711.342	30300.49
711.687	30192.69
712.031	30076.09
712.375	29890.78
712.719	30015.3
713.063	29965.36
713.407	29994.51
713.75	29961.97
714.094	29783.21
714.438	29636.78
714.782	29710
715.125	29430
715.469	29578.02
715.812	29288.54
716.156	29290.57
716.499	29315.43
716.843	29194.3
717.186	29145.49
717.53	29330.12
717.873	29298.71
718.216	29223.68
718.559	29022.78
718.902	28851.04
719.246	28871.6
719.589	28853.97
719.932	28766.29
720.275	28777.14
720.617	28735.33
720.96	28709.34
721.303	28720.87
721.646	28670.7
721.989	28385.74
722.331	28523.59
722.674	28531.27
723.016	28537.37
723.359	28385.74
723.701	28413.31
724.044	28234.1
724.386	28127.66
724.729	28260.32
725.071	28126.76
725.413	27987.78
725.755	28162.24
726.097	28021.68
726.439	27917.05
726.782	27939.87
727.124	27898.07
727.465	27875.92
727.807	27782.14
728.149	27695.13
728.491	27623.95
728.833	27743.04
729.175	27528.13
729.516	27435.48
729.858	27466.44
730.199	27551.86
730.541	27449.26
730.882	27308.48
731.224	27410.17
731.565	27265.09
731.906	27266.44
732.248	27213.34
732.589	27047.47
732.93	27028.94
733.271	27007.47
733.612	27234.13
733.953	27100.35
734.294	26955.94
734.635	26908.26
734.976	26984.42
735.317	26808.6
735.658	26816.29
735.999	26803.86
736.339	26761.82
736.68	26764.08
737.021	26671.21
737.361	26550.53
737.702	26748.72
738.042	26645.67
738.383	26572.45
738.723	26576.97
739.063	26584.2
739.404	26567.25
739.744	26471.21
740.084	26414.26
740.424	26337.43
740.764	26379.46
741.104	26471.89
741.444	26282.06
741.784	26107.6
742.124	26240.03
742.464	26081.16
742.804	26117.55
743.143	26085.23
743.483	26094.72
743.823	25926.59
744.162	25937.44
744.502	25877.33
744.841	25858.8
745.181	25854.96
745.52	25827.61
745.86	25758.46
746.199	25832.81
746.538	25676.43
746.877	25655.86
747.216	25791.23
747.556	25495.64
747.895	25564.12
748.234	25548.07
748.573	25394.18
748.911	25479.15
749.25	25428.53
749.589	25225.37
749.928	25367.51
750.267	25205.93
750.605	25203.9
750.944	25247.97
751.283	25088.2
751.621	25043.23
751.96	24975.88
752.298	25002.55
752.636	24996.9
752.975	24862.89
753.313	24729.56
753.651	24940.18
753.989	24770.46
754.327	24720.07
754.666	24687.98
755.004	24706.96
755.342	24518.04
755.679	24521.66
756.017	24438.27
756.355	24483.24
756.693	24317.14
757.031	24485.73
757.368	24306.97
757.706	24213.19
758.044	24012.97
758.381	24137.71
758.719	23932.97
759.056	24035.57
759.394	23911.05
759.731	23753.09
760.068	23709.25
760.405	23725.75
760.743	23569.82
761.08	23599.87
761.417	23497.28
761.754	23379.09
762.091	23403.04
762.428	23417.73
762.765	23218.19
763.102	23225.42
763.438	23183.16
763.775	23041.02
764.112	23018.65
764.449	23107.01
764.785	22784.75
765.122	22768.03
765.458	22598.09
765.795	22619.11
766.131	22623.4
766.467	22517.64
766.804	22398.1
767.14	22255.05
767.476	22272.68
767.812	22100.93
768.148	22222.28
768.485	22077.43
768.821	21944.78
769.157	21962.18
769.492	21835.4
769.828	21800.37
770.164	21643.99
770.5	21643.99
770.836	21595.63
771.171	21514.28
771.507	21396.09
771.842	21307.5
772.178	21281.06
772.513	21279.48
772.849	21119.26
773.184	21014.63
773.519	21006.27
773.855	20925.82
774.19	20783
774.525	20782.55
774.86	20858.93
775.195	20751.59
775.53	20658.48
775.865	20490.58
776.2	20297.36
776.535	20230.92
776.87	20237.7
777.205	20234.99
777.539	20043.13
777.874	20149.57
778.209	19982.57
778.543	19949.57
778.878	19781.22
779.212	19790.26
779.547	19617.83
779.881	19699.19
780.215	19507.33
780.55	19552.07
780.884	19424.62
781.218	19368.35
781.552	19346.88
781.886	19225.98
782.22	19183.49
782.554	19109.6
782.888	18932.88
783.222	18838.64
783.556	18783.05
783.889	18800.23
784.223	18627.35
784.557	18489.27
784.89	18541.93
785.224	18515.94
785.557	18350.29
785.891	18374.47
786.224	18184.65
786.558	18198.43
786.891	18197.76
787.224	18068.72
787.557	18007.03
787.891	17978.33
788.224	18030.75
788.557	17958.89
788.89	17815.39
789.223	17834.6
789.556	17766.13
789.888	17759.35
790.221	17591.9
790.554	17383.77
790.887	17515.06
791.219	17402.52
791.552	17355.52
791.884	17258.12
792.217	17294.05
792.549	17020.16
792.882	17004.79
793.214	16983.1
793.546	17030.33
793.879	16859.94
794.211	16747.4
794.543	16916.21
794.875	16790.11
795.207	16777.45
795.539	16731.58
795.871	16627.4
796.203	16548.31
796.535	16366.39
796.867	16457.91
797.198	16326.17
797.53	16340.18
797.862	16210.46
798.193	16244.14
798.525	16186.96
798.856	16131.6
799.188	16013.18
799.519	15982.67
799.85	15924.37
800.182	15870.36
800.513	15963.24
800.844	15723.02
801.175	15725.73
801.506	15689.57
801.837	15682.34
802.168	15590.59
802.499	15539.97
802.83	15506.98
803.161	15409.58
803.491	15417.72
803.822	15384.27
804.153	15331.39
804.483	15321.22
804.814	15153.32
805.145	15135.46
805.475	15163.49
805.805	15060.66
806.136	15074.9
806.466	15013.21
806.796	15004.17
807.126	14800.56
807.457	14824.74
807.787	14820.22
808.117	14779.31
808.447	14734.34
808.777	14785.19
809.107	14673.33
809.436	14588.81
809.766	14588.36
810.096	14634.91
810.426	14487.8
810.755	14573.22
811.085	14478.31
811.414	14450.96
811.744	14274.02
812.073	14221.36
812.403	14328.25
812.732	14288.71
813.061	14191.53
813.39	14133.68
813.719	14071.54
814.049	14167.58
814.378	14153.57
814.707	14034.25
815.036	13984.08
815.365	13891.43
815.693	13813.69
816.022	13855.05
816.351	13713.13
816.68	13691.21
817.008	13693.24
817.337	13587.26
817.665	13634.03
817.994	13645.33
818.322	13641.27
818.651	13582.06
818.979	13421.84
819.307	13588.84
819.636	13453.25
819.964	13486.69
820.292	13441.27
820.62	13460.48
820.948	13421.61
821.276	13419.58
821.604	13358.11
821.932	13441.04
822.259	13393.81
822.587	13314.72
822.915	13345.45
823.243	13411.22
823.57	13381.84
823.898	13367.15
824.225	13328.28
824.553	13341.61
824.88	13323.53
825.207	13265.91
825.535	13248.06
825.862	13394.72
826.189	13287.38
826.516	13394.27
826.843	13328.73
827.17	13398.56
827.497	13396.3
827.824	13358.11
828.151	13425.45
828.478	13281.73
828.805	13333.93
829.131	13301.61
829.458	13264.1
829.785	13221.62
830.111	13264.78
830.438	13344.78
830.764	13252.58
831.09	13316.08
831.417	13265.23
831.743	13297.09
832.069	13248.51
832.395	13180.03
832.722	13254.16
833.048	13186.59
833.374	13196.98
833.7	13082.18
834.026	13150.21
834.351	13200.83
834.677	13129.19
835.003	13218
835.329	13136.87
835.654	13058.68
835.98	13071.79
836.306	13004.22
836.631	12987.95
836.956	13001.28
837.282	13060.04
837.607	13036.54
837.932	12939.36
838.258	12968.74
838.583	12973.49
838.908	12871.57
839.233	12947.05
839.558	12848.97
839.883	12899.36
840.208	12813.49
840.533	12718.8
840.858	12778.46
841.182	12787.05
841.507	12712.93
841.832	12646.72
842.156	12653.49
842.481	12589.54
842.805	12627.28
843.13	12611.24
843.454	12510
843.778	12501.41
844.103	12423.44
844.427	12456.66
844.751	12381.64
845.075	12404.91
845.399	12389.1
845.723	12290.34
846.047	12294.63
846.371	12215.09
846.695	12225.71
847.019	12107.29
847.343	12091.02
847.666	11963.34
847.99	11976.68
848.313	11915.66
848.637	11837.25
848.96	11842.89
849.284	11814.87
849.607	11787.98
849.931	11732.39
850.254	11586.18
850.577	11576.46
850.9	11474.54
851.223	11447.42
851.546	11392.06
851.869	11293.53
852.192	11363.59
852.515	11244.04
852.838	11207.66
853.161	11278.62
853.483	11173.76
853.806	11155.68
854.129	11121.56
854.451	11001.79
854.774	10983.71
855.096	10969.47
855.419	10963.6
855.741	10938.74
856.063	10893.99
856.385	10833.88
856.708	10821.68
857.03	10799.76
857.352	10767.89
857.674	10670.72
857.996	10679.08
858.318	10589.82
858.64	10650.84
858.961	10656.49
859.283	10639.31
859.605	10528.13
859.926	10508.47
860.248	10460.56
860.57	10456.72
860.891	10584.85
861.212	10411.52
861.534	10437.73
861.855	10396.15
862.176	10337.4
862.498	10331.97
862.819	10388.47
863.14	10345.31
863.461	10269.83
863.782	10245.87
864.103	10217.63
864.424	10169.04
864.745	10205.65
865.065	10230.51
865.386	10065.54
865.707	10110.74
866.027	10137.4
866.348	10152.09
866.668	10073.45
866.989	9955.49
867.309	9966.33
867.63	9972.44
867.95	10033
868.27	9979.89
868.59	9985.54
868.91	9899.44
869.23	9958.88
869.55	9959.78
869.87	9900.12
870.19	9843.4
870.51	9846.11
870.83	9953.68
871.15	9835.26
871.469	9841.82
871.789	9874.36
872.109	9920.69
872.428	9817.86
872.748	9769.05
873.067	9819.22
873.386	9837.98
873.706	9804.98
874.025	9682.95
874.344	9690.86
874.663	9760.24
874.982	9681.6
875.301	9650.64
875.62	9676.4
875.939	9616.06
876.258	9523.86
876.577	9618.55
876.896	9497.65
877.214	9472.79
877.533	9534.71
877.852	9507.14
878.17	9506.46
878.489	9512.56
878.807	9535.61
879.125	9428.72
879.444	9443.64
879.762	9409.29
880.08	9462.39
880.398	9333.58
880.716	9353.92
881.034	9292
881.352	9284.32
881.67	9274.6
881.988	9251.55
882.306	9310.76
882.624	9246.35
882.941	9237.09
883.259	9173.13
883.577	9146.69
883.894	9157.54
884.212	9173.36
884.529	9075.96
884.846	9044.55
885.164	9094.49
885.481	9101.5
885.798	8985.34
886.115	8985.79
886.432	9003.2
886.75	8934.5
887.067	8926.36
887.383	8911.45
887.7	8909.64
888.017	8909.86
888.334	8825.8
888.651	8894.27
888.967	8775.86
889.284	8849.53
889.6	8783.99
889.917	8656.31
890.233	8702.64
890.55	8668.29
890.866	8694.73
891.182	8652.47
891.498	8608.18
891.815	8590.78
892.131	8556.2
892.447	8542.64
892.763	8485.47
893.079	8463.55
893.395	8440.05
893.71	8411.12
894.026	8454.51
894.342	8393.72
894.657	8330.44
894.973	8320.73
895.289	8345.13
895.604	8258.13
895.92	8195.08
896.235	8247.96
896.55	8217.45
896.865	8212.71
897.181	8174.06
897.496	8192.6
897.811	8081.86
898.126	8094.97
898.441	7996.89
898.756	8032.6
899.071	7988.31
899.386	8001.87
899.7	7951.7
900.015	7915.54
900.33	7809.33
900.644	7827.63
900.959	7841.42
901.273	7803.23
901.588	7790.57
901.902	7680.97
902.216	7734.08
902.531	7614.08
902.845	7625.38
903.159	7567.08
903.473	7588.32
903.787	7518.26
904.101	7499.05
904.415	7544.48
904.729	7481.88
905.042	7387.64
905.356	7423.8
905.67	7473.07
905.984	7377.25
906.297	7304.03
906.611	7375.89
906.924	7269.23
907.237	7274.65
907.551	7242.79
907.864	7159.85
908.177	7239.17
908.491	7137.26
908.804	7132.74
909.117	7040.54
909.43	7010.48
909.743	7022.91
910.056	7041.21
910.368	6969.58
910.681	6993.98
910.994	6944.94
911.307	6909.92
911.619	6857.72
911.932	6840.99
912.244	6721.9
912.557	6780.43
912.869	6753.99
913.181	6729.13
913.494	6764.38
913.806	6648.68
914.118	6650.49
914.43	6661.56
914.742	6648.68
915.054	6543.6
915.366	6522.36
915.678	6462.02
915.99	6437.39
916.302	6427.44
916.613	6423.15
916.925	6434.68
917.236	6408.91
917.548	6368.01
917.859	6327.33
918.171	6275.81
918.482	6272.42
918.794	6225.64
919.105	6215.25
919.416	6209.37
919.727	6198.75
920.038	6180.44
920.349	6105.64
920.66	6147
920.971	6106.77
921.282	6061.35
921.593	6029.49
921.903	6014.35
922.214	5900.23
922.525	5989.72
922.835	5955.82
923.146	5853.22
923.456	5846.89
923.767	5844.18
924.077	5843.28
924.387	5824.75
924.697	5760.79
925.008	5756.28
925.318	5758.08
925.628	5732.1
925.938	5673.79
926.248	5625.21
926.558	5666.33
926.867	5637.63
927.177	5629.27
927.487	5561.48
927.796	5450.52
928.106	5497.98
928.416	5463.18
928.725	5463.4
929.034	5410.97
929.344	5457.3
929.653	5447.58
929.962	5392.22
930.271	5333.01
930.581	5370.07
930.89	5294.59
931.199	5262.95
931.508	5268.15
931.817	5219.34
932.125	5213.92
932.434	5175.95
932.743	5146.12
933.051	5173.01
933.36	5126.69
933.669	5090.76
933.977	5085.33
934.286	5069.51
934.594	5055.05
934.902	5031.77
935.21	4989.29
935.519	4990.19
935.827	4945.9
936.135	5017.99
936.443	4904.55
936.751	4849.63
937.059	4837.2
937.367	4859.12
937.674	4843.98
937.982	4825.45
938.29	4762.85
938.597	4809.86
938.905	4719.92
939.213	4675.85
939.52	4682.18
939.827	4695.51
940.135	4694.83
940.442	4663.87
940.749	4604.89
941.056	4602.41
941.363	4601.28
941.67	4528.74
941.977	4545.91
942.284	4515.18
942.591	4517.66
942.898	4482.64
943.205	4512.01
943.511	4439.02
943.818	4462.52
944.125	4401.73
944.431	4390.89
944.738	4413.71
945.044	4354.5
945.35	4336.2
945.657	4333.94
945.963	4342.53
946.269	4261.63
946.575	4276.77
946.881	4240.61
947.187	4230.44
947.493	4196.54
947.799	4175.75
948.105	4183.44
948.41	4168.97
948.716	4158.35
949.022	4144.57
949.327	4139.14
949.633	4092.36
949.938	4072.48
950.244	4084.68
950.549	4017.11
950.854	4013.27
951.16	4017.56
951.465	3973.05
951.77	4018.02
952.075	3936.89
952.38	3930.79
952.685	3923.56
952.99	3908.41
953.294	3901.41
953.599	3869.77
953.904	3870.45
954.209	3861.18
954.513	3844.46
954.818	3827.06
955.122	3756.55
955.426	3785.25
955.731	3813.05
956.035	3749.32
956.339	3727.63
956.643	3726.05
956.948	3712.94
957.252	3679.95
957.556	3650.79
957.86	3668.65
958.163	3650.12
958.467	3639.27
958.771	3586.39
959.075	3599.04
959.378	3537.35
959.682	3541.42
959.985	3516.11
960.289	3544.13
960.592	3501.19
960.896	3526.5
961.199	3487.18
961.502	3481.31
961.805	3430.01
962.108	3450.12
962.411	3446.96
962.714	3401.31
963.017	3397.47
963.32	3388.43
963.623	3336.45
963.926	3382.55
964.228	3307.07
964.531	3327.64
964.833	3324.47
965.136	3312.95
965.438	3279.28
965.741	3267.08
966.043	3239.28
966.345	3243.35
966.648	3217.58
966.95	3240.86
967.252	3164.03
967.554	3153.18
967.856	3187.98
968.158	3123.35
968.46	3111.37
968.761	3147.3
969.063	3126.06
969.365	3099.17
969.666	3107.31
969.968	3066.63
970.269	3067.08
970.571	3050.13
970.872	3043.35
971.174	2991.6
971.475	3020.53
971.776	2999.51
972.077	2991.38
972.378	2965.61
972.679	2998.61
972.98	2932.85
973.281	2934.65
973.582	2898.5
973.883	2909.8
974.183	2918.38
974.484	2898.27
974.785	2856.69
975.085	2874.54
975.386	2844.04
975.686	2825.05
975.986	2798.84
976.287	2793.19
976.587	2771.95
976.887	2752.29
977.187	2801.78
977.487	2772.4
977.787	2764.94
978.087	2723.59
978.387	2717.94
978.687	2713.64
978.987	2711.38
979.286	2701.21
979.586	2657.15
979.885	2680.65
980.185	2602.01
980.484	2626.19
980.784	2636.58
981.083	2637.71
981.382	2626.41
981.682	2583.7
981.981	2574.21
982.28	2576.92
982.579	2540.54
982.878	2542.8
983.177	2519.75
983.475	2556.59
983.774	2526.3
984.073	2501.9
984.372	2473.42
984.67	2506.87
984.969	2466.42
985.267	2461.9
985.566	2456.7
985.864	2431.84
986.162	2424.16
986.461	2393.43
986.759	2420.77
987.057	2408.57
987.355	2369.25
987.653	2346.42
987.951	2359.75
988.249	2355.46
988.547	2329.47
988.844	2328.12
989.142	2328.12
989.44	2324.05
989.737	2306.42
990.035	2304.16
990.332	2252.19
990.63	2276.14
990.927	2275.91
991.224	2267.78
991.521	2278.4
991.819	2236.37
992.116	2213.09
992.413	2211.96
992.71	2210.15
993.006	2181.45
993.303	2196.14
993.6	2147.33
993.897	2157.73
994.193	2166.31
994.49	2163.83
994.787	2102.13
995.083	2108.46
995.379	2143.94
995.676	2099.42
995.972	2092.87
996.268	2085.19
996.565	2068.46
996.861	2053.1
997.157	2064.39
997.453	2056.49
997.749	2019.42
998.044	2002.02
998.34	2015.36
998.636	2011.97
998.932	1983.49
999.227	1997.96
999.523	1992.98
999.818	1956.38
1000.114	1977.62
1000.409	1942.14
1000.704	1939.2
1001	1934
1001.295	1893.55
1001.59	1899.88
1001.885	1913.89
1002.18	1871.41
1002.475	1854.91
1002.77	1849.71
1003.065	1860.33
1003.359	1838.86
1003.654	1832.54
1003.949	1809.71
1004.243	1837.73
1004.538	1828.92
1004.832	1775.59
1005.127	1773.1
1005.421	1778.75
1005.715	1777.62
1006.009	1792.31
1006.304	1747.57
1006.598	1769.26
1006.892	1756.83
1007.186	1710.51
1007.48	1701.24
1007.773	1700.79
1008.067	1724.97
1008.361	1682.71
1008.655	1689.72
1008.948	1661.02
1009.242	1655.82
1009.535	1663.28
1009.829	1642.94
1010.122	1625.54
1010.415	1641.81
1010.708	1602.26
1011.001	1620.56
1011.295	1609.04
1011.588	1583.96
1011.881	1607.01
1012.173	1586.89
1012.466	1565.2
1012.759	1545.09
1013.052	1552.54
1013.344	1529.95
1013.637	1509.83
1013.93	1511.87
1014.222	1517.97
1014.514	1494.92
1014.807	1503.05
1015.099	1495.14
1015.391	1462.15
1015.683	1477.52
1015.976	1444.52
1016.268	1458.76
1016.56	1438.42
1016.851	1432.32
1017.143	1410.85
1017.435	1407.69
1017.727	1386.67
1018.018	1385.77
1018.31	1391.42
1018.602	1385.99
1018.893	1371.76
1019.185	1376.96
1019.476	1338.54
1019.767	1337.18
1020.058	1364.3
1020.35	1334.92
1020.641	1354.13
1020.932	1330.4
1021.223	1313
1021.514	1287.24
1021.804	1283.17
1022.095	1282.72
1022.386	1284.75
1022.677	1251.99
1022.967	1265.09
1023.258	1242.27
1023.548	1245.43
1023.839	1238.65
1024.129	1226.45
1024.419	1215.38
1024.709	1164.08
1025	1231.65
1025.29	1193.91
1025.58	1222.84
1025.87	1178.54
1026.16	1186.45
1026.449	1163.18
1026.739	1181.25
1027.029	1176.51
1027.319	1144.65
1027.608	1146.68
1027.898	1114.36
1028.187	1125.89
1028.477	1109.84
1028.766	1110.52
1029.055	1105.78
1029.344	1076.85
1029.634	1091.77
1029.923	1069.39
1030.212	1090.18
1030.501	1065.1
1030.79	1054.48
1031.078	1039.79
1031.367	1045.89
1031.656	1043.18
1031.945	1021.26
1032.233	1049.96
1032.522	1059
1032.81	1009.51
1033.099	1023.52
1033.387	1004.54
1033.675	1009.96
1033.963	1027.81
1034.251	988.49
1034.54	971.32
1034.828	955.05
1035.116	991.2
1035.403	956.85
1035.691	954.82
1035.979	968.6
1036.267	928.38
1036.554	926.57
1036.842	944.42
1037.129	918.66
1037.417	922.96
1037.704	908.04
1037.992	934.48
1038.279	897.42
1038.566	909.17
1038.853	909.17
1039.14	909.17
