Data from hue_40_FLMS001491_53.txt Node
Date: Mon Feb 06 15:08:06 GMT 2017
User: dcchb
Spectrometer: FLMS00149
Trigger mode: 0
Integration Time (sec): 2.000000E-2
Scans to average: 10
Electric dark correction enabled: true
Nonlinearity correction enabled: false
Boxcar width: 0
XAxis mode: Wavelengths
Number of Pixels in Spectrum: 2048
>>>>>Begin Spectral Data<<<<<
341.393	-13.4
341.776	-13.4
342.16	-13.4
342.543	-67.41
342.927	-57.92
343.31	-58.6
343.693	-85.49
344.077	-55.66
344.46	-48.2
344.843	-58.83
345.226	-43.01
345.61	-38.71
345.993	-6.4
346.376	-12.27
346.759	19.82
347.142	33.37
347.525	41.06
347.908	44.45
348.291	52.13
348.674	105.01
349.057	111.34
349.44	121.73
349.823	135.52
350.206	173.94
350.588	190.66
350.971	222.52
351.354	221.39
351.737	245.57
352.119	249.87
352.502	267.49
352.884	274.72
353.267	290.54
353.65	281.5
354.032	289.19
354.414	328.51
354.797	306.36
355.179	311.56
355.562	330.77
355.944	334.84
356.326	328.73
356.709	339.58
357.091	347.26
357.473	334.38
357.855	335.74
358.238	345.01
358.62	328.73
359.002	335.51
359.384	341.84
359.766	350.65
360.148	335.06
360.53	348.62
360.912	345.23
361.294	337.77
361.676	316.31
362.057	344.33
362.439	332.12
362.821	328.51
363.203	326.25
363.584	329.19
363.966	313.14
364.348	337.1
364.729	326.25
365.111	338.68
365.493	329.64
365.874	302.97
366.256	310.66
366.637	307.72
367.019	327.38
367.4	326.02
367.781	312.24
368.163	318.79
368.544	316.31
368.925	315.85
369.306	323.99
369.688	322.18
370.069	316.53
370.45	316.31
370.831	338.68
371.212	310.88
371.593	305.46
371.974	320.6
372.355	323.99
372.736	299.58
373.117	318.79
373.498	329.19
373.879	321.05
374.26	316.98
374.641	330.32
375.021	316.53
375.402	325.8
375.783	328.96
376.163	328.96
376.544	337.1
376.925	319.69
377.305	325.8
377.686	330.09
378.066	319.47
378.447	318.79
378.827	346.59
379.208	320.15
379.588	337.32
379.968	314.5
380.349	323.08
380.729	337.1
381.109	332.12
381.489	321.28
381.87	334.61
382.25	340.49
382.63	357.89
383.01	349.98
383.39	331.67
383.77	354.04
384.15	350.2
384.53	361.73
384.91	349.75
385.29	355.85
385.67	334.38
386.049	341.39
386.429	340.03
386.809	353.59
387.189	373.48
387.568	350.43
387.948	353.82
388.328	366.93
388.707	350.88
389.087	363.99
389.466	367.83
389.846	370.99
390.225	389.75
390.605	382.52
390.984	367.38
391.363	380.48
391.743	382.07
392.122	365.34
392.501	364.89
392.881	382.97
393.26	381.16
393.639	379.81
394.018	358.56
394.397	376.19
394.776	381.39
395.155	392.01
395.534	395.85
395.913	385
396.292	384.33
396.671	403.76
397.05	394.95
397.429	388.85
397.808	382.74
398.186	386.59
398.565	409.41
398.944	392.46
399.323	391.78
399.701	406.92
400.08	394.95
400.458	401.5
400.837	429.07
401.215	376.87
401.594	404.89
401.972	418.45
402.351	407.15
402.729	418.9
403.107	404.21
403.486	416.64
403.864	408.73
404.242	413.03
404.62	412.57
404.999	420.48
405.377	426.13
405.755	419.35
406.133	418.68
406.511	425.45
406.889	439.01
407.267	444.44
407.645	443.53
408.023	453.02
408.401	449.86
408.779	454.83
409.156	453.7
409.534	469.97
409.912	448.05
410.29	447.15
410.667	458.67
411.045	463.19
411.422	466.58
411.8	471.33
412.178	470.2
412.555	447.6
412.933	488.5
413.31	498.45
413.687	488.96
414.065	472.69
414.442	498.9
414.819	492.8
415.197	486.47
415.574	488.5
415.951	486.7
416.328	493.02
416.705	503.42
417.082	497.09
417.46	493.7
417.837	523.08
418.214	525.11
418.591	532.12
418.967	530.08
419.344	515.4
419.721	518.79
420.098	526.47
420.475	522.63
420.852	537.77
421.228	554.04
421.605	542.97
421.982	549.29
422.358	552.68
422.735	544.55
423.111	550.65
423.488	528.96
423.864	558.11
424.241	577.32
424.617	570.54
424.994	550.42
425.37	557.65
425.746	570.08
426.123	580.03
426.499	580.71
426.875	587.03
427.251	607.15
427.627	611.21
428.003	598.56
428.379	596.07
428.756	605.56
429.132	596.98
429.507	644.43
429.883	632.68
430.259	637.43
430.635	625.45
431.011	638.78
431.387	635.39
431.763	649.18
432.138	644.43
432.514	632.23
432.89	667.93
433.265	693.24
433.641	662.28
434.016	662.06
434.392	695.28
434.767	692.34
435.143	704.32
435.518	704.54
435.894	704.32
436.269	712.45
436.644	720.59
437.02	726.01
437.395	722.85
437.77	719.01
438.145	746.58
438.52	743.19
438.895	743.41
439.271	768.04
439.646	767.59
440.021	766.24
440.395	768.5
440.77	756.52
441.145	773.47
441.52	802.17
441.895	778.89
442.27	792.22
442.645	792.9
443.019	802.39
443.394	804.2
443.769	795.16
444.143	817.76
444.518	847.82
444.892	807.82
445.267	819.79
445.641	832.45
446.016	806.91
446.39	855.27
446.764	847.82
447.139	836.52
447.513	873.35
447.887	844.2
448.262	869.74
448.636	854.6
449.01	898.66
449.384	891.21
449.758	870.19
450.132	891.43
450.506	898.66
450.88	904.54
451.254	884.88
451.628	916.74
452.002	912
452.376	913.35
452.75	923.97
453.123	932.33
453.497	931.2
453.871	939.11
454.244	960.81
454.618	987.7
454.992	985.67
455.365	983.18
455.739	1000.58
456.112	1008.26
456.486	1036.06
456.859	1043.74
457.232	1059.11
457.606	1060.47
457.979	1066.34
458.352	1082.39
458.725	1088.94
459.099	1090.52
459.472	1121.93
459.845	1119.9
460.218	1144.08
460.591	1127.58
460.964	1138.43
461.337	1150.63
461.71	1186.11
462.083	1200.12
462.456	1169.62
462.829	1198.54
463.201	1234.7
463.574	1247.13
463.947	1253.91
464.32	1262.72
464.692	1288.48
465.065	1284.64
465.438	1316.73
465.81	1344.53
466.183	1355.83
466.555	1391.31
466.928	1394.69
467.3	1391.31
467.672	1406.67
468.045	1440.12
468.417	1448.25
468.789	1494.81
469.161	1489.16
469.534	1494.81
469.906	1550.85
470.278	1573.45
470.65	1621.13
471.022	1599.66
471.394	1667
471.766	1675.59
472.138	1716.27
472.51	1749.04
472.882	1774.57
473.253	1824.06
473.625	1834.68
473.997	1883.27
474.369	1888.92
474.74	1942.93
475.112	1994.45
475.484	2062.93
475.855	2103.83
476.227	2128.46
476.598	2190.15
476.97	2224.5
477.341	2301.56
477.713	2353.31
478.084	2373.65
478.455	2473.76
478.827	2480.99
479.198	2554.89
479.569	2617.71
479.94	2731.83
480.311	2768.67
480.682	2874.2
481.053	2897.93
481.424	2978.16
481.795	3040.98
482.166	3113.29
482.537	3195.1
482.908	3318.49
483.279	3361.2
483.65	3463.34
484.021	3565.49
484.391	3650.68
484.762	3708.98
485.133	3776.55
485.503	3912.59
485.874	4014.74
486.244	4104.23
486.615	4194.62
486.985	4317.33
487.356	4414.73
487.726	4499.47
488.097	4650.2
488.467	4708.96
488.837	4864.21
489.207	4932.46
489.578	5044.09
489.948	5214.26
490.318	5308.94
490.688	5341.71
491.058	5525.21
491.428	5613.12
491.798	5707.58
492.168	5841.81
492.538	5986.89
492.908	6130.62
493.278	6147.11
493.648	6241.8
494.017	6426.65
494.387	6493.32
494.757	6605.86
495.126	6785.97
495.496	6797.04
495.866	6930.14
496.235	7068.44
496.605	7170.36
496.974	7267.99
497.344	7394.31
497.713	7472.05
498.082	7515.89
498.452	7752.49
498.821	7744.13
499.19	7822.1
499.559	7990.68
499.928	8084.91
500.298	8182.99
500.667	8226.15
501.036	8326.04
501.405	8437
501.774	8502.3
502.143	8620.72
502.512	8729.19
502.88	8738
503.249	8892.8
503.618	8921.73
503.987	9037.66
504.356	9081.72
504.724	9157.65
505.093	9262.28
505.462	9334.83
505.83	9416.86
506.199	9475.16
506.567	9683.97
506.936	9695.49
507.304	9874.25
507.672	9902.04
508.041	9934.13
508.409	10078.99
508.777	10101.36
509.145	10229.49
509.514	10306.1
509.882	10354.46
510.25	10452.99
510.618	10562.59
510.986	10511.97
511.354	10706.99
511.722	10773.88
512.09	10952.86
512.458	10853.43
512.826	10911.73
513.193	11076.7
513.561	11147.21
513.929	11201.67
514.297	11366.41
514.664	11458.39
515.032	11476.46
515.4	11565.28
515.767	11641.88
516.135	11622.22
516.502	11675.55
516.869	11797.13
517.237	11943.34
517.604	11887.3
517.972	12077.8
518.339	12107.86
518.706	12090.23
519.073	12257.01
519.44	12343.56
519.808	12431.01
520.175	12332.03
520.542	12585.81
520.909	12691.57
521.276	12669.43
521.643	12818.12
522.009	12854.51
522.376	12976.76
522.743	13052.92
523.11	13214.05
523.477	13301.27
523.843	13337.43
524.21	13531.1
524.577	13501.5
524.943	13651.77
525.31	13654.94
525.676	13801.37
526.043	13931.77
526.409	13888.83
526.776	14089.5
527.142	14088.37
527.508	14291.31
527.874	14330.85
528.241	14405.88
528.607	14398.65
528.973	14592.77
529.339	14600.9
529.705	14696.04
530.071	14898.75
530.437	14977.61
530.803	15009.03
531.169	15090.38
531.535	15082.92
531.901	15178.51
532.267	15244.05
532.632	15361.33
532.998	15406.76
533.364	15510.93
533.73	15533.76
534.095	15709.12
534.461	15718.16
534.826	15750.25
535.192	15808.55
535.557	15933.3
535.923	15897.82
536.288	16001.54
536.653	16050.81
537.019	16110.47
537.384	16140.75
537.749	16272.04
538.114	16352.49
538.479	16284.02
538.845	16436.33
539.21	16412.15
539.575	16550.91
539.94	16566.73
540.305	16682.43
540.67	16730.34
541.034	16736.21
541.399	16866.15
541.764	16866.6
542.129	17023.66
542.494	16987.73
542.858	17172.36
543.223	17203.54
543.587	17185.92
543.952	17353.37
544.316	17405.12
544.681	17356.31
545.045	17438.79
545.41	17572.8
545.774	17593.82
546.138	17624.55
546.503	17713.36
546.867	17749.29
547.231	17894.6
547.595	17940.02
547.959	18024.09
548.324	18065.9
548.688	18139.11
549.052	18248.04
549.416	18172.78
549.779	18213.01
550.143	18360.58
550.507	18423.85
550.871	18466.11
551.235	18514.7
551.599	18558.31
551.962	18691.64
552.326	18670.62
552.689	18876.72
553.053	18720.79
553.417	18757.85
553.78	19007.57
554.143	18869.94
554.507	19036.27
554.87	19200.33
555.234	19361.45
555.597	19227.22
555.96	19318.74
556.323	19278.52
556.686	19354.67
557.05	19543.6
557.413	19481.23
557.776	19634.44
558.139	19702.91
558.502	19810.26
558.865	19826.3
559.228	19960.99
559.59	19993.75
559.953	20105.16
560.316	20247.08
560.679	20284.82
561.041	20349
561.404	20454.53
561.767	20508.99
562.129	20554.42
562.492	20725.71
562.854	20636.45
563.217	20678.48
563.579	20885.93
563.941	20925.03
564.304	21063.56
564.666	21108.07
565.028	21141.29
565.39	21337.45
565.753	21391.91
566.115	21415.64
566.477	21469.65
566.839	21626.71
567.201	21775.63
567.563	21715.52
567.925	21991.67
568.287	21879.58
568.648	21964.55
569.01	21950.31
569.372	22180.14
569.734	22060.37
570.095	22364.31
570.457	22478.43
570.819	22476.63
571.18	22480.47
571.542	22808.14
571.903	22790.97
572.265	22882.94
572.626	22903.96
572.987	23028.7
573.349	23160
573.71	23226.89
574.071	23381.01
574.432	23363.16
574.794	23635.69
575.155	23488.8
575.516	23550.5
575.877	23765.86
576.238	23861
576.599	23897.61
576.96	24100.31
577.32	24116.36
577.681	24338.27
578.042	24552.5
578.403	24491.04
578.763	24603.12
579.124	24801.09
579.485	25021.42
579.845	25189.55
580.206	25193.17
580.566	25303.67
580.927	25488.07
581.287	25705.02
581.648	25750.44
582.008	26014.84
582.368	26050.54
582.728	26197.88
583.089	26345.68
583.449	26470.42
583.809	26678.1
584.169	26909.73
584.529	27042.83
584.889	27295.03
585.249	27445.99
585.609	27495.7
585.969	27836.26
586.329	27776.37
586.688	28110.38
587.048	28181.34
587.408	28331.61
587.768	28530.48
588.127	28827.87
588.487	28851.37
588.846	29386.5
589.206	29264.02
589.565	29434.86
589.925	29834.4
590.284	29920.27
590.643	30043.89
591.003	30324.1
591.362	30677.09
591.721	30645.23
592.08	30969.96
592.44	31122.05
592.799	31402.95
593.158	31476.84
593.517	31558.87
593.876	31840.67
594.235	32012.2
594.593	32161.34
594.952	32350.49
595.311	32379.87
595.67	32715.23
596.029	33052.85
596.387	33186.4
596.746	33463.46
597.104	33360.41
597.463	33594.53
597.822	33858.93
598.18	33961.07
598.538	34020.96
598.897	34476.09
599.255	34325.58
599.613	35046.92
599.972	34820.71
600.33	35127.37
600.688	35130.08
601.046	35473.57
601.404	35664.75
601.762	35622.27
602.12	35948.59
602.478	36127.34
602.836	36266.09
603.194	36291.18
603.552	36466.54
603.91	36368.69
604.268	36769.81
604.625	36730.04
604.983	37092.06
605.341	36930.94
605.698	37185.84
606.056	37381.55
606.413	37448.21
606.771	37583.35
607.128	37770.91
607.485	37719.16
607.843	37883.91
608.2	38119.15
608.557	38421.97
608.914	38270.34
609.272	38398.02
609.629	38705.35
609.986	38854.5
610.343	38790.1
610.7	39118.22
611.057	39113.93
611.414	39203.64
611.771	39309.63
612.127	39564.09
612.484	39651.77
612.841	39795.27
613.198	39629.4
613.554	39836.4
613.911	40131.98
614.267	40177.18
614.624	40223.28
614.98	40263.05
615.337	40690.61
615.693	40505.98
616.05	40636.38
616.406	40803.83
616.762	40676.37
617.118	40873.43
617.475	40925.41
617.831	40994.78
618.187	41093.31
618.543	41343.25
618.899	41594.77
619.255	41422.57
619.611	41513.64
619.967	41601.1
620.323	41720.64
620.678	41614.43
621.034	41692.62
621.39	41689
621.746	41614.65
622.101	42244.69
622.457	41690.13
622.812	41988.88
623.168	42091.93
623.523	42158.14
623.879	42303.45
624.234	42024.36
624.589	42287.18
624.945	42234.53
625.3	42360.4
625.655	42477.23
626.01	42410.34
626.365	42488.53
626.72	42569.88
627.075	42451.02
627.43	42514.52
627.785	42486.95
628.14	42498.02
628.495	42611.69
628.85	42753.38
629.205	42451.24
629.559	42720.84
629.914	42708.18
630.269	42720.39
630.623	42628.41
630.978	42526.72
631.332	42747.96
631.687	42825.92
632.041	42701.41
632.396	42749.77
632.75	42552.26
633.104	42615.98
633.459	42563.1
633.813	42462.09
634.167	42507.51
634.521	42459.38
634.875	42607.62
635.229	42494.41
635.583	42385.48
635.937	42546.61
636.291	42396.1
636.645	42488.08
636.999	42396.33
637.352	42400.85
637.706	42314.75
638.06	42379.61
638.413	42403.56
638.767	42309.1
639.121	42367.18
639.474	42093.74
639.828	42230.01
640.181	42255.54
640.534	42172.61
640.888	42161.98
641.241	41982.1
641.594	42258.93
641.947	42194.98
642.301	41986.85
642.654	42140.74
643.007	42051.71
643.36	42040.63
643.713	41996.57
644.066	42164.02
644.419	41943.69
644.771	41699.4
645.124	41331.5
645.477	41281.33
645.83	40945.29
646.182	40799.76
646.535	40748.46
646.888	40858.74
647.24	40613.78
647.593	40713.44
647.945	40706.66
648.298	40530.16
648.65	40540.56
649.002	40460.33
649.355	40586.43
649.707	40512.76
650.059	40744.85
650.411	41269.13
650.763	41305.06
651.115	41614.2
651.467	41525.17
651.819	41495.11
652.171	41318.84
652.523	41309.8
652.875	41318.17
653.227	41143.03
653.578	41509.57
653.93	41295.79
654.282	41223.25
654.633	41080.21
654.985	41265.51
655.337	41270.93
655.688	41251.05
656.039	41215.12
656.391	40942.81
656.742	40905.52
657.094	41087.89
657.445	41219.41
657.796	41043.6
658.147	40982.13
658.498	41103.48
658.849	41062.58
659.2	41015.12
659.551	40947.33
659.902	41060.77
660.253	41056.7
660.604	40964.5
660.955	40904.62
661.306	41025.74
661.656	40890.38
662.007	41001.56
662.358	40884.73
662.708	41013.09
663.059	40817.16
663.409	40577.39
663.76	40945.07
664.11	40912.75
664.461	40923.37
664.811	40821.68
665.161	40854.9
665.511	40639.99
665.862	40714.34
666.212	40827.1
666.562	40863.04
666.912	40806.54
667.262	40644.06
667.612	40635.25
667.962	40736.03
668.312	40700.33
668.662	40760.67
669.011	40810.38
669.361	40726.09
669.711	40757.95
670.06	40691.29
670.41	40436.15
670.76	40507.79
671.109	40672.76
671.459	40691.97
671.808	40509.37
672.157	40645.41
672.507	40385.76
672.856	40453.1
673.205	40454.01
673.554	40483.16
673.904	40410.84
674.253	40564.51
674.602	40637.5
674.951	39898.54
675.3	39716.4
675.649	40392.99
675.998	40246.33
676.346	40267.12
676.695	40388.7
677.044	40175.6
677.393	40392.99
677.741	40274.8
678.09	40327.23
678.438	40268.48
678.787	40133.56
679.135	40220.79
679.484	40089.5
679.832	40246.78
680.181	39954.81
680.529	40033
680.877	39899.22
681.225	39878.43
681.573	40165.43
681.922	39718.43
682.27	39752.33
682.618	39643.86
682.966	39603.63
683.314	39553.69
683.661	39423.75
684.009	39370.42
684.357	39322.96
684.705	39214.04
685.053	39461.26
685.4	39106.7
685.748	39103.76
686.095	38980.37
686.443	38885.91
686.79	39050.88
687.138	38878.46
687.485	38875.52
687.832	38816.76
688.18	38767.72
688.527	38650.66
688.874	38535.41
689.221	38465.81
689.568	38394.4
689.915	38253.84
690.262	38358.69
690.609	38237.57
690.956	38123.9
691.303	38021.98
691.65	37976.33
691.997	37947.18
692.344	37676.23
692.69	37623.8
693.037	37596.91
693.383	37170.93
693.73	37420.41
694.077	37324.82
694.423	37288.89
694.769	37124.6
695.116	37051.61
695.462	36884.84
695.808	36847.32
696.155	37066.3
696.501	36701.11
696.847	36729.36
697.193	36489.37
697.539	36643.03
697.885	36404.85
698.231	36165.31
698.577	36208.92
698.923	36231.75
699.269	36046.44
699.614	35903.62
699.96	35681.25
700.306	35731.87
700.651	35696.17
700.997	35570.97
701.342	35493.23
701.688	35492.78
702.033	35335.95
702.379	35444.2
702.724	35153.13
703.069	35228.83
703.415	34896.86
703.76	34983.19
704.105	34878.79
704.45	34763.31
704.795	34620.26
705.14	34598.12
705.485	34544.11
705.83	34300.5
706.175	34340.5
706.52	34246.26
706.865	34231.35
707.209	34141.63
707.554	33974.18
707.899	34229.99
708.243	33912.71
708.588	33890.56
708.932	33718.36
709.277	33645.15
709.621	33595.43
709.966	33465.04
710.31	33534.19
710.654	33317.47
710.998	33291.71
711.342	33299.39
711.687	33206.97
712.031	33053.75
712.375	32769.69
712.719	33012.85
713.063	32863.7
713.407	33003.58
713.75	32793.64
714.094	32775.11
714.438	32670.26
714.782	32670.26
715.125	32470.94
715.469	32556.36
715.812	32420.09
716.156	32226.88
716.499	32160.44
716.843	32269.36
717.186	31954.8
717.53	32160.21
717.873	32213.09
718.216	32036.6
718.559	31961.8
718.902	31803.16
719.246	31872.76
719.589	31750.28
719.932	31675.93
720.275	31643.62
720.617	31625.54
720.96	31508.03
721.303	31444.98
721.646	31520
721.989	31255.38
722.331	31341.03
722.674	31305.32
723.016	31325.66
723.359	31148.71
723.701	31187.36
724.044	30870.08
724.386	30928.61
724.729	31083.86
725.071	30868.5
725.413	30957.53
725.755	30900.81
726.097	30732.68
726.439	30664.89
726.782	30677.31
727.124	30852.45
727.465	30693.59
727.807	30453.82
728.149	30489.52
728.491	30388.96
728.833	30409.3
729.175	30390.77
729.516	30282.97
729.858	30200.72
730.199	30223.77
730.541	30174.73
730.882	30067.61
731.224	30145.13
731.565	29954.85
731.906	29899.26
732.248	29973.83
732.589	29820.39
732.93	29725.7
733.271	29714.4
733.612	29810.44
733.953	29733.61
734.294	29620.62
734.635	29489.32
734.976	29569.1
735.317	29414.98
735.658	29430.57
735.999	29497.46
736.339	29349.89
736.68	29474.63
737.021	29360.74
737.361	29252.27
737.702	29471.02
738.042	29219.27
738.383	29197.58
738.723	29255.66
739.063	29071.48
739.404	29160.07
739.744	28995.78
740.084	28894.76
740.424	28934.76
740.764	28877.36
741.104	28973.18
741.444	28718.04
741.784	28761.88
742.124	28677.82
742.464	28756.69
742.804	28654.54
743.143	28627.43
743.483	28671.04
743.823	28487.77
744.162	28383.59
744.502	28527.77
744.841	28358.51
745.181	28371.16
745.52	28244.61
745.86	28316.47
746.199	28205.06
746.538	28184.05
746.877	28216.14
747.216	28203.48
747.556	28164.16
747.895	28065.41
748.234	28005.07
748.573	27952.41
748.911	27929.36
749.25	27863.38
749.589	27775.24
749.928	27899.99
750.267	27895.02
750.605	27693.89
750.944	27787.9
751.283	27547.68
751.621	27722.36
751.96	27521.92
752.298	27544.06
752.636	27484.18
752.975	27348.59
753.313	27329.83
753.651	27213
753.989	27122.83
754.327	27203.73
754.666	26982.5
755.004	27067.24
755.342	27037.64
755.679	26998.54
756.017	26742.05
756.355	26979.11
756.693	26741.15
757.031	26715.61
757.368	26626.12
757.706	26650.98
758.044	26445.79
758.381	26432.68
758.719	26340.71
759.056	26405.56
759.394	26329.86
759.731	26231.56
760.068	26123.99
760.405	26062.29
760.743	25969.87
761.08	26059.81
761.417	25820.95
761.754	25835.63
762.091	25806.71
762.428	25794.96
762.765	25556.09
763.102	25625.24
763.438	25480.16
763.775	25275.42
764.112	25420.5
764.449	25427.74
764.785	25149.55
765.122	25059.38
765.458	24999.05
765.795	24949.78
766.131	24890.8
766.467	24787.07
766.804	24785.49
767.14	24740.3
767.476	24630.24
767.812	24507.31
768.148	24513.64
768.485	24289.91
768.821	24311.15
769.157	24209.91
769.492	24092.86
769.828	24033.42
770.164	23921.79
770.5	23830.94
770.836	23910.94
771.171	23754.33
771.507	23602.92
771.842	23457.84
772.178	23542.59
772.513	23374.68
772.849	23416.04
773.184	23164.52
773.519	23241.35
773.855	23045.2
774.19	23011.53
774.525	22953.9
774.86	22883.4
775.195	22854.7
775.53	22581.26
775.865	22637.53
776.2	22364.09
776.535	22311.21
776.87	22367.7
777.205	22197.09
777.539	22054.26
777.874	22140.59
778.209	21986.24
778.543	21953.02
778.878	21833.25
779.212	21774.05
779.547	21645.69
779.881	21624.22
780.215	21507.39
780.55	21530.89
780.884	21410.44
781.218	21321.63
781.552	21369.09
781.886	21184.91
782.22	21075.53
782.554	21113.5
782.888	20926.61
783.222	20848.65
783.556	20665.83
783.889	20617.92
784.223	20528.2
784.557	20490.92
784.89	20597.13
785.224	20382.44
785.557	20270.36
785.891	20218.61
786.224	20177.93
786.558	20184.94
786.891	20055.45
787.224	19961.21
787.557	19863.36
787.891	19884.15
788.224	19831.72
788.557	19786.98
788.89	19697.49
789.223	19635.12
789.556	19371.85
789.888	19434.67
790.221	19398.52
790.554	19292.53
790.887	19284.62
791.219	19159.65
791.552	19116.71
791.884	19074.68
792.217	18930.96
792.549	18860.22
792.882	18780.45
793.214	18666.78
793.546	18747.23
793.879	18560.8
794.211	18413.46
794.543	18506.34
794.875	18437.18
795.207	18450.07
795.539	18274.03
795.871	18311.76
796.203	18105.22
796.535	18038.78
796.867	18024.09
797.198	17915.16
797.53	18055.27
797.862	17872.68
798.193	17839.91
798.525	17802.17
798.856	17739.58
799.188	17722.18
799.519	17512.24
799.85	17504.33
800.182	17450.32
800.513	17590.2
800.844	17376.2
801.175	17355.41
801.506	17397.21
801.837	17251.45
802.168	17164.9
802.499	17087.39
802.83	17071.57
803.161	17043.78
803.491	17011.46
803.822	17034.28
804.153	16829.54
804.483	16742.77
804.814	16698.47
805.145	16624.58
805.475	16678.59
805.805	16571.25
806.136	16613.05
806.466	16505.94
806.796	16539.83
807.126	16338.71
807.457	16413.28
807.787	16309.78
808.117	16303
808.447	16244.47
808.777	16320.4
809.107	16175.32
809.436	16133.06
809.766	16148.43
810.096	16055.55
810.426	15982.79
810.755	16066.85
811.085	15942.79
811.414	15967.42
811.744	15775.11
812.073	15774.88
812.403	15749.35
812.732	15625.73
813.061	15673.42
813.39	15598.84
813.719	15494.66
814.049	15613.3
814.378	15511.39
814.707	15499.18
815.036	15473.42
815.365	15429.58
815.693	15244.5
816.022	15267.55
816.351	15179.42
816.68	15160.43
817.008	15170.83
817.337	15021
817.665	15000.89
817.994	15080.44
818.322	14917.28
818.651	14906.2
818.979	14903.27
819.307	14888.8
819.636	14947.11
819.964	14765.42
820.292	14750.5
820.62	14823.49
820.948	14762.48
821.276	14729.49
821.604	14642.93
821.932	14734.01
822.259	14750.05
822.587	14754.8
822.915	14680.45
823.243	14712.99
823.57	14685.42
823.898	14630.05
824.225	14660.79
824.553	14695.81
824.88	14630.51
825.207	14715.47
825.535	14614.46
825.862	14730.16
826.189	14565.42
826.516	14677.51
826.843	14631.64
827.17	14721.8
827.497	14663.05
827.824	14639.77
828.151	14745.08
828.478	14640.67
828.805	14730.16
829.131	14666.21
829.458	14615.82
829.785	14558.42
830.111	14575.14
830.438	14625.08
830.764	14611.3
831.09	14600.9
831.417	14497.4
831.743	14629.6
832.069	14511.64
832.395	14456.95
832.722	14560
833.048	14543.05
833.374	14585.31
833.7	14386.22
834.026	14499.44
834.351	14553.67
834.677	14441.13
835.003	14461.02
835.329	14474.8
835.654	14450.4
835.98	14286.11
836.306	14281.81
836.631	14301.02
836.956	14280.68
837.282	14305.77
837.607	14222.15
837.932	14241.36
838.258	14232.78
838.583	14199.56
838.908	14127.69
839.233	14150.29
839.558	14158.88
839.883	14059.22
840.208	14018.32
840.533	14057.86
840.858	14026.45
841.182	13988.04
841.507	14013.12
841.832	13938.77
842.156	13866.68
842.481	13886.8
842.805	13876.85
843.13	13778.1
843.454	13832.79
843.778	13679.8
844.103	13708.5
844.427	13714.82
844.751	13722.28
845.075	13631.21
845.399	13606.58
845.723	13475.28
846.047	13609.74
846.371	13443.87
846.695	13408.84
847.019	13355.74
847.343	13253.37
847.666	13194.84
847.99	13185.8
848.313	13154.84
848.637	13026.93
848.96	12989.42
849.284	13038.46
849.607	12837.33
849.931	12890.44
850.254	12736.32
850.577	12713.04
850.9	12648.64
851.223	12637.34
851.546	12593.5
851.869	12504.01
852.192	12583.55
852.515	12373.62
852.838	12367.29
853.161	12409.32
853.483	12357.12
853.806	12267.63
854.129	12212.94
854.451	12176.56
854.774	12254.3
855.096	12114.41
855.419	12058.37
855.741	11999.39
856.063	11914.87
856.385	11964.13
856.708	11844.82
857.03	11879.39
857.352	11863.8
857.674	11825.16
857.996	11742.9
858.318	11597.36
858.64	11683.01
858.961	11663.35
859.283	11660.19
859.605	11595.78
859.926	11547.42
860.248	11550.13
860.57	11473.75
860.891	11507.65
861.212	11503.13
861.534	11387.88
861.855	11349.46
862.176	11398.95
862.498	11382.91
862.819	11367.77
863.14	11235.57
863.461	11231.5
863.782	11243.93
864.103	11278.5
864.424	11251.61
864.745	11250.48
865.065	11105.17
865.386	11112.63
865.707	11109.02
866.027	11086.19
866.348	11075.8
866.668	11107.89
866.989	11074.21
867.309	10918.29
867.63	10969.58
867.95	10988.57
868.27	10958.74
868.59	10928.46
868.91	10928
869.23	10915.57
869.55	10891.85
869.87	10855.46
870.19	10845.52
870.51	10840.32
870.83	10886.87
871.15	10705.18
871.469	10769.14
871.789	10847.33
872.109	10726.65
872.428	10681.46
872.748	10723.72
873.067	10742.7
873.386	10702.25
873.706	10659.31
874.025	10649.82
874.344	10650.27
874.663	10689.37
874.982	10532.31
875.301	10583.38
875.62	10559.2
875.939	10537.05
876.258	10492.99
876.577	10526.21
876.896	10513.33
877.214	10379.77
877.533	10451.63
877.852	10403.05
878.17	10419.32
878.489	10451.41
878.807	10455.02
879.125	10356.95
879.444	10334.12
879.762	10300.45
880.08	10319.88
880.398	10241.02
880.716	10274.69
881.034	10224.07
881.352	10225.2
881.67	10254.35
881.988	10211.64
882.306	10187.23
882.624	10182.26
882.941	10154.92
883.259	10049.38
883.577	10081.92
883.894	10034.69
884.212	9991.76
884.529	9918.76
884.846	9999.21
885.164	10013.45
885.481	9915.37
885.798	9868.14
886.115	9903.4
886.432	9857.07
886.75	9855.94
887.067	9840.57
887.383	9760.58
887.7	9803.06
888.017	9728.94
888.334	9752.89
888.651	9682.84
888.967	9683.06
889.284	9624.99
889.6	9588.6
889.917	9549.73
890.233	9588.83
890.55	9512.45
890.866	9565.33
891.182	9508.61
891.498	9507.02
891.815	9400.13
892.131	9372.79
892.447	9369.4
892.763	9312.23
893.079	9243.75
893.395	9322.17
893.71	9207.82
894.026	9240.36
894.342	9237.43
894.657	9199.69
894.973	9143.19
895.289	9182.06
895.604	9088.05
895.92	9039.47
896.235	8957.89
896.55	8995.63
896.865	8986.81
897.181	8925.34
897.496	8959.02
897.811	8931.9
898.126	8837.89
898.441	8800.6
898.756	8753.37
899.071	8747.95
899.386	8691.9
899.7	8686.48
900.015	8693.26
900.33	8685.12
900.644	8654.17
900.959	8585.69
901.273	8524.68
901.588	8486.03
901.902	8429.54
902.216	8453.27
902.531	8410.1
902.845	8396.32
903.159	8354.96
903.473	8258.02
903.787	8257.57
904.101	8239.71
904.415	8217.57
904.729	8241.75
905.042	8151.35
905.356	8158.13
905.67	8119.94
905.984	8079.72
906.297	8025.71
906.611	7997.01
906.924	7913.39
907.237	7956.78
907.551	7992.26
907.864	7944.13
908.177	7881.76
908.491	7782.32
908.804	7762.66
909.117	7722.21
909.43	7690.57
909.743	7679.5
910.056	7693.06
910.368	7634.76
910.681	7587.07
910.994	7592.95
911.307	7524.48
911.619	7495.33
911.932	7477.02
912.244	7463.91
912.557	7470.24
912.869	7411.49
913.181	7429.34
913.494	7347.08
913.806	7268.89
914.118	7254.2
914.43	7273.64
914.742	7193.86
915.054	7223.24
915.366	7115.45
915.678	7104.15
915.99	7138.72
916.302	7027.99
916.613	7029.8
916.925	7056.69
917.236	6975.79
917.548	6915.68
917.859	6913.87
918.171	6865.29
918.482	6887.88
918.794	6840.65
919.105	6770.82
919.416	6791.84
919.727	6752.75
920.038	6714.1
920.349	6710.49
920.66	6662.13
920.971	6682.92
921.282	6592.52
921.593	6548.91
921.903	6574.45
922.214	6598.17
922.525	6530.61
922.835	6472.53
923.146	6461.91
923.456	6459.65
923.767	6418.07
924.077	6417.16
924.387	6323.15
924.697	6278.18
925.008	6295.13
925.318	6286.09
925.628	6216.26
925.938	6214
926.248	6159.99
926.558	6188.92
926.867	6141.46
927.177	6106.44
927.487	6064.18
927.796	6033.67
928.106	6002.94
928.416	5978.76
928.725	5944.63
929.034	5937.63
929.344	5916.84
929.653	5932.2
929.962	5881.58
930.271	5818.08
930.581	5821.92
930.89	5750.29
931.199	5791.87
931.508	5720.68
931.817	5703.73
932.125	5696.5
932.434	5675.26
932.743	5613.12
933.051	5573.57
933.36	5608.14
933.669	5548.94
933.977	5518.65
934.286	5513.46
934.594	5486.56
934.902	5513
935.21	5456.06
935.519	5444.31
935.827	5433.23
936.135	5372.9
936.443	5355.49
936.751	5387.36
937.059	5297.19
937.367	5268.49
937.674	5263.75
937.982	5222.84
938.29	5235.05
938.597	5264.42
938.905	5165.44
939.213	5156.63
939.52	5161.6
939.827	5140.13
940.135	5098.78
940.442	5076.41
940.749	5063.07
941.056	5053.13
941.363	5024.88
941.67	5003.87
941.977	5021.72
942.284	4935.17
942.591	4936.97
942.898	4921.83
943.205	4880.03
943.511	4801.39
943.818	4857.88
944.125	4833.02
944.431	4798.22
944.738	4776.07
945.044	4784.89
945.35	4766.58
945.657	4731.1
945.963	4664.89
946.269	4654.04
946.575	4683.2
946.881	4606.81
947.187	4638.23
947.493	4586.25
947.799	4597.32
948.105	4591
948.41	4534.95
948.716	4535.18
949.022	4511.68
949.327	4458.57
949.633	4466.25
949.938	4439.13
950.244	4434.62
950.549	4409.08
950.854	4365.92
951.16	4361.4
951.465	4325.69
951.77	4334.5
952.075	4329.31
952.38	4279.36
952.685	4293.38
952.99	4257.9
953.294	4256.54
953.599	4223.77
953.904	4176.54
954.209	4142.87
954.513	4145.81
954.818	4165.47
955.122	4105.81
955.426	4122.08
955.731	4076.43
956.035	4064.46
956.339	4032.14
956.643	4033.04
956.948	3955.53
957.252	4021.74
957.556	3965.47
957.86	3940.62
958.163	3941.29
958.467	3930.9
958.771	3906.72
959.075	3917.79
959.378	3881.86
959.682	3832.6
959.985	3845.03
960.289	3837.57
960.592	3824.01
960.896	3769.55
961.199	3751.02
961.502	3771.36
961.805	3741.75
962.108	3725.26
962.411	3676.22
962.714	3691.36
963.017	3670.34
963.32	3667.18
963.623	3658.14
963.926	3616.11
964.228	3605.03
964.531	3605.71
964.833	3585.37
965.136	3545.82
965.438	3523
965.741	3527.07
966.043	3494.75
966.345	3507.63
966.648	3481.87
966.95	3513.51
967.252	3473.74
967.554	3470.57
967.856	3412.5
968.158	3395.77
968.46	3422.44
968.761	3356.68
969.063	3390.8
969.365	3332.05
969.666	3352.84
969.968	3336.34
970.269	3339.73
970.571	3325.49
970.872	3296.79
971.174	3222.9
971.475	3282.55
971.776	3213.4
972.077	3220.64
972.378	3214.31
972.679	3173.18
972.98	3135.21
973.281	3200.3
973.582	3186.96
973.883	3146.51
974.183	3108.55
974.484	3122.79
974.785	3116.46
975.085	3084.82
975.386	3020.19
975.686	3107.64
975.986	3063.35
976.287	3023.8
976.587	3009.34
976.887	2979.74
977.187	2988.55
977.487	2981.32
977.787	2952.85
978.087	2958.04
978.387	2939.74
978.687	2921.43
978.987	2935.45
979.286	2908.33
979.586	2863.13
979.885	2850.48
980.185	2824.04
980.484	2816.58
980.784	2822.91
981.083	2844.6
981.382	2802.34
981.682	2792.4
981.981	2800.76
982.28	2778.39
982.579	2769.35
982.878	2770.03
983.177	2742.68
983.475	2757.82
983.774	2672.4
984.073	2691.38
984.372	2690.71
984.67	2682.12
984.969	2669.69
985.267	2670.37
985.566	2648
985.864	2605.74
986.162	2628.56
986.461	2608.22
986.759	2593.08
987.057	2557.15
987.355	2602.35
987.653	2582.23
987.951	2533.42
988.249	2560.54
988.547	2575.23
988.844	2520.99
989.142	2532.74
989.44	2478.06
989.737	2466.31
990.035	2469.24
990.332	2452.29
990.63	2457.94
990.927	2446.64
991.224	2439.41
991.521	2414.33
991.819	2409.36
992.116	2359.42
992.413	2389.7
992.71	2377.04
993.006	2358.29
993.303	2344.73
993.6	2315.35
993.897	2319.42
994.193	2328
994.49	2266.31
994.787	2283.49
995.083	2283.03
995.379	2296.59
995.676	2236.48
995.972	2258.4
996.268	2224.96
996.565	2203.94
996.861	2187.44
997.157	2222.02
997.453	2202.36
997.749	2170.95
998.044	2156.48
998.34	2189.02
998.636	2180.66
998.932	2134.34
999.227	2114.9
999.523	2123.94
999.818	2121.23
1000.114	2095.02
1000.409	2118.29
1000.704	2058.18
1001	2057.95
1001.295	2043.94
1001.59	2035.81
1001.885	2042.36
1002.18	2014.79
1002.475	2034
1002.77	2009.59
1003.065	1975.47
1003.359	1975.02
1003.654	1977.5
1003.949	1967.11
1004.243	1918.75
1004.538	1975.02
1004.832	1921.46
1005.127	1912.87
1005.421	1901.8
1005.715	1883.27
1006.009	1895.25
1006.304	1855.25
1006.598	1856.15
1006.892	1840.56
1007.186	1835.14
1007.48	1834.91
1007.773	1816.15
1008.067	1780
1008.361	1819.77
1008.655	1817.96
1008.948	1766.21
1009.242	1785.42
1009.535	1738.19
1009.829	1751.97
1010.122	1748.58
1010.415	1747
1010.708	1728.02
1011.001	1710.39
1011.295	1733.67
1011.588	1704.29
1011.881	1681.69
1012.173	1679.21
1012.466	1646.89
1012.759	1647.34
1013.052	1656.38
1013.344	1654.12
1013.637	1650.73
1013.93	1636.5
1014.222	1584.07
1014.514	1612.09
1014.807	1604.63
1015.099	1574.13
1015.391	1562.6
1015.683	1561.92
1015.976	1560.79
1016.268	1545.88
1016.56	1541.81
1016.851	1517.4
1017.143	1515.37
1017.435	1504.3
1017.727	1492.09
1018.018	1499.32
1018.31	1509.72
1018.602	1455.48
1018.893	1463.39
1019.185	1437.63
1019.476	1444.19
1019.767	1451.64
1020.058	1425.65
1020.35	1405.99
1020.641	1387.92
1020.932	1375.94
1021.223	1379.1
1021.514	1382.94
1021.804	1359.67
1022.095	1357.41
1022.386	1370.51
1022.677	1348.14
1022.967	1319.89
1023.258	1355.83
1023.548	1335.71
1023.839	1294.81
1024.129	1305.66
1024.419	1335.26
1024.709	1288.48
1025	1287.58
1025.29	1264.3
1025.58	1248.94
1025.87	1256.85
1026.16	1241.48
1026.449	1256.62
1026.739	1225.89
1027.029	1252.33
1027.319	1223.85
1027.608	1184.76
1027.898	1206.23
1028.187	1208.94
1028.477	1169.62
1028.766	1167.13
1029.055	1167.13
1029.344	1140.69
1029.634	1165.32
1029.923	1141.82
1030.212	1142.72
1030.501	1125.78
1030.79	1128.49
1031.078	1100.01
1031.367	1101.82
1031.656	1109.5
1031.945	1083.52
1032.233	1061.6
1032.522	1093.46
1032.81	1062.95
1033.099	1045.55
1033.387	1063.86
1033.675	1056.4
1033.963	1073.8
1034.251	1010.07
1034.54	1029.96
1034.828	1020.69
1035.116	1030.64
1035.403	1027.92
1035.691	1004.65
1035.979	1021.82
1036.267	989.28
1036.554	1007.59
1036.842	972.79
1037.129	979.56
1037.417	936.63
1037.704	973.01
1037.992	954.48
1038.279	953.35
1038.566	940.92
1038.853	940.92
1039.14	940.92
