Data from hue_90_FLMS001491_13.txt Node
Date: Mon Feb 06 15:24:45 GMT 2017
User: dcchb
Spectrometer: FLMS00149
Trigger mode: 0
Integration Time (sec): 2.000000E-2
Scans to average: 10
Electric dark correction enabled: true
Nonlinearity correction enabled: false
Boxcar width: 0
XAxis mode: Wavelengths
Number of Pixels in Spectrum: 2048
>>>>>Begin Spectral Data<<<<<
341.393	-10.73
341.776	-10.73
342.16	-10.73
342.543	-67.46
342.927	-59.77
343.31	-74.01
343.693	-57.51
344.077	-62.03
344.46	-59.77
344.843	-54.57
345.226	-47.57
345.61	-42.82
345.993	-27.46
346.376	-6.21
346.759	30.39
347.142	44.41
347.525	22.71
347.908	54.8
348.291	73.56
348.674	92.99
349.057	113.1
349.44	119.21
349.823	140.67
350.206	154.46
350.588	188.36
350.971	209.6
351.354	202.59
351.737	236.94
352.119	267.22
352.502	252.31
352.884	263.83
353.267	262.93
353.65	301.57
354.032	303.16
354.414	311.07
354.797	302.7
355.179	328.69
355.562	298.41
355.944	312.42
356.326	348.58
356.709	340.22
357.091	319.43
357.473	311.52
357.855	327.79
358.238	323.95
358.62	354.68
359.002	316.94
359.384	323.04
359.766	346.09
360.148	335.7
360.53	325.75
360.912	317.84
361.294	328.92
361.676	358.75
362.057	329.14
362.439	310.61
362.821	323.49
363.203	330.27
363.584	329.82
363.966	313.33
364.348	326.21
364.729	322.82
365.111	315.36
365.493	319.88
365.874	298.86
366.256	307.68
366.637	307.45
367.019	323.95
367.4	296.6
367.781	305.64
368.163	314.68
368.544	321.69
368.925	320.56
369.306	312.2
369.688	278.07
370.069	292.08
370.45	287.11
370.831	302.25
371.212	310.16
371.593	312.65
371.974	306.32
372.355	304.96
372.736	327.34
373.117	325.3
373.498	312.65
373.879	307.9
374.26	297.96
374.641	286.21
375.021	306.32
375.402	314.91
375.783	329.37
376.163	306.09
376.544	329.82
376.925	312.2
377.305	326.43
377.686	314
378.066	318.97
378.447	339.99
378.827	308.13
379.208	337.51
379.588	312.42
379.968	336.15
380.349	308.81
380.729	327.56
381.109	311.29
381.489	337.28
381.87	343.61
382.25	321.91
382.63	333.89
383.01	342.02
383.39	349.26
383.77	333.44
384.15	323.04
384.53	333.44
384.91	364.4
385.29	347.67
385.67	350.84
386.049	342.7
386.429	329.6
386.809	349.03
387.189	346.77
387.568	350.84
387.948	352.65
388.328	333.66
388.707	354.23
389.087	356.49
389.466	344.06
389.846	340.89
390.225	337.05
390.605	366.88
390.984	367.79
391.363	347.9
391.743	375.92
392.122	355.81
392.501	387
392.881	356.71
393.26	375.02
393.639	364.17
394.018	364.62
394.397	377.05
394.776	366.66
395.155	351.74
395.534	375.7
395.913	387
396.292	357.17
396.671	375.7
397.05	374.11
397.429	376.37
397.808	376.6
398.186	381.35
398.565	388.8
398.944	385.87
399.323	392.19
399.701	402.81
400.08	384.28
400.458	384.06
400.837	360.1
401.215	381.35
401.594	407.56
401.972	395.36
402.351	382.25
402.729	367.33
403.107	394
403.486	408.46
403.864	395.13
404.242	415.02
404.62	416.37
404.999	432.19
405.377	414.79
405.755	393.55
406.133	424.96
406.511	424.06
406.889	427.45
407.267	413.89
407.645	424.06
408.023	401.91
408.401	412.98
408.779	426.32
409.156	433.77
409.534	422.02
409.912	429.93
410.29	431.74
410.667	460.67
411.045	447.56
411.422	469.25
411.8	440.33
412.178	436.49
412.555	459.99
412.933	466.32
413.31	463.38
413.687	449.59
414.065	464.06
414.442	466.99
414.819	479.42
415.197	480.1
415.574	477.16
415.951	457.95
416.328	494.34
416.705	482.81
417.082	489.59
417.46	495.69
417.837	476.94
418.214	486.43
418.591	478.52
418.967	489.37
419.344	494.56
419.721	510.38
420.098	518.07
420.475	488.01
420.852	517.39
421.228	522.81
421.605	533.66
421.982	536.14
422.358	545.64
422.735	526.65
423.111	535.24
423.488	541.34
423.864	525.97
424.241	549.48
424.617	553.54
424.994	570.27
425.37	533.43
425.746	554.67
426.123	541.57
426.499	549.7
426.875	573.66
427.251	580.21
427.627	554.22
428.003	594.22
428.379	588.35
428.756	572.53
429.132	593.77
429.507	584.73
429.883	583.15
430.259	596.93
430.635	584.28
431.011	598.74
431.387	612.98
431.763	639.42
432.138	633.99
432.514	643.94
432.89	616.59
433.265	642.81
433.641	629.02
434.016	653.43
434.392	643.49
434.767	676.71
435.143	656.37
435.518	661.11
435.894	689.81
436.269	676.93
436.644	705.18
437.02	706.31
437.395	706.54
437.77	717.38
438.145	697.27
438.52	725.52
438.895	742.69
439.271	736.14
439.646	746.99
440.021	733.2
440.395	745.86
440.77	727.1
441.145	762.8
441.52	748.79
441.895	779.3
442.27	765.06
442.645	750.15
443.019	785.4
443.394	779.98
443.769	752.64
444.143	779.3
444.518	803.03
444.892	797.15
445.267	822.01
445.641	819.75
446.016	801
446.39	811.39
446.764	829.02
447.139	827.66
447.513	811.84
447.887	823.82
448.262	852.97
448.636	834.67
449.01	852.52
449.384	841.9
449.758	901.56
450.132	861.79
450.506	871.5
450.88	867.43
451.254	890.26
451.628	891.84
452.002	878.96
452.376	908.79
452.75	905.4
453.123	906.08
453.497	926.42
453.871	938.39
454.244	935.91
454.618	976.13
454.992	946.3
455.365	962.8
455.739	970.03
456.112	1004.15
456.486	999.86
456.859	1035.79
457.232	1025.85
457.606	1019.97
457.979	1041.44
458.352	1085.51
458.725	1074.66
459.099	1089.58
459.472	1098.84
459.845	1083.47
460.218	1129.8
460.591	1104.26
460.964	1124.6
461.337	1141.33
461.71	1163.47
462.083	1192.4
462.456	1179.74
462.829	1212.74
463.201	1209.8
463.574	1227.43
463.947	1240.98
464.32	1290.02
464.692	1268.33
465.065	1262.68
465.438	1307.65
465.81	1322.79
466.183	1320.98
466.555	1360.98
466.928	1409.34
467.3	1385.16
467.672	1398.27
468.045	1471.94
468.417	1471.26
468.789	1485.72
469.161	1490.24
469.534	1526.63
469.906	1556.23
470.278	1606.4
470.65	1620.86
471.022	1607.3
471.394	1662.22
471.766	1707.86
472.138	1743.12
472.51	1779.28
472.882	1831.25
473.253	1831.03
473.625	1845.49
473.997	1925.71
474.369	1963.9
474.74	1975.2
475.112	2013.85
475.484	2057.46
475.855	2107.85
476.227	2136.33
476.598	2232.14
476.97	2222.2
477.341	2350.56
477.713	2359.6
478.084	2407.28
478.455	2481.86
478.827	2526.83
479.198	2649.53
479.569	2650.66
479.94	2753.71
480.311	2847.27
480.682	2880.94
481.053	3013.82
481.424	3056.53
481.795	3133.36
482.166	3170.2
482.537	3304.43
482.908	3407.48
483.279	3425.56
483.65	3544.88
484.021	3706.46
484.391	3744.65
484.762	3826.68
485.133	3881.59
485.503	3981.48
485.874	4131.53
486.244	4190.96
486.615	4327
486.985	4416.27
487.356	4566.77
487.726	4670.5
488.097	4806.77
488.467	4887.44
488.837	5026.2
489.207	5155.01
489.578	5264.61
489.948	5382.8
490.318	5492.4
490.688	5607.88
491.058	5713.64
491.428	5836.8
491.798	5965.61
492.168	6150.23
492.538	6184.36
492.908	6317.01
493.278	6447.63
493.648	6565.36
494.017	6674.97
494.387	6802.87
494.757	6962.87
495.126	7083.77
495.496	7115.18
495.866	7139.36
496.235	7323.76
496.605	7453.7
496.974	7536.64
497.344	7689.63
497.713	7754.26
498.082	7895.95
498.452	8004.65
498.821	8069.28
499.19	8161.71
499.559	8295.94
499.928	8321.02
500.298	8411.19
500.667	8596.05
501.036	8603.05
501.405	8732.09
501.774	8832.42
502.143	8872.65
502.512	8957.62
502.88	9068.12
503.249	9088.01
503.618	9188.12
503.987	9252.98
504.356	9383.37
504.724	9432.63
505.093	9455.23
505.462	9562.12
505.83	9616.13
506.199	9677.15
506.567	9859.74
506.936	9914.43
507.304	9991.26
507.672	10034.88
508.041	10094.31
508.409	10114.2
508.777	10229.45
509.145	10336.11
509.514	10224.02
509.882	10360.07
510.25	10402.33
510.618	10438.26
510.986	10532.94
511.354	10600.74
511.722	10718.48
512.09	10765.03
512.458	10777.46
512.826	10858.13
513.193	10906.27
513.561	10859.26
513.929	10928.19
514.297	11024.46
514.664	11087.96
515.032	11116.66
515.4	11219.7
515.767	11219.03
516.135	11326.82
516.502	11245.47
516.869	11399.36
517.237	11409.98
517.604	11342.64
517.972	11403.2
518.339	11475.29
518.706	11458.34
519.073	11433.26
519.44	11558.68
519.808	11666.7
520.175	11585.57
520.542	11704.21
520.909	11774.27
521.276	11662.41
521.643	11781.05
522.009	11770.65
522.376	11891.55
522.743	11883.64
523.11	12010.64
523.477	11993.02
523.843	12153.47
524.21	12158.44
524.577	12116.4
524.943	12214.03
525.31	12184.2
525.676	12275.5
526.043	12313.24
526.409	12241.37
526.776	12380.35
527.142	12352.56
527.508	12350.75
527.874	12439.11
528.241	12360.01
528.607	12423.29
528.973	12402.95
529.339	12395.27
529.705	12490.63
530.071	12557.52
530.437	12576.51
530.803	12487.92
531.169	12558.43
531.535	12508.94
531.901	12594.13
532.267	12520.91
532.632	12561.14
532.998	12521.37
533.364	12590.06
533.73	12511.42
534.095	12576.28
534.461	12545.09
534.826	12580.57
535.192	12526.34
535.557	12591.42
535.923	12543.96
536.288	12555.49
536.653	12555.49
537.019	12463.97
537.384	12454.02
537.749	12501.93
538.114	12419.67
538.479	12367.25
538.845	12375.83
539.21	12337.42
539.575	12362.05
539.94	12326.12
540.305	12306.23
540.67	12170.41
541.034	12235.72
541.399	12255.16
541.764	12217.19
542.129	12194.82
542.494	12239.57
542.858	12192.79
543.223	12148.27
543.587	12179
543.952	12087.48
544.316	12171.32
544.681	12089.06
545.045	12029.63
545.41	12132.45
545.774	12005.9
546.138	11955.05
546.503	11993.02
546.867	11916.64
547.231	11946.01
547.595	11981.49
547.959	11865.56
548.324	11899.01
548.688	11818.56
549.052	11786.47
549.416	11778.33
549.779	11744.21
550.143	11736.08
550.507	11738.79
550.871	11756.19
551.235	11671.67
551.599	11707.83
551.962	11709.64
552.326	11687.49
552.689	11697.88
553.053	11608.85
553.417	11624.67
553.78	11683.87
554.143	11565.01
554.507	11676.42
554.87	11547.15
555.234	11573.59
555.597	11456.76
555.96	11508.96
556.323	11494.05
556.686	11494.27
557.05	11532.92
557.413	11556.87
557.776	11514.61
558.139	11531.34
558.502	11529.08
558.865	11517.78
559.228	11468.51
559.59	11533.6
559.953	11493.6
560.316	11572.24
560.679	11476.42
561.041	11517.55
561.404	11480.49
561.767	11564.1
562.129	11488.62
562.492	11534.95
562.854	11526.82
563.217	11532.01
563.579	11563.65
563.941	11588.28
564.304	11595.29
564.666	11616.53
565.028	11598.9
565.39	11597.1
565.753	11737.21
566.115	11636.64
566.477	11675.06
566.839	11676.19
567.201	11790.54
567.563	11745.79
567.925	11798.9
568.287	11725.23
568.648	11709.86
569.01	11805.45
569.372	11838.9
569.734	11744.44
570.095	11804.55
570.457	11845.45
570.819	11802.97
571.18	11837.99
571.542	11878.9
571.903	11847.49
572.265	11902.17
572.626	11975.84
572.987	11910.08
573.349	11815.85
573.71	11927.48
574.071	11922.29
574.432	12004.09
574.794	11973.58
575.155	12020.36
575.516	11962.96
575.877	11977.88
576.238	12007.25
576.599	12037.08
576.96	12005.9
577.32	11962.51
577.681	12101.26
578.042	12124.54
578.403	12020.36
578.763	11995.96
579.124	12015.16
579.485	12139.45
579.845	12130.19
580.206	12100.59
580.566	11999.57
580.927	12058.33
581.287	12126.35
581.648	12063.52
582.008	12000.7
582.368	12014.94
582.728	12106.01
583.089	12022.4
583.449	11982.17
583.809	11998.67
584.169	12001.61
584.529	12018.78
584.889	12102.85
585.249	12054.03
585.609	11961.83
585.969	12042.51
586.329	11969.06
586.688	12008.38
587.048	11970.87
587.408	11918.22
587.768	11967.71
588.127	11938.33
588.487	11945.79
588.846	11934.26
589.206	11842.51
589.565	11878.44
589.925	11921.38
590.284	11925.45
590.643	11898.11
591.003	11941.95
591.362	11880.7
591.721	11924.55
592.08	11896.3
592.44	11934.71
592.799	11895.62
593.158	11874.15
593.517	11927.03
593.876	11888.84
594.235	11852.91
594.593	11921.61
594.952	11906.47
595.311	11837.77
595.67	11866.47
596.029	11900.37
596.387	11878.67
596.746	11899.46
597.104	11868.28
597.463	11840.25
597.822	11844.55
598.18	11875.73
598.538	11773.14
598.897	11905.11
599.255	11755.74
599.613	11923.19
599.972	11830.76
600.33	11848.16
600.688	11816.3
601.046	11899.01
601.404	11883.19
601.762	11846.13
602.12	11851.1
602.478	11851.1
602.836	11840.71
603.194	11808.39
603.552	11778.33
603.91	11768.17
604.268	11853.13
604.625	11784.66
604.983	11817.66
605.341	11803.64
605.698	11849.07
606.056	11845
606.413	11859.46
606.771	11884.09
607.128	11904.21
607.485	11806.36
607.843	11889.29
608.2	11878.9
608.557	11932.23
608.914	11870.99
609.272	11968.84
609.629	11994.83
609.986	11931.55
610.343	11880.03
610.7	12016.97
611.057	11995.05
611.414	11920.7
611.771	11925
612.127	12044.99
612.484	12000.25
612.841	11991.44
613.198	11949.86
613.554	12014.49
613.911	12038.89
614.267	12060.13
614.624	12052.45
614.98	12053.13
615.337	12132.45
615.693	12034.82
616.05	12134.03
616.406	12179.91
616.762	12076.86
617.118	12135.84
617.475	12099
617.831	12113.69
618.187	12052.9
618.543	12178.32
618.899	12230.07
619.255	12107.37
619.611	12133.81
619.967	12165.44
620.323	12217.64
620.678	12115.05
621.034	12075.5
621.39	12098.55
621.746	12143.52
622.101	12232.56
622.457	12157.08
622.812	12168.15
623.168	12255.61
623.523	12157.08
623.879	12258.32
624.234	12146.23
624.589	12183.75
624.945	12170.64
625.3	12251.99
625.655	12210.64
626.01	12233.69
626.365	12178.55
626.72	12223.29
627.075	12207.02
627.43	12190.3
627.785	12204.54
628.14	12134.94
628.495	12150.98
628.85	12111.43
629.205	12119.34
629.559	12220.81
629.914	12103.52
630.269	12084.09
630.623	12122.51
630.978	12068.95
631.332	12106.46
631.687	12098.55
632.041	12013.81
632.396	12097.87
632.75	12073.02
633.104	12037.76
633.459	12049.74
633.813	12036.18
634.167	12004.09
634.521	11921.16
634.875	11997.09
635.229	11904.88
635.583	11947.14
635.937	11884.77
636.291	11856.52
636.645	11870.54
636.999	11868.95
637.352	11898.33
637.706	11873.47
638.06	11817.66
638.413	11813.81
638.767	11782.63
639.121	11882.06
639.474	11790.99
639.828	11803.64
640.181	11797.77
640.534	11821.5
640.888	11714.61
641.241	11682.29
641.594	11676.87
641.947	11750.09
642.301	11663.76
642.654	11638.9
643.007	11666.92
643.36	11658.34
643.713	11616.3
644.066	11624.67
644.419	11606.36
644.771	11552.35
645.124	11473.03
645.477	11434.16
645.83	11349.65
646.182	11278.91
646.535	11249.99
646.888	11231.68
647.24	11242.53
647.593	11302.64
647.945	11320.72
648.298	11187.39
648.65	11171.34
649.002	11191.01
649.355	11261.29
649.707	11289.53
650.059	11302.87
650.411	11375.18
650.763	11325.46
651.115	11581.73
651.467	11507.16
651.819	11510.09
652.171	11548.28
652.523	11520.04
652.875	11516.87
653.227	11409.53
653.578	11468.51
653.93	11558.91
654.282	11446.82
654.633	11419.93
654.985	11539.02
655.337	11470.77
655.688	11521.17
656.039	11494.95
656.391	11412.47
656.742	11395.52
657.094	11430.09
657.445	11473.03
657.796	11454.05
658.147	11403.65
658.498	11433.71
658.849	11551
659.2	11457.44
659.551	11411.11
659.902	11491.79
660.253	11452.69
660.604	11477.78
660.955	11477.33
661.306	11506.25
661.656	11529.3
662.007	11516.42
662.358	11495.63
662.708	11505.35
663.059	11496.31
663.409	11455.63
663.76	11507.38
664.11	11461.96
664.461	11462.86
664.811	11488.4
665.161	11570.43
665.511	11506.03
665.862	11506.48
666.212	11543.31
666.562	11569.75
666.912	11476.42
667.262	11484.1
667.612	11536.53
667.962	11513.71
668.312	11453.6
668.662	11601.16
669.011	11442.75
669.361	11458.34
669.711	11473.94
670.06	11448.17
670.41	11455.18
670.76	11431
671.109	11480.72
671.459	11468.96
671.808	11476.87
672.157	11543.76
672.507	11373.83
672.856	11386.93
673.205	11408.4
673.554	11436.2
673.904	11364.79
674.253	11404.11
674.602	11437.78
674.951	11255.41
675.3	11122.31
675.649	11402.98
675.998	11285.01
676.346	11375.18
676.695	11389.64
677.044	11305.8
677.393	11304.9
677.741	11294.28
678.09	11308.74
678.438	11206.6
678.787	11220.16
679.135	11320.72
679.484	11210.44
679.832	11272.81
680.181	11185.58
680.529	11228.29
680.877	11174.28
681.225	11129.31
681.573	11261.74
681.922	11062.2
682.27	11020.61
682.618	11073.27
682.966	10999.37
683.314	11101.74
683.661	11061.29
684.009	10928.41
684.357	10932.93
684.705	10908.3
685.053	10990.78
685.4	10846.83
685.748	10836.66
686.095	10771.13
686.443	10830.11
686.79	10769.32
687.138	10781.52
687.485	10794.18
687.832	10722.54
688.18	10698.81
688.527	10620.85
688.874	10606.61
689.221	10645.26
689.568	10579.72
689.915	10588.08
690.262	10550.34
690.609	10529.55
690.956	10470.12
691.303	10461.08
691.65	10385.83
691.997	10347.64
692.344	10332.72
692.69	10292.72
693.037	10320.07
693.383	10254.53
693.73	10219.05
694.077	10220.41
694.423	10197.81
694.769	10083.92
695.116	10183.57
695.462	10051.6
695.808	10116.46
696.155	10039.85
696.501	9982.9
696.847	9956.24
697.193	9867.42
697.539	9898.61
697.885	9735.45
698.231	9806.41
698.577	9770.7
698.923	9790.36
699.269	9604.38
699.614	9608.9
699.96	9649.12
700.306	9654.1
700.651	9564.61
700.997	9527.55
701.342	9525.74
701.688	9471.73
702.033	9495.68
702.379	9414.55
702.724	9398.06
703.069	9378.62
703.415	9279.87
703.76	9328.23
704.105	9259.98
704.45	9276.03
704.795	9201.9
705.14	9079.87
705.485	9144.51
705.83	9148.8
706.175	9106.31
706.52	9117.39
706.865	9112.19
707.209	9001.01
707.554	9001.68
707.899	8945.87
708.243	8944.06
708.588	8918.3
708.932	8782.71
709.277	8878.75
709.621	8852.99
709.966	8793.1
710.31	8793.55
710.654	8720.79
710.998	8709.04
711.342	8680.79
711.687	8700.22
712.031	8669.04
712.375	8572.32
712.719	8659.55
713.063	8663.39
713.407	8678.53
713.75	8617.97
714.094	8627.23
714.438	8549.94
714.782	8628.59
715.125	8467.23
715.469	8567.12
715.812	8459.55
716.156	8471.98
716.499	8423.39
716.843	8514.01
717.186	8355.83
717.53	8514.69
717.873	8462.94
718.216	8429.95
718.559	8352.44
718.902	8323.28
719.246	8315.15
719.589	8347.69
719.932	8315.83
720.275	8300.46
720.617	8308.37
720.96	8306.79
721.303	8282.83
721.646	8273.79
721.989	8191.31
722.331	8242.38
722.674	8206.45
723.016	8212.33
723.359	8175.72
723.701	8273.57
724.044	8234.92
724.386	8171.88
724.729	8203.29
725.071	8192.89
725.413	8118.77
725.755	8161.71
726.097	8074.02
726.439	8100.24
726.782	8086.23
727.124	8135.27
727.465	8100.92
727.807	8074.7
728.149	8157.19
728.491	8135.94
728.833	8032.44
729.175	8096.85
729.516	8027.7
729.858	8008.72
730.199	8077.64
730.541	8052.56
730.882	7998.32
731.224	8105.44
731.565	8036.51
731.906	8034.93
732.248	8033.57
732.589	8088.49
732.93	8042.16
733.271	8040.13
733.612	8071.77
733.953	8067.25
734.294	8051.43
734.635	8032.22
734.976	8055.27
735.317	8013.24
735.658	8022.27
735.999	7997.87
736.339	7983.86
736.68	8111.76
737.021	8047.13
737.361	8038.09
737.702	8128.03
738.042	8085.32
738.383	8094.82
738.723	8038.09
739.063	8079.67
739.404	8051.88
739.744	8089.84
740.084	8086.23
740.424	8066.79
740.764	8101.82
741.104	8224.53
741.444	8134.36
741.784	8108.37
742.124	8148.37
742.464	8150.63
742.804	8084.65
743.143	8201.48
743.483	8200.58
743.823	8159.45
744.162	8185.21
744.502	8243.96
744.841	8243.96
745.181	8335.26
745.52	8359.89
745.86	8363.06
746.199	8397.63
746.538	8448.48
746.877	8445.09
747.216	8497.29
747.556	8518.99
747.895	8537.29
748.234	8599.43
748.573	8601.02
748.911	8620.23
749.25	8726.89
749.589	8692.54
749.928	8785.42
750.267	8885.98
750.605	8899.09
750.944	8999.88
751.283	8989.03
751.621	9098.63
751.96	9112.64
752.298	9330.04
752.636	9316.48
752.975	9339.75
753.313	9382.69
753.651	9610.71
753.989	9628.79
754.327	9713.53
754.666	9762.34
755.004	9871.94
755.342	10039.62
755.679	10104.71
756.017	10223.8
756.355	10347.64
756.693	10417.47
757.031	10565.94
757.368	10681.19
757.706	10782.2
758.044	10986.94
758.381	11116.43
758.719	11158.69
759.056	11349.65
759.394	11373.6
759.731	11444.11
760.068	11673.93
760.405	11705.79
760.743	11878.44
761.08	12087.03
761.417	12170.41
761.754	12268.26
762.091	12408.6
762.428	12565.21
762.765	12658.99
763.102	12858.76
763.438	12928.36
763.775	13052.65
764.112	13169.48
764.449	13322.7
764.785	13432.08
765.122	13477.27
765.458	13643.37
765.795	13757.04
766.131	13939.18
766.467	13900.99
766.804	14131.72
767.14	14171.72
767.476	14294.2
767.812	14340.98
768.148	14566.06
768.485	14599.96
768.821	14673.17
769.157	14784.58
769.492	14901.64
769.828	14982.09
770.164	14930.12
770.5	15092.15
770.836	15212.59
771.171	15199.71
771.507	15373.04
771.842	15337.34
772.178	15389.31
772.513	15512.93
772.849	15591.79
773.184	15589.31
773.519	15742.52
773.855	15762.86
774.19	15709.53
774.525	15818.68
774.86	15871.79
775.195	15930.09
775.53	15940.26
775.865	15892.35
776.2	15874.05
776.535	15882.86
776.87	15963.76
777.205	16091.67
777.539	15959.02
777.874	16114.27
778.209	16051.67
778.543	16046.02
778.878	15971.44
779.212	16032.23
779.547	16058.67
779.881	16085.34
780.215	16111.33
780.55	16116.98
780.884	16015.06
781.218	16063.19
781.552	16102.74
781.886	16046.02
782.22	15981.61
782.554	16110.42
782.888	15908.85
783.222	15968.73
783.556	16009.18
783.889	15931.9
784.223	15886.7
784.557	15961.05
784.89	15966.47
785.224	15874.05
785.557	15881.5
785.891	15826.36
786.224	15851.9
786.558	15883.09
786.891	15698.23
787.224	15731.68
787.557	15765.12
787.891	15738.91
788.224	15740.04
788.557	15668.18
788.89	15744.11
789.223	15715.18
789.556	15582.3
789.888	15555.41
790.221	15495.52
790.554	15460.72
790.887	15507.95
791.219	15550.89
791.552	15458.01
791.884	15376.21
792.217	15326.94
792.549	15326.26
792.882	15267.51
793.214	15199.71
793.546	15291.01
793.879	15149.77
794.211	15189.09
794.543	15137.34
794.875	15097.57
795.207	15111.58
795.539	15050.34
795.871	14998.81
796.203	14953.17
796.535	14867.52
796.867	14945.26
797.198	14831.59
797.53	14862.55
797.862	14766.73
798.193	14836.79
798.525	14788.2
798.856	14788.88
799.188	14620.07
799.519	14625.04
799.85	14503.46
800.182	14609.67
800.513	14479.51
800.844	14371.71
801.175	14549.11
801.506	14490.35
801.837	14385.27
802.168	14407.64
802.499	14326.29
802.83	14238.16
803.161	14225.5
803.491	14267.53
803.822	14201.55
804.153	14220.53
804.483	14009.69
804.814	14058.5
805.145	13973.08
805.475	13989.12
805.805	13992.29
806.136	14006.52
806.466	13969.24
806.796	13912.97
807.126	13839.52
807.457	13828
807.787	13830.26
808.117	13703.03
808.447	13720.88
808.777	13750.71
809.107	13672.97
809.436	13673.43
809.766	13669.36
810.096	13613.99
810.426	13553.2
810.755	13628.23
811.085	13550.04
811.414	13489.02
811.744	13395.69
812.073	13358.18
812.403	13373.55
812.732	13361.34
813.061	13351.4
813.39	13239.99
813.719	13306.43
814.049	13340.55
814.378	13241.57
814.707	13191.4
815.036	13164.06
815.365	13051.52
815.693	13004.97
816.022	13093.55
816.351	12993.44
816.68	12966.1
817.008	13006.78
817.337	12953.22
817.665	12894.24
817.994	12919.55
818.322	12868.25
818.651	12763.17
818.979	12686.11
819.307	12857.85
819.636	12782.83
819.964	12684.53
820.292	12752.32
820.62	12684.3
820.948	12706.45
821.276	12723.39
821.604	12634.13
821.932	12692.89
822.259	12629.16
822.587	12668.03
822.915	12642.27
823.243	12628.03
823.57	12691.98
823.898	12684.53
824.225	12681.36
824.553	12555.26
824.88	12611.31
825.207	12684.98
825.535	12623.96
825.862	12713
826.189	12656.28
826.516	12665.09
826.843	12743.96
827.17	12705.09
827.497	12679.33
827.824	12632.55
828.151	12681.14
828.478	12743.73
828.805	12795.26
829.131	12610.4
829.458	12590.74
829.785	12648.82
830.111	12630.74
830.438	12694.24
830.764	12700.34
831.09	12713.68
831.417	12648.37
831.743	12640.91
832.069	12596.39
832.395	12607.24
832.722	12630.74
833.048	12675.94
833.374	12575.38
833.7	12653.79
834.026	12539.67
834.351	12611.76
834.677	12557.3
835.003	12669.38
835.329	12553.91
835.654	12537.86
835.98	12527.24
836.306	12438.88
836.631	12447.02
836.956	12447.24
837.282	12584.19
837.607	12357.3
837.932	12290.41
838.258	12408.15
838.583	12432.1
838.908	12335.83
839.233	12346.68
839.558	12296.74
839.883	12264.42
840.208	12266.01
840.533	12230.07
840.858	12236.63
841.182	12232.79
841.507	12171.77
841.832	12185.33
842.156	12109.63
842.481	12117.76
842.805	12083.86
843.13	12081.38
843.454	12025.79
843.778	11891.33
844.103	11986.69
844.427	11919.57
844.751	12031.66
845.075	11917.09
845.399	11925
845.723	11898.33
846.047	11833.7
846.371	11736.3
846.695	11751.89
847.019	11680.71
847.343	11632.58
847.666	11618.56
847.99	11537.21
848.313	11447.72
848.637	11431.22
848.96	11442.75
849.284	11395.75
849.607	11320.72
849.931	11305.35
850.254	11188.75
850.577	11199.59
850.9	11081.86
851.223	11031.91
851.546	10982.88
851.869	10962.31
852.192	10969.32
852.515	10838.7
852.838	10853.61
853.161	10890.9
853.483	10797.8
853.806	10715.31
854.129	10711.47
854.451	10678.93
854.774	10604.58
855.096	10567.29
855.419	10519.16
855.741	10591.25
856.063	10438.26
856.385	10465.83
856.708	10388.77
857.03	10395.32
857.352	10406.17
857.674	10327.98
857.996	10333.17
858.318	10246.17
858.64	10201.2
858.961	10243.69
859.283	10171.82
859.605	10086.18
859.926	10162.78
860.248	10133.41
860.57	10050.24
860.891	10086.63
861.212	10017.48
861.534	9981.32
861.855	9992.17
862.176	9947.42
862.498	9970.7
862.819	9949.91
863.14	9872.17
863.461	9925.28
863.782	9898.61
864.103	9835.33
864.424	9816.35
864.745	9881.21
865.065	9814.32
865.386	9755.34
865.707	9765.51
866.027	9730.03
866.348	9724.38
866.668	9729.8
866.989	9685.73
867.309	9671.27
867.63	9600.54
867.95	9653.42
868.27	9629.92
868.59	9676.02
868.91	9631.05
869.23	9556.02
869.55	9539.07
869.87	9607.77
870.19	9567.09
870.51	9571.61
870.83	9552.63
871.15	9440.99
871.469	9473.31
871.789	9484.84
872.109	9473.99
872.428	9418.17
872.748	9409.13
873.067	9365.97
873.386	9356.48
873.706	9304.28
874.025	9310.15
874.344	9312.64
874.663	9366.65
874.982	9370.49
875.301	9306.31
875.62	9270.38
875.939	9299.53
876.258	9186.09
876.577	9245.52
876.896	9244.84
877.214	9183.83
877.533	9234.22
877.852	9182.7
878.17	9199.42
878.489	9213.66
878.807	9139.31
879.125	9177.27
879.444	9185.41
879.762	9088.46
880.08	9123.94
880.398	9006.66
880.716	9018.63
881.034	9048.24
881.352	9010.05
881.67	8995.13
881.988	8984.96
882.306	8996.49
882.624	8915.58
882.941	8902.48
883.259	8888.47
883.577	8831.07
883.894	8807.11
884.212	8852.76
884.529	8846.43
884.846	8787.9
885.164	8773.89
885.481	8759.43
885.798	8807.11
886.115	8667.91
886.432	8636.5
886.75	8679.43
887.067	8617.29
887.383	8657.29
887.7	8601.24
888.017	8582.26
888.334	8565.54
888.651	8580.23
888.967	8488.93
889.284	8464.07
889.6	8457.29
889.917	8457.52
890.233	8385.43
890.55	8398.08
890.866	8355.6
891.182	8290.52
891.498	8276.96
891.815	8297.97
892.131	8294.81
892.447	8273.12
892.763	8256.85
893.079	8176.4
893.395	8157.19
893.71	8126.23
894.026	8144.53
894.342	8143.18
894.657	8061.37
894.973	8042.61
895.289	8110.63
895.604	8098.21
895.92	7991.09
896.235	7914.71
896.55	7922.16
896.865	7912.45
897.181	7893.24
897.496	7897.31
897.811	7803.52
898.126	7810.98
898.441	7736.41
898.756	7756.07
899.071	7672.91
899.386	7714.03
899.7	7660.48
900.015	7589.52
900.33	7530.08
900.644	7585.45
900.959	7545.9
901.273	7479.24
901.588	7514.72
901.902	7438.34
902.216	7402.4
902.531	7363.76
902.845	7373.93
903.159	7321.28
903.473	7299.58
903.787	7277.66
904.101	7267.04
904.415	7213.03
904.729	7169.64
905.042	7158.79
905.356	7174.16
905.67	7138.91
905.984	7102.07
906.297	7040.15
906.611	7046.48
906.924	7014.84
907.237	6974.39
907.551	7001.51
907.864	6935.3
908.177	6886.49
908.491	6945.69
908.804	6852.36
909.117	6797.67
909.43	6834.74
909.743	6729.2
910.056	6787.05
910.368	6681.52
910.681	6669.32
910.994	6690.56
911.307	6599.94
911.619	6621.41
911.932	6588.64
912.244	6505.25
912.557	6509.32
912.869	6491.47
913.181	6464.35
913.494	6441.3
913.806	6488.08
914.118	6418.25
914.43	6366.73
914.742	6375.54
915.054	6280.4
915.366	6273.17
915.678	6234.3
915.99	6223
916.302	6222.55
916.613	6241.98
916.925	6230.23
917.236	6176.67
917.548	6137.58
917.859	6109.56
918.171	6080.63
918.482	6041.99
918.794	6044.93
919.105	6010.58
919.416	5921.77
919.727	5997.24
920.038	5966.28
920.349	5933.74
920.66	5835.67
920.971	5888.32
921.282	5826.4
921.593	5807.42
921.903	5738.27
922.214	5724.71
922.525	5770.58
922.835	5685.84
923.146	5680.42
923.456	5672.73
923.767	5613.52
924.077	5603.36
924.387	5660.98
924.697	5599.97
925.008	5538.72
925.318	5532.4
925.628	5538.5
925.938	5520.42
926.248	5443.59
926.558	5414.89
926.867	5447.2
927.177	5390.03
927.487	5372.85
927.796	5368.79
928.106	5308.22
928.416	5323.59
928.725	5324.27
929.034	5210.37
929.344	5294.66
929.653	5258.28
929.962	5204.5
930.271	5177.6
930.581	5141.67
930.89	5121.56
931.199	5098.28
931.508	5096.02
931.817	5092.86
932.125	5103.93
932.434	5006.54
932.743	5003.15
933.051	4960.21
933.36	4939.42
933.669	4892.64
933.977	4911.4
934.286	4879.53
934.594	4909.59
934.902	4888.57
935.21	4835.69
935.519	4801.12
935.827	4816.48
936.135	4812.19
936.443	4755.69
936.751	4733.1
937.059	4717.73
937.367	4706.88
937.674	4710.72
937.982	4702.59
938.29	4658.07
938.597	4730.16
938.905	4544.4
939.213	4593.44
939.52	4525.87
939.827	4596.15
940.135	4465.31
940.442	4495.59
940.749	4516.6
941.056	4479.32
941.363	4444.06
941.67	4425.53
941.977	4470.05
942.284	4406.78
942.591	4411.07
942.898	4351.19
943.205	4354.57
943.511	4314.8
943.818	4320.45
944.125	4271.64
944.431	4292.2
944.738	4212.66
945.044	4220.12
945.35	4206.56
945.657	4223.73
945.963	4193.9
946.269	4183.96
946.575	4130.85
946.881	4126.78
947.187	4115.71
947.493	4039.33
947.799	4109.84
948.105	4023.96
948.41	4050.4
948.716	4011.08
949.022	4009.27
949.327	4015.83
949.633	3942.61
949.938	3952.33
950.244	3950.29
950.549	3899.67
950.854	3898.99
951.16	3863.97
951.465	3887.69
951.77	3853.12
952.075	3812.67
952.38	3843.4
952.685	3789.39
952.99	3775.38
953.294	3761.6
953.599	3768.83
953.904	3723.86
954.209	3733.12
954.513	3722.28
954.818	3717.08
955.122	3667.14
955.426	3652.67
955.731	3638.21
956.035	3656.74
956.339	3620.13
956.643	3615.39
956.948	3568.38
957.252	3596.4
957.556	3585.1
957.86	3497.87
958.163	3550.53
958.467	3556.86
958.771	3500.81
959.075	3511.89
959.378	3525.44
959.682	3464.2
959.985	3452.68
960.289	3411.77
960.592	3408.84
960.896	3371.78
961.199	3430.08
961.502	3391.66
961.805	3382.17
962.108	3338.33
962.411	3340.36
962.714	3318.9
963.017	3308.5
963.32	3308.73
963.623	3268.5
963.926	3260.37
964.228	3256.98
964.531	3212.23
964.833	3215.17
965.136	3235.51
965.438	3188.05
965.741	3216.07
966.043	3172.23
966.345	3169.3
966.648	3150.76
966.95	3162.74
967.252	3089.52
967.554	3119.13
967.856	3098.11
968.158	3086.13
968.46	3054.5
968.761	3056.3
969.063	3031.67
969.365	3029.19
969.666	3000.71
969.968	2985.8
970.269	2952.58
970.571	2972.46
970.872	2938.57
971.174	2943.54
971.475	2934.27
971.776	2906.48
972.077	2862.64
972.378	2854.28
972.679	2872.35
972.98	2874.39
973.281	2900.15
973.582	2853.82
973.883	2795.75
974.183	2833.94
974.484	2813.15
974.785	2755.97
975.085	2811.79
975.386	2771.34
975.686	2785.8
975.986	2758.01
976.287	2744
976.587	2700.83
976.887	2716.2
977.187	2689.08
977.487	2711.23
977.787	2690.21
978.087	2660.16
978.387	2678.91
978.687	2633.72
978.987	2646.37
979.286	2624
979.586	2608.41
979.885	2592.81
980.185	2578.12
980.484	2572.7
980.784	2555.3
981.083	2537
981.382	2568.63
981.682	2566.37
981.981	2540.84
982.28	2493.61
982.579	2496.77
982.878	2480.27
983.177	2481.86
983.475	2489.77
983.774	2467.17
984.073	2480.5
984.372	2426.49
984.67	2446.6
984.969	2377.23
985.267	2400.95
985.566	2382.2
985.864	2340.16
986.162	2373.84
986.461	2351.01
986.759	2368.64
987.057	2333.61
987.355	2335.42
987.653	2349.43
987.951	2345.36
988.249	2321.63
988.547	2291.35
988.844	2254.52
989.142	2242.31
989.44	2235.08
989.737	2239.6
990.035	2244.35
990.332	2254.52
990.63	2212.48
990.927	2237.34
991.224	2212.26
991.521	2186.95
991.819	2124.58
992.116	2202.77
992.413	2159.6
992.71	2127.06
993.006	2135.65
993.303	2139.27
993.6	2121.64
993.897	2134.07
994.193	2102.43
994.49	2108.53
994.787	2077.57
995.083	2050
995.379	2066.05
995.676	2053.17
995.972	2031.02
996.268	2060.62
996.565	2010.68
996.861	1964.36
997.157	2012.72
997.453	1998.48
997.749	1995.77
998.044	1966.84
998.34	1970.46
998.636	1955.77
998.932	1965.03
999.227	1927.97
999.523	1887.3
999.818	1921.87
1000.114	1881.65
1000.409	1920.74
1000.704	1857.92
1001	1887.07
1001.295	1866.28
1001.59	1877.58
1001.885	1873.96
1002.18	1836
1002.475	1849.1
1002.77	1814.3
1003.065	1814.3
1003.359	1803.68
1003.654	1805.72
1003.949	1781.31
1004.243	1762.55
1004.538	1748.99
1004.832	1729.79
1005.127	1738.6
1005.421	1746.51
1005.715	1719.39
1006.009	1722.33
1006.304	1701.99
1006.598	1692.05
1006.892	1700.86
1007.186	1664.48
1007.48	1639.84
1007.773	1662.67
1008.067	1648.66
1008.361	1643.01
1008.655	1665.15
1008.948	1602.78
1009.242	1611.37
1009.535	1590.58
1009.829	1582.67
1010.122	1596
1010.415	1581.09
1010.708	1559.85
1011.001	1549.22
1011.295	1562.56
1011.588	1532.28
1011.881	1503.58
1012.173	1523.24
1012.466	1555.78
1012.759	1521.65
1013.052	1507.19
1013.344	1516.23
1013.637	1490.7
1013.93	1450.7
1014.222	1454.76
1014.514	1458.15
1014.807	1455.89
1015.099	1418.61
1015.391	1449.34
1015.683	1403.92
1015.976	1444.59
1016.268	1404.6
1016.56	1414.31
1016.851	1377.7
1017.143	1381.55
1017.435	1355.33
1017.727	1357.37
1018.018	1334.32
1018.31	1338.38
1018.602	1342
1018.893	1329.34
1019.185	1317.14
1019.476	1324.15
1019.767	1295.67
1020.058	1272.62
1020.35	1296.8
1020.641	1278.72
1020.932	1280.98
1021.223	1278.05
1021.514	1285.5
1021.804	1219.74
1022.095	1259.74
1022.386	1209.8
1022.677	1210.93
1022.967	1208.67
1023.258	1203.7
1023.548	1215
1023.839	1193.53
1024.129	1189.23
1024.419	1191.72
1024.709	1205.73
1025	1159.4
1025.29	1165.73
1025.58	1130.48
1025.87	1134.77
1026.16	1122.12
1026.449	1113.08
1026.739	1129.8
1027.029	1111.72
1027.319	1103.59
1027.608	1119.41
1027.898	1080.76
1028.187	1091.84
1028.477	1058.84
1028.766	1097.71
1029.055	1060.2
1029.344	1061.33
1029.634	1068.33
1029.923	1064.94
1030.212	1043.48
1030.501	1049.58
1030.79	1007.77
1031.078	1017.49
1031.367	997.15
1031.656	1027.2
1031.945	1025.4
1032.233	1018.17
1032.522	967.55
1032.81	992.86
1033.099	978.62
1033.387	991.27
1033.675	943.82
1033.963	970.93
1034.251	969.81
1034.54	939.75
1034.828	942.01
1035.116	955.79
1035.403	949.24
1035.691	926.42
1035.979	947.43
1036.267	901.56
1036.554	921.44
1036.842	906.08
1037.129	887.1
1037.417	890.26
1037.704	897.72
1037.992	884.16
1038.279	880.32
1038.566	887.55
1038.853	887.55
1039.14	887.55
