Data from hue_220_FLMS001491_00024.txt Node
Date: Tue Feb 07 16:39:11 GMT 2017
User: dcchb
Spectrometer: FLMS00149
Trigger mode: 0
Integration Time (sec): 2.000000E-2
Scans to average: 10
Electric dark correction enabled: true
Nonlinearity correction enabled: false
Boxcar width: 0
XAxis mode: Wavelengths
Number of Pixels in Spectrum: 2048
>>>>>Begin Spectral Data<<<<<
341.393	-20.93
341.776	-20.93
342.16	-20.93
342.543	-72.46
342.927	-48.73
343.31	-80.37
343.693	-50.99
344.077	-61.83
344.46	-65.68
344.843	-61.61
345.226	-53.02
345.61	-32.23
345.993	-6.02
346.376	-3.53
346.759	0.54
347.142	25.62
347.525	38.28
347.908	63.59
348.291	82.12
348.674	92.74
349.057	112.4
349.44	104.49
349.823	140.42
350.206	125.73
350.588	180.87
350.971	192.4
351.354	210.25
351.737	242.34
352.119	246.86
352.502	239.85
352.884	269
353.267	272.17
353.65	282.56
354.032	291.83
354.414	308.1
354.797	306.07
355.179	335.44
355.562	307.2
355.944	307.87
356.326	327.31
356.709	334.31
357.091	326.4
357.473	348.32
357.855	336.35
358.238	331.38
358.62	334.99
359.002	342.45
359.384	332.51
359.766	316.69
360.148	323.47
360.53	350.36
360.912	312.39
361.294	312.17
361.676	326.63
362.057	325.95
362.439	306.52
362.821	324.6
363.203	315.33
363.584	311.04
363.966	311.26
364.348	309.91
364.729	330.7
365.111	324.82
365.493	321.66
365.874	311.49
366.256	298.83
366.637	306.29
367.019	302.9
367.4	302.9
367.781	305.61
368.163	308.78
368.544	309.91
368.925	297.03
369.306	298.83
369.688	305.84
370.069	311.94
370.45	290.02
370.831	304.26
371.212	320.53
371.593	293.41
371.974	316.69
372.355	284.82
372.736	318.04
373.117	305.16
373.498	270.59
373.879	288.66
374.26	288.89
374.641	303.81
375.021	309.46
375.402	290.02
375.783	312.17
376.163	300.19
376.544	307.2
376.925	313.75
377.305	305.84
377.686	309
378.066	308.1
378.447	328.89
378.827	306.07
379.208	298.83
379.588	326.18
379.968	303.81
380.349	338.61
380.729	315.78
381.109	334.09
381.489	329.57
381.87	325.05
382.25	309
382.63	316.69
383.01	332.73
383.39	343.8
383.77	336.35
384.15	320.98
384.53	352.17
384.91	322.11
385.29	330.47
385.67	326.86
386.049	320.3
386.429	324.6
386.809	341.09
387.189	339.51
387.568	359.85
387.948	345.61
388.328	333.41
388.707	329.79
389.087	344.26
389.466	348.32
389.846	346.06
390.225	349.91
390.605	352.62
390.984	360.3
391.363	350.58
391.743	362.79
392.122	336.8
392.501	347.87
392.881	372.5
393.26	366.18
393.639	356.46
394.018	376.35
394.397	375.89
394.776	378.61
395.155	364.37
395.534	373.41
395.913	362.79
396.292	386.74
396.671	369.34
397.05	372.96
397.429	387.19
397.808	392.16
398.186	384.93
398.565	379.74
398.944	377.02
399.323	379.28
399.701	402.33
400.08	394.2
400.458	384.93
400.837	416.12
401.215	401.88
401.594	399.85
401.972	398.49
402.351	399.62
402.729	399.17
403.107	436.01
403.486	409.11
403.864	399.62
404.242	407.08
404.62	427.64
404.999	446.4
405.377	430.81
405.755	436.91
406.133	423.58
406.511	454.76
406.889	441.66
407.267	475.55
407.645	452.95
408.023	469.45
408.401	463.12
408.779	458.38
409.156	489.56
409.534	497.02
409.912	480.75
410.29	512.39
410.667	487.08
411.045	502.22
411.422	506.51
411.8	515.1
412.178	521.88
412.555	544.93
412.933	534.08
413.31	543.35
413.687	551.03
414.065	570.92
414.442	566.4
414.819	579.28
415.197	580.86
415.574	598.26
415.951	591.93
416.328	614.31
416.705	602.55
417.082	603.23
417.46	621.99
417.837	625.38
418.214	633.29
418.591	645.94
418.967	695.43
419.344	677.58
419.721	674.19
420.098	663.8
420.475	720.52
420.852	685.49
421.228	702.21
421.605	715.09
421.982	729.56
422.358	747.18
422.735	750.12
423.111	761.19
423.488	762.32
423.864	781.08
424.241	794.87
424.617	790.8
424.994	840.74
425.37	837.8
425.746	860.85
426.123	850.23
426.499	867.41
426.875	901.98
427.251	909.21
427.627	900.63
428.003	917.12
428.379	911.02
428.756	945.37
429.132	960.74
429.507	965.71
429.883	981.53
430.259	975.88
430.635	984.92
431.011	1002.09
431.387	1005.93
431.763	1043.22
432.138	1034.18
432.514	1034.63
432.89	1098.59
433.265	1115.31
433.641	1113.05
434.016	1155.08
434.392	1152.82
434.767	1207.74
435.143	1165.03
435.518	1186.49
435.894	1238.02
436.269	1268.3
436.644	1302.42
437.02	1304.23
437.395	1331.58
437.77	1326.83
438.145	1374.29
438.52	1382.2
438.895	1382.2
439.271	1404.34
439.646	1464.45
440.021	1467.84
440.395	1500.38
440.77	1490.22
441.145	1523.66
441.52	1528.63
441.895	1529.99
442.27	1565.92
442.645	1564.56
443.019	1595.97
443.394	1627.39
443.769	1610.89
444.143	1616.99
444.518	1642.98
444.892	1645.24
445.267	1677.33
445.641	1696.09
446.016	1702.41
446.39	1722.3
446.764	1714.16
447.139	1716.2
447.513	1725.69
447.887	1760.72
448.262	1781.28
448.636	1759.13
449.01	1791.9
449.384	1812.47
449.758	1816.53
450.132	1852.01
450.506	1840.94
450.88	1884.33
451.254	1878.23
451.628	1900.83
452.002	1934.95
452.376	1920.49
452.75	1962.97
453.123	1953.71
453.497	1992.35
453.871	2000.94
454.244	2004.55
454.618	2065.12
454.992	2078
455.365	2061.95
455.739	2117.09
456.112	2123.64
456.486	2143.53
456.859	2196.86
457.232	2233.47
457.606	2200.03
457.979	2248.39
458.352	2242.51
458.725	2265.56
459.099	2298.1
459.472	2345.56
459.845	2363.86
460.218	2372.23
460.591	2394.15
460.964	2378.78
461.337	2464.65
461.71	2500.13
462.083	2517.31
462.456	2524.76
462.829	2529.96
463.201	2548.72
463.574	2590.98
463.947	2601.82
464.32	2697.64
464.692	2681.14
465.065	2694.25
465.438	2731.09
465.81	2736.06
466.183	2803.85
466.555	2865.77
466.928	2886.56
467.3	2854.47
467.672	2901.93
468.045	2936.5
468.417	2956.17
468.789	2981.7
469.161	3033.45
469.534	3086.56
469.906	3133.11
470.278	3136.27
470.65	3185.31
471.022	3276.61
471.394	3319.77
471.766	3316.61
472.138	3334.46
472.51	3409.71
472.882	3470.28
473.253	3496.94
473.625	3552.76
473.997	3567
474.369	3561.57
474.74	3604.74
475.112	3661.23
475.484	3781
475.855	3775.13
476.227	3830.49
476.598	3920.66
476.97	3920.89
477.341	3985.06
477.713	4032.97
478.084	4041.79
478.455	4178.05
478.827	4225.51
479.198	4317.71
479.569	4290.82
479.94	4381.89
480.311	4422.79
480.682	4543.47
481.053	4564.26
481.424	4633.64
481.795	4666.18
482.166	4719.73
482.537	4797.02
482.908	4899.62
483.279	4935.1
483.65	4941.88
484.021	5081.31
484.391	5143.9
484.762	5115.66
485.133	5210.8
485.503	5224.13
485.874	5373.95
486.244	5388.87
486.615	5479.49
486.985	5461.86
487.356	5584.12
487.726	5652.82
488.097	5732.59
488.467	5719.26
488.837	5863.66
489.207	5851.68
489.578	5936.2
489.948	6021.62
490.318	6086.03
490.688	6103.88
491.058	6182.52
491.428	6202.86
491.798	6250.77
492.168	6341.84
492.538	6353.59
492.908	6426.58
493.278	6461.84
493.648	6534.6
494.017	6578.89
494.387	6643.75
494.757	6660.93
495.126	6696.86
495.496	6717.87
495.866	6778.21
496.235	6813.69
496.605	6890.98
496.974	6875.38
497.344	6921.94
497.713	6952.9
498.082	6979.79
498.452	7014.59
498.821	7031.54
499.19	7024.31
499.559	7128.94
499.928	7142.72
500.298	7142.95
500.667	7226.11
501.036	7227.24
501.405	7259.1
501.774	7238.31
502.143	7255.26
502.512	7300.23
502.88	7316.05
503.249	7334.36
503.618	7397.63
503.987	7380.68
504.356	7483.73
504.724	7433.79
505.093	7455.03
505.462	7448.02
505.83	7472.66
506.199	7555.82
506.567	7657.51
506.936	7556.27
507.304	7609.38
507.672	7583.39
508.041	7594.69
508.409	7703.84
508.777	7703.16
509.145	7745.19
509.514	7709.94
509.882	7744.29
510.25	7783.61
510.618	7807.56
510.986	7719.43
511.354	7827
511.722	7852.99
512.09	7859.54
512.458	7798.75
512.826	7855.02
513.193	7903.15
513.561	7885.3
513.929	7903.38
514.297	7940.44
514.664	8012.08
515.032	7974.34
515.4	7979.54
515.767	7932.31
516.135	8053.88
516.502	7967.11
516.869	8005.07
517.237	7967.11
517.604	8001.68
517.972	8083.26
518.339	7986.09
518.706	8021.34
519.073	8055.24
519.44	8095.47
519.808	8114.67
520.175	8007.78
520.542	8083.94
520.909	8160.32
521.276	8061.79
521.643	8124.16
522.009	8099.08
522.376	8029.7
522.743	8159.87
523.11	8165.97
523.477	8126.88
523.843	8166.65
524.21	8200.77
524.577	8196.48
524.943	8233.31
525.31	8228.79
525.676	8251.17
526.043	8225.63
526.409	8232.41
526.776	8309.47
527.142	8257.72
527.508	8312.41
527.874	8230.83
528.241	8276.7
528.607	8218.17
528.973	8269.92
529.339	8266.08
529.705	8227.89
530.071	8310.83
530.437	8285.29
530.803	8252.75
531.169	8294.33
531.535	8209.81
531.901	8226.08
532.267	8224.28
532.632	8241.9
532.998	8216.82
533.364	8203.03
533.73	8176.37
534.095	8227.89
534.461	8187.21
534.826	8175.01
535.192	8220.21
535.557	8216.59
535.923	8124.39
536.288	8133.88
536.653	8113.77
537.019	8056.37
537.384	8036.94
537.749	8063.6
538.114	8006.65
538.479	8017.5
538.845	7940.44
539.21	7947.45
539.575	7968.01
539.94	7910.16
540.305	7893.44
540.67	7868.58
541.034	7901.35
541.399	7824.74
541.764	7784.51
542.129	7786.09
542.494	7831.97
542.858	7755.59
543.223	7742.93
543.587	7752.88
543.952	7722.14
544.316	7676.49
544.681	7671.3
545.045	7707.9
545.41	7615.25
545.774	7640.79
546.138	7595.14
546.503	7588.81
546.867	7617.06
547.231	7578.87
547.595	7514.92
547.959	7518.76
548.324	7447.12
548.688	7404.41
549.052	7382.49
549.416	7394.47
549.779	7341.59
550.143	7337.97
550.507	7373.68
550.871	7345.2
551.235	7262.27
551.599	7316.28
551.962	7273.34
552.326	7253.45
552.689	7232.89
553.053	7201.25
553.417	7217.97
553.78	7224.75
554.143	7141.59
554.507	7159.22
554.87	7156.96
555.234	7176.17
555.597	7097.75
555.96	7155.6
556.323	7117.64
556.686	7068.37
557.05	7128.03
557.413	7058.43
557.776	7065.44
558.139	7091.42
558.502	7060.01
558.865	6993.57
559.228	7047.13
559.59	7042.39
559.953	7051.88
560.316	6987.02
560.679	7029.96
561.041	7050.29
561.404	7048.49
561.767	7087.58
562.129	7034.7
562.492	7112.44
562.854	7038.77
563.217	7052.1
563.579	7053.68
563.941	7074.48
564.304	7106.34
564.666	7067.7
565.028	7088.49
565.39	7100.24
565.753	7089.16
566.115	7135.94
566.477	7105.43
566.839	7005.32
567.201	7147.69
567.563	7130.52
567.925	7170.29
568.287	7179.33
568.648	7132.1
569.01	7145.66
569.372	7126
569.734	7102.72
570.095	7191.76
570.457	7175.49
570.819	7239.44
571.18	7140.69
571.542	7196.96
571.903	7259.78
572.265	7253.45
572.626	7271.53
572.987	7285.99
573.349	7293.45
573.71	7221.14
574.071	7338.42
574.432	7330.51
574.794	7372.09
575.155	7317.18
575.516	7358.99
575.877	7379.55
576.238	7332.1
576.599	7445.76
576.96	7436.27
577.32	7397.63
577.681	7413
578.042	7455.93
578.403	7458.42
578.763	7500
579.124	7467.69
579.485	7495.93
579.845	7511.53
580.206	7452.54
580.566	7504.75
580.927	7544.07
581.287	7617.06
581.648	7573.67
582.008	7610.51
582.368	7592.88
582.728	7568.02
583.089	7600.56
583.449	7600.56
583.809	7625.65
584.169	7674.69
584.529	7722.59
584.889	7730.05
585.249	7752.88
585.609	7675.36
585.969	7729.6
586.329	7704.74
586.688	7724.63
587.048	7784.96
587.408	7729.83
587.768	7823.61
588.127	7746.77
588.487	7801.46
588.846	7875.81
589.206	7850.5
589.565	7826.32
589.925	7869.93
590.284	7898.63
590.643	7822.7
591.003	7903.83
591.362	7938.63
591.721	7904.06
592.08	7898.86
592.44	7949.03
592.799	7892.53
593.158	7886.21
593.517	7983.6
593.876	7936.83
594.235	8061.79
594.593	7985.19
594.952	7965.98
595.311	7988.12
595.67	7937.28
596.029	8055.92
596.387	7951.06
596.746	8031.96
597.104	8055.47
597.463	7989.71
597.822	8034.9
598.18	8043.72
598.538	8022.25
598.897	8090.04
599.255	8037.39
599.613	8119.42
599.972	8095.92
600.33	8088.69
600.688	8020.66
601.046	8151.51
601.404	8142.24
601.762	8119.87
602.12	8132.75
602.478	8124.62
602.836	8105.63
603.194	8075.13
603.552	8171.85
603.91	8093.21
604.268	8119.87
604.625	8044.62
604.983	8180.43
605.341	8087.56
605.698	8132.75
606.056	8157.84
606.413	8151.96
606.771	8166.88
607.128	8189.02
607.485	8134.33
607.843	8158.74
608.2	8223.6
608.557	8265.63
608.914	8171.85
609.272	8263.82
609.629	8271.05
609.986	8292.75
610.343	8219.3
610.7	8308.57
611.057	8278.74
611.414	8281.9
611.771	8322.58
612.127	8368.9
612.484	8294.1
612.841	8353.99
613.198	8351.05
613.554	8312.41
613.911	8341.33
614.267	8364.61
614.624	8360.99
614.98	8324.16
615.337	8340.43
615.693	8380.2
616.05	8341.11
616.406	8400.77
616.762	8352.18
617.118	8391.95
617.475	8398.73
617.831	8389.92
618.187	8385.85
618.543	8386.53
618.899	8413.65
619.255	8445.51
619.611	8421.78
619.967	8400.32
620.323	8395.12
620.678	8425.17
621.034	8436.93
621.39	8391.73
621.746	8464.27
622.101	8532.52
622.457	8448.22
622.812	8443.93
623.168	8479.86
623.523	8502.01
623.879	8495.23
624.234	8414.78
624.589	8485.51
624.945	8423.82
625.3	8445.06
625.655	8442.35
626.01	8452.74
626.365	8481.44
626.72	8497.49
627.075	8454.33
627.43	8481.9
627.785	8466.75
628.14	8465.85
628.495	8429.24
628.85	8394.21
629.205	8384.05
629.559	8517.83
629.914	8408.45
630.269	8476.92
630.623	8326.87
630.978	8417.94
631.332	8402.35
631.687	8396.25
632.041	8351.28
632.396	8360.99
632.75	8413.2
633.104	8349.47
633.459	8330.71
633.813	8299.3
634.167	8313.09
634.521	8271.73
634.875	8336.59
635.229	8288.91
635.583	8284.39
635.937	8289.13
636.291	8193.32
636.645	8261.56
636.999	8210.26
637.352	8260.88
637.706	8165.75
638.06	8253.43
638.413	8219.98
638.767	8204.84
639.121	8196.25
639.474	8216.37
639.828	8169.81
640.181	8196.03
640.534	8149.47
640.888	8119.87
641.241	8112.64
641.594	8102.24
641.947	8148.57
642.301	8096.14
642.654	8119.19
643.007	8119.19
643.36	8071.06
643.713	8101.79
644.066	8133.66
644.419	8100.21
644.771	8036.03
645.124	8021.57
645.477	7929.14
645.83	7862.93
646.182	7802.82
646.535	7781.12
646.888	7928.46
647.24	7795.81
647.593	7900.89
647.945	7815.47
648.298	7808.92
648.65	7824.96
649.002	7834.91
649.355	7855.7
649.707	7800.56
650.059	7850.73
650.411	7921.23
650.763	7885.3
651.115	7988.12
651.467	7947.9
651.819	8020.44
652.171	7993.09
652.523	7994.9
652.875	8017.73
653.227	7961.01
653.578	7958.07
653.93	7974.34
654.282	7964.17
654.633	7956.26
654.985	7943.38
655.337	7949.48
655.688	7991.97
656.039	8010.04
656.391	8002.36
656.742	7965.3
657.094	8043.26
657.445	8015.92
657.796	7959.88
658.147	7996.48
658.498	8002.59
658.849	7996.03
659.2	7985.19
659.551	7986.54
659.902	8010.04
660.253	8019.53
660.604	7972.08
660.955	8049.82
661.306	8011.17
661.656	8033.55
662.007	8046.2
662.358	8083.26
662.708	7969.59
663.059	8031.96
663.409	8017.73
663.76	8112.41
664.11	8072.87
664.461	8090.49
664.811	8074.45
665.161	8070.16
665.511	8087.33
665.862	8090.27
666.212	8093.88
666.562	8089.14
666.912	8124.84
667.262	8085.3
667.612	8099.53
667.962	8058.86
668.312	8082.36
668.662	8078.74
669.011	8086.65
669.361	8064.73
669.711	8053.43
670.06	7984.06
670.41	8036.48
670.76	8033.77
671.109	8051.62
671.459	8042.59
671.808	7979.99
672.157	8006.43
672.507	7962.59
672.856	8024.05
673.205	7962.14
673.554	7963.49
673.904	7957.39
674.253	7993.77
674.602	7951.97
674.951	7895.7
675.3	7806.66
675.649	7939.54
675.998	7933.44
676.346	7933.66
676.695	7960.55
677.044	7915.13
677.393	7875.81
677.741	7949.03
678.09	7947.9
678.438	7904.96
678.787	7840.33
679.135	7853.89
679.484	7843.72
679.832	7830.16
680.181	7812.53
680.529	7855.25
680.877	7785.87
681.225	7812.99
681.573	7767.56
681.922	7818.41
682.27	7738.64
682.618	7760.78
682.966	7690.05
683.314	7738.19
683.661	7704.29
684.009	7649.83
684.357	7669.04
684.705	7583.61
685.053	7648.92
685.4	7627
685.748	7556.5
686.095	7551.07
686.443	7520.79
686.79	7540
687.138	7523.5
687.485	7519.44
687.832	7520.79
688.18	7454.35
688.527	7453.22
688.874	7415.26
689.221	7408.48
689.568	7370.96
689.915	7389.27
690.262	7373.22
690.609	7332.1
690.956	7290.06
691.303	7300.01
691.65	7229.05
691.997	7230.4
692.344	7252.55
692.69	7238.99
693.037	7120.58
693.383	7166.68
693.73	7134.81
694.077	7025.21
694.423	7050.29
694.769	7052.33
695.116	6996.74
695.462	7002.39
695.808	7009.84
696.155	6988.38
696.501	6926.91
696.847	6870.86
697.193	6843.97
697.539	6871.32
697.885	6853.01
698.231	6820.47
698.577	6783.18
698.923	6823.63
699.269	6709.74
699.614	6675.84
699.96	6707.03
700.306	6674.49
700.651	6627.48
700.997	6631.1
701.342	6593.36
701.688	6626.13
702.033	6579.35
702.379	6557.65
702.724	6503.19
703.069	6567.82
703.415	6461.61
703.76	6508.39
704.105	6425.45
704.45	6394.94
704.795	6391.78
705.14	6345
705.485	6394.49
705.83	6317.88
706.175	6275.85
706.52	6290.31
706.865	6271.78
707.209	6269.3
707.554	6220.71
707.899	6222.97
708.243	6137.55
708.588	6131.22
708.932	6145.46
709.277	6184.55
709.621	6130.55
709.966	6100.49
710.31	6135.29
710.654	6035.18
710.998	6091.68
711.342	6092.58
711.687	6076.99
712.031	6036.99
712.375	6017.33
712.719	5968.52
713.063	5972.13
713.407	5976.88
713.75	5971.23
714.094	5939.36
714.438	5893.94
714.782	5917.22
715.125	5893.49
715.469	5892.59
715.812	5833.6
716.156	5847.39
716.499	5858.46
716.843	5865.02
717.186	5784.34
717.53	5845.35
717.873	5844.22
718.216	5817.56
718.559	5805.13
718.902	5806.49
719.246	5805.13
719.589	5739.82
719.932	5783.89
720.275	5771.01
720.617	5731.91
720.96	5741.85
721.303	5764.23
721.646	5714.74
721.989	5730.1
722.331	5693.49
722.674	5723.78
723.016	5745.7
723.359	5705.02
723.701	5711.8
724.044	5717.9
724.386	5665.47
724.729	5723.78
725.071	5721.74
725.413	5689.65
725.755	5727.84
726.097	5677.9
726.439	5606.27
726.782	5611.24
727.124	5661.86
727.465	5656.21
727.807	5629.32
728.149	5665.47
728.491	5643.55
728.833	5658.02
729.175	5633.61
729.516	5622.76
729.858	5657.34
730.199	5662.08
730.541	5661.4
730.882	5611.69
731.224	5693.49
731.565	5615.76
731.906	5666.83
732.248	5638.35
732.589	5678.13
732.93	5653.72
733.271	5636.32
733.612	5658.47
733.953	5651.46
734.294	5655.76
734.635	5608.07
734.976	5637.9
735.317	5641.74
735.658	5623.21
735.999	5654.4
736.339	5666.83
736.68	5679.94
737.021	5684.23
737.361	5693.49
737.702	5667.96
738.042	5666.38
738.383	5686.49
738.723	5698.01
739.063	5721.74
739.404	5738.46
739.744	5734.4
740.084	5772.36
740.424	5729.88
740.764	5737.79
741.104	5737.79
741.444	5732.59
741.784	5754.74
742.124	5764.45
742.464	5761.97
742.804	5838.8
743.143	5833.15
743.483	5806.49
743.823	5834.06
744.162	5873.38
744.502	5888.52
744.841	5896.65
745.181	6008.51
745.52	5983.66
745.86	6053.26
746.199	6032.02
746.538	6062.3
746.877	6127.61
747.216	6149.08
747.556	6185.46
747.895	6283.99
748.234	6229.07
748.573	6276.53
748.911	6360.82
749.25	6478.11
749.589	6469.29
749.928	6548.84
750.267	6615.28
750.605	6669.97
750.944	6650.76
751.283	6744.77
751.621	6868.83
751.96	6913.8
752.298	7076.96
752.636	7112.89
752.975	7189.5
753.313	7226.56
753.651	7389.04
753.989	7413.45
754.327	7510.4
754.666	7590.17
755.004	7772.54
755.342	7954.45
755.679	8018.18
756.017	8113.77
756.355	8272.64
756.693	8370.26
757.031	8518.73
757.368	8627.43
757.706	8737.03
758.044	8880.98
758.381	9080.07
758.719	9241.42
759.056	9341.08
759.394	9546.73
759.731	9639.38
760.068	9765.48
760.405	9968.86
760.743	10143.32
761.08	10301.51
761.417	10443.2
761.754	10640.48
762.091	10753.93
762.428	10928.61
762.765	11062.39
763.102	11274.14
763.438	11417.41
763.775	11518.2
764.112	11756.84
764.449	11982.82
764.785	12092.2
765.122	12188.24
765.458	12427.33
765.795	12558.85
766.131	12648.57
766.467	12883.59
766.804	12956.13
767.14	13087.2
767.476	13270.92
767.812	13345.95
768.148	13611.25
768.485	13668.2
768.821	13748.88
769.157	13886.5
769.492	14037
769.828	14185.25
770.164	14134.85
770.5	14308.64
770.836	14560.15
771.171	14618.46
771.507	14732.58
771.842	14683.31
772.178	14907.94
772.513	15003.98
772.849	15050.08
773.184	15130.53
773.519	15213.7
773.855	15304.99
774.19	15422.28
774.525	15485.33
774.86	15609.39
775.195	15681.03
775.53	15681.48
775.865	15785.66
776.2	15832.44
776.535	15805.54
776.87	15906.79
777.205	16012.77
777.539	16024.52
777.874	16048.7
778.209	16090.96
778.543	16092.54
778.878	16145.87
779.212	16097.29
779.547	16234.23
779.881	16274.01
780.215	16219.77
780.55	16370.73
780.884	16337.51
781.218	16320.79
781.552	16339.09
781.886	16267.45
782.22	16410.95
782.554	16358.52
782.888	16259.32
783.222	16309.94
783.556	16330.28
783.889	16307
784.223	16174.35
784.557	16242.14
784.89	16411.4
785.224	16265.65
785.557	16220.45
785.891	16379.32
786.224	16309.94
786.558	16395.81
786.891	16223.84
787.224	16301.58
787.557	16266.55
787.891	16230.39
788.224	16261.35
788.557	16329.6
788.89	16408.01
789.223	16268.36
789.556	16125.76
789.888	16206.89
790.221	16100.23
790.554	16115.82
790.887	16132.99
791.219	16107.23
791.552	16040.11
791.884	15990.85
792.217	16049.61
792.549	15984.52
792.882	15890.97
793.214	15878.76
793.546	15961.02
793.879	15827.69
794.211	15743.17
794.543	15815.71
794.875	15870.18
795.207	15894.81
795.539	15763.06
795.871	15815.71
796.203	15711.99
796.535	15596.06
796.867	15552.44
797.198	15515.38
797.53	15541.6
797.862	15523.07
798.193	15559.45
798.525	15462.28
798.856	15544.53
799.188	15347.03
799.519	15301.38
799.85	15218.44
800.182	15274.49
800.513	15314.26
800.844	15169.18
801.175	15259.57
801.506	15233.81
801.837	15150.87
802.168	15076.07
802.499	15074.04
802.83	15048.73
803.161	15011.22
803.491	14933.93
803.822	14974.15
804.153	14963.31
804.483	14876.3
804.814	14825.91
805.145	14836.98
805.475	14884.21
805.805	14707.95
806.136	14705.69
806.466	14760.15
806.796	14767.83
807.126	14576.88
807.457	14623.88
807.787	14567.39
808.117	14466.82
808.447	14500.27
808.777	14553.6
809.107	14426.37
809.436	14394.06
809.766	14453.04
810.096	14363.77
810.426	14269.99
810.755	14383.66
811.085	14313.15
811.414	14243.55
811.744	14169.66
812.073	14281.07
812.403	14186.38
812.732	14184.57
813.061	14078.13
813.39	14077.45
813.719	14036.33
814.049	14059.83
814.378	14086.27
814.707	14008.76
815.036	13996.1
815.365	13913.39
815.693	13748.42
816.022	13823.9
816.351	13832.04
816.68	13754.98
817.008	13792.26
817.337	13694.19
817.665	13669.78
817.994	13663.45
818.322	13667.75
818.651	13661.65
818.979	13586.62
819.307	13710.68
819.636	13608.77
819.964	13513.18
820.292	13617.13
820.62	13576
820.948	13536.68
821.276	13543.68
821.604	13556.79
821.932	13579.61
822.259	13639.27
822.587	13514.76
822.915	13585.49
823.243	13596.34
823.57	13559.28
823.898	13451.03
824.225	13403.35
824.553	13469.34
824.88	13514.31
825.207	13568.77
825.535	13479.05
825.862	13546.62
826.189	13519.05
826.516	13562.44
826.843	13542.55
827.17	13552.27
827.497	13582.33
827.824	13625.04
828.151	13554.3
828.478	13610.57
828.805	13651.7
829.131	13548.43
829.458	13529.67
829.785	13538.03
830.111	13539.39
830.438	13603.57
830.764	13568.09
831.09	13590.69
831.417	13497.36
831.743	13583.23
832.069	13533.51
832.395	13474.31
832.722	13559.5
833.048	13491.26
833.374	13469.34
833.7	13514.76
834.026	13503.23
834.351	13587.07
834.677	13441.31
835.003	13552.72
835.329	13474.53
835.654	13362.9
835.98	13378.04
836.306	13436.79
836.631	13365.38
836.956	13414.87
837.282	13447.64
837.607	13271.15
837.932	13334.88
838.258	13289.68
838.583	13349.11
838.908	13202.9
839.233	13202.9
839.558	13228.89
839.883	13197.03
840.208	13117.48
840.533	13095.56
840.858	13230.25
841.182	13132.39
841.507	13074.54
841.832	13080.42
842.156	13019.86
842.481	12952.29
842.805	12951.16
843.13	12968.78
843.454	12961.55
843.778	12861.67
844.103	12824.15
844.427	12828.45
844.751	12760.88
845.075	12811.73
845.399	12737.83
845.723	12717.49
846.047	12712.29
846.371	12616.48
846.695	12578.96
847.019	12488.57
847.343	12478.63
847.666	12436.14
847.99	12366.31
848.313	12345.3
848.637	12220.78
848.96	12214.45
849.284	12200.22
849.607	12048.58
849.931	12061.46
850.254	11983.72
850.577	11862.37
850.9	11939.88
851.223	11873.9
851.546	11778.31
851.869	11681.81
852.192	11745.31
852.515	11667.57
852.838	11620.34
853.161	11582.38
853.483	11610.17
853.806	11540.12
854.129	11417.41
854.451	11463.51
854.774	11368.15
855.096	11355.27
855.419	11341.93
855.741	11269.39
856.063	11248.38
856.385	11229.85
856.708	11255.16
857.03	11148.27
857.352	11187.81
857.674	11108.27
857.996	11065.78
858.318	11050.87
858.64	10978.55
858.961	10982.62
859.283	10888.39
859.605	10944.66
859.926	10966.35
860.248	10877.54
860.57	10880.93
860.891	10816.98
861.212	10792.34
861.534	10773.13
861.855	10776.75
862.176	10709.86
862.498	10701.5
862.819	10709.41
863.14	10707.6
863.461	10647.71
863.782	10560.26
864.103	10617.66
864.424	10583.99
864.745	10579.02
865.065	10510.99
865.386	10518.9
865.707	10499.02
866.027	10506.25
866.348	10490.66
866.668	10467.38
866.989	10381.05
867.309	10365.24
867.63	10397.78
867.95	10376.31
868.27	10332.47
868.59	10334.28
868.91	10267.61
869.23	10340.15
869.55	10216.77
869.87	10264.45
870.19	10240.49
870.51	10255.86
870.83	10251.79
871.15	10216.99
871.469	10173.6
871.789	10193.72
872.109	10211.57
872.428	10119.82
872.748	10160.04
873.067	10105.13
873.386	10172.47
873.706	10074.17
874.025	10017.22
874.344	10005.7
874.663	10050.67
874.982	9975.87
875.301	9980.39
875.62	10020.61
875.939	9984
876.258	10015.87
876.577	9964.34
876.896	9958.47
877.214	9874.18
877.533	9937
877.852	9870.33
878.17	9830.56
878.489	9812.48
878.807	9869.66
879.125	9826.04
879.444	9816.1
879.762	9796.89
880.08	9753.5
880.398	9822.65
880.716	9694.52
881.034	9720.06
881.352	9698.13
881.67	9707.17
881.988	9693.84
882.306	9697.68
882.624	9606.61
882.941	9515.09
883.259	9527.07
883.577	9541.53
883.894	9524.81
884.212	9500.4
884.529	9501.3
884.846	9467.18
885.164	9393.74
885.481	9351.25
885.798	9438.48
886.115	9299.05
886.432	9337.01
886.75	9318.48
887.067	9294.76
887.383	9259.5
887.7	9278.03
888.017	9252.04
888.334	9222.89
888.651	9205.94
888.967	9103.35
889.284	9122.33
889.6	9087.76
889.917	9031.26
890.233	9018.6
890.55	8969.57
890.866	9011.83
891.182	8984.93
891.498	8944.26
891.815	8929.57
892.131	8881.89
892.447	8871.94
892.763	8856.35
893.079	8807.99
893.395	8756.92
893.71	8751.95
894.026	8790.36
894.342	8642.57
894.657	8737.48
894.973	8638.5
895.289	8682.57
895.604	8586.07
895.92	8555.57
896.235	8580.2
896.55	8509.69
896.865	8489.35
897.181	8463.14
897.496	8440.09
897.811	8395.57
898.126	8365.51
898.441	8302.47
898.756	8347.21
899.071	8264.05
899.386	8254.11
899.7	8257.72
900.015	8206.87
900.33	8136.82
900.644	8081.91
900.959	8131.17
901.273	8132.53
901.588	7990.61
901.902	8012.3
902.216	7909.93
902.531	7975.69
902.845	7979.54
903.159	7904.96
903.473	7851.4
903.787	7817.73
904.101	7805.3
904.415	7793.55
904.729	7764.85
905.042	7735.7
905.356	7716.94
905.67	7628.58
905.984	7608.92
906.297	7571.19
906.611	7556.27
906.924	7592.65
907.237	7500
907.551	7530.96
907.864	7471.53
908.177	7416.84
908.491	7399.44
908.804	7330.74
909.117	7332.32
909.43	7297.75
909.743	7147.02
910.056	7210.06
910.368	7199.22
910.681	7180.23
910.994	7114.02
911.307	7164.42
911.619	7104.3
911.932	7065.44
912.244	7038.09
912.557	6967.13
912.869	6936.4
913.181	6865.44
913.494	6881.94
913.806	6853.92
914.118	6924.2
914.43	6821.83
914.742	6810.98
915.054	6794.26
915.366	6752.22
915.678	6751.09
915.99	6660.02
916.302	6659.12
916.613	6606.92
916.925	6675.62
917.236	6615.28
917.548	6562.17
917.859	6557.65
918.171	6515.39
918.482	6491.89
918.794	6449.63
919.105	6445.11
919.416	6385.45
919.727	6342.97
920.038	6340.93
920.349	6309.07
920.66	6295.06
920.971	6293.48
921.282	6260.94
921.593	6292.12
921.903	6216.87
922.214	6196.31
922.525	6130.55
922.835	6145.23
923.146	6077.44
923.456	6028.17
923.767	6067.27
924.077	6056.2
924.387	6012.36
924.697	5927.39
925.008	5912.92
925.318	5958.8
925.628	5888.07
925.938	5905.47
926.248	5839.48
926.558	5840.16
926.867	5775.3
927.177	5803.1
927.487	5737.11
927.796	5715.41
928.106	5725.13
928.416	5688.97
928.725	5714.28
929.034	5573.95
929.344	5620.73
929.653	5546.61
929.962	5592.48
930.271	5608.98
930.581	5579.6
930.89	5544.57
931.199	5517
931.508	5495.53
931.817	5457.34
932.125	5421.86
932.434	5452.37
932.743	5396.1
933.051	5367.4
933.36	5309.55
933.669	5271.13
933.977	5309.78
934.286	5265.26
934.594	5233.39
934.902	5221.19
935.21	5204.47
935.519	5170.57
935.827	5181.42
936.135	5153.17
936.443	5096.67
936.751	5037.92
937.059	5037.47
937.367	5086.28
937.674	5051.93
937.982	5031.82
938.29	4975.1
938.597	4943.91
938.905	4908.88
939.213	4900.75
939.52	4904.36
939.827	4966.28
940.135	4863.01
940.442	4851.93
940.749	4837.92
941.056	4823.23
941.363	4775.1
941.67	4761.77
941.977	4750.69
942.284	4701.2
942.591	4711.6
942.898	4661.21
943.205	4709.57
943.511	4612.84
943.818	4657.82
944.125	4590.47
944.431	4627.53
944.738	4566.29
945.044	4554.32
945.35	4544.37
945.657	4489.23
945.963	4493.07
946.269	4445.62
946.575	4440.87
946.881	4388.67
947.187	4434.09
947.493	4374.43
947.799	4375.34
948.105	4334.66
948.41	4351.16
948.716	4352.06
949.022	4296.02
949.327	4302.12
949.633	4239.75
949.938	4259.86
950.244	4264.38
950.549	4205.62
950.854	4174.44
951.16	4197.49
951.465	4121.11
951.77	4138.51
952.075	4158.39
952.38	4075.91
952.685	4076.81
952.99	4080.88
953.294	4069.36
953.599	4067.55
953.904	4025.29
954.209	3973.54
954.513	3957.95
954.818	3982.58
955.122	3982.35
955.426	3938.96
955.731	3911.39
956.035	3915.01
956.339	3879.3
956.643	3889.93
956.948	3886.08
957.252	3866.2
957.556	3852.86
957.86	3842.47
958.163	3788.23
958.467	3776.71
958.771	3792.98
959.075	3743.49
959.378	3753.66
959.682	3714.34
959.985	3694.45
960.289	3694.45
960.592	3674.79
960.896	3694.22
961.199	3615.36
961.502	3625.75
961.805	3595.02
962.108	3565.87
962.411	3572.42
962.714	3534.23
963.017	3531.07
963.32	3519.54
963.623	3524.74
963.926	3494
964.228	3464.17
964.531	3471.63
964.833	3462.14
965.136	3449.94
965.438	3421.92
965.741	3359.77
966.043	3399.09
966.345	3323.16
966.648	3374.91
966.95	3350.28
967.252	3314.35
967.554	3333.78
967.856	3289.26
968.158	3275.93
968.46	3259.66
968.761	3242.94
969.063	3252.2
969.365	3203.62
969.666	3257.63
969.968	3178.53
970.269	3194.35
970.571	3166.33
970.872	3162.49
971.174	3123.62
971.475	3147.12
971.776	3144.86
972.077	3094.92
972.378	3102.38
972.679	3073.9
972.98	3062.15
973.281	3067.12
973.582	3053.34
973.883	3044.07
974.183	3025.32
974.484	3008.59
974.785	2990.97
975.085	2971.53
975.386	3001.59
975.686	2941.02
975.986	2933.57
976.287	2930.63
976.587	2911.42
976.887	2900.8
977.187	2928.6
977.487	2908.48
977.787	2872.33
978.087	2875.49
978.387	2843.17
978.687	2820.8
978.987	2803.4
979.286	2811.54
979.586	2799.56
979.885	2771.76
980.185	2755.72
980.484	2758.66
980.784	2759.33
981.083	2730.18
981.382	2721.37
981.682	2721.14
981.981	2678.88
982.28	2692.9
982.579	2667.81
982.878	2661.94
983.177	2664.42
983.475	2664.87
983.774	2636.4
984.073	2610.64
984.372	2589.17
984.67	2592.56
984.969	2599.34
985.267	2556.18
985.566	2557.76
985.864	2568.38
986.162	2522.28
986.461	2525.44
986.759	2517.08
987.057	2481.38
987.355	2479.12
987.653	2461.94
987.951	2427.59
988.249	2440.7
988.547	2465.1
988.844	2429.17
989.142	2414.26
989.44	2409.06
989.737	2408.83
990.035	2376.52
990.332	2376.07
990.63	2374.03
990.927	2371.1
991.224	2308.95
991.521	2374.94
991.819	2325.22
992.116	2285.9
992.413	2300.14
992.71	2300.82
993.006	2262.62
993.303	2259.01
993.6	2256.3
993.897	2260.36
994.193	2242.51
994.49	2230.31
994.787	2193.7
995.083	2207.26
995.379	2159.12
995.676	2179.46
995.972	2141.72
996.268	2147.15
996.565	2166.81
996.861	2156.19
997.157	2133.59
997.453	2100.59
997.749	2094.94
998.044	2072.12
998.34	2065.57
998.636	2082.06
998.932	2046.13
999.227	2064.44
999.523	2052.91
999.818	2045.91
1000.114	2010.43
1000.409	2036.42
1000.704	2017.21
1001	1969.75
1001.295	1956.19
1001.59	1973.14
1001.885	1974.72
1002.18	1957.55
1002.475	1946.47
1002.77	1914.16
1003.065	1904.44
1003.359	1925.23
1003.654	1874.16
1003.949	1883.88
1004.243	1893.82
1004.538	1872.8
1004.832	1873.93
1005.127	1864.44
1005.421	1833.26
1005.715	1836.87
1006.009	1833.71
1006.304	1776.76
1006.598	1782.18
1006.892	1790.32
1007.186	1751.45
1007.48	1779.25
1007.773	1758.23
1008.067	1792.58
1008.361	1738.12
1008.655	1720.94
1008.948	1708.29
1009.242	1719.14
1009.535	1698.12
1009.829	1676.2
1010.122	1658.35
1010.415	1665.13
1010.708	1672.36
1011.001	1649.08
1011.295	1644.56
1011.588	1631.45
1011.881	1614.51
1012.173	1614.28
1012.466	1630.55
1012.759	1608.4
1013.052	1588.52
1013.344	1589.42
1013.637	1557.78
1013.93	1570.66
1014.222	1553.26
1014.514	1550.55
1014.807	1532.47
1015.099	1542.64
1015.391	1521.85
1015.683	1513.04
1015.976	1472.59
1016.268	1498.12
1016.56	1464.45
1016.851	1483.21
1017.143	1471.23
1017.435	1417
1017.727	1447.73
1018.018	1410.22
1018.31	1426.94
1018.602	1406.83
1018.893	1390.1
1019.185	1395.3
1019.476	1389.2
1019.767	1392.82
1020.058	1357.56
1020.35	1369.99
1020.641	1367.96
1020.932	1346.26
1021.223	1311.69
1021.514	1311.24
1021.804	1334.74
1022.095	1309.65
1022.386	1301.52
1022.677	1307.62
1022.967	1290.45
1023.258	1275.98
1023.548	1289.54
1023.839	1273.5
1024.129	1276.89
1024.419	1234.63
1024.709	1227.4
1025	1241.63
1025.29	1225.82
1025.58	1208.87
1025.87	1216.1
1026.16	1208.87
1026.449	1205.48
1026.739	1171.58
1027.029	1170.9
1027.319	1161.41
1027.608	1138.36
1027.898	1161.64
1028.187	1164.35
1028.477	1164.8
1028.766	1127.74
1029.055	1114.41
1029.344	1140.39
1029.634	1099.26
1029.923	1096.33
1030.212	1111.47
1030.501	1113.95
1030.79	1084.35
1031.078	1081.41
1031.367	1042.54
1031.656	1081.64
1031.945	1042.09
1032.233	1059.04
1032.522	1053.16
1032.81	1054.97
1033.099	996.22
1033.387	1007.74
1033.675	1002.09
1033.963	994.86
1034.251	1034.18
1034.54	1008.42
1034.828	1009.78
1035.116	972.49
1035.403	991.25
1035.691	947.18
1035.979	968.42
1036.267	959.38
1036.554	937.24
1036.842	932.04
1037.129	963.22
1037.417	965.48
1037.704	926.84
1037.992	936.78
1038.279	936.33
1038.566	930.23
1038.853	930.23
1039.14	930.23
