Data from hue_250_FLMS001491_00010.txt Node
Date: Tue Feb 07 16:00:28 GMT 2017
User: dcchb
Spectrometer: FLMS00149
Trigger mode: 0
Integration Time (sec): 2.000000E-2
Scans to average: 10
Electric dark correction enabled: true
Nonlinearity correction enabled: false
Boxcar width: 0
XAxis mode: Wavelengths
Number of Pixels in Spectrum: 2048
>>>>>Begin Spectral Data<<<<<
341.393	-11.99
341.776	-11.99
342.16	-11.99
342.543	-73.23
342.927	-70.97
343.31	-70.97
343.693	-72.78
344.077	-49.05
344.46	-54.93
344.843	-55.83
345.226	-38.66
345.61	-20.35
345.993	-45.44
346.376	-9.96
346.759	11.06
347.142	18.52
347.525	52.19
347.908	50.61
348.291	79.53
348.674	101.9
349.057	104.16
349.44	133.32
349.823	148
350.206	169.92
350.588	191.85
350.971	200.88
351.354	222.58
351.737	214.67
352.119	231.84
352.502	250.15
352.884	237.49
353.267	262.8
353.65	296.48
354.032	299.41
354.414	290.6
354.797	289.02
355.179	289.47
355.562	298.96
355.944	321.56
356.326	313.42
356.709	331.73
357.091	348.45
357.473	329.69
357.855	341.22
358.238	320.88
358.62	320.2
359.002	318.85
359.384	310.03
359.766	331.95
360.148	333.31
360.53	338.28
360.912	331.28
361.294	333.76
361.676	339.19
362.057	318.85
362.439	305.51
362.821	309.81
363.203	322.46
363.584	310.49
363.966	307.1
364.348	317.72
364.729	306.87
365.111	314.78
365.493	325.18
365.874	299.19
366.256	333.99
366.637	293.31
367.019	323.59
367.4	303.03
367.781	301.45
368.163	312.29
368.544	305.97
368.925	300.77
369.306	297.15
369.688	312.75
370.069	313.65
370.45	279.07
370.831	293.99
371.212	311.39
371.593	291.96
371.974	308.68
372.355	302.8
372.736	312.52
373.117	294.67
373.498	290.15
373.879	277.27
374.26	303.25
374.641	315.23
375.021	299.41
375.402	287.44
375.783	317.49
376.163	324.5
376.544	316.81
376.925	310.71
377.305	296.25
377.686	313.88
378.066	332.63
378.447	293.09
378.827	310.03
379.208	328.79
379.588	332.63
379.968	318.85
380.349	293.09
380.729	326.3
381.109	339.64
381.489	306.42
381.87	328.11
382.25	333.08
382.63	337.6
383.01	323.82
383.39	320.88
383.77	336.25
384.15	328.56
384.53	326.53
384.91	329.47
385.29	342.58
385.67	351.39
386.049	346.42
386.429	354.55
386.809	338.06
387.189	364.5
387.568	364.95
387.948	341.45
388.328	360.88
388.707	363.37
389.087	331.28
389.466	345.29
389.846	350.49
390.225	357.04
390.605	350.94
390.984	365.63
391.363	362.24
391.743	353.87
392.122	354.33
392.501	362.24
392.881	362.69
393.26	366.08
393.639	369.69
394.018	362.46
394.397	385.74
394.776	364.5
395.155	374.44
395.534	404.5
395.913	382.35
396.292	397.04
396.671	385.51
397.05	359.07
397.429	388.45
397.808	395.68
398.186	389.35
398.565	385.96
398.944	386.64
399.323	406.08
399.701	386.64
400.08	395.68
400.458	395.91
400.837	397.26
401.215	381.67
401.594	375.57
401.972	416.92
402.351	403.37
402.729	416.02
403.107	416.02
403.486	418.73
403.864	407.43
404.242	412.86
404.62	436.13
404.999	445.17
405.377	432.29
405.755	440.2
406.133	431.84
406.511	444.72
406.889	458.5
407.267	457.83
407.645	440.65
408.023	453.08
408.401	473.65
408.779	435.45
409.156	483.36
409.534	501.22
409.912	488.56
410.29	484.72
410.667	472.74
411.045	507.77
411.422	478.62
411.8	523.36
412.178	507.09
412.555	518.39
412.933	528.56
413.31	536.69
413.687	527.88
414.065	535.57
414.442	557.03
414.819	562.46
415.197	571.5
415.574	547.54
415.951	570.37
416.328	577.6
416.705	578.5
417.082	589.57
417.46	593.87
417.837	582.12
418.214	605.85
418.591	624.15
418.967	626.41
419.344	624.38
419.721	623.92
420.098	647.2
420.475	634.32
420.852	649.91
421.228	648.33
421.605	697.59
421.982	686.07
422.358	693.98
422.735	686.07
423.111	676.35
423.488	728.33
423.864	722.23
424.241	718.84
424.617	750.02
424.994	747.31
425.37	765.84
425.746	749.8
426.123	756.58
426.499	788.67
426.875	787.76
427.251	810.36
427.627	819.85
428.003	818.72
428.379	817.59
428.756	837.48
429.132	848.1
429.507	863.47
429.883	873.18
430.259	870.47
430.635	916.57
431.011	870.7
431.387	931.26
431.763	938.72
432.138	935.55
432.514	928.32
432.89	945.95
433.265	979.62
433.641	969
434.016	1006.29
434.392	1001.77
434.767	1020.75
435.143	1039.05
435.518	1064.82
435.894	1094.19
436.269	1083.57
436.644	1100.52
437.02	1104.14
437.395	1089.67
437.77	1136.45
438.145	1162.89
438.52	1151.82
438.895	1201.08
439.271	1187.53
439.646	1205.6
440.021	1243.79
440.395	1261.2
440.77	1249.9
441.145	1267.75
441.52	1254.87
441.895	1291.7
442.27	1296.45
442.645	1326.05
443.019	1344.36
443.394	1346.62
443.769	1352.49
444.143	1313.62
444.518	1364.7
444.892	1396.56
445.267	1368.54
445.641	1389.1
446.016	1416.67
446.39	1422.77
446.764	1423
447.139	1416.45
447.513	1430.68
447.887	1462.55
448.262	1452.83
448.636	1483.34
449.01	1464.35
449.384	1478.37
449.758	1490.12
450.132	1530.57
450.506	1545.48
450.88	1534.63
451.254	1526.5
451.628	1568.76
452.002	1553.62
452.376	1576.44
452.75	1578.7
453.123	1579.38
453.497	1635.42
453.871	1637
454.244	1656.21
454.618	1682.65
454.992	1706.16
455.365	1698.25
455.739	1749.77
456.112	1794.51
456.486	1773.72
456.859	1794.51
457.232	1802.88
457.606	1787.28
457.979	1803.33
458.352	1848.75
458.725	1852.37
459.099	1883.1
459.472	1917.68
459.845	1903.89
460.218	1935.75
460.591	1940.5
460.964	1979.14
461.337	2016.66
461.71	2019.14
462.083	2044.68
462.456	2049.2
462.829	2074.73
463.201	2081.74
463.574	2090.78
463.947	2138.91
464.32	2151.57
464.692	2169.87
465.065	2199.25
465.438	2238.35
465.81	2270.21
466.183	2298.91
466.555	2311.56
466.928	2298.23
467.3	2319.7
467.672	2375.74
468.045	2381.84
468.417	2425.01
468.789	2463.42
469.161	2482.86
469.534	2480.37
469.906	2559.47
470.278	2559.92
470.65	2566.7
471.022	2651.67
471.394	2662.97
471.766	2664.32
472.138	2734.83
472.51	2765.79
472.882	2779.57
473.253	2806.47
473.625	2842.4
473.997	2908.84
474.369	2912.68
474.74	2966.24
475.112	3031.77
475.484	3037.65
475.855	3085.55
476.227	3069.74
476.598	3185.44
476.97	3163.74
477.341	3224.08
477.713	3234.48
478.084	3326.68
478.455	3390.41
478.827	3409.61
479.198	3465.21
479.569	3491.87
479.94	3590.85
480.311	3598.08
480.682	3663.39
481.053	3747.68
481.424	3850.05
481.795	3830.62
482.166	3919.43
482.537	3902.26
482.908	3956.49
483.279	3996.26
483.65	4043.5
484.021	4100.67
484.391	4187.45
484.762	4251.17
485.133	4198.75
485.503	4264.96
485.874	4368.91
486.244	4371.17
486.615	4446.87
486.985	4488.23
487.356	4579.07
487.726	4573.2
488.097	4681.44
488.467	4695.46
488.837	4726.42
489.207	4754.21
489.578	4857.03
489.948	4864.49
490.318	4929.57
490.688	4964.6
491.058	5031.04
491.428	5094.54
491.798	5115.56
492.168	5228.32
492.538	5226.52
492.908	5260.19
493.278	5364.82
493.648	5339.73
494.017	5383.57
494.387	5377.7
494.757	5385.38
495.126	5485.04
495.496	5507.64
495.866	5526.85
496.235	5629.44
496.605	5640.74
496.974	5668.54
497.344	5720.97
497.713	5742.43
498.082	5756.9
498.452	5810
498.821	5847.97
499.19	5837.8
499.559	5881.41
499.928	5901.3
500.298	5901.53
500.667	5972.71
501.036	5942.88
501.405	6016.1
501.774	5986.95
502.143	6077.11
502.512	6096.32
502.88	6059.49
503.249	6075.53
503.618	6107.17
503.987	6097.45
504.356	6218.35
504.724	6209.77
505.093	6241.4
505.462	6198.92
505.83	6261.52
506.199	6303.77
506.567	6315.3
506.936	6327.73
507.304	6343.77
507.672	6386.26
508.041	6400.72
508.409	6457.22
508.777	6511.45
509.145	6517.78
509.514	6479.14
509.882	6548.29
510.25	6506.93
510.618	6536.54
510.986	6535.63
511.354	6574.05
511.722	6631.68
512.09	6661.05
512.458	6597.78
512.826	6689.53
513.193	6660.38
513.561	6744.22
513.929	6724.55
514.297	6775.85
514.664	6776.08
515.032	6802.74
515.4	6781.5
515.767	6782.63
516.135	6821.28
516.502	6795.74
516.869	6944.44
517.237	6915.96
517.604	6856.53
517.972	6922.06
518.339	6934.04
518.706	6947.6
519.073	6968.84
519.44	6972.68
519.808	6985.79
520.175	6945.57
520.542	7046.81
520.909	7012.23
521.276	6976.75
521.643	7035.73
522.009	7049.07
522.376	7092
522.743	7101.49
523.11	7147.82
523.477	7179.68
523.843	7203.64
524.21	7192.11
524.577	7309.85
524.943	7291.09
525.31	7251.09
525.676	7229.85
526.043	7345.56
526.409	7352.56
526.776	7376.29
527.142	7327.48
527.508	7382.62
527.874	7404.76
528.241	7430.07
528.607	7369.28
528.973	7476.17
529.339	7367.02
529.705	7426.91
530.071	7552.56
530.437	7486.79
530.803	7554.36
531.169	7583.29
531.535	7499.9
531.901	7455.61
532.267	7478.66
532.632	7573.12
532.998	7467.59
533.364	7556.17
533.73	7530.64
534.095	7571.09
534.461	7595.04
534.826	7553.69
535.192	7555.49
535.557	7590.07
535.923	7564.98
536.288	7544.19
536.653	7565.21
537.019	7526.57
537.384	7580.58
537.749	7511.88
538.114	7539.22
538.479	7563.63
538.845	7556.85
539.21	7528.38
539.575	7525.21
539.94	7533.57
540.305	7477.08
540.67	7458.77
541.034	7519.56
541.399	7492.44
541.764	7512.56
542.129	7513.46
542.494	7574.48
542.858	7482.73
543.223	7469.39
543.587	7485.89
543.952	7499.9
544.316	7513.46
544.681	7488.15
545.045	7512.56
545.41	7465.33
545.774	7428.04
546.138	7468.72
546.503	7395.27
546.867	7446.34
547.231	7421.71
547.595	7483.63
547.959	7407.47
548.324	7409.28
548.688	7471.88
549.052	7431.65
549.416	7388.27
549.779	7354.82
550.143	7336.06
550.507	7405.67
550.871	7420.81
551.235	7348.27
551.599	7409.96
551.962	7357.98
552.326	7399.34
552.689	7420.36
553.053	7367.93
553.417	7346.91
553.78	7416.74
554.143	7378.32
554.507	7388.27
554.87	7439.56
555.234	7390.98
555.597	7403.41
555.96	7409.51
556.323	7431.43
556.686	7452.45
557.05	7469.85
557.413	7410.64
557.776	7428.94
558.139	7480.69
558.502	7425.55
558.865	7445.67
559.228	7487.25
559.59	7497.42
559.953	7440.24
560.316	7494.03
560.679	7518.43
561.041	7542.39
561.404	7608.83
561.767	7611.99
562.129	7574.93
562.492	7573.35
562.854	7612.22
563.217	7642.72
563.579	7579.22
563.941	7663.29
564.304	7609.05
564.666	7698.54
565.028	7693.57
565.39	7695.15
565.753	7748.03
566.115	7714.59
566.477	7710.97
566.839	7775.15
567.201	7795.71
567.563	7818.09
567.925	7888.14
568.287	7801.36
568.648	7864.86
569.01	7947.8
569.372	7914.35
569.734	7898.54
570.095	7912.55
570.457	7980.12
570.819	7989.15
571.18	7988.48
571.542	7974.47
571.903	8021.02
572.265	8052.88
572.626	8052.2
572.987	8037.74
573.349	8113.44
573.71	8131.52
574.071	8116.61
574.432	8137.63
574.794	8201.8
575.155	8177.62
575.516	8223.95
575.877	8239.32
576.238	8256.27
576.599	8249.94
576.96	8214.91
577.32	8284.51
577.681	8364.29
578.042	8321.57
578.403	8390.95
578.763	8305.08
579.124	8371.74
579.485	8406.77
579.845	8439.76
580.206	8437.96
580.566	8400.67
580.927	8446.32
581.287	8510.95
581.648	8476.83
582.008	8554.11
582.368	8560.44
582.728	8557.27
583.089	8497.39
583.449	8590.49
583.809	8579.2
584.169	8655.13
584.529	8625.52
584.889	8629.36
585.249	8545.52
585.609	8553.43
585.969	8633.43
586.329	8626.88
586.688	8675.01
587.048	8649.25
587.408	8697.61
587.768	8716.59
588.127	8677.95
588.487	8705.07
588.846	8718.17
589.206	8729.93
589.565	8689.25
589.925	8842.01
590.284	8781.9
590.643	8806.53
591.003	8781
591.362	8818.51
591.721	8809.47
592.08	8790.26
592.44	8842.92
592.799	8850.83
593.158	8825.29
593.517	8785.07
593.876	8847.66
594.235	8862.58
594.593	8817.38
594.952	8829.13
595.311	8889.92
595.67	8862.58
596.029	8952.29
596.387	8940.99
596.746	8983.93
597.104	8895.57
597.463	8946.64
597.822	8927.21
598.18	8975.12
598.538	8926.98
598.897	8913.2
599.255	8945.29
599.613	9030.03
599.972	9007.43
600.33	9044.27
600.688	8947.77
601.046	9013.76
601.404	9032.06
601.762	8990.03
602.12	9053.99
602.478	9066.64
602.836	9051.5
603.194	9041.33
603.552	9035.23
603.91	9021.9
604.268	9134.66
604.625	9053.53
604.983	9084.72
605.341	9054.44
605.698	9132.18
606.056	9134.21
606.413	9058.05
606.771	9149.58
607.128	9150.03
607.485	9119.29
607.843	9036.81
608.2	9194.77
608.557	9138.73
608.914	9154.1
609.272	9157.26
609.629	9214.88
609.986	9258.05
610.343	9243.81
610.7	9288.33
611.057	9300.98
611.414	9200.87
611.771	9241.55
612.127	9269.57
612.484	9256.47
612.841	9284.71
613.198	9293.07
613.554	9257.6
613.911	9295.33
614.267	9251.72
614.624	9303.47
614.98	9339.85
615.337	9311.15
615.693	9373.07
616.05	9320.87
616.406	9378.72
616.762	9342.34
617.118	9366.97
617.475	9391.15
617.831	9373.3
618.187	9374.43
618.543	9388.44
618.899	9432.51
619.255	9401.77
619.611	9409.68
619.967	9486.52
620.323	9372.39
620.678	9363.13
621.034	9435.22
621.39	9430.92
621.746	9349.57
622.101	9405.61
622.457	9414.2
622.812	9401.09
623.168	9472.51
623.523	9505.27
623.879	9481.77
624.234	9373.98
624.589	9464.6
624.945	9432.96
625.3	9520.41
625.655	9432.28
626.01	9437.7
626.365	9387.31
626.72	9402.68
627.075	9413.75
627.43	9381.89
627.785	9331.04
628.14	9347.54
628.495	9380.53
628.85	9367.2
629.205	9299.85
629.559	9434.77
629.914	9365.39
630.269	9370.13
630.623	9296.01
630.978	9300.98
631.332	9323.36
631.687	9342.79
632.041	9274.32
632.396	9334.43
632.75	9282.45
633.104	9327.65
633.459	9226.64
633.813	9233.87
634.167	9182.34
634.521	9160.2
634.875	9231.83
635.229	9243.58
635.583	9184.6
635.937	9200.87
636.291	9113.42
636.645	9242.68
636.999	9138.95
637.352	9173.08
637.706	9108.9
638.06	9162.46
638.413	9097.15
638.767	9091.5
639.121	9109.58
639.474	9044.04
639.828	9058.28
640.181	9062.12
640.534	9068.45
640.888	9068.22
641.241	9013.76
641.594	8975.8
641.947	9035
642.301	8993.2
642.654	9056.7
643.007	9013.76
643.36	8980.99
643.713	9021.44
644.066	8969.69
644.419	8933.76
644.771	8900.09
645.124	8834.1
645.477	8770.83
645.83	8769.02
646.182	8745.07
646.535	8715.91
646.888	8691.28
647.24	8642.7
647.593	8703.71
647.945	8645.18
648.298	8653.77
648.65	8575.13
649.002	8605.86
649.355	8724.28
649.707	8614.22
650.059	8653.54
650.411	8813.31
650.763	8750.94
651.115	8832.3
651.467	8818.74
651.819	8807.66
652.171	8805.4
652.523	8816.7
652.875	8809.7
653.227	8749.36
653.578	8865.29
653.93	8808.34
654.282	8777.38
654.633	8730.6
654.985	8779.19
655.337	8750.04
655.688	8811.96
656.039	8776.48
656.391	8716.82
656.742	8752.3
657.094	8781.22
657.445	8824.84
657.796	8805.4
658.147	8801.11
658.498	8746.2
658.849	8849.24
659.2	8749.59
659.551	8790.94
659.902	8849.24
660.253	8770.15
660.604	8754.78
660.955	8759.08
661.306	8783.71
661.656	8825.52
662.007	8729.25
662.358	8785.74
662.708	8789.59
663.059	8737.61
663.409	8757.27
663.76	8765.86
664.11	8839.3
664.461	8806.99
664.811	8815.8
665.161	8746.87
665.511	8782.35
665.862	8766.31
666.212	8789.36
666.562	8789.36
666.912	8776.7
667.262	8723.82
667.612	8728.8
667.962	8768.79
668.312	8815.57
668.662	8814.44
669.011	8811.51
669.361	8800.43
669.711	8734.22
670.06	8678.85
670.41	8646.76
670.76	8695.12
671.109	8726.99
671.459	8705.07
671.808	8671.85
672.157	8789.81
672.507	8696.93
672.856	8678.85
673.205	8662.58
673.554	8788.23
673.904	8641.57
674.253	8668.46
674.602	8651.51
674.951	8533.55
675.3	8491.51
675.649	8600.21
675.998	8620.78
676.346	8567.22
676.695	8674.79
677.044	8594.34
677.393	8603.83
677.741	8584.39
678.09	8581.91
678.438	8541
678.787	8655.35
679.135	8567.9
679.484	8542.81
679.832	8563.83
680.181	8448.13
680.529	8522.93
680.877	8483.15
681.225	8455.81
681.573	8512.98
681.922	8480.67
682.27	8492.19
682.618	8407.9
682.966	8419.88
683.314	8440.22
683.661	8369.03
684.009	8313.67
684.357	8363.61
684.705	8357.96
685.053	8297.17
685.4	8289.03
685.748	8256.27
686.095	8245.64
686.443	8214.46
686.79	8227.11
687.138	8215.36
687.485	8183.05
687.832	8110.51
688.18	8187.34
688.527	8070.51
688.874	8119.09
689.221	8144.86
689.568	8037.97
689.915	8003.62
690.262	8075.48
690.609	7999.55
690.956	7905.31
691.303	7943.28
691.65	7966.33
691.997	7889.27
692.344	7885.2
692.69	7841.36
693.037	7860.12
693.383	7747.58
693.73	7797.75
694.077	7743.96
694.423	7783.51
694.769	7708.26
695.116	7715.72
695.462	7645.43
695.808	7663.97
696.155	7702.38
696.501	7613.8
696.847	7606.57
697.193	7558.21
697.539	7549.84
697.885	7543.97
698.231	7448.38
698.577	7473.46
698.923	7390.3
699.269	7402.96
699.614	7377.19
699.96	7389.4
700.306	7319.34
700.651	7324.77
700.997	7303.97
701.342	7212.23
701.688	7246.35
702.033	7287.25
702.379	7163.19
702.724	7183.75
703.069	7166.58
703.415	7113.92
703.76	7131.78
704.105	7089.07
704.45	7117.54
704.795	7056.52
705.14	7030.54
705.485	7040.03
705.83	6916.87
706.175	6952.12
706.52	6939.01
706.865	6918.9
707.209	6915.96
707.554	6885.23
707.899	6940.37
708.243	6820.15
708.588	6797.1
708.932	6849.98
709.277	6822.63
709.621	6783.99
709.966	6808.62
710.31	6779.69
710.654	6673.71
710.998	6689.53
711.342	6666.93
711.687	6646.36
712.031	6633.48
712.375	6606.59
712.719	6687.04
713.063	6639.13
713.407	6650.21
713.75	6625.57
714.094	6582.64
714.438	6622.86
714.782	6572.47
715.125	6555.75
715.469	6516.65
715.812	6523.66
716.156	6496.09
716.499	6456.77
716.843	6503.54
717.186	6449.08
717.53	6480.95
717.873	6511.45
718.216	6461.74
718.559	6420.83
718.902	6369.76
719.246	6426.26
719.589	6386.71
719.932	6362.53
720.275	6376.77
720.617	6355.75
720.96	6358.01
721.303	6338.35
721.646	6385.81
721.989	6324.11
722.331	6358.91
722.674	6360.72
723.016	6308.97
723.359	6307.16
723.701	6291.35
724.044	6288.41
724.386	6283.44
724.729	6341.51
725.071	6280.72
725.413	6266.71
725.755	6284.57
726.097	6224.91
726.439	6228.3
726.782	6219.26
727.124	6261.74
727.465	6247.05
727.807	6217
728.149	6215.64
728.491	6215.42
728.833	6240.27
729.175	6175.87
729.516	6210.9
729.858	6197.11
730.199	6212.93
730.541	6176.32
730.882	6183.55
731.224	6203.89
731.565	6186.72
731.906	6181.29
732.248	6186.04
732.589	6161.18
732.93	6092.48
733.271	6176.55
733.612	6187.62
733.953	6203.66
734.294	6132.48
734.635	6127.96
734.976	6147.85
735.317	6104.23
735.658	6163.89
735.999	6180.61
736.339	6187.62
736.68	6221.74
737.021	6170.67
737.361	6175.87
737.702	6207.28
738.042	6187.62
738.383	6186.49
738.723	6174.29
739.063	6167.96
739.404	6189.2
739.744	6160.5
740.084	6168.19
740.424	6200.73
740.764	6168.41
741.104	6214.74
741.444	6158.02
741.784	6181.29
742.124	6177.45
742.464	6240.5
742.804	6160.95
743.143	6208.41
743.483	6213.83
743.823	6269.43
744.162	6250.22
744.502	6275.98
744.841	6266.04
745.181	6350.55
745.52	6356.65
745.86	6385.13
746.199	6375.86
746.538	6415.86
746.877	6427.39
747.216	6440.27
747.556	6426.71
747.895	6447.05
748.234	6527.05
748.573	6527.72
748.911	6582.64
749.25	6624.22
749.589	6650.43
749.928	6699.24
750.267	6767.27
750.605	6809.07
750.944	6816.08
751.283	6915.06
751.621	6934.27
751.96	6905.34
752.298	7003.42
752.636	7071.44
752.975	7076.18
753.313	7223.98
753.651	7297.87
753.989	7253.58
754.327	7338.32
754.666	7422.39
755.004	7548.71
755.342	7592.78
755.679	7762.04
756.017	7762.27
756.355	7918.42
756.693	7948.25
757.031	8069.15
757.368	8115.93
757.706	8271.63
758.044	8370.84
758.381	8442.48
758.719	8502.81
759.056	8607.67
759.394	8719.53
759.731	8811.28
760.068	8930.15
760.405	9070.48
760.743	9053.76
761.08	9290.59
761.417	9238.39
761.754	9465.5
762.091	9512.73
762.428	9627.76
762.765	9683.35
763.102	9867.52
763.438	9932.61
763.775	9966.96
764.112	10064.81
764.449	10190
764.785	10313.84
765.122	10347.96
765.458	10493.04
765.795	10473.16
766.131	10697.78
766.467	10762.64
766.804	10720.16
767.14	10834.73
767.476	10947.27
767.812	11016.42
768.148	11112.24
768.485	11182.29
768.821	11170.09
769.157	11359.24
769.492	11396.07
769.828	11487.82
770.164	11549.96
770.5	11591.55
770.836	11674.03
771.171	11725.55
771.507	11728.72
771.842	11735.95
772.178	11789.28
772.513	11935.72
772.849	11974.13
773.184	11953.34
773.519	12045.77
773.855	12107.46
774.19	12131.42
774.525	12126.67
774.86	12187.01
775.195	12294.58
775.53	12267.69
775.865	12283.5
776.2	12185.88
776.535	12248.48
776.87	12365.76
777.205	12267.69
777.539	12302.04
777.874	12356.5
778.209	12274.92
778.543	12279.66
778.878	12329.83
779.212	12381.58
779.547	12302.94
779.881	12431.75
780.215	12356.27
780.55	12394.69
780.884	12368.25
781.218	12327.8
781.552	12345.88
781.886	12408.25
782.22	12316.5
782.554	12401.47
782.888	12346.33
783.222	12210.51
783.556	12265.2
783.889	12260.23
784.223	12196.73
784.557	12156.05
784.89	12272.43
785.224	12244.86
785.557	12170.06
785.891	12115.15
786.224	12214.81
786.558	12258.19
786.891	12080.35
787.224	12141.36
787.557	12078.76
787.891	12073.79
788.224	12041.93
788.557	12176.84
788.89	11985.21
789.223	12097.07
789.556	12006
789.888	11997.41
790.221	11960.8
790.554	11902.72
790.887	11903.18
791.219	11821.37
791.552	11834.02
791.884	11800.13
792.217	11770.07
792.549	11839
792.882	11722.62
793.214	11648.49
793.546	11707.47
793.879	11639.45
794.211	11579.79
794.543	11589.51
794.875	11580.7
795.207	11654.14
795.539	11627.7
795.871	11577.99
796.203	11481.72
796.535	11447.82
796.867	11450.98
797.198	11366.47
797.53	11365.79
797.862	11392.91
798.193	11319.24
798.525	11316.98
798.856	11286.02
799.188	11196.08
799.519	11176.42
799.85	11220.48
800.182	11173.25
800.513	11167.15
800.844	11030.2
801.175	11169.41
801.506	11120.6
801.837	11073.14
802.168	11025.23
802.499	10985.69
802.83	10969.41
803.161	10916.76
803.491	10947.27
803.822	10965.12
804.153	10817.33
804.483	10786.14
804.814	10830.66
805.145	10795.86
805.475	10773.71
805.805	10721.06
806.136	10653.94
806.466	10759.25
806.796	10736.88
807.126	10577.79
807.457	10516.55
807.787	10604.23
808.117	10528.07
808.447	10536.43
808.777	10503.66
809.107	10509.99
809.436	10432.25
809.766	10477.22
810.096	10508.41
810.426	10432.25
810.755	10398.36
811.085	10375.53
811.414	10320.62
811.744	10317.23
812.073	10281.07
812.403	10294.18
812.732	10263.9
813.061	10225.03
813.39	10149.78
813.719	10125.82
814.049	10191.81
814.378	10186.16
814.707	10125.82
815.036	10131.47
815.365	10046.73
815.693	10045.82
816.022	10079.04
816.351	9938.26
816.68	9944.81
817.008	9975.54
817.337	9923.57
817.665	9877.69
817.994	9940.29
818.322	9873.62
818.651	9817.13
818.979	9816.9
819.307	9834.76
819.636	9776.23
819.964	9766.96
820.292	9844.25
820.62	9830.91
820.948	9710.69
821.276	9842.21
821.604	9757.24
821.932	9792.27
822.259	9807.86
822.587	9792.5
822.915	9747.07
823.243	9784.14
823.57	9710.47
823.898	9728.77
824.225	9687.87
824.553	9728.77
824.88	9683.12
825.207	9753.4
825.535	9712.95
825.862	9768.32
826.189	9746.17
826.516	9815.32
826.843	9786.17
827.17	9827.3
827.497	9849.67
827.824	9746.17
828.151	9794.76
828.478	9774.42
828.805	9808.09
829.131	9702.56
829.458	9727.19
829.785	9787.75
830.111	9749.33
830.438	9782.55
830.764	9717.47
831.09	9772.16
831.417	9724.48
831.743	9757.7
832.069	9769.67
832.395	9673.4
832.722	9769.22
833.048	9693.97
833.374	9757.02
833.7	9647.87
834.026	9670.92
834.351	9678.15
834.677	9687.41
835.003	9699.39
835.329	9691.48
835.654	9735.1
835.98	9636.79
836.306	9601.54
836.631	9588.21
836.956	9663.46
837.282	9583.24
837.607	9601.77
837.932	9532.16
838.258	9543.46
838.583	9576.91
838.908	9519.28
839.233	9524.03
839.558	9451.04
839.883	9488.78
840.208	9464.37
840.533	9398.16
840.858	9449.45
841.182	9364.71
841.507	9441.77
841.832	9371.72
842.156	9344.37
842.481	9317.03
842.805	9351.83
843.13	9362.23
843.454	9288.33
843.778	9263.92
844.103	9265.73
844.427	9181.89
844.751	9191.61
845.075	9203.13
845.399	9175.79
845.723	9090.82
846.047	9119.97
846.371	9020.31
846.695	9073.87
847.019	8978.05
847.343	8938.96
847.666	8950.26
847.99	8842.69
848.313	8912.52
848.637	8787.33
848.96	8782.58
849.284	8698.06
849.607	8627.56
849.931	8607.22
850.254	8564.51
850.577	8545.52
850.9	8546.43
851.223	8583.04
851.546	8506.65
851.869	8444.51
852.192	8475.92
852.515	8395.02
852.838	8360.44
853.161	8423.72
853.483	8288.13
853.806	8349.82
854.129	8308.02
854.451	8241.58
854.774	8253.1
855.096	8249.49
855.419	8164.06
855.741	8222.37
856.063	8101.92
856.385	8174.91
856.708	8154.57
857.03	8072.99
857.352	8047.91
857.674	8060.11
857.996	8016.27
858.318	7991.64
858.64	7974.47
858.961	7932.21
859.283	7902.15
859.605	7888.59
859.926	7855.15
860.248	7883.85
860.57	7882.94
860.891	7857.18
861.212	7715.49
861.534	7753.45
861.855	7724.98
862.176	7737.86
862.498	7737.86
862.819	7777.41
863.14	7681.37
863.461	7629.62
863.782	7680.24
864.103	7647.69
864.424	7598.88
864.745	7694.25
865.065	7567.92
865.386	7601.37
865.707	7526.34
866.027	7602.5
866.348	7614.25
866.668	7569.05
866.989	7550.75
867.309	7508.26
867.63	7520.47
867.95	7504.2
868.27	7468.49
868.59	7493.8
868.91	7466.68
869.23	7396.63
869.55	7376.29
869.87	7420.36
870.19	7423.52
870.51	7443.18
870.83	7459.68
871.15	7317.99
871.469	7390.53
871.789	7385.1
872.109	7356.4
872.428	7283.64
872.748	7329.74
873.067	7340.58
873.386	7262.39
873.706	7315.73
874.025	7223.52
874.344	7218.55
874.663	7323.86
874.982	7215.16
875.301	7202.51
875.62	7216.52
875.939	7179.46
876.258	7221.94
876.577	7117.54
876.896	7199.12
877.214	7199.12
877.533	7157.76
877.852	7131.1
878.17	7098.78
878.489	7117.31
878.807	7131.1
879.125	7058.33
879.444	7050.42
879.762	7059.91
880.08	7037.09
880.398	7015.85
880.716	7081.38
881.034	7003.64
881.352	7019.91
881.67	6983.31
881.988	6956.41
882.306	6926.13
882.624	6902.63
882.941	6869.86
883.259	6922.29
883.577	6902.86
883.894	6875.51
884.212	6899.47
884.529	6872.12
884.846	6839.81
885.164	6805.68
885.481	6776.98
885.798	6852.69
886.115	6787.38
886.432	6744.22
886.75	6732.69
887.067	6768.17
887.383	6735.85
887.7	6699.7
888.017	6671.45
888.334	6683.65
888.651	6638.91
888.967	6616.99
889.284	6626.48
889.6	6617.44
889.917	6528.85
890.233	6565.46
890.55	6557.78
890.866	6526.59
891.182	6531.11
891.498	6510.55
891.815	6439.59
892.131	6463.32
892.447	6417.67
892.763	6383.32
893.079	6371.12
893.395	6352.14
893.71	6346.71
894.026	6307.39
894.342	6337.22
894.657	6247.96
894.973	6273.27
895.289	6222.42
895.604	6286.15
895.92	6217.9
896.235	6178.13
896.55	6194.4
896.865	6164.34
897.181	6115.98
897.496	6155.76
897.811	6148.98
898.126	6054.97
898.441	6028.08
898.756	6025.36
899.071	6019.26
899.386	6033.05
899.7	6003.22
900.015	5946.5
900.33	5897.23
900.644	5951.47
900.959	5921.64
901.273	5828.53
901.588	5812.94
901.902	5845.03
902.216	5765.71
902.531	5840.06
902.845	5809.78
903.159	5681.64
903.473	5735.43
903.787	5675.99
904.101	5644.81
904.415	5681.42
904.729	5663.11
905.042	5606.17
905.356	5563.91
905.67	5614.53
905.984	5582.66
906.297	5565.49
906.611	5543.34
906.924	5507.64
907.237	5451.82
907.551	5483.46
907.864	5433.52
908.177	5387.87
908.491	5478.49
908.804	5379.05
909.117	5295.67
909.43	5303.35
909.743	5290.24
910.056	5292.95
910.368	5302.22
910.681	5251.83
910.994	5212.28
911.307	5209.57
911.619	5175.22
911.932	5154.43
912.244	5158.27
912.557	5093.86
912.869	5091.38
913.181	5097.93
913.494	5107.42
913.806	5034.43
914.118	5041.44
914.43	4988.56
914.742	4972.51
915.054	4985.84
915.366	4985.17
915.678	4905.39
915.99	4938.16
916.302	4872.85
916.613	4819.97
916.925	4858.62
917.236	4857.94
917.548	4808.9
917.859	4804.61
918.171	4763.25
918.482	4718.73
918.794	4755.12
919.105	4776.58
919.416	4693.2
919.727	4692.07
920.038	4649.58
920.349	4644.38
920.66	4634.89
920.971	4671.5
921.282	4604.61
921.593	4569.36
921.903	4554.44
922.214	4549.7
922.525	4460.21
922.835	4514.9
923.146	4476.03
923.456	4470.38
923.767	4440.55
924.077	4438.29
924.387	4422.69
924.697	4398.74
925.008	4388.8
925.318	4374.33
925.628	4375.24
925.938	4310.16
926.248	4362.58
926.558	4294.79
926.867	4294.11
927.177	4244.85
927.487	4251.85
927.796	4195.36
928.106	4179.76
928.416	4187.45
928.725	4144.51
929.034	4123.49
929.344	4165.53
929.653	4114.45
929.962	4105.19
930.271	4030.84
930.581	4060.22
930.89	4063.83
931.199	3989.71
931.508	4042.14
931.817	4043.5
932.125	3970.5
932.434	3991.75
932.743	3933.89
933.051	3954.23
933.36	3917.17
933.669	3913.78
933.977	3868.13
934.286	3892.31
934.594	3841.47
934.902	3853.44
935.21	3851.41
935.519	3834.69
935.827	3817.06
936.135	3793.56
936.443	3792.65
936.751	3737.97
937.059	3731.87
937.367	3721.92
937.674	3716.27
937.982	3701.13
938.29	3713.79
938.597	3655.03
938.905	3636.73
939.213	3635.82
939.52	3610.96
939.827	3634.24
940.135	3611.64
940.442	3574.36
940.749	3568.93
941.056	3576.39
941.363	3527.58
941.67	3523.28
941.977	3526.45
942.284	3486.45
942.591	3490.74
942.898	3514.92
943.205	3458.43
943.511	3462.95
943.818	3453.23
944.125	3418.88
944.431	3402.83
944.738	3379.33
945.044	3327.36
945.35	3351.99
945.657	3360.12
945.963	3314.93
946.269	3299.11
946.575	3320.8
946.881	3264.76
947.187	3251.88
947.493	3245.32
947.799	3242.39
948.105	3217.3
948.41	3201.26
948.716	3177.53
949.022	3165.55
949.327	3176.4
949.633	3159.45
949.938	3185.44
950.244	3167.59
950.549	3116.97
950.854	3105.21
951.16	3116.29
951.465	3096.63
951.77	3069.51
952.075	3077.19
952.38	3035.61
952.685	3060.92
952.99	2985.67
953.294	3033.58
953.599	3007.82
953.904	2985.44
954.209	2982.05
954.513	2946.58
954.818	2931.66
955.122	2961.94
955.426	2884.2
955.731	2931.66
956.035	2898.44
956.339	2900.7
956.643	2878.1
956.948	2853.02
957.252	2829.29
957.556	2823.19
957.86	2823.64
958.163	2811.66
958.467	2840.59
958.771	2804.21
959.075	2774.6
959.378	2789.97
959.682	2742.29
959.985	2722.85
960.289	2716.98
960.592	2729.18
960.896	2715.39
961.199	2704.32
961.502	2694.6
961.805	2665.45
962.108	2683.76
962.411	2678.79
962.714	2648.28
963.017	2613.93
963.32	2650.99
963.623	2614.83
963.926	2635.4
964.228	2598.56
964.531	2595.62
964.833	2556.3
965.136	2498.23
965.438	2558.11
965.741	2561.73
966.043	2511.56
966.345	2542.74
966.648	2509.52
966.95	2464.78
967.252	2482.18
967.554	2484.67
967.856	2455.51
968.158	2440.83
968.46	2453.93
968.761	2452.12
969.063	2422.97
969.365	2397.21
969.666	2420.94
969.968	2392.47
970.269	2385.01
970.571	2374.39
970.872	2369.19
971.174	2365.35
971.475	2340.72
971.776	2365.12
972.077	2360.15
972.378	2331.22
972.679	2289.42
972.98	2273.37
973.281	2254.16
973.582	2269.08
973.883	2251.23
974.183	2311.79
974.484	2255.07
974.785	2247.84
975.085	2275.18
975.386	2265.91
975.686	2217.55
975.986	2229.31
976.287	2172.13
976.587	2163.32
976.887	2190.21
977.187	2151.34
977.487	2144.79
977.787	2164.67
978.087	2135.3
978.387	2165.8
978.687	2138.46
978.987	2116.54
979.286	2122.64
979.586	2113.38
979.885	2107.28
980.185	2059.14
980.484	2104.34
980.784	2057.11
981.083	2086.71
981.382	2078.8
981.682	2033.83
981.981	2008.52
982.28	2032.93
982.579	2006.49
982.878	1991.12
983.177	2024.34
983.475	1995.19
983.774	1967.84
984.073	1980.5
984.372	1955.87
984.67	1944.57
984.969	1972.59
985.267	1944.34
985.566	1933.72
985.864	1943.21
986.162	1897.56
986.461	1921.52
986.759	1892.59
987.057	1912.7
987.355	1922.65
987.653	1899.6
987.951	1856.89
988.249	1850.56
988.547	1855.76
988.844	1870.45
989.142	1818.92
989.44	1794.51
989.737	1808.75
990.035	1820.5
990.332	1803.55
990.63	1792.48
990.927	1788.41
991.224	1761.97
991.521	1808.53
991.819	1750.67
992.116	1734.18
992.413	1776.21
992.71	1776.44
993.006	1753.16
993.303	1705.7
993.6	1716.78
993.897	1692.82
994.193	1702.77
994.49	1674.29
994.787	1677.91
995.083	1693.95
995.379	1646.95
995.676	1680.39
995.972	1639.04
996.268	1655.31
996.565	1634.52
996.861	1648.3
997.157	1641.52
997.453	1619.38
997.749	1618.47
998.044	1633.62
998.34	1610.11
998.636	1585.71
998.932	1584.8
999.227	1584.13
999.523	1572.83
999.818	1569.21
1000.114	1583.22
1000.409	1538.7
1000.704	1537.8
1001	1536.67
1001.295	1538.93
1001.59	1516.56
1001.885	1498.93
1002.18	1523.34
1002.475	1488.53
1002.77	1489.44
1003.065	1442.89
1003.359	1460.96
1003.654	1463.68
1003.949	1439.27
1004.243	1439.04
1004.538	1429.78
1004.832	1414.86
1005.127	1421.64
1005.421	1396.11
1005.715	1393.62
1006.009	1439.27
1006.304	1404.02
1006.598	1370.8
1006.892	1367.86
1007.186	1374.64
1007.48	1369.44
1007.773	1345.71
1008.067	1362.66
1008.361	1352.94
1008.655	1345.26
1008.948	1331.93
1009.242	1314.3
1009.535	1322.89
1009.829	1279.05
1010.122	1299.84
1010.415	1279.95
1010.708	1302.32
1011.001	1288.09
1011.295	1246.51
1011.588	1258.48
1011.881	1255.32
1012.173	1245.15
1012.466	1279.95
1012.759	1253.96
1013.052	1229.11
1013.344	1235.21
1013.637	1219.39
1013.93	1194.98
1014.222	1196.79
1014.514	1205.15
1014.807	1211.93
1015.099	1167.41
1015.391	1191.37
1015.683	1151.82
1015.976	1181.65
1016.268	1158.37
1016.56	1142.1
1016.851	1148.88
1017.143	1166.73
1017.435	1130.35
1017.727	1129
1018.018	1136.68
1018.31	1115.66
1018.602	1129.45
1018.893	1092.61
1019.185	1111.82
1019.476	1111.14
1019.767	1078.38
1020.058	1069.11
1020.35	1072.27
1020.641	1069.79
1020.932	1060.97
1021.223	1066.4
1021.514	1045.38
1021.804	1036.57
1022.095	1012.84
1022.386	1041.99
1022.677	1006.51
1022.967	1041.99
1023.258	1032.05
1023.548	993.18
1023.839	987.08
1024.129	1006.97
1024.419	970.58
1024.709	990.92
1025	974.88
1025.29	960.64
1025.58	929.45
1025.87	941.2
1026.16	964.71
1026.449	971.94
1026.739	938.72
1027.029	946.4
1027.319	946.85
1027.608	900.75
1027.898	924.26
1028.187	936.01
1028.477	910.02
1028.766	901.88
1029.055	919.06
1029.344	889.68
1029.634	898.04
1029.923	886.52
1030.212	885.16
1030.501	893.75
1030.79	864.14
1031.078	832.73
1031.367	874.54
1031.656	848.33
1031.945	847.87
1032.233	850.36
1032.522	855.1
1032.81	837.93
1033.099	852.17
1033.387	813.3
1033.675	826.86
1033.963	811.72
1034.251	818.5
1034.54	825.73
1034.828	788.89
1035.116	804.71
1035.403	803.35
1035.691	782.79
1035.979	802.45
1036.267	761.55
1036.554	779.63
1036.842	777.14
1037.129	757.25
1037.417	757.48
1037.704	782.56
1037.992	769.23
1038.279	751.38
1038.566	751.38
1038.853	751.38
1039.14	751.38
