Data from hue_270_FLMS001491_00052.txt Node
Date: Tue Feb 07 15:57:22 GMT 2017
User: dcchb
Spectrometer: FLMS00149
Trigger mode: 0
Integration Time (sec): 2.000000E-2
Scans to average: 10
Electric dark correction enabled: true
Nonlinearity correction enabled: false
Boxcar width: 0
XAxis mode: Wavelengths
Number of Pixels in Spectrum: 2048
>>>>>Begin Spectral Data<<<<<
341.393	-21.61
341.776	-21.61
342.16	-21.61
342.543	-78.56
342.927	-57.77
343.31	-84.88
343.693	-63.42
344.077	-62.06
344.46	-55.51
344.843	-47.15
345.226	-45.11
345.61	-26.13
345.993	-7.15
346.376	-7.6
346.759	4.38
347.142	19.52
347.525	37.6
347.908	44.83
348.291	78.27
348.674	91.61
349.057	122.79
349.44	124.6
349.823	125.51
350.206	144.26
350.588	192.4
350.971	202.79
351.354	241.89
351.737	243.69
352.119	236.01
352.502	255.45
352.884	259.29
353.267	285.95
353.65	294.77
354.032	292.73
354.414	312.84
354.797	308.55
355.179	322.79
355.562	333.86
355.944	306.29
356.326	331.38
356.709	331.15
357.091	325.05
357.473	335.9
357.855	317.36
358.238	323.47
358.62	346.29
359.002	330.25
359.384	334.31
359.766	337.48
360.148	327.31
360.53	316.01
360.912	337.48
361.294	335.9
361.676	328.66
362.057	332.96
362.439	312.62
362.821	305.61
363.203	308.33
363.584	329.57
363.966	337.7
364.348	317.59
364.729	336.57
365.111	325.27
365.493	322.34
365.874	308.55
366.256	323.69
366.637	308.33
367.019	313.52
367.4	321.43
367.781	314.88
368.163	300.64
368.544	322.34
368.925	288.44
369.306	309.46
369.688	319.4
370.069	290.92
370.45	307.2
370.831	310.59
371.212	309.91
371.593	298.83
371.974	319.62
372.355	305.84
372.736	314.2
373.117	311.49
373.498	297.03
373.879	298.38
374.26	305.84
374.641	307.42
375.021	304.03
375.402	312.17
375.783	323.92
376.163	316.91
376.544	321.43
376.925	315.78
377.305	322.79
377.686	323.24
378.066	316.46
378.447	325.05
378.827	334.77
379.208	326.86
379.588	344.26
379.968	347.65
380.349	328.89
380.729	315.78
381.109	324.37
381.489	339.28
381.87	334.54
382.25	351.04
382.63	334.09
383.01	344.71
383.39	336.35
383.77	337.93
384.15	368.89
384.53	334.54
384.91	330.02
385.29	334.77
385.67	341.54
386.049	326.63
386.429	348.1
386.809	357.82
387.189	358.49
387.568	356.01
387.948	369.79
388.328	355.78
388.707	353.97
389.087	345.61
389.466	369.79
389.846	344.71
390.225	365.72
390.605	342.9
390.984	358.49
391.363	360.75
391.743	364.82
392.122	384.71
392.501	375.22
392.881	375.44
393.26	376.57
393.639	375.67
394.018	371.6
394.397	384.71
394.776	391.03
395.155	370.47
395.534	385.61
395.913	382.9
396.292	415.89
396.671	404.37
397.05	381.09
397.429	385.16
397.808	410.7
398.186	395.1
398.565	407.31
398.944	410.47
399.323	409.11
399.701	434.65
400.08	410.47
400.458	399.85
400.837	403.01
401.215	435.33
401.594	425.61
401.972	417.47
402.351	450.69
402.729	423.35
403.107	432.84
403.486	462.9
403.864	454.08
404.242	445.95
404.62	424.03
404.999	442.56
405.377	448.66
405.755	481.65
406.133	454.54
406.511	461.77
406.889	467.64
407.267	462.9
407.645	484.82
408.023	491.37
408.401	473.52
408.779	502.67
409.156	516.91
409.534	501.09
409.912	501.09
410.29	533.63
410.667	544.93
411.045	545.38
411.422	525.49
411.8	533.63
412.178	513.29
412.555	545.38
412.933	543.57
413.31	559.62
413.687	582.44
414.065	591.71
414.442	578.6
414.819	596.91
415.197	605.49
415.574	624.7
415.951	612.72
416.328	627.41
416.705	636.9
417.082	669.45
417.46	648.66
417.837	641.65
418.214	664.02
418.591	636.23
418.967	662.89
419.344	689.11
419.721	699.95
420.098	693.17
420.475	681.42
420.852	701.76
421.228	695.89
421.605	726.85
421.982	723.91
422.358	736.34
422.735	737.47
423.111	767.3
423.488	781.53
423.864	783.12
424.241	818.82
424.617	795.54
424.994	792.15
425.37	824.92
425.746	837.35
426.123	850.23
426.499	865.82
426.875	849.78
427.251	871.25
427.627	903.11
428.003	893.39
428.379	913.28
428.756	910.57
429.132	945.37
429.507	959.83
429.883	944.24
430.259	949.44
430.635	980.4
431.011	960.51
431.387	1002.77
431.763	1020.4
432.138	1007.74
432.514	1058.81
432.89	1064.69
433.265	1065.14
433.641	1101.07
434.016	1103.33
434.392	1111.47
434.767	1138.13
435.143	1168.42
435.518	1148.98
435.894	1181.52
436.269	1203.22
436.644	1208.87
437.02	1234.85
437.395	1223.78
437.77	1252.26
438.145	1280.05
438.52	1281.18
438.895	1287.28
439.271	1316.89
439.646	1325.47
440.021	1359.15
440.395	1395.3
440.77	1422.19
441.145	1380.16
441.52	1406.38
441.895	1421.97
442.27	1435.98
442.645	1422.87
443.019	1459.71
443.394	1479.14
443.769	1487.28
444.143	1478.69
444.518	1506.71
444.892	1493.83
445.267	1542.87
445.641	1511.01
446.016	1541.06
446.39	1542.87
446.764	1576.77
447.139	1581.96
447.513	1588.74
447.887	1566.82
448.262	1586.26
448.636	1612.25
449.01	1588.07
449.384	1637.1
449.758	1645.69
450.132	1683.2
450.506	1636.65
450.88	1688.63
451.254	1653.37
451.628	1679.14
452.002	1724.79
452.376	1716.42
452.75	1727.27
453.123	1790.32
453.497	1776.99
453.871	1799.81
454.244	1814.27
454.618	1819.92
454.992	1823.31
455.365	1816.08
455.739	1903.31
456.112	1903.99
456.486	1934.05
456.859	1941.95
457.232	1972.24
457.606	1963.87
457.979	1987.15
458.352	1995.06
458.725	2019.69
459.099	2040.03
459.472	2089.3
459.845	2082.97
460.218	2082.52
460.591	2100.37
460.964	2107.6
461.337	2164.32
461.71	2246.58
462.083	2240.03
462.456	2242.51
462.829	2200.48
463.201	2278.67
463.574	2273.7
463.947	2262.62
464.32	2331.77
464.692	2329.29
465.065	2346.24
465.438	2421.04
465.81	2424.65
466.183	2428.27
466.555	2494.48
466.928	2508.95
467.3	2470.75
467.672	2501.71
468.045	2579.68
468.417	2619.9
468.789	2599.79
469.161	2615.61
469.534	2688.6
469.906	2752.55
470.278	2739.22
470.65	2750.52
471.022	2822.84
471.394	2858.31
471.766	2871.65
472.138	2878.65
472.51	2900.8
472.882	2969.27
473.253	3001.81
473.625	3010.18
473.997	3107.57
474.369	3119.55
474.74	3118.19
475.112	3195.03
475.484	3212.88
475.855	3278.87
476.227	3289.49
476.598	3368.81
476.97	3378.75
477.341	3424.18
477.713	3492.2
478.084	3507.11
478.455	3565.64
478.827	3589.37
479.198	3694.9
479.569	3721.12
479.94	3771.96
480.311	3792.08
480.682	3864.16
481.053	3918.85
481.424	4026.65
481.795	4006.08
482.166	4086.08
482.537	4115.23
482.908	4171.95
483.279	4197.94
483.65	4257.15
484.021	4353.87
484.391	4351.38
484.762	4342.8
485.133	4398.39
485.503	4462.57
485.874	4578.27
486.244	4565.61
486.615	4630.7
486.985	4717.02
487.356	4768.32
487.726	4783.01
488.097	4853.52
488.467	4871.6
488.837	4954.98
489.207	4994.08
489.578	5100.74
489.948	5089.44
490.318	5144.58
490.688	5165.82
491.058	5233.62
491.428	5286.27
491.798	5344.35
492.168	5378.93
492.538	5442.65
492.908	5472.03
493.278	5519.49
493.648	5515.19
494.017	5577.57
494.387	5624.12
494.757	5713.15
495.126	5684.23
495.496	5682.2
495.866	5765.13
496.235	5831.12
496.605	5831.8
496.974	5856.2
497.344	5923.77
497.713	5916.54
498.082	6010.32
498.452	6006.48
498.821	6022.75
499.19	6011.45
499.559	6042.41
499.928	6083.31
500.298	6093.03
500.667	6187.27
501.036	6104.78
501.405	6255.51
501.774	6214.61
502.143	6267.04
502.512	6285.57
502.88	6326.47
503.249	6298.45
503.618	6378.67
503.987	6350.88
504.356	6376.19
504.724	6383.42
505.093	6410.31
505.462	6461.61
505.83	6491.21
506.199	6519.01
506.567	6549.29
506.936	6556.07
507.304	6603.3
507.672	6578.89
508.041	6624.32
508.409	6639.46
508.777	6704.99
509.145	6710.87
509.514	6680.14
509.882	6752
510.25	6743.64
510.618	6771.43
510.986	6815.27
511.354	6788.61
511.722	6829.51
512.09	6906.8
512.458	6902.73
512.826	6960.35
513.193	6914.25
513.561	6883.75
513.929	6975.72
514.297	7056.17
514.664	7004.87
515.032	7072.89
515.4	7094.14
515.767	7112.21
516.135	7176.17
516.502	7050.97
516.869	7166.22
517.237	7157.86
517.604	7129.61
517.972	7157.64
518.339	7214.81
518.706	7187.47
519.073	7191.08
519.44	7212.1
519.808	7319.21
520.175	7226.11
520.542	7323.73
520.909	7373
521.276	7352.21
521.643	7470.4
522.009	7474.01
522.376	7472.2
522.743	7450.06
523.11	7529.6
523.477	7608.25
523.843	7524.86
524.21	7575.93
524.577	7739.09
524.943	7638.75
525.31	7689.83
525.676	7728.92
526.043	7749.26
526.409	7793.1
526.776	7816.15
527.142	7841.91
527.508	7812.53
527.874	7864.28
528.241	7884.62
528.607	7895.24
528.973	7923.27
529.339	7958.52
529.705	8036.48
530.071	8078.06
530.437	8009.82
530.803	8043.04
531.169	8107.22
531.535	8115.35
531.901	8103.37
532.267	8106.54
532.632	8139.53
532.998	8137.5
533.364	8183.15
533.73	8140.89
534.095	8228.57
534.461	8221.34
534.826	8243.26
535.192	8222.92
535.557	8349.02
535.923	8313.09
536.288	8289.58
536.653	8375.23
537.019	8296.82
537.384	8285.52
537.749	8345.63
538.114	8330.71
538.479	8370.03
538.845	8384.05
539.21	8331.62
539.575	8364.16
539.94	8404.84
540.305	8437.38
540.67	8392.63
541.034	8389.92
541.399	8474.89
541.764	8398.28
542.129	8464.04
542.494	8493.87
542.858	8459.98
543.223	8406.19
543.587	8559.41
543.952	8540.43
544.316	8543.59
544.681	8476.47
545.045	8547.43
545.41	8515.34
545.774	8555.79
546.138	8579.07
546.503	8584.49
546.867	8559.18
547.231	8654.55
547.595	8593.08
547.959	8615.68
548.324	8636.47
548.688	8628.78
549.052	8643.25
549.416	8661.33
549.779	8635.79
550.143	8671.72
550.507	8738.16
550.871	8704.04
551.235	8667.65
551.599	8758.5
551.962	8762.57
552.326	8815.45
552.689	8775
553.053	8733.87
553.417	8762.34
553.78	8882.56
554.143	8786.07
554.507	8840.76
554.87	8873.52
555.234	8902.68
555.597	8803.24
555.96	8872.85
556.323	8937.93
556.686	8965.05
557.05	9002.11
557.413	8940.64
557.776	8911.04
558.139	8951.04
558.502	9041.88
558.865	9039.17
559.228	9088.43
559.59	9046.85
559.953	9158.71
560.316	9103.8
560.679	9179.5
561.041	9210.69
561.404	9254.53
561.767	9295.43
562.129	9253.17
562.492	9291.14
562.854	9313.06
563.217	9311.7
563.579	9384.02
563.941	9376.11
564.304	9439.16
564.666	9443.23
565.028	9481.19
565.39	9503.34
565.753	9532.49
566.115	9557.12
566.477	9600.96
566.839	9570.45
567.201	9652.94
567.563	9666.5
567.925	9697.91
568.287	9707.17
568.648	9714.63
569.01	9776.32
569.372	9835.31
569.734	9842.99
570.095	9894.29
570.457	9925.93
570.819	9929.09
571.18	9987.62
571.542	9999.82
571.903	10039.14
572.265	10046.6
572.626	10136.99
572.987	10132.7
573.349	10188.52
573.71	10176.09
574.071	10272.58
574.432	10268.52
574.794	10376.54
575.155	10333.6
575.516	10282.98
575.877	10416.76
576.238	10384.22
576.599	10445.01
576.96	10497.44
577.32	10482.97
577.681	10492.24
578.042	10545.57
578.403	10498.79
578.763	10603.2
579.124	10615.85
579.485	10703.08
579.845	10706.7
580.206	10641.16
580.566	10721.16
580.927	10813.13
581.287	10832.12
581.648	10896.07
582.008	10923.64
582.368	10881.83
582.728	10943.98
583.089	10969.97
583.449	10979.01
583.809	10979.46
584.169	10989.85
584.529	11078.21
584.889	11127.93
585.249	11076.86
585.609	11148.27
585.969	11229.62
586.329	11203.18
586.688	11256.74
587.048	11236.4
587.408	11239.79
587.768	11232.11
588.127	11269.17
588.487	11299.9
588.846	11355.72
589.206	11326.34
589.565	11355.04
589.925	11472.33
590.284	11491.08
590.643	11512.32
591.003	11445.66
591.362	11563.4
591.721	11513.91
592.08	11553
592.44	11616.95
592.799	11675.71
593.158	11649.5
593.517	11689.04
593.876	11724.3
594.235	11727.69
594.593	11759.1
594.952	11792.54
595.311	11758.19
595.67	11791.87
596.029	11983.95
596.387	11925.42
596.746	11914.8
597.104	11880.45
597.463	11913.22
597.822	11960.67
598.18	11955.48
598.538	11944.4
598.897	12005.87
599.255	11941.69
599.613	12101.01
599.972	12023.72
600.33	12047.23
600.688	12021.24
601.046	12153.89
601.404	12129.48
601.762	12090.61
602.12	12174.91
602.478	12213.32
602.836	12158.18
603.194	12180.1
603.552	12234.34
603.91	12158.41
604.268	12263.04
604.625	12174
604.983	12280.67
605.341	12204.28
605.698	12311.17
606.056	12286.54
606.413	12317.73
606.771	12342.13
607.128	12404.28
607.485	12275.47
607.843	12299.87
608.2	12400.21
608.557	12455.8
608.914	12430.72
609.272	12504.84
609.629	12451.73
609.986	12502.81
610.343	12405.18
610.7	12555.69
611.057	12522.24
611.414	12457.61
611.771	12538.96
612.127	12539.42
612.484	12553.43
612.841	12666.87
613.198	12599.3
613.554	12610.37
613.911	12667.55
614.267	12701.9
614.624	12677.72
614.98	12614.44
615.337	12684.95
615.693	12669.13
616.05	12585.29
616.406	12684.72
616.762	12648.79
617.118	12708
617.475	12715.91
617.831	12802.91
618.187	12737.83
618.543	12758.39
618.899	12799.97
619.255	12824.83
619.611	12861.89
619.967	12801.78
620.323	12809.92
620.678	12799.07
621.034	12765.85
621.39	12712.29
621.746	12773.08
622.101	12942.8
622.457	12789.58
622.812	12809.69
623.168	12838.17
623.523	12916.13
623.879	12948.9
624.234	12830.03
624.589	12889.01
624.945	12975.11
625.3	12934.21
625.655	12853.31
626.01	12877.71
626.365	12901.21
626.72	12869.8
627.075	12903.25
627.43	12850.14
627.785	12830.26
628.14	12833.87
628.495	12853.31
628.85	12858.5
629.205	12820.76
629.559	12914.1
629.914	12839.97
630.269	12828.45
630.623	12742.12
630.978	12714.33
631.332	12819.86
631.687	12806.3
632.041	12728.56
632.396	12731.73
632.75	12677.49
633.104	12777.6
633.459	12620.09
633.813	12645.18
634.167	12677.49
634.521	12702.58
634.875	12685.4
635.229	12616.48
635.583	12618.51
635.937	12626.65
636.291	12606.08
636.645	12642.92
636.999	12513.43
637.352	12517.72
637.706	12575.35
638.06	12518.85
638.413	12477.5
638.767	12534.67
639.121	12488.57
639.474	12421.23
639.828	12435.01
640.181	12437.95
640.534	12478.17
640.888	12364.96
641.241	12397.72
641.594	12350.49
641.947	12432.75
642.301	12389.82
642.654	12328.12
643.007	12352.08
643.36	12347.56
643.713	12349.82
644.066	12372.41
644.419	12314.56
644.771	12311.17
645.124	12166.09
645.477	12096.49
645.83	12105.76
646.182	12072.31
646.535	11926.78
646.888	11940.34
647.24	11862.82
647.593	11898.53
647.945	11915.03
648.298	11825.54
648.65	11856.27
649.002	11839.1
649.355	11865.08
649.707	11809.72
650.059	11937.4
650.411	12080.67
650.763	12019.66
651.115	12150.27
651.467	12127.45
651.819	12158.18
652.171	12159.99
652.523	12109.6
652.875	12069.82
653.227	12063.5
653.578	12110.5
653.93	12039.54
654.282	12061.69
654.633	11962.93
654.985	12093.33
655.337	12090.61
655.688	12062.82
656.039	12151.18
656.391	12003.38
656.742	12055.59
657.094	12078.86
657.445	12056.04
657.796	12118.18
658.147	12071.41
658.498	12134.45
658.849	12143.27
659.2	12154.34
659.551	12052.65
659.902	12133.1
660.253	12083.83
660.604	12094.23
660.955	12059.43
661.306	12084.96
661.656	12070.05
662.007	12059.2
662.358	12014.68
662.708	12094
663.059	12160.44
663.409	12099.88
663.76	12128.35
664.11	12100.78
664.461	12112.53
664.811	12054.68
665.161	12103.27
665.511	12124.51
665.862	12104.17
666.212	12137.62
666.562	12215.81
666.912	12082.03
667.262	12069.15
667.612	12110.5
667.962	12111.18
668.312	12100.78
668.662	12160.44
669.011	12028.24
669.361	12016.94
669.711	12080.67
670.06	12053.55
670.41	12072.76
670.76	12020.33
671.109	11998.87
671.459	12092.65
671.808	11980.56
672.157	12061.91
672.507	11958.41
672.856	11972.65
673.205	12024.63
673.554	12000.22
673.904	11950.28
674.253	12017.17
674.602	12032.54
674.951	11815.82
675.3	11764.07
675.649	11948.25
675.998	11943.05
676.346	11945.08
676.695	12014.23
677.044	11855.59
677.393	11944.18
677.741	11911.41
678.09	11826.21
678.438	11834.8
678.787	11806.55
679.135	11805.65
679.484	11752.32
679.832	11721.36
680.181	11730.62
680.529	11756.61
680.877	11692.88
681.225	11702.83
681.573	11781.47
681.922	11606.11
682.27	11592.55
682.618	11615.15
682.966	11647.01
683.314	11567.24
683.661	11566.33
684.009	11566.79
684.357	11449.5
684.705	11463.29
685.053	11516.39
685.4	11401.82
685.748	11414.7
686.095	11423.74
686.443	11444.53
686.79	11349.84
687.138	11363.4
687.485	11344.87
687.832	11247.92
688.18	11338.54
688.527	11195.95
688.874	11192.11
689.221	11153.01
689.568	11172.45
689.915	11027.37
690.262	11044.54
690.609	11080.92
690.956	11048.16
691.303	11016.52
691.65	10988.72
691.997	10884.77
692.344	10841.16
692.69	10883.41
693.037	10808.39
693.383	10744.66
693.73	10762.06
694.077	10731.1
694.423	10676.87
694.769	10633.48
695.116	10671.44
695.462	10590.99
695.808	10610.65
696.155	10529.07
696.501	10470.77
696.847	10485.68
697.193	10350.77
697.539	10488.4
697.885	10396.87
698.231	10292.7
698.577	10374.28
698.923	10299.25
699.269	10228.29
699.614	10102.87
699.96	10123.89
700.306	10085.47
700.651	10164.56
700.997	10116.88
701.342	10045.47
701.688	10023.1
702.033	9977
702.379	9950.56
702.724	9884.34
703.069	9929.54
703.415	9731.35
703.76	9746.5
704.105	9859.03
704.45	9772.48
704.795	9734.97
705.14	9675.99
705.485	9715.54
705.83	9609.32
706.175	9570.91
706.52	9586.95
706.865	9563.68
707.209	9436.22
707.554	9527.74
707.899	9506.5
708.243	9448.88
708.588	9372.49
708.932	9385.15
709.277	9379.05
709.621	9402.78
709.966	9268.32
710.31	9306.73
710.654	9273.29
710.998	9240.29
711.342	9199.62
711.687	9173.4
712.031	9200.97
712.375	9142.44
712.719	9111.94
713.063	9176.57
713.407	9144.93
713.75	9056.12
714.094	9055.67
714.438	9034.65
714.782	9099.73
715.125	8984.03
715.469	9032.16
715.812	8926.18
716.156	8949.45
716.499	8988.77
716.843	9013.63
717.186	8886.86
717.53	8882.11
717.873	9009.79
718.216	8939.06
718.559	8850.25
718.902	8893.18
719.246	8851.15
719.589	8787.88
719.932	8767.31
720.275	8813.19
720.617	8813.64
720.96	8802.57
721.303	8750.59
721.646	8721.21
721.989	8726.41
722.331	8729.8
722.674	8671.04
723.016	8687.77
723.359	8701.55
723.701	8677.37
724.044	8629.24
724.386	8634.89
724.729	8623.59
725.071	8651.83
725.413	8615.45
725.755	8623.13
726.097	8579.29
726.439	8581.78
726.782	8560.76
727.124	8601.67
727.465	8557.15
727.807	8554.66
728.149	8538.39
728.491	8528.9
728.833	8538.62
729.175	8542.23
729.516	8511.95
729.858	8506.75
730.199	8530.26
730.541	8482.12
730.882	8446.87
731.224	8483.7
731.565	8449.58
731.906	8440.09
732.248	8429.92
732.589	8455.23
732.93	8437.15
733.271	8410.03
733.612	8471.27
733.953	8513.31
734.294	8497.26
734.635	8477.15
734.976	8547.66
735.317	8407.1
735.658	8417.26
735.999	8465.4
736.339	8403.03
736.68	8502.01
737.021	8471.27
737.361	8387.66
737.702	8496.58
738.042	8457.04
738.383	8474.44
738.723	8470.14
739.063	8471.5
739.404	8498.62
739.744	8495.91
740.084	8450.48
740.424	8507.43
740.764	8505.4
741.104	8597.37
741.444	8507.88
741.784	8504.49
742.124	8530.71
742.464	8476.92
742.804	8541.33
743.143	8547.2
743.483	8600.31
743.823	8520.31
744.162	8595.11
744.502	8563.7
744.841	8618.39
745.181	8652.29
745.52	8687.77
745.86	8674.88
746.199	8744.26
746.538	8742.23
746.877	8746.52
747.216	8836.69
747.556	8838.72
747.895	8967.98
748.234	8934.31
748.573	8979.96
748.911	9077.59
749.25	9001.2
749.589	9054.31
749.928	9166.4
750.267	9189
750.605	9308.31
750.944	9301.31
751.283	9370.23
751.621	9450.46
751.96	9486.61
752.298	9623.11
752.636	9662.2
752.975	9689.77
753.313	9776.32
753.651	9960.95
753.989	9946.94
754.327	10083.44
754.666	10112.36
755.004	10251.11
755.342	10338.57
755.679	10508.96
756.017	10494.72
756.355	10688.17
756.693	10748.5
757.031	10902.85
757.368	11049.74
757.706	11191.65
758.044	11275.95
758.381	11459.22
758.719	11520.46
759.056	11718.65
759.394	11849.49
759.731	11994.35
760.068	12044.06
760.405	12192.31
760.743	12341.23
761.08	12573.09
761.417	12653.09
761.754	12733.76
762.091	12912.97
762.428	13019.63
762.765	13153.64
763.102	13474.53
763.438	13461.65
763.775	13707.29
764.112	13750.91
764.449	14044.69
764.785	14011.24
765.122	14126.72
765.458	14374.85
765.795	14440.16
766.131	14679.92
766.467	14776.19
766.804	14901.39
767.14	14955.17
767.476	15165.56
767.812	15299.57
768.148	15426.12
768.485	15448.27
768.821	15638.09
769.157	15860.01
769.492	15919.44
769.828	16088.48
770.164	16034.69
770.5	16158.76
770.836	16347.45
771.171	16393.55
771.507	16471.06
771.842	16463.61
772.178	16594.9
772.513	16720.1
772.849	16816.82
773.184	16945.85
773.519	17043.93
773.855	17062.91
774.19	17063.14
774.525	17233.76
774.86	17299.06
775.195	17336.35
775.53	17420.42
775.865	17383.13
776.2	17329.57
776.535	17356.69
776.87	17418.38
777.205	17591.03
777.539	17507.42
777.874	17638.04
778.209	17518.95
778.543	17580.41
778.878	17699.28
779.212	17723.69
779.547	17703.12
779.881	17763.91
780.215	17779.5
780.55	17814.76
780.884	17728.88
781.218	17937.69
781.552	17881.2
781.886	17894.53
782.22	17845.04
782.554	17922.33
782.888	17776.11
783.222	17788.32
783.556	17705.16
783.889	17760.75
784.223	17652.28
784.557	17638.04
784.89	17864.93
785.224	17817.7
785.557	17655.67
785.891	17694.99
786.224	17756.91
786.558	17722.78
786.891	17661.99
787.224	17531.15
787.557	17588.77
787.891	17618.83
788.224	17665.61
788.557	17592.62
788.89	17595.78
789.223	17577.48
789.556	17593.07
789.888	17494.09
790.221	17479.63
790.554	17358.72
790.887	17493.41
791.219	17336.8
791.552	17351.27
791.884	17294.09
792.217	17323.92
792.549	17289.35
792.882	17177.71
793.214	17164.15
793.546	17159.86
793.879	17099.3
794.211	16985.63
794.543	17134.55
794.875	17078.96
795.207	17105.62
795.539	17123.25
795.871	17050.94
796.203	16869.92
796.535	16833.77
796.867	16806.65
797.198	16827.89
797.53	16804.61
797.862	16806.87
798.193	16751.73
798.525	16575.69
798.856	16725.52
799.188	16497.5
799.519	16439.88
799.85	16463.15
800.182	16511.74
800.513	16460.67
800.844	16415.02
801.175	16520.33
801.506	16415.7
801.837	16349.71
802.168	16402.14
802.499	16283.05
802.83	16137.29
803.161	16153.56
803.491	16110.85
803.822	16184.97
804.153	15958.08
804.483	15946.56
804.814	15915.6
805.145	15899.33
805.475	15979.78
805.805	15900.23
806.136	15960.57
806.466	15822.49
806.796	15793.12
807.126	15719.9
807.457	15651.65
807.787	15722.84
808.117	15629.05
808.447	15633.35
808.777	15671.54
809.107	15533.24
809.436	15425.22
809.766	15481.71
810.096	15517.64
810.426	15323.3
810.755	15485.1
811.085	15385.89
811.414	15365.56
811.744	15283.75
812.073	15271.32
812.403	15283.07
812.732	15216.86
813.061	15236.97
813.39	15006.24
813.719	15101.83
814.049	15173.7
814.378	15083.08
814.707	15075.17
815.036	15022.51
815.365	14923.31
815.693	14866.13
816.022	14890.54
816.351	14776.87
816.68	14678.12
817.008	14844.67
817.337	14667.72
817.665	14625.69
817.994	14682.18
818.322	14737.32
818.651	14627.95
818.979	14653.71
819.307	14602.64
819.636	14645.58
819.964	14531
820.292	14625.46
820.62	14552.02
820.948	14462.98
821.276	14601.51
821.604	14448.74
821.932	14501.17
822.259	14487.39
822.587	14492.36
822.915	14448.97
823.243	14475.86
823.57	14459.14
823.898	14430.21
824.225	14429.54
824.553	14502.3
824.88	14564.45
825.207	14614.84
825.535	14496.2
825.862	14530.1
826.189	14465.47
826.516	14545.47
826.843	14628.17
827.17	14620.27
827.497	14544.79
827.824	14532.36
828.151	14651.45
828.478	14572.13
828.805	14639.25
829.131	14546.59
829.458	14544.79
829.785	14484.22
830.111	14507.27
830.438	14538.46
830.764	14602.19
831.09	14562.87
831.417	14398.8
831.743	14563.77
832.069	14584.33
832.395	14442.87
832.722	14444.45
833.048	14434.73
833.374	14485.58
833.7	14449.2
834.026	14422.98
834.351	14376.66
834.677	14424.11
835.003	14477.67
835.329	14370.1
835.654	14424.11
835.98	14366.26
836.306	14372.81
836.631	14324.23
836.956	14331.23
837.282	14361.52
837.607	14217.34
837.932	14274.74
838.258	14280.16
838.583	14160.39
838.908	14107.06
839.233	14093.27
839.558	14103.67
839.883	14057.34
840.208	14003.56
840.533	14036.33
840.858	14065.7
841.182	14019.83
841.507	14045.14
841.832	13890.34
842.156	13885.14
842.481	13872.26
842.805	13846.27
843.13	13888.99
843.454	13862.55
843.778	13787.97
844.103	13714.53
844.427	13693.96
844.751	13677.01
845.075	13629.78
845.399	13537.13
845.723	13546.62
846.047	13583.23
846.371	13416.68
846.695	13476.79
847.019	13272.28
847.343	13264.82
847.666	13218.04
847.99	13180.76
848.313	13253.75
848.637	13059.18
848.96	13104.6
849.284	13008.33
849.607	13041.1
849.931	12908.67
850.254	12864.83
850.577	12715.68
850.9	12644.95
851.223	12585.74
851.546	12634.55
851.869	12546.65
852.192	12639.75
852.515	12459.19
852.838	12419.65
853.161	12471.4
853.483	12348.23
853.806	12296.26
854.129	12345.3
854.451	12326.31
854.774	12197.73
855.096	12142.14
855.419	12115.02
855.741	12116.83
856.063	12029.6
856.385	11989.6
856.708	11984.18
857.03	11964.97
857.352	11924.74
857.674	11887
857.996	11868.7
858.318	11777.4
858.64	11771.07
858.961	11718.19
859.283	11728.14
859.605	11649.72
859.926	11763.62
860.248	11607.92
860.57	11607.01
860.891	11564.3
861.212	11494.7
861.534	11444.76
861.855	11417.41
862.176	11430.29
862.498	11475.49
862.819	11470.29
863.14	11300.8
863.461	11373.8
863.782	11404.98
864.103	11307.58
864.424	11319.56
864.745	11325.21
865.065	11251.09
865.386	11163.41
865.707	11309.62
866.027	11248.38
866.348	11194.14
866.668	11200.69
866.989	11257.19
867.309	11051.77
867.63	11146.46
867.95	11104.2
868.27	11080.47
868.59	11051.32
868.91	11033.69
869.23	11012.68
869.55	10962.73
869.87	11059.91
870.19	10981.94
870.51	10915.28
870.83	11021.26
871.15	10925.22
871.469	10937.42
871.789	10916.41
872.109	10865.56
872.428	10798.9
872.748	10883.41
873.067	10807.71
873.386	10889.06
873.706	10742.63
874.025	10760.93
874.344	10649.07
874.663	10805
874.982	10697.2
875.301	10660.6
875.62	10637.09
875.939	10578.11
876.258	10621.05
876.577	10618.34
876.896	10626.02
877.214	10545.12
877.533	10596.19
877.852	10548.96
878.17	10514.61
878.489	10492.24
878.807	10572.24
879.125	10447.49
879.444	10480.71
879.762	10426.25
880.08	10463.31
880.398	10456.76
880.716	10406.14
881.034	10304.45
881.352	10373.37
881.67	10323.66
881.988	10367.5
882.306	10327.04
882.624	10326.14
882.941	10269.19
883.259	10200.95
883.577	10205.01
883.894	10120.27
884.212	10173.6
884.529	10059.26
884.846	10069.88
885.164	10050.44
885.481	9951.69
885.798	9961.4
886.115	10028.3
886.432	9904.46
886.75	9921.86
887.067	9930.45
887.383	9893.38
887.7	9870.11
888.017	9793.27
888.334	9798.7
888.651	9780.17
888.967	9741.75
889.284	9710.56
889.6	9716.89
889.917	9674.86
890.233	9667.85
890.55	9596.44
890.866	9618.81
891.182	9590.34
891.498	9577.23
891.815	9521.64
892.131	9504.02
892.447	9428.31
892.763	9427.41
893.079	9451.36
893.395	9356.22
893.71	9395.09
894.026	9346.28
894.342	9287.98
894.657	9281.65
894.973	9242.78
895.289	9204.36
895.604	9196
895.92	9093.86
896.235	9050.92
896.55	9097.47
896.865	9058.15
897.181	8973.86
897.496	9032.16
897.811	8949.68
898.126	8955.78
898.441	8934.54
898.756	8852.96
899.071	8805.05
899.386	8796.69
899.7	8771.38
900.015	8656.13
900.33	8670.59
900.644	8616.36
900.959	8614.55
901.273	8648.67
901.588	8619.29
901.902	8537.04
902.216	8499.07
902.531	8485.29
902.845	8504.27
903.159	8435.57
903.473	8350.37
903.787	8356.7
904.101	8297.27
904.415	8298.62
904.729	8271.73
905.042	8178.17
905.356	8171.85
905.67	8183.15
905.984	8192.41
906.297	8144.73
906.611	8121
906.924	8075.8
907.237	8036.26
907.551	8048.01
907.864	7949.03
908.177	7969.14
908.491	7917.62
908.804	7823.16
909.117	7831.97
909.43	7774.8
909.743	7754.46
910.056	7767.56
910.368	7723.72
910.681	7642.37
910.994	7608.25
911.307	7593.56
911.619	7601.47
911.932	7595.37
912.244	7527.12
912.557	7479.89
912.869	7449.83
913.181	7417.52
913.494	7331.42
913.806	7285.54
914.118	7295.94
914.43	7260.46
914.742	7275.83
915.054	7192.21
915.366	7220.23
915.678	7080.58
915.99	7160.57
916.302	7038.77
916.613	7081.71
916.925	7074.25
917.236	7012.56
917.548	6912.67
917.859	6988.83
918.171	6911.77
918.482	6848.72
918.794	6905.21
919.105	6841.26
919.416	6777.99
919.727	6756.29
920.038	6763.75
920.349	6714.94
920.66	6662.06
920.971	6726.91
921.282	6622.51
921.593	6523.3
921.903	6583.41
922.214	6597.65
922.525	6515.85
922.835	6486.92
923.146	6446.47
923.456	6455.51
923.767	6419.58
924.077	6363.99
924.387	6365.79
924.697	6360.37
925.008	6316.08
925.318	6280.6
925.628	6335.96
925.938	6236.08
926.248	6229.98
926.558	6210.09
926.867	6173.03
927.177	6127.83
927.487	6135.06
927.796	6070.43
928.106	6062.3
928.416	6024.56
928.725	6045.58
929.034	5963.54
929.344	6038.34
929.653	5915.86
929.962	5948.4
930.271	5863.43
930.581	5898.91
930.89	5826.82
931.199	5839.03
931.508	5759.26
931.817	5804.9
932.125	5730.56
932.434	5779.14
932.743	5682.42
933.051	5628.64
933.36	5707.96
933.669	5586.83
933.977	5606.04
934.286	5572.14
934.594	5595.64
934.902	5528.3
935.21	5495.99
935.519	5486.27
935.827	5520.39
936.135	5443.11
936.443	5434.29
936.751	5391.13
937.059	5432.03
937.367	5370.34
937.674	5397.68
937.982	5326.72
938.29	5317.23
938.597	5263.22
938.905	5230.46
939.213	5221.42
939.52	5183.45
939.827	5237.46
940.135	5156.11
940.442	5112.72
940.749	5123.79
941.056	5121.31
941.363	5046.73
941.67	5054.19
941.977	5058.03
942.284	4990.91
942.591	4991.59
942.898	4969.22
943.205	5007.18
943.511	4935.32
943.818	4905.27
944.125	4894.87
944.431	4884.48
944.738	4838.6
945.044	4821.2
945.35	4785.5
945.657	4792.05
945.963	4752.28
946.269	4776.46
946.575	4692.39
946.881	4705.5
947.187	4674.76
947.493	4683.8
947.799	4650.13
948.105	4615.78
948.41	4598.16
948.716	4592.28
949.022	4563.58
949.327	4545.5
949.633	4508.89
949.938	4505.95
950.244	4474.09
950.549	4435.67
950.854	4429.8
951.16	4410.82
951.465	4417.14
951.77	4378.05
952.075	4393.42
952.38	4326.07
952.685	4353.87
952.99	4283.14
953.294	4291.95
953.599	4265.28
953.904	4279.52
954.209	4241.1
954.513	4217.83
954.818	4201.1
955.122	4224.61
955.426	4179.64
955.731	4122.46
956.035	4131.95
956.339	4143.7
956.643	4114.78
956.948	4095.12
957.252	4042.69
957.556	4014.44
957.86	4030.94
958.163	3954.56
958.467	3981.9
958.771	3969.25
959.075	3974.22
959.378	3955.23
959.682	3934.22
959.985	3938.06
960.289	3908.46
960.592	3864.62
960.896	3861.68
961.199	3885.86
961.502	3844.05
961.805	3816.93
962.108	3821.45
962.411	3766.54
962.714	3743.94
963.017	3747.33
963.32	3744.39
963.623	3721.57
963.926	3690.84
964.228	3688.35
964.531	3626.43
964.833	3649.93
965.136	3615.13
965.438	3616.26
965.741	3560.67
966.043	3564.51
966.345	3516.38
966.648	3559.09
966.95	3543.04
967.252	3512.99
967.554	3484.06
967.856	3522.03
968.158	3487.45
968.46	3460.11
968.761	3476.6
969.063	3426.89
969.365	3419.2
969.666	3411.75
969.968	3417.17
970.269	3369.04
970.571	3377.4
970.872	3355.25
971.174	3348.25
971.475	3314.8
971.776	3298.76
972.077	3259.66
972.378	3266.44
972.679	3258.08
972.98	3269.83
973.281	3231.19
973.582	3241.58
973.883	3204.97
974.183	3200.68
974.484	3199.1
974.785	3133.11
975.085	3167.23
975.386	3144.86
975.686	3110.29
975.986	3103.28
976.287	3094.69
976.587	3062.6
976.887	3047.01
977.187	3102.15
977.487	3012.66
977.787	3021.7
978.087	3019.67
978.387	2981.48
978.687	2985.99
978.987	2987.8
979.286	2945.77
979.586	2964.53
979.885	2932.21
980.185	2909.84
980.484	2895.83
980.784	2905.32
981.083	2907.8
981.382	2860.35
981.682	2879.33
981.981	2811.08
982.28	2814.02
982.579	2767.92
982.878	2818.32
983.177	2771.54
983.475	2799.11
983.774	2730.86
984.073	2766.11
984.372	2736.51
984.67	2696.96
984.969	2744.19
985.267	2681.37
985.566	2688.83
985.864	2657.87
986.162	2674.82
986.461	2634.82
986.759	2666.68
987.057	2637.53
987.355	2581.71
987.653	2584.88
987.951	2589.85
988.249	2580.36
988.547	2589.17
988.844	2580.81
989.142	2585.33
989.44	2541.26
989.737	2523.63
990.035	2503.75
990.332	2512.56
990.63	2476.18
990.927	2486.8
991.224	2465.78
991.521	2448.83
991.819	2453.13
992.116	2438.21
992.413	2402.06
992.71	2409.96
993.006	2379.23
993.303	2367.48
993.6	2404.54
993.897	2311.44
994.193	2341.94
994.49	2343.98
994.787	2293.58
995.083	2295.62
995.379	2292.23
995.676	2261.04
995.972	2260.14
996.268	2267.6
996.565	2258.56
996.861	2267.6
997.157	2254.71
997.453	2221.95
997.749	2207.48
998.044	2183.08
998.34	2197.99
998.636	2187.82
998.932	2161.38
999.227	2157.77
999.523	2160.93
999.818	2124.77
1000.114	2146.69
1000.409	2120.48
1000.704	2118.45
1001	2071.22
1001.295	2063.31
1001.59	2059.24
1001.885	2066.02
1002.18	2049.97
1002.475	2019.47
1002.77	2018.11
1003.065	2005
1003.359	2005
1003.654	2008.17
1003.949	1986.25
1004.243	1970.88
1004.538	1924.55
1004.832	1932.01
1005.127	1954.38
1005.421	1917.1
1005.715	1907.61
1006.009	1884.33
1006.304	1905.8
1006.598	1876.65
1006.892	1878.45
1007.186	1876.87
1007.48	1833.48
1007.773	1831
1008.067	1808.62
1008.361	1782.64
1008.655	1805.69
1008.948	1789.19
1009.242	1786.03
1009.535	1789.42
1009.829	1742.64
1010.122	1758.91
1010.415	1735.63
1010.708	1725.24
1011.001	1709.64
1011.295	1707.38
1011.588	1688.63
1011.881	1678.23
1012.173	1681.17
1012.466	1674.39
1012.759	1657.22
1013.052	1679.14
1013.344	1655.41
1013.637	1640.49
1013.93	1604.56
1014.222	1603.43
1014.514	1610.66
1014.807	1595.52
1015.099	1605.69
1015.391	1577.67
1015.683	1548.52
1015.976	1560.04
1016.268	1536.09
1016.56	1502.64
1016.851	1509.42
1017.143	1511.01
1017.435	1499.48
1017.727	1489.31
1018.018	1499.03
1018.31	1463.1
1018.602	1467.84
1018.893	1473.04
1019.185	1435.98
1019.476	1431.01
1019.767	1457.9
1020.058	1433.04
1020.35	1409.54
1020.641	1412.25
1020.932	1419.48
1021.223	1385.59
1021.514	1378.35
1021.804	1368.41
1022.095	1344.46
1022.386	1360.27
1022.677	1361.63
1022.967	1337.45
1023.258	1337.68
1023.548	1311.24
1023.839	1304.23
1024.129	1293.16
1024.419	1290.9
1024.709	1270.56
1025	1289.09
1025.29	1267.85
1025.58	1254.97
1025.87	1252.93
1026.16	1222.2
1026.449	1247.96
1026.739	1233.95
1027.029	1201.64
1027.319	1221.52
1027.608	1198.92
1027.898	1184.01
1028.187	1177.23
1028.477	1173.61
1028.766	1184.91
1029.055	1165.03
1029.344	1176.1
1029.634	1135.65
1029.923	1137.68
1030.212	1152.6
1030.501	1144.91
1030.79	1106.72
1031.078	1100.62
1031.367	1110.34
1031.656	1087.29
1031.945	1112.82
1032.233	1096.78
1032.522	1067.85
1032.81	1097.46
1033.099	1058.81
1033.387	1062.66
1033.675	1051.36
1033.963	1053.62
1034.251	1048.87
1034.54	1028.08
1034.828	1017.23
1035.116	1010.45
1035.403	987.86
1035.691	1009.78
1035.979	1004.13
1036.267	1016.56
1036.554	1008.19
1036.842	994.86
1037.129	985.82
1037.417	953.05
1037.704	956.9
1037.992	955.77
1038.279	941.75
1038.566	934.52
1038.853	934.52
1039.14	934.52
