Data from hue_330_FLMS001491_34.txt Node
Date: Mon Feb 06 15:45:18 GMT 2017
User: dcchb
Spectrometer: FLMS00149
Trigger mode: 0
Integration Time (sec): 2.000000E-2
Scans to average: 10
Electric dark correction enabled: true
Nonlinearity correction enabled: false
Boxcar width: 0
XAxis mode: Wavelengths
Number of Pixels in Spectrum: 2048
>>>>>Begin Spectral Data<<<<<
341.393	-4.18
341.776	-4.18
342.16	-4.18
342.543	-52.99
342.927	-78.3
343.31	-63.39
343.693	-89.6
344.077	-61.81
344.46	-48.7
344.843	-50.06
345.226	-45.99
345.61	-36.5
345.993	10.28
346.376	-3.73
346.759	2.37
347.142	37.85
347.525	40.34
347.908	49.83
348.291	53.9
348.674	92.99
349.057	112.2
349.44	100.9
349.823	119.21
350.206	161.69
350.588	198.75
350.971	207.11
351.354	214.34
351.737	238.07
352.119	238.75
352.502	259.77
352.884	271.97
353.267	291.4
353.65	273.1
354.032	288.02
354.414	311.74
354.797	305.87
355.179	299.77
355.562	318.3
355.944	331.18
356.326	342.25
356.709	320.78
357.091	340.67
357.473	315.58
357.855	322.82
358.238	347.67
358.62	343.83
359.002	342.48
359.384	326.21
359.766	333.44
360.148	331.86
360.53	341.8
360.912	337.51
361.294	324.17
361.676	329.37
362.057	309.03
362.439	349.26
362.821	322.82
363.203	326.21
363.584	317.84
363.966	317.17
364.348	350.39
364.729	321.01
365.111	316.71
365.493	302.93
365.874	331.4
366.256	307.68
366.637	302.7
367.019	309.03
367.4	328.92
367.781	286.89
368.163	321.01
368.544	309.94
368.925	296.83
369.306	321.91
369.688	304.29
370.069	305.42
370.45	306.55
370.831	327.56
371.212	299.09
371.593	300.67
371.974	299.99
372.355	318.52
372.736	326.21
373.117	316.94
373.498	296.15
373.879	328.24
374.26	321.91
374.641	311.52
375.021	318.52
375.402	299.99
375.783	308.81
376.163	318.75
376.544	342.93
376.925	311.52
377.305	321.01
377.686	296.15
378.066	347.9
378.447	329.6
378.827	325.08
379.208	328.92
379.588	337.73
379.968	312.42
380.349	318.75
380.729	330.05
381.109	303.16
381.489	337.51
381.87	332.08
382.25	318.52
382.63	334.57
383.01	337.28
383.39	327.56
383.77	354.23
384.15	352.19
384.53	340.67
384.91	356.71
385.29	345.87
385.67	309.26
386.049	343.83
386.429	337.51
386.809	352.19
387.189	354
387.568	355.36
387.948	340.89
388.328	350.84
388.707	342.93
389.087	349.03
389.466	349.71
389.846	350.16
390.225	357.39
390.605	364.4
390.984	336.6
391.363	358.3
391.743	355.81
392.122	353.78
392.501	375.7
392.881	349.93
393.26	372.31
393.639	339.09
394.018	361.91
394.397	385.41
394.776	368.24
395.155	369.82
395.534	369.59
395.913	366.88
396.292	368.46
396.671	371.63
397.05	376.37
397.429	387
397.808	382.25
398.186	385.19
398.565	369.14
398.944	386.77
399.323	381.57
399.701	391.06
400.08	402.36
400.458	389.71
400.837	377.73
401.215	395.13
401.594	409.14
401.972	391.06
402.351	382.7
402.729	388.8
403.107	407.56
403.486	393.1
403.864	402.81
404.242	422.7
404.62	410.05
404.999	412.53
405.377	382.93
405.755	410.05
406.133	421.12
406.511	436.94
406.889	424.28
407.267	421.34
407.645	422.7
408.023	441.01
408.401	436.94
408.779	421.8
409.156	441.46
409.534	449.82
409.912	451.17
410.29	470.38
410.667	466.32
411.045	463.38
411.422	462.25
411.8	471.51
412.178	468.8
412.555	476.26
412.933	485.75
413.31	502.02
413.687	490.95
414.065	518.97
414.442	502.7
414.819	493.89
415.197	507.9
415.574	543.15
415.951	522.81
416.328	534.34
416.705	526.88
417.082	540.66
417.46	541.12
417.837	551.28
418.214	556.03
418.591	572.3
418.967	565.3
419.344	574.56
419.721	594.45
420.098	566.65
420.475	580.44
420.852	622.02
421.228	601.91
421.605	598.29
421.982	629.02
422.358	621.79
422.735	643.94
423.111	635.35
423.488	622.24
423.864	633.09
424.241	642.81
424.617	657.5
424.994	659.98
425.37	670.15
425.746	696.14
426.123	683.48
426.499	675.35
426.875	685.74
427.251	665.41
427.627	718.29
428.003	704.73
428.379	699.76
428.756	722.35
429.132	709.7
429.507	745.4
429.883	744.27
430.259	740.21
430.635	736.36
431.011	758.96
431.387	777.04
431.763	765.74
432.138	772.52
432.514	789.02
432.89	779.3
433.265	821.11
433.641	820.2
434.016	837.83
434.392	864.27
434.767	857.72
435.143	850.26
435.518	848.9
435.894	883.71
436.269	860.66
436.644	876.02
437.02	876.02
437.395	884.61
437.77	901.78
438.145	920.99
438.52	920.09
438.895	920.31
439.271	927.32
439.646	968.45
440.021	943.82
440.395	928.45
440.77	935.46
441.145	960.54
441.52	963.03
441.895	968.68
442.27	971.61
442.645	954.44
443.019	975.45
443.394	971.16
443.769	1013.87
444.143	990.14
444.518	1006.19
444.892	998.96
445.267	1014.32
445.641	1022.91
446.016	1012.52
446.39	1010.93
446.764	1035.79
447.139	1036.92
447.513	1018.84
447.887	1047.32
448.262	1028.33
448.636	1048.45
449.01	1037.37
449.384	1068.11
449.758	1082.34
450.132	1067.43
450.506	1059.29
450.88	1092.97
451.254	1064.94
451.628	1065.85
452.002	1108.11
452.376	1088.67
452.75	1103.59
453.123	1130.03
453.497	1119.86
453.871	1128.67
454.244	1124.15
454.618	1127.54
454.992	1159.63
455.365	1155.34
455.739	1164.6
456.112	1160.53
456.486	1179.29
456.859	1209.35
457.232	1215.9
457.606	1216.8
457.979	1219.06
458.352	1209.35
458.725	1236.46
459.099	1235.11
459.472	1261.32
459.845	1261.77
460.218	1290.25
460.591	1275.79
460.964	1280.76
461.337	1286.63
461.71	1327.54
462.083	1324.15
462.456	1343.81
462.829	1347.42
463.201	1354.43
463.574	1365.95
463.947	1331.6
464.32	1385.39
464.692	1436.01
465.065	1400.75
465.438	1407.31
465.81	1424.71
466.183	1457.02
466.555	1462.45
466.928	1494.54
467.3	1467.87
467.672	1492.5
468.045	1518.27
468.417	1511.03
468.789	1518.72
469.161	1533.63
469.534	1550.35
469.906	1558.26
470.278	1584.25
470.65	1590.35
471.022	1613.63
471.394	1655.21
471.766	1642.1
472.138	1689.11
472.51	1693.4
472.882	1712.16
473.253	1746.06
473.625	1757.58
473.997	1759.16
474.369	1760.29
474.74	1774.53
475.112	1791.03
475.484	1833.29
475.855	1855.21
476.227	1869.67
476.598	1927.07
476.97	1942.21
477.341	1921.87
477.713	1975.2
478.084	1987.63
478.455	2055.2
478.827	2037.35
479.198	2096.56
479.569	2088.19
479.94	2097.01
480.311	2155.54
480.682	2210.45
481.053	2225.59
481.424	2228.3
481.795	2254.97
482.166	2264.91
482.537	2334.74
482.908	2309.88
483.279	2356.89
483.65	2355.53
484.021	2425.13
484.391	2422.65
484.762	2476.21
485.133	2497
485.503	2510.56
485.874	2540.39
486.244	2612.25
486.615	2632.36
486.985	2638.46
487.356	2656.31
487.726	2673.04
488.097	2714.62
488.467	2768.18
488.837	2763.2
489.207	2793.94
489.578	2838
489.948	2840.04
490.318	2869.19
490.688	2931.34
491.058	2959.81
491.428	2975.18
491.798	3008.4
492.168	3064.89
492.538	3069.18
492.908	3103.76
493.278	3078
493.648	3111.22
494.017	3118.68
494.387	3177.43
494.757	3176.75
495.126	3164.78
495.496	3243.64
495.866	3232.12
496.235	3254.04
496.605	3292
496.974	3282.96
497.344	3336.75
497.713	3328.16
498.082	3360.93
498.452	3389.18
498.821	3405.9
499.19	3386.24
499.559	3456.07
499.928	3480.02
500.298	3441.6
500.667	3484.77
501.036	3462.62
501.405	3487.48
501.774	3504.65
502.143	3561.15
502.512	3537.2
502.88	3509.17
503.249	3585.1
503.618	3570.41
503.987	3617.87
504.356	3613.35
504.724	3599.11
505.093	3611.54
505.462	3632.11
505.83	3645.21
506.199	3664.88
506.567	3719.79
506.936	3701.26
507.304	3699.9
507.672	3759.56
508.041	3689.51
508.409	3710.98
508.777	3786.91
509.145	3806.79
509.514	3793.69
509.882	3795.27
510.25	3783.52
510.618	3846.34
510.986	3841.82
511.354	3829.62
511.722	3884.08
512.09	3910.29
512.458	3861.93
512.826	3911.2
513.193	3927.69
513.561	3921.14
513.929	3946.68
514.297	3943.51
514.664	3984.19
515.032	3993.23
515.4	3965.88
515.767	4013.11
516.135	4063.28
516.502	4003.4
516.869	4041.81
517.237	4044.98
517.604	4041.59
517.972	4058.54
518.339	4086.56
518.706	4108.25
519.073	4088.59
519.44	4113.45
519.808	4135.82
520.175	4115.49
520.542	4188.25
520.909	4173.56
521.276	4164.3
521.643	4210.62
522.009	4196.84
522.376	4209.27
522.743	4231.19
523.11	4217.4
523.477	4265.09
523.843	4283.39
524.21	4311.41
524.577	4320
524.943	4343.28
525.31	4374.46
525.676	4386.21
526.043	4417.17
526.409	4388.25
526.776	4462.59
527.142	4451.3
527.508	4506.44
527.874	4571.74
528.241	4520.45
528.607	4559.77
528.973	4604.06
529.339	4571.29
529.705	4591.86
530.071	4620.33
530.437	4656.04
530.803	4666.43
531.169	4679.09
531.535	4664.62
531.901	4722.93
532.267	4738.97
532.632	4722.93
532.998	4760.89
533.364	4774.45
533.73	4804.73
534.095	4830.04
534.461	4884.28
534.826	4879.98
535.192	4872.98
535.557	4929.93
535.923	4932.19
536.288	4917.05
536.653	4980.32
537.019	4929.02
537.384	4974.22
537.749	5004.28
538.114	5040.88
538.479	5028.91
538.845	5050.83
539.21	5068.45
539.575	5079.3
539.94	5138.96
540.305	5138.28
540.67	5146.19
541.034	5160.66
541.399	5205.63
541.764	5236.59
542.129	5236.59
542.494	5220.31
542.858	5238.17
543.223	5330.59
543.587	5387.09
543.952	5375.11
544.316	5364.72
544.681	5384.6
545.045	5422.34
545.41	5419.41
545.774	5464.83
546.138	5453.3
546.503	5484.71
546.867	5419.63
547.231	5531.72
547.595	5558.61
547.959	5559.29
548.324	5540.53
548.688	5566.97
549.052	5637.48
549.416	5577.82
549.779	5655.56
550.143	5679.96
550.507	5710.92
550.871	5747.98
551.235	5717.93
551.599	5749.57
551.962	5731.94
552.326	5778.27
552.689	5804.03
553.053	5747.53
553.417	5784.37
553.78	5860.52
554.143	5879.05
554.507	5860.07
554.87	5879.73
555.234	5896.23
555.597	5917.02
555.96	5933.52
556.323	5911.6
556.686	5966.28
557.05	6037.92
557.413	6036.34
557.776	6022.1
558.139	6084.02
558.502	6054.42
558.865	6132.16
559.228	6126.05
559.59	6098.26
559.953	6153.85
560.316	6204.47
560.679	6165.15
561.041	6215.32
561.404	6216.22
561.767	6297.35
562.129	6249.89
562.492	6309.78
562.854	6229.33
563.217	6316.78
563.579	6353.39
563.941	6326.73
564.304	6359.27
564.666	6401.75
565.028	6384.58
565.39	6446.95
565.753	6418.25
566.115	6502.09
566.477	6482.2
566.839	6475.65
567.201	6519.26
567.563	6535.99
567.925	6582.99
568.287	6583.67
568.648	6645.36
569.01	6667.96
569.372	6645.81
569.734	6679.94
570.095	6740.5
570.457	6785.92
570.819	6770.33
571.18	6833.83
571.542	6848.97
571.903	6868.86
572.265	6953.15
572.626	6932.81
572.987	7037.67
573.349	7022.75
573.71	7078.57
574.071	7114.05
574.432	7148.4
574.794	7266.81
575.155	7273.59
575.516	7330.09
575.877	7352.91
576.238	7407.6
576.599	7509.07
576.96	7528.5
577.32	7620.93
577.681	7705
578.042	7779.57
578.403	7862.96
578.763	7890.98
579.124	8038.09
579.485	8156.51
579.845	8281.93
580.206	8347.46
580.566	8451.19
580.927	8506.33
581.287	8709.04
581.648	8742.26
582.008	8960.33
582.368	9047.11
582.728	9157.61
583.089	9330.94
583.449	9469.69
583.809	9691.38
584.169	9764.15
584.529	9951.49
584.889	10165.04
585.249	10261.99
585.609	10478.71
585.969	10739.04
586.329	10875.53
586.688	11119.59
587.048	11276.2
587.408	11534.95
587.768	11708.28
588.127	11938.1
588.487	12115.95
588.846	12489.5
589.206	12656.96
589.565	12902.82
589.925	13134
590.284	13463.26
590.643	13716.36
591.003	13919.75
591.362	14321.09
591.721	14585.49
592.08	14776
592.44	15084.46
592.799	15280.62
593.158	15573.71
593.517	15829.53
593.876	16190.87
594.235	16401.26
594.593	16812.33
594.952	17091.87
595.311	17304.97
595.67	17550.61
596.029	17989.92
596.387	18181.56
596.746	18596.01
597.104	18831.03
597.463	19035.09
597.822	19375.87
598.18	19568.41
598.538	19892.02
598.897	20283.65
599.255	20373.36
599.613	20997.98
599.972	21071.88
600.33	21457.18
600.688	21572.43
601.046	21966.54
601.404	22336.93
601.762	22491.27
602.12	22901.66
602.478	23126.06
602.836	23415.77
603.194	23573.5
603.552	23814.4
603.91	23958.35
604.268	24443.54
604.625	24552.69
604.983	24877.2
605.341	24939.34
605.698	25311.31
606.056	25572.1
606.413	25923.5
606.771	26185.87
607.128	26393.54
607.485	26448.23
607.843	26900.65
608.2	27032.17
608.557	27454.31
608.914	27433.29
609.272	27873.5
609.629	27907.63
609.986	28387.16
610.343	28324.34
610.7	28779.7
611.057	28881.84
611.414	29146.92
611.771	29184.2
612.127	29626
612.484	29575.15
612.841	30090.62
613.198	29981.25
613.554	30136.95
613.911	30447
614.267	30712.75
614.624	30747.78
614.98	30980.32
615.337	31333.53
615.693	31294.43
616.05	31401.32
616.406	31766.96
616.762	31864.36
617.118	31867.07
617.475	32127.18
617.831	32428.41
618.187	32495.76
618.543	32623.21
618.899	32877.21
619.255	32975.07
619.611	33012.58
619.967	33224.78
620.323	33318.78
620.678	33187.71
621.034	33323.53
621.39	33417.09
621.746	33565.56
622.101	34037.86
622.457	33880.58
622.812	34011.87
623.168	34258.42
623.523	34388.59
623.879	34430.62
624.234	34205.32
624.589	34452.09
624.945	34564.85
625.3	34640.11
625.655	34835.81
626.01	34902.7
626.365	34809.37
626.72	34862.93
627.075	34958.06
627.43	34978.85
627.785	34985.86
628.14	35123.03
628.495	35302.91
628.85	35182.69
629.205	35387.88
629.559	35452.74
629.914	35494.09
630.269	35530.7
630.623	35411.84
630.978	35461.33
631.332	35567.99
631.687	35688.89
632.041	35698.38
632.396	35756.69
632.75	35555.34
633.104	35723.92
633.459	35617.26
633.813	35591.27
634.167	35639.18
634.521	35714.88
634.875	35847.08
635.229	35669.23
635.583	35511.95
635.937	35840.98
636.291	35711.72
636.645	35722.34
636.999	35735.22
637.352	35918.94
637.706	35696.35
638.06	35672.4
638.413	35654.99
638.767	35661.77
639.121	35807.76
639.474	35658.38
639.828	35692.96
640.181	35730.92
640.534	35875.1
640.888	35636.92
641.241	35551.95
641.594	35725.5
641.947	35800.08
642.301	35610.48
642.654	35738.83
643.007	35681.66
643.36	35739.74
643.713	35600.76
644.066	35735.22
644.419	35593.08
644.771	35373.65
645.124	35123.03
645.477	35015.46
645.83	34778.41
646.182	34703.83
646.535	34757.39
646.888	34872.64
647.24	34549.04
647.593	34664.96
647.945	34667.22
648.298	34488.47
648.65	34481.92
649.002	34570.5
649.355	34654.12
649.707	34485.08
650.059	34654.34
650.411	34987.44
650.763	35153.09
651.115	35591.49
651.467	35362.57
651.819	35428.56
652.171	35343.14
652.523	35338.17
652.875	35272.63
653.227	35063.15
653.578	35417.94
653.93	35226.53
654.282	35068.12
654.633	35055.69
654.985	35166.42
655.337	35125.29
655.688	35253.65
656.039	35267.89
656.391	34990.83
656.742	35100.66
657.094	34932.3
657.445	35181.56
657.796	35031.73
658.147	35027.21
658.498	35102.92
658.849	35195.35
659.2	35028.8
659.551	34972.07
659.902	35103.14
660.253	34985.86
660.604	35075.8
660.955	34967.1
661.306	35049.36
661.656	35050.94
662.007	35055.91
662.358	34991.06
662.708	34885.52
663.059	34979.76
663.409	34829.48
663.76	34981.11
664.11	34983.83
664.461	34989.7
664.811	34956.26
665.161	34970.94
665.511	34852.3
665.862	34939.31
666.212	34831.29
666.562	35095.69
666.912	34874.45
667.262	34798.07
667.612	34838.97
667.962	34954.67
668.312	34961.68
668.662	35013.43
669.011	34951.28
669.361	34915.81
669.711	34831.06
670.06	34766.2
670.41	34718.3
670.76	34713.55
671.109	34935.92
671.459	34733.44
671.808	34688.47
672.157	34902.47
672.507	34632.87
672.856	34591.07
673.205	34621.12
673.554	34733.44
673.904	34580.45
674.253	34968.01
674.602	34758.3
674.951	34177.97
675.3	34121.7
675.649	34643.5
675.998	34506.78
676.346	34639.65
676.695	34617.28
677.044	34454.12
677.393	34502.93
677.741	34507.91
678.09	34455.25
678.438	34394.24
678.787	34450.51
679.135	34490.28
679.484	34150.4
679.832	34406.89
680.181	34248.03
680.529	34328.93
680.877	34130.52
681.225	34139.55
681.573	34362.83
681.922	34058.2
682.27	33968.94
682.618	34036.51
682.966	33944.31
683.314	33921.93
683.661	33775.72
684.009	33741.6
684.357	33765.1
684.705	33676.74
685.053	33675.39
685.4	33678.32
685.748	33523.98
686.095	33421.83
686.443	33542.73
686.79	33288.05
687.138	33345.45
687.485	33506.8
687.832	33249.41
688.18	33352.91
688.527	33151.56
688.874	33234.49
689.221	33006.25
689.568	32999.47
689.915	33028.17
690.262	32937.1
690.609	32914.95
690.956	32747.73
691.303	32698.91
691.65	32688.29
691.997	32585.02
692.344	32346.83
692.69	32256.21
693.037	32338.7
693.383	32041.76
693.73	32155.65
694.077	32059.83
694.423	31957.69
694.769	31854.19
695.116	31938.03
695.462	31867.98
695.808	31815.1
696.155	31717.7
696.501	31562.67
696.847	31493.07
697.193	31340.08
697.539	31487.42
697.885	31193.87
698.231	31207.88
698.577	31072.06
698.923	31154.55
699.269	30963.14
699.614	30762.24
699.96	30648.35
700.306	30756.82
700.651	30641.57
700.997	30626.65
701.342	30539.2
701.688	30407
702.033	30509.59
702.379	30371.29
702.724	30341.24
703.069	30245.42
703.415	29937.18
703.76	30005.88
704.105	30092.66
704.45	29888.37
704.795	29665.55
705.14	29666.9
705.485	29555.04
705.83	29597.75
706.175	29656.73
706.52	29522.95
706.865	29313.01
707.209	29349.17
707.554	29208.38
707.899	29190.53
708.243	28992.35
708.588	29010.88
708.932	28889.07
709.277	28846.36
709.621	28880.26
709.966	28773.82
710.31	28913.48
710.654	28649.08
710.998	28692.01
711.342	28572.92
711.687	28417.44
712.031	28390.33
712.375	28264.23
712.719	28367.73
713.063	28315.53
713.407	28376.77
713.75	28235.98
714.094	28035.99
714.438	27952.37
714.782	28149.2
715.125	27932.03
715.469	27886.84
715.812	27851.36
716.156	27629.22
716.499	27659.05
716.843	27689.78
717.186	27489.56
717.53	27646.84
717.873	27619.95
718.216	27546.73
718.559	27474.64
718.902	27260.64
719.246	27317.59
719.589	27072.62
719.932	27051.61
720.275	26994.66
720.617	27106.07
720.96	27080.53
721.303	27049.12
721.646	27009.8
721.989	26911.95
722.331	27040.31
722.674	26867.66
723.016	26933.19
723.359	26899.74
723.701	26831.5
724.044	26649.81
724.386	26561.9
724.729	26624.95
725.071	26604.61
725.413	26536.59
725.755	26485.07
726.097	26383.6
726.439	26246.2
726.782	26414.33
727.124	26503.6
727.465	26279.42
727.807	26302.02
728.149	26194.68
728.491	26144.06
728.833	26185.41
729.175	26065.87
729.516	25965.53
729.858	25859.55
730.199	25965.31
730.541	25975.93
730.882	25868.36
731.224	25989.94
731.565	25748.14
731.906	25788.59
732.248	25709.27
732.589	25638.31
732.93	25625.2
733.271	25647.12
733.612	25586.78
733.953	25569.38
734.294	25544.98
734.635	25549.95
734.976	25544.53
735.317	25422.5
735.658	25382.27
735.999	25375.04
736.339	25250.07
736.68	25316.06
737.021	25256.4
737.361	25171.43
737.702	25338.43
738.042	25137.53
738.383	25141.82
738.723	25117.87
739.063	24966.24
739.404	25108.83
739.744	24976.18
740.084	24902.51
740.424	24926.24
740.764	24819.12
741.104	24928.72
741.444	24717.88
741.784	24749.74
742.124	24713.36
742.464	24612.8
742.804	24532.35
743.143	24624.1
743.483	24649.41
743.823	24342.3
744.162	24445.8
744.502	24509.53
744.841	24338.91
745.181	24498.68
745.52	24340.72
745.86	24434.95
746.199	24234.96
746.538	24235.86
746.877	24339.36
747.216	24374.84
747.556	24207.84
747.895	24229.98
748.234	24075.19
748.573	24130.55
748.911	24046.49
749.25	24024.11
749.589	23857.34
749.928	23989.76
750.267	23858.92
750.605	23869.54
750.944	23748.64
751.283	23696.89
751.621	23797.23
751.96	23657.12
752.298	23546.84
752.636	23655.99
752.975	23499.83
753.313	23372.83
753.651	23430.68
753.989	23257.81
754.327	23338.03
754.666	23274.3
755.004	23121.76
755.342	23166.96
755.679	23130.8
756.017	22983.01
756.355	23148.43
756.693	23046.29
757.031	23018.94
757.368	22836.8
757.706	22826.41
758.044	22720.87
758.381	22792.51
758.719	22577.82
759.056	22713.64
759.394	22584.6
759.731	22412.63
760.068	22478.39
760.405	22363.82
760.743	22269.36
761.08	22339.64
761.417	22247.44
761.754	22159.98
762.091	22195.24
762.428	21929.48
762.765	21826.66
763.102	21964.06
763.438	21803.38
763.775	21675.02
764.112	21770.84
764.449	21673.89
764.785	21669.37
765.122	21517.51
765.458	21384.64
765.795	21497.4
766.131	21285.88
766.467	21370.85
766.804	21218.09
767.14	20986.45
767.476	21042.05
767.812	21056.51
768.148	20890.86
768.485	20818.1
768.821	20821.49
769.157	20776.06
769.492	20682.73
769.828	20623.07
770.164	20415.17
770.5	20377.2
770.836	20407.26
771.171	20267.83
771.507	20264.21
771.842	20086.59
772.178	20074.39
772.513	19978.12
772.849	19929.53
773.184	19903.54
773.519	19838.46
773.855	19890.44
774.19	19744.68
774.525	19613.38
774.86	19632.82
775.195	19588.98
775.53	19430.34
775.865	19354.41
776.2	19231.7
776.535	19175.2
776.87	19123.9
777.205	19022.44
777.539	18917.36
777.874	19045.04
778.209	18745.61
778.543	18679.85
778.878	18652.73
779.212	18651.6
779.547	18435.33
779.881	18507.65
780.215	18450.93
780.55	18449.35
780.884	18274.43
781.218	18271.95
781.552	18207.77
781.886	18142.01
782.22	18026.76
782.554	18040.54
782.888	17870.83
783.222	17779.53
783.556	17754
783.889	17669.93
784.223	17580.67
784.557	17562.14
784.89	17587.22
785.224	17380.67
785.557	17375.7
785.891	17380.22
786.224	17243.5
786.558	17229.04
786.891	17129.15
787.224	16936.16
787.557	17056.84
787.891	17010.74
788.224	16861.14
788.557	16866.56
788.89	16819.33
789.223	16853.46
789.556	16676.06
789.888	16614.82
790.221	16599.45
790.554	16482.84
790.887	16415.5
791.219	16426.57
791.552	16378.89
791.884	16331.66
792.217	16279.46
792.549	16253.02
792.882	16117.88
793.214	16038.11
793.546	16033.36
793.879	15947.04
794.211	15811.9
794.543	15840.15
794.875	15785.01
795.207	15863.2
795.539	15730.32
795.871	15748.85
796.203	15546.14
796.535	15507.5
796.867	15497.33
797.198	15415.98
797.53	15426.6
797.862	15242.42
798.193	15397.22
798.525	15210.33
798.856	15283.78
799.188	15026.38
799.519	15022.77
799.85	14936.44
800.182	14942.54
800.513	14903.68
800.844	14822.77
801.175	14967.86
801.506	14882.66
801.837	14740.29
802.168	14713.62
802.499	14707.75
802.83	14594.53
803.161	14599.05
803.491	14616.45
803.822	14597.24
804.153	14501.65
804.483	14444.93
804.814	14350.92
805.145	14257.37
805.475	14295.1
805.805	14237.7
806.136	14318.61
806.466	14211.94
806.796	14210.36
807.126	14032.96
807.457	14039.29
807.787	14018.05
808.117	13980.54
808.447	13929.24
808.777	13859.86
809.107	13887.43
809.436	13829.58
809.766	13836.59
810.096	13722.01
810.426	13718.85
810.755	13655.8
811.085	13629.13
811.414	13629.36
811.744	13521.34
812.073	13442.47
812.403	13572.86
812.732	13439.53
813.061	13378.97
813.39	13296.26
813.719	13302.36
814.049	13442.25
814.378	13292.42
814.707	13188.47
815.036	13183.72
815.365	13077.28
815.693	13070.73
816.022	13010.84
816.351	13038.41
816.68	12998.87
817.008	12968.13
817.337	12862.15
817.665	12840.45
817.994	12935.82
818.322	12814.01
818.651	12793.9
818.979	12724.52
819.307	12811.98
819.636	12768.14
819.964	12631.65
820.292	12704.19
820.62	12692.66
820.948	12642.72
821.276	12666.45
821.604	12681.59
821.932	12604.53
822.259	12659.22
822.587	12618.99
822.915	12541.93
823.243	12670.29
823.57	12594.58
823.898	12623.06
824.225	12528.82
824.553	12479.33
824.88	12579.44
825.207	12661.7
825.535	12527.02
825.862	12603.62
826.189	12557.3
826.516	12635.04
826.843	12623.96
827.17	12576.28
827.497	12562.72
827.824	12533.57
828.151	12558.2
828.478	12515.72
828.805	12629.61
829.131	12474.59
829.458	12549.84
829.785	12593.91
830.111	12542.38
830.438	12565.43
830.764	12543.06
831.09	12551.87
831.417	12556.17
831.743	12553
832.069	12530.18
832.395	12427.36
832.722	12468.26
833.048	12488.6
833.374	12448.15
833.7	12435.04
834.026	12398.43
834.351	12463.06
834.677	12419.22
835.003	12430.07
835.329	12468.03
835.654	12432.33
835.98	12325.89
836.306	12342.84
836.631	12369.28
836.956	12338.32
837.282	12268.72
837.607	12240.92
837.932	12322.73
838.258	12232.11
838.583	12282.5
838.908	12109.63
839.233	12265.55
839.558	12147.14
839.883	12135.61
840.208	12029.63
840.533	12077.54
840.858	12119.34
841.182	11955.28
841.507	12084.77
841.832	11893.59
842.156	11931.1
842.481	11946.92
842.805	11837.54
843.13	11915.51
843.454	11884.55
843.778	11800.25
844.103	11808.84
844.427	11702.86
844.751	11703.31
845.075	11699.92
845.399	11682.52
845.723	11594.38
846.047	11600.49
846.371	11523.88
846.695	11545.35
847.019	11383.09
847.343	11428.51
847.666	11335.41
847.99	11278.46
848.313	11297.67
848.637	11235.52
848.96	11202.3
849.284	11192.81
849.607	11076.43
849.931	11008.64
850.254	10897.68
850.577	10920.5
850.9	10936.1
851.223	10851.81
851.546	10786.72
851.869	10685.71
852.192	10745.59
852.515	10687.74
852.838	10599.16
853.161	10592.38
853.483	10553.96
853.806	10480.97
854.129	10532.72
854.451	10451.82
854.774	10430.35
855.096	10481.42
855.419	10358.48
855.741	10350.12
856.063	10259.96
856.385	10214.99
856.708	10216.79
857.03	10258.15
857.352	10177.47
857.674	10185.61
857.996	10123.91
858.318	10051.6
858.64	10032.84
858.961	10008.89
859.283	9993.97
859.605	9935.67
859.926	9951.26
860.248	9877.37
860.57	9869.68
860.891	9943.13
861.212	9828.56
861.534	9804.6
861.855	9785.62
862.176	9812.06
862.498	9775
862.819	9814.32
863.14	9715.11
863.461	9774.09
863.782	9683.47
864.103	9669.92
864.424	9629.24
864.745	9716.92
865.065	9622.91
865.386	9607.32
865.707	9523.03
866.027	9608.67
866.348	9561.22
866.668	9580.43
866.989	9472.63
867.309	9425.4
867.63	9439.41
867.95	9451.62
868.27	9353.54
868.59	9433.99
868.91	9374.56
869.23	9365.06
869.55	9334.78
869.87	9356.48
870.19	9337.49
870.51	9295.69
870.83	9316.7
871.15	9281.68
871.469	9269.7
871.789	9252.75
872.109	9251.85
872.428	9219.98
872.748	9282.13
873.067	9232.64
873.386	9255.91
873.706	9164.17
874.025	9108.12
874.344	9081.23
874.663	9131.17
874.982	9097.95
875.301	9026.77
875.62	9063.38
875.939	9050.04
876.258	9053.66
876.577	9018.86
876.896	8996.49
877.214	8973.89
877.533	8983.61
877.852	8924.17
878.17	8934.34
878.489	8986.32
878.807	8954.23
879.125	8888.47
879.444	8929.6
879.762	8833.78
880.08	8875.59
880.398	8854.8
880.716	8864.96
881.034	8811.86
881.352	8808.24
881.67	8756.04
881.988	8808.24
882.306	8676.72
882.624	8773.67
882.941	8651.64
883.259	8660
883.577	8685.31
883.894	8659.09
884.212	8657.74
884.529	8631.3
884.846	8576.16
885.164	8609.38
885.481	8590.62
885.798	8556.05
886.115	8475.6
886.432	8483.73
886.75	8424.07
887.067	8457.07
887.383	8428.59
887.7	8375.49
888.017	8385.88
888.334	8397.18
888.651	8373.23
888.967	8332.55
889.284	8328.93
889.6	8257.52
889.917	8194.93
890.233	8192.44
890.55	8212.55
890.866	8159.67
891.182	8135.04
891.498	8112.67
891.815	8041.26
892.131	8042.84
892.447	8093.01
892.763	8002.84
893.079	8007.13
893.395	7958.55
893.71	7985.44
894.026	8032.44
894.342	7909.51
894.657	7949.51
894.973	7890.3
895.289	7866.8
895.604	7875.61
895.92	7787.48
896.235	7798.33
896.55	7782.06
896.865	7713.58
897.181	7759.46
897.496	7673.36
897.811	7643.75
898.126	7598.11
898.441	7627.03
898.756	7591.78
899.071	7517.66
899.386	7531.44
899.7	7474.72
900.015	7436.3
900.33	7453.25
900.644	7371.44
900.959	7371.22
901.273	7283.76
901.588	7347.94
901.902	7323.08
902.216	7232.24
902.531	7246.7
902.845	7196.08
903.159	7206.48
903.473	7150.66
903.787	7145.91
904.101	7108.17
904.415	7074.05
904.729	7017.1
905.042	7033.6
905.356	7021.62
905.67	7007.84
905.984	6978.91
906.297	6937.11
906.611	6908.41
906.924	6878.58
907.237	6851.46
907.551	6836.77
907.864	6779.14
908.177	6819.37
908.491	6725.81
908.804	6717.45
909.117	6724
909.43	6676.1
909.743	6636.77
910.056	6594.29
910.368	6655.53
910.681	6523.78
910.994	6535.31
911.307	6504.57
911.619	6466.84
911.932	6423.9
912.244	6407.63
912.557	6437.68
912.869	6398.14
913.181	6354.75
913.494	6315.88
913.806	6339.38
914.118	6262.77
914.43	6231.59
914.742	6230.01
915.054	6198.37
915.366	6151.59
915.678	6143.91
915.99	6113.85
916.302	6052.38
916.613	6071.14
916.925	6069.56
917.236	6062.1
917.548	6012.61
917.859	6029.11
918.171	5924.48
918.482	5908.21
918.794	5893.52
919.105	5881.77
919.416	5813.97
919.727	5827.3
920.038	5814.2
920.349	5817.14
920.66	5761.32
920.971	5767.87
921.282	5718.15
921.593	5681.32
921.903	5636.8
922.214	5601.77
922.525	5630.47
922.835	5564.71
923.146	5567.65
923.456	5571.04
923.767	5524.49
924.077	5519.74
924.387	5499.86
924.697	5472.29
925.008	5464.15
925.318	5413.76
925.628	5400.2
925.938	5409.46
926.248	5330.37
926.558	5296.92
926.867	5299.63
927.177	5306.19
927.487	5245.17
927.796	5234.1
928.106	5249.24
928.416	5189.13
928.725	5221.22
929.034	5118.4
929.344	5093.09
929.653	5112.52
929.962	5053.77
930.271	5033.43
930.581	5042.24
930.89	4993.43
931.199	4957.5
931.508	4965.63
931.817	5005.63
932.125	4943.03
932.434	4949.81
932.743	4900.32
933.051	4893.77
933.36	4833.66
933.669	4830.72
933.977	4799.76
934.286	4775.35
934.594	4799.53
934.902	4729.93
935.21	4717.28
935.519	4699.88
935.827	4693.1
936.135	4706.66
936.443	4584.17
936.751	4569.94
937.059	4594.79
937.367	4594.57
937.674	4594.57
937.982	4592.99
938.29	4493.33
938.597	4518.86
938.905	4493.55
939.213	4454.23
939.52	4437.51
939.827	4460.11
940.135	4440.67
940.442	4396.38
940.749	4424.4
941.056	4373.78
941.363	4342.6
941.67	4327
941.977	4303.95
942.284	4282.26
942.591	4296.27
942.898	4261.47
943.205	4226.89
943.511	4242.94
943.818	4165.2
944.125	4185.31
944.431	4129.95
944.738	4211.53
945.044	4099.44
945.35	4111.42
945.657	4073.23
945.963	4049.05
946.269	4072.32
946.575	4060.57
946.881	3994.13
947.187	3992.32
947.493	3991.42
947.799	3948.03
948.105	3929.5
948.41	3918.43
948.716	3920.24
949.022	3911.65
949.327	3891.99
949.633	3833.68
949.938	3849.73
950.244	3822.39
950.549	3806.11
950.854	3795.27
951.16	3781.26
951.465	3748.04
951.77	3730.64
952.075	3732.44
952.38	3728.38
952.685	3710.98
952.99	3673.01
953.294	3681.82
953.599	3697.87
953.904	3622.16
954.209	3623.52
954.513	3602.28
954.818	3633.92
955.122	3611.09
955.426	3585.33
955.731	3551.88
956.035	3552.34
956.339	3524.31
956.643	3521.38
956.948	3499.23
957.252	3486.57
957.556	3436.18
957.86	3451.32
958.163	3474.6
958.467	3391.66
958.771	3388.05
959.075	3396.41
959.378	3365.67
959.682	3325.9
959.985	3299.91
960.289	3317.54
960.592	3323.64
960.896	3299.91
961.199	3287.03
961.502	3305.34
961.805	3241.38
962.108	3278.9
962.411	3254.49
962.714	3231.21
963.017	3186.92
963.32	3207.03
963.623	3187.6
963.926	3166.36
964.228	3183.53
964.531	3119.13
964.833	3144.66
965.136	3095.4
965.438	3094.27
965.741	3074.38
966.043	3034.38
966.345	3037.1
966.648	2997.77
966.95	3056.53
967.252	3053.14
967.554	3026.93
967.856	2975.18
968.158	2973.82
968.46	2948.06
968.761	2946.48
969.063	2921.39
969.365	2933.14
969.666	2912.35
969.968	2914.84
970.269	2864.9
970.571	2890.66
970.872	2886.36
971.174	2861.28
971.475	2831.68
971.776	2834.39
972.077	2793.71
972.378	2790.32
972.679	2804.11
972.98	2772.24
973.281	2773.6
973.582	2764.79
973.883	2730.21
974.183	2700.83
974.484	2721.4
974.785	2718.01
975.085	2682.3
975.386	2689.53
975.686	2688.4
975.986	2639.14
976.287	2619.93
976.587	2603.21
976.887	2595.3
977.187	2629.65
977.487	2579.93
977.787	2583.1
978.087	2591.46
978.387	2599.37
978.687	2595.07
978.987	2574.73
979.286	2528.41
979.586	2536.77
979.885	2498.13
980.185	2498.13
980.484	2493.15
980.784	2473.72
981.083	2466.94
981.382	2443.89
981.682	2461.97
981.981	2426.49
982.28	2441.4
982.579	2422.42
982.878	2421.74
983.177	2393.04
983.475	2405.93
983.774	2395.76
984.073	2376.77
984.372	2377.9
984.67	2365.02
984.969	2339.03
985.267	2336.1
985.566	2339.94
985.864	2273.95
986.162	2317.34
986.461	2303.56
986.759	2287.96
987.057	2231.24
987.355	2273.5
987.653	2268.08
987.951	2241.41
988.249	2240.05
988.547	2205.48
988.844	2198.25
989.142	2156.67
989.44	2194.18
989.737	2168.64
990.035	2143.56
990.332	2140.85
990.63	2167.74
990.927	2180.39
991.224	2120.28
991.521	2116.44
991.819	2130
992.116	2097.01
992.413	2087.74
992.71	2069.44
993.006	2071.24
993.303	2076.89
993.6	2107.4
993.897	2021.08
994.193	2076.89
994.49	2020.62
994.787	2010.46
995.083	2010.23
995.379	1997.57
995.676	1980.85
995.972	1963.45
996.268	1975.88
996.565	1959.38
996.861	1951.7
997.157	1978.82
997.453	1949.21
997.749	1930.23
998.044	1907.18
998.34	1894.07
998.636	1918.03
998.932	1888.2
999.227	1904.7
999.523	1886.17
999.818	1844.58
1000.114	1842.32
1000.409	1820.63
1000.704	1807.07
1001	1835.54
1001.295	1837.13
1001.59	1810.91
1001.885	1798.94
1002.18	1761.65
1002.475	1750.8
1002.77	1775.89
1003.065	1757.13
1003.359	1745.6
1003.654	1722.78
1003.949	1734.98
1004.243	1711.03
1004.538	1719.62
1004.832	1713.97
1005.127	1695.44
1005.421	1693.63
1005.715	1677.58
1006.009	1716.45
1006.304	1641.88
1006.598	1629
1006.892	1636.23
1007.186	1610.92
1007.48	1623.57
1007.773	1613.4
1008.067	1630.58
1008.361	1587.87
1008.655	1598.26
1008.948	1577.47
1009.242	1573.4
1009.535	1542.22
1009.829	1524.37
1010.122	1533.86
1010.415	1555.33
1010.708	1512.62
1011.001	1559.85
1011.295	1485.05
1011.588	1497.7
1011.881	1473.29
1012.173	1475.55
1012.466	1466.97
1012.759	1463.35
1013.052	1471.94
1013.344	1441.21
1013.637	1421.32
1013.93	1448.66
1014.222	1433.07
1014.514	1396.46
1014.807	1386.29
1015.099	1394.65
1015.391	1387.87
1015.683	1409.79
1015.976	1380.42
1016.268	1372.96
1016.56	1386.07
1016.851	1371.38
1017.143	1348.78
1017.435	1335.9
1017.727	1322.34
1018.018	1342
1018.31	1329.12
1018.602	1323.92
1018.893	1285.5
1019.185	1285.95
1019.476	1270.59
1019.767	1306.29
1020.058	1276.01
1020.35	1271.72
1020.641	1240.76
1020.932	1242.11
1021.223	1233.98
1021.514	1226.75
1021.804	1223.58
1022.095	1206.41
1022.386	1206.18
1022.677	1195.11
1022.967	1181.32
1023.258	1181.1
1023.548	1183.13
1023.839	1169.8
1024.129	1171.83
1024.419	1183.81
1024.709	1150.37
1025	1130.7
1025.29	1132.29
1025.58	1151.04
1025.87	1118.28
1026.16	1137.26
1026.449	1101.1
1026.739	1114.89
1027.029	1087.09
1027.319	1094.32
1027.608	1086.86
1027.898	1062.23
1028.187	1073.98
1028.477	1064.04
1028.766	1058.84
1029.055	1040.09
1029.344	1032.18
1029.634	1012.74
1029.923	1039.86
1030.212	1020.43
1030.501	989.69
1030.79	998.73
1031.078	993.08
1031.367	988.56
1031.656	988.11
1031.945	992.4
1032.233	969.35
1032.522	966.42
1032.81	981.56
1033.099	974.78
1033.387	952.4
1033.675	977.26
1033.963	959.18
1034.251	935.23
1034.54	931.61
1034.828	940.43
1035.116	913.76
1035.403	926.19
1035.691	901.11
1035.979	888.23
1036.267	876.7
1036.554	890.94
1036.842	871.05
1037.129	874.21
1037.417	886.64
1037.704	869.92
1037.992	879.41
1038.279	853.65
1038.566	846.87
1038.853	846.87
1039.14	846.87
