Data from hue_320_FLMS001491_100.txt Node
Date: Mon Feb 06 15:48:00 GMT 2017
User: dcchb
Spectrometer: FLMS00149
Trigger mode: 0
Integration Time (sec): 2.000000E-2
Scans to average: 10
Electric dark correction enabled: true
Nonlinearity correction enabled: false
Boxcar width: 0
XAxis mode: Wavelengths
Number of Pixels in Spectrum: 2048
>>>>>Begin Spectral Data<<<<<
341.393	-8.97
341.776	-8.97
342.16	-8.97
342.543	-51.91
342.927	-70.44
343.31	-69.53
343.693	-76.09
344.077	-67.27
344.46	-54.17
344.843	-53.26
345.226	-28.4
345.61	-44.67
345.993	-20.04
346.376	3.01
346.759	-2.64
347.142	10.92
347.525	42.56
347.908	74.42
348.291	77.81
348.674	97.47
349.057	109.9
349.44	107.86
349.823	132.27
350.206	157.81
350.588	194.87
350.971	193.29
351.354	219.27
351.737	241.87
352.119	237.35
352.502	255.66
352.884	266.96
353.267	274.41
353.65	280.97
354.032	292.72
354.414	302.89
354.797	284.36
355.179	323.9
355.562	298.37
355.944	323.23
356.326	342.21
356.709	337.01
357.091	318.71
357.473	349.44
357.855	337.24
358.238	343.34
358.62	335.2
359.002	346.28
359.384	321.19
359.766	331.14
360.148	318.03
360.53	345.82
360.912	340.4
361.294	354.86
361.676	334.75
362.057	331.59
362.439	338.37
362.821	318.48
363.203	312.38
363.584	325.26
363.966	341.53
364.348	321.64
364.729	309.22
365.111	295.66
365.493	319.84
365.874	317.12
366.256	292.94
366.637	319.61
367.019	319.61
367.4	310.8
367.781	295.88
368.163	313.96
368.544	319.16
368.925	296.56
369.306	311.02
369.688	290.23
370.069	297.01
370.45	315.54
370.831	317.8
371.212	292.27
371.593	284.36
371.974	317.58
372.355	313.06
372.736	308.31
373.117	325.49
373.498	307.41
373.879	314.86
374.26	306.05
374.641	308.09
375.021	310.12
375.402	314.19
375.783	288.42
376.163	314.19
376.544	319.61
376.925	325.94
377.305	320.06
377.686	327.75
378.066	335.66
378.447	325.26
378.827	339.72
379.208	340.17
379.588	339.5
379.968	311.25
380.349	316.9
380.729	335.66
381.109	339.27
381.489	351.7
381.87	341.76
382.25	308.76
382.63	331.14
383.01	328.65
383.39	332.72
383.77	318.93
384.15	326.39
384.53	346.05
384.91	330.68
385.29	342.43
385.67	349.21
386.049	341.08
386.429	325.03
386.809	357.58
387.189	345.37
387.568	349.21
387.948	330.46
388.328	346.05
388.707	355.32
389.087	325.03
389.466	369.55
389.846	336.56
390.225	349.89
390.605	353.96
390.984	367.97
391.363	361.42
391.743	356.9
392.122	370.91
392.501	374.52
392.881	384.69
393.26	357.8
393.639	357.58
394.018	356.9
394.397	365.03
394.776	376.56
395.155	358.03
395.534	377.01
395.913	379.72
396.292	364.13
396.671	385.6
397.05	386.95
397.429	387.63
397.808	385.37
398.186	390.12
398.565	405.71
398.944	377.91
399.323	370.68
399.701	373.39
400.08	392.83
400.458	379.27
400.837	400.29
401.215	395.09
401.594	397.12
401.972	389.66
402.351	395.54
402.729	416.1
403.107	413.85
403.486	405.94
403.864	407.74
404.242	432.83
404.62	401.42
404.999	410.23
405.377	421.98
405.755	445.93
406.133	434.86
406.511	414.75
406.889	419.72
407.267	440.29
407.645	438.25
408.023	447.52
408.401	449.1
408.779	450
409.156	455.2
409.534	454.52
409.912	458.36
410.29	469.21
410.667	464.92
411.045	466.73
411.422	498.14
411.8	498.36
412.178	480.51
412.555	499.27
412.933	503.79
413.31	479.61
413.687	517.8
414.065	504.92
414.442	527.97
414.819	526.84
415.197	534.52
415.574	559.83
415.951	537.23
416.328	547.85
416.705	564.12
417.082	552.6
417.46	580.62
417.837	577.46
418.214	586.27
418.591	615.87
418.967	615.87
419.344	583.56
419.721	625.82
420.098	603.67
420.475	634.63
420.852	623.33
421.228	627.62
421.605	619.04
421.982	646.61
422.358	640.96
422.735	652.93
423.111	653.84
423.488	660.39
423.864	681.18
424.241	676.89
424.617	680.28
424.994	673.5
425.37	699.94
425.746	712.37
426.123	715.98
426.499	714.18
426.875	726.15
427.251	721.18
427.627	742.88
428.003	729.77
428.379	768.64
428.756	765.47
429.132	758.02
429.507	793.04
429.883	798.24
430.259	800.05
430.635	798.69
431.011	793.5
431.387	840.5
431.763	845.02
432.138	835.3
432.514	822.42
432.89	842.31
433.265	838.24
433.641	863.55
434.016	889.76
434.392	885.25
434.767	881.4
435.143	901.29
435.518	883.66
435.894	944.23
436.269	917.33
436.644	928.63
437.02	943.1
437.395	945.13
437.77	957.11
438.145	963.66
438.52	1015.86
438.895	960.5
439.271	983.55
439.646	1018.35
440.021	984.9
440.395	1026.48
440.77	1003.66
441.145	1021.29
441.52	1040.04
441.895	1032.59
442.27	1046.14
442.645	1052.92
443.019	1031.46
443.394	1049.08
443.769	1101.06
444.143	1077.33
444.518	1073.49
444.892	1082.53
445.267	1087.95
445.641	1092.47
446.016	1083.21
446.39	1079.36
446.764	1115.52
447.139	1067.61
447.513	1086.82
447.887	1107.84
448.262	1101.28
448.636	1097.67
449.01	1121.4
449.384	1117.33
449.758	1144.67
450.132	1120.72
450.506	1128.4
450.88	1161.62
451.254	1142.19
451.628	1153.03
452.002	1158.46
452.376	1147.16
452.75	1173.6
453.123	1187.61
453.497	1198.23
453.871	1204.78
454.244	1230.32
454.618	1213.37
454.992	1263.54
455.365	1210.89
455.739	1269.64
456.112	1278
456.486	1265.12
456.859	1255.86
457.232	1305.12
457.606	1296.31
457.979	1296.08
458.352	1308.96
458.725	1320.71
459.099	1318.45
459.472	1323.88
459.845	1350.54
460.218	1360.26
460.591	1338.11
460.964	1370.88
461.337	1381.73
461.71	1448.39
462.083	1442.52
462.456	1416.53
462.829	1453.14
463.201	1475.51
463.574	1454.72
463.947	1463.53
464.32	1492.69
464.692	1491.78
465.065	1473.48
465.438	1512.57
465.81	1489.52
466.183	1529.75
466.555	1552.12
466.928	1571.33
467.3	1559.35
467.672	1560.93
468.045	1610.65
468.417	1600.93
468.789	1603.19
469.161	1607.03
469.534	1637.99
469.906	1654.94
470.278	1699.91
470.65	1673.02
471.022	1723.42
471.394	1725
471.766	1715.73
472.138	1775.17
472.51	1820.81
472.882	1811.32
473.253	1840.25
473.625	1857.42
473.997	1843.86
474.369	1880.25
474.74	1887.48
475.112	1891.77
475.484	1902.85
475.855	1957.08
476.227	1963.18
476.598	1994.37
476.97	2029.85
477.341	2055.38
477.713	2078.89
478.084	2059.68
478.455	2108.04
478.827	2128.38
479.198	2209.73
479.569	2215.61
479.94	2223.29
480.311	2230.97
480.682	2280.01
481.053	2338.99
481.424	2326.56
481.795	2348.71
482.166	2392.1
482.537	2423.96
482.908	2463.28
483.279	2398.43
483.65	2479.33
484.021	2515.94
484.391	2545.31
484.762	2564.07
485.133	2565.65
485.503	2626.67
485.874	2629.38
486.244	2649.72
486.615	2708.7
486.985	2727.68
487.356	2766.33
487.726	2755.03
488.097	2839.54
488.467	2842.71
488.837	2879.09
489.207	2897.85
489.578	2955.47
489.948	2950.73
490.318	2964.06
490.688	2993.89
491.058	3063.04
491.428	3074.57
491.798	3106.43
492.168	3119.08
492.538	3145.52
492.908	3192.3
493.278	3232.75
493.648	3202.92
494.017	3218.97
494.387	3270.27
494.757	3323.37
495.126	3322.47
495.496	3325.41
495.866	3344.16
496.235	3387.1
496.605	3385.97
496.974	3378.51
497.344	3456.93
497.713	3446.31
498.082	3424.61
498.452	3477.49
498.821	3475.91
499.19	3512.75
499.559	3497.83
499.928	3579.86
500.298	3588
500.667	3583.93
501.036	3577.15
501.405	3546.19
501.774	3613.31
502.143	3607.89
502.512	3651.73
502.88	3693.08
503.249	3686.98
503.618	3676.13
503.987	3672.97
504.356	3748.9
504.724	3715.91
505.093	3722.68
505.462	3761.78
505.83	3760.42
506.199	3753.42
506.567	3814.66
506.936	3795.68
507.304	3873.19
507.672	3845.17
508.041	3865.05
508.409	3888.78
508.777	3888.78
509.145	3924.71
509.514	3947.99
509.882	3957.25
510.25	3932.4
510.618	3939.4
510.986	3950.25
511.354	3981.66
511.722	3997.03
512.09	4014.43
512.458	4031.38
512.826	4039.06
513.193	4044.94
513.561	4079.96
513.929	4068.66
514.297	4117.25
514.664	4128.55
515.032	4119.51
515.4	4137.59
515.767	4084.48
516.135	4152.28
516.502	4096.23
516.869	4164.93
517.237	4193.63
517.604	4191.82
517.972	4225.04
518.339	4231.15
518.706	4209.9
519.073	4218.26
519.44	4260.52
519.808	4306.85
520.175	4222.56
520.542	4273.63
520.909	4308.43
521.276	4296.91
521.643	4319.96
522.009	4373.29
522.376	4353.63
522.743	4387.3
523.11	4396.34
523.477	4407.41
523.843	4446.96
524.21	4473.17
524.577	4531.93
524.943	4551.59
525.31	4514.3
525.676	4544.58
526.043	4545.26
526.409	4577.35
526.776	4633.85
527.142	4694.41
527.508	4670.91
527.874	4658.03
528.241	4677.01
528.607	4698.03
528.973	4733.51
529.339	4766.95
529.705	4797.23
530.071	4813.96
530.437	4831.58
530.803	4848.98
531.169	4826.84
531.535	4892.37
531.901	4938.92
532.267	4929.43
532.632	4917.91
532.998	4953.16
533.364	4999.04
533.73	5002.2
534.095	5049.66
534.461	5072.48
534.826	5060.28
535.192	5055.98
535.557	5132.37
535.923	5048.53
536.288	5166.94
536.653	5141.4
537.019	5184.34
537.384	5197
537.749	5242.42
538.114	5194.28
538.479	5244.9
538.845	5284
539.21	5272.25
539.575	5316.54
539.94	5299.14
540.305	5366.03
540.67	5381.17
541.034	5388.86
541.399	5348.4
541.764	5442.64
542.129	5485.58
542.494	5441.74
542.858	5539.81
543.223	5475.41
543.587	5509.53
543.952	5531.45
544.316	5575.07
544.681	5560.38
545.045	5580.04
545.41	5706.59
545.774	5651.45
546.138	5678.34
546.503	5720.82
546.867	5731.22
547.231	5728.28
547.595	5810.09
547.959	5782.97
548.324	5851.22
548.688	5821.61
549.052	5831.33
549.416	5861.39
549.779	5903.42
550.143	5867.71
550.507	5930.31
550.871	5957.2
551.235	5972.34
551.599	6035.39
551.962	6014.38
552.326	6025.67
552.689	6071.32
553.053	6034.26
553.417	6042.17
553.78	6099.8
554.143	6103.86
554.507	6126.01
554.87	6159.46
555.234	6257.08
555.597	6153.13
555.96	6199.68
556.323	6175.05
556.686	6250.75
557.05	6276.29
557.413	6295.05
557.776	6311.09
558.139	6329.4
558.502	6380.02
558.865	6391.09
559.228	6372.33
559.59	6438.32
559.953	6362.39
560.316	6409.17
560.679	6436.96
561.041	6478.77
561.404	6547.24
561.767	6575.04
562.129	6539.79
562.492	6596.51
562.854	6550.63
563.217	6631.08
563.579	6618.88
563.941	6626.56
564.304	6673.34
564.666	6732.77
565.028	6698.65
565.39	6751.53
565.753	6797.63
566.115	6814.35
566.477	6805.54
566.839	6830.85
567.201	6853.45
567.563	6866.56
567.925	6918.31
568.287	6895.71
568.648	6895.93
569.01	6959.44
569.372	7020.9
569.734	7017.29
570.095	7057.29
570.457	7088.92
570.819	7111.97
571.18	7115.14
571.542	7232.87
571.903	7252.08
572.265	7231.97
572.626	7285.98
572.987	7280.33
573.349	7316.26
573.71	7386.09
574.071	7489.82
574.432	7498.63
574.794	7595.8
575.155	7602.58
575.516	7643.94
575.877	7749.02
576.238	7789.7
576.599	7785.85
576.96	7855.46
577.32	7948.11
577.681	8077.15
578.042	8129.12
578.403	8214.09
578.763	8266.52
579.124	8405.05
579.485	8429.68
579.845	8526.63
580.206	8627.64
580.566	8736.11
580.927	8828.31
581.287	8991.47
581.648	9062.43
582.008	9179.94
582.368	9312.37
582.728	9490.67
583.089	9639.14
583.449	9719.59
583.809	9986.47
584.169	10065.57
584.529	10254.49
584.889	10458.1
585.249	10636.63
585.609	10771.76
585.969	11021.25
586.329	11174.01
586.688	11404.29
587.048	11595.25
587.408	11863.04
587.768	12045.86
588.127	12249.24
588.487	12471.38
588.846	12707.08
589.206	12961.76
589.565	13138.03
589.925	13464.8
590.284	13566.04
590.643	13918.35
591.003	14209.64
591.362	14544.55
591.721	14698.67
592.08	15012.56
592.44	15324.41
592.799	15595.14
593.158	15841.01
593.517	16132.53
593.876	16413.88
594.235	16605.51
594.593	16940.64
594.952	17242.78
595.311	17577.91
595.67	17839.6
596.029	18200.95
596.387	18428.29
596.746	18739.69
597.104	18983.53
597.463	19204.31
597.822	19611.76
598.18	19915.25
598.538	20009.94
598.897	20502.36
599.255	20624.84
599.613	21103.7
599.972	21364.93
600.33	21656
600.688	21844.02
601.046	22150.67
601.404	22420.5
601.762	22688.29
602.12	23121.27
602.478	23236.3
602.836	23590.64
603.194	23676.74
603.552	23892.55
603.91	24193.11
604.268	24534.57
604.625	24623.15
604.983	25126.64
605.341	25164.83
605.698	25411.38
606.056	25835.32
606.413	25942.89
606.771	26218.14
607.128	26553.72
607.485	26636.43
607.843	26784.9
608.2	27219.69
608.557	27472.12
608.914	27476.41
609.272	28009.28
609.629	28084.08
609.986	28476.16
610.343	28507.12
610.7	28842.7
611.057	29038.63
611.414	29070.72
611.771	29222.13
612.127	29652.85
612.484	29704.6
612.841	29915.22
613.198	29985.72
613.554	30189.33
613.911	30494.41
614.267	30613.5
614.624	30839.71
614.98	31023.89
615.337	31267.5
615.693	31283.09
616.05	31512.46
616.406	31650.09
616.762	31723.3
617.118	31905.45
617.475	32025.67
617.831	32240.8
618.187	32357.64
618.543	32502.72
618.899	32705.65
619.255	32828.81
619.611	32915.82
619.967	33118.07
620.323	33337.5
620.678	33183.38
621.034	33356.48
621.39	33434.22
621.746	33545.86
622.101	33913.98
622.457	33791.05
622.812	33961.21
623.168	34048.21
623.523	34266.51
623.879	34347.42
624.234	34161.88
624.589	34354.2
624.945	34500.41
625.3	34690.01
625.655	34610.91
626.01	34777.91
626.365	34763.45
626.72	34820.85
627.075	34900.4
627.43	34845.03
627.785	35093.39
628.14	35008.42
628.495	35090.45
628.85	35197.34
629.205	35186.26
629.559	35404.11
629.914	35189.2
630.269	35343.32
630.623	35284.34
630.978	35302.42
631.332	35412.7
631.687	35696.31
632.041	35454.05
632.396	35613.82
632.75	35575.18
633.104	35651.11
633.459	35463.32
633.813	35452.47
634.167	35520.04
634.521	35556.2
634.875	35682.07
635.229	35543.99
635.583	35382.42
635.937	35494.96
636.291	35622.41
636.645	35489.53
636.999	35536.76
637.352	35513.49
637.706	35505.35
638.06	35692.24
638.413	35462.87
638.767	35570.66
639.121	35626.7
639.474	35524.11
639.828	35428.29
640.181	35622.86
640.534	35553.71
640.888	35424.9
641.241	35399.59
641.594	35489.31
641.947	35580.83
642.301	35543.99
642.654	35541.06
643.007	35471.91
643.36	35441.4
643.713	35507.61
644.066	35488.4
644.419	35399.14
644.771	35199.6
645.124	34856.33
645.477	34898.81
645.83	34616.79
646.182	34491.59
646.535	34400.52
646.888	34590.12
647.24	34405.49
647.593	34384.93
647.945	34405.49
648.298	34294.31
648.65	34199.85
649.002	34175.67
649.355	34327.3
649.707	34334.31
650.059	34414.98
650.411	34764.81
650.763	34846.84
651.115	35169.09
651.467	35124.8
651.819	35181.07
652.171	35009.32
652.523	34999.83
652.875	35013.39
653.227	34898.36
653.578	35073.05
653.93	35000.05
654.282	34748.99
654.633	34741.08
654.985	34831.7
655.337	34853.84
655.688	34913.05
656.039	34977.91
656.391	34759.83
656.742	34758.48
657.094	34825.14
657.445	34945.14
657.796	34749.89
658.147	34765.94
658.498	34903.33
658.849	34926.16
659.2	34920.28
659.551	34704.69
659.902	34848.87
660.253	34793.73
660.604	34920.96
660.955	34655.88
661.306	34861.75
661.656	34685.71
662.007	34715.99
662.358	34810.45
662.708	34703.34
663.059	34698.59
663.409	34547.41
663.76	34824.01
664.11	34792.15
664.461	34891.58
664.811	34817.01
665.161	34706.28
665.511	34643
665.862	34673.28
666.212	34723.68
666.562	34670.57
666.912	34589.44
667.262	34586.73
667.612	34571.59
667.962	34727.07
668.312	34546.51
668.662	34716.67
669.011	34722.32
669.361	34614.75
669.711	34513.74
670.06	34467.41
670.41	34501.54
670.76	34420.41
671.109	34563
671.459	34578.37
671.808	34533.17
672.157	34612.49
672.507	34308.32
672.856	34382.67
673.205	34456.79
673.554	34552.16
673.904	34357.59
674.253	34474.42
674.602	34469.22
674.951	33900.87
675.3	33755.34
675.649	34232.39
675.998	34219.06
676.346	34328.89
676.695	34415.44
677.044	34056.8
677.393	34313.97
677.741	34322.56
678.09	34113.07
678.438	34097.71
678.787	34180.41
679.135	34110.59
679.484	33973.87
679.832	33978.39
680.181	33756.92
680.529	34004.83
680.877	33879.41
681.225	33847.32
681.573	34034.88
681.922	33750.37
682.27	33691.39
682.618	33749.24
682.966	33579.98
683.314	33730.48
683.661	33606.64
684.009	33509.02
684.357	33518.96
684.705	33407.33
685.053	33389.7
685.4	33378.18
685.748	33142.7
686.095	33287.78
686.443	33197.84
686.79	33130.05
687.138	33091.86
687.485	33115.81
687.832	32915.36
688.18	33078.52
688.527	32895.7
688.874	32902.93
689.221	32781.13
689.568	32631.53
689.915	32492.55
690.262	32499.78
690.609	32526.9
690.956	32314.7
691.303	32380.24
691.65	32209.17
691.997	32165.33
692.344	32114.25
692.69	31970.08
693.037	31971.66
693.383	31744.77
693.73	31696.86
694.077	31623.87
694.423	31738.22
694.769	31563.08
695.116	31552.69
695.462	31522.18
695.808	31290.55
696.155	31371.22
696.501	31211
696.847	31192.7
697.193	30950.67
697.539	31027.73
697.885	30859.82
698.231	30749.09
698.577	30827.28
698.923	30796.55
699.269	30575.31
699.614	30529.89
699.96	30422.77
700.306	30506.16
700.651	30326.5
700.997	30101.43
701.342	30129.45
701.688	30167.41
702.033	29980.75
702.379	29921.32
702.724	29860.98
703.069	29961.99
703.415	29625.73
703.76	29658.5
704.105	29658.95
704.45	29599.74
704.795	29445.17
705.14	29278.85
705.485	29431.16
705.83	29223.48
706.175	29294.22
706.52	29031.85
706.865	28975.13
707.209	29055.8
707.554	28892.64
707.899	28955.47
708.243	28807.67
708.588	28781.91
708.932	28517.29
709.277	28524.29
709.621	28616.49
709.966	28421.47
710.31	28442.94
710.654	28190.52
710.998	28266.22
711.342	28259.44
711.687	28098.31
712.031	28049.05
712.375	28015.38
712.719	27987.36
713.063	28014.93
713.407	28094.7
713.75	27873.91
714.094	27872.33
714.438	27735.39
714.782	27749.4
715.125	27641.15
715.469	27607.03
715.812	27481.61
716.156	27319.35
716.499	27386.02
716.843	27298.56
717.186	27226.25
717.53	27428.28
717.873	27298.11
718.216	27358.45
718.559	27183.99
718.902	26997.55
719.246	27104.22
719.589	26911.91
719.932	26942.87
720.275	26833.26
720.617	26870.32
720.96	26864
721.303	26763.43
721.646	26787.16
721.989	26653.61
722.331	26746.03
722.674	26635.75
723.016	26501.29
723.359	26457.68
723.701	26585.36
724.044	26191.7
724.386	26229.21
724.729	26331.36
725.071	26311.7
725.413	26260.4
725.755	26196.44
726.097	26169.33
726.439	26008.65
726.782	26082.1
727.124	26222.43
727.465	25986.05
727.807	25924.81
728.149	25930.46
728.491	25776.12
728.833	25904.47
729.175	25805.27
729.516	25677.14
729.858	25796
730.199	25766.85
730.541	25653.86
730.882	25563.01
731.224	25628.78
731.565	25431.49
731.906	25478.72
732.248	25442.34
732.589	25406.86
732.93	25302.23
733.271	25297.94
733.612	25370.03
733.953	25403.92
734.294	25257.03
734.635	25057.04
734.976	25257.03
735.317	25035.12
735.658	25058.17
735.999	25074.67
736.339	25019.3
736.68	24991.73
737.021	24949.7
737.361	24843.94
737.702	24998.51
738.042	24954.89
738.383	24787.22
738.723	24853.65
739.063	24730.04
739.404	24773.2
739.744	24617.28
740.084	24619.08
740.424	24628.58
740.764	24511.06
741.104	24590.61
741.444	24402.37
741.784	24384.06
742.124	24395.36
742.464	24360.79
742.804	24332.76
743.143	24224.97
743.483	24337.96
743.823	24137.52
744.162	24122.6
744.502	24203.28
744.841	24163.73
745.181	24215.25
745.52	23964.64
745.86	24116.5
746.199	24017.97
746.538	23885.09
746.877	24079.66
747.216	23984.75
747.556	23944.3
747.895	23949.05
748.234	23751.54
748.573	23857.75
748.911	23769.39
749.25	23725.77
749.589	23619.56
749.928	23723.06
750.267	23720.12
750.605	23561.26
750.944	23431.32
751.283	23437.42
751.621	23502.28
751.96	23356.97
752.298	23337.99
752.636	23360.13
752.975	23107.03
753.313	23125.34
753.651	23119.01
753.989	23147.71
754.327	23041.27
754.666	22888.51
755.004	23050.99
755.342	22933.48
755.679	22905.01
756.017	22762.86
756.355	22797.66
756.693	22727.38
757.031	22762.18
757.368	22578.46
757.706	22534.17
758.044	22516.77
758.381	22530.1
758.719	22308.18
759.056	22456.88
759.394	22274.29
759.731	22217.11
760.068	22159.04
760.405	22052.6
760.743	21934.86
761.08	21995.88
761.417	21904.35
761.754	21874.52
762.091	21786.39
762.428	21786.39
762.765	21705.71
763.102	21691.7
763.438	21623.46
763.775	21423.24
764.112	21486.74
764.449	21420.98
764.785	21217.82
765.122	21153.86
765.458	21169.46
765.795	21042.91
766.131	21090.36
766.467	21086.52
766.804	20854.89
767.14	20774.21
767.476	20671.39
767.812	20710.49
768.148	20722.24
768.485	20524.05
768.821	20494.22
769.157	20378.29
769.492	20419.42
769.828	20441.79
770.164	20174
770.5	20137.85
770.836	20239.99
771.171	19970.39
771.507	20029.37
771.842	19868.25
772.178	19905.99
772.513	19816.5
772.849	19742.83
773.184	19726.78
773.519	19628.93
773.855	19512.78
774.19	19438.43
774.525	19343.74
774.86	19401.14
775.195	19379.9
775.53	19268.49
775.865	19163.18
776.2	18980.81
776.535	18916.86
776.87	18953.7
777.205	18890.2
777.539	18822.4
777.874	18847.26
778.209	18544.22
778.543	18583.08
778.878	18466.7
779.212	18471
779.547	18403.2
779.881	18439.13
780.215	18222.87
780.55	18311.91
780.884	18108.3
781.218	18112.36
781.552	18163.89
781.886	17940.62
782.22	17835.31
782.554	17839.6
782.888	17691.36
783.222	17593.28
783.556	17612.49
783.889	17482.32
784.223	17346.96
784.557	17361.87
784.89	17393.29
785.224	17276
785.557	17231.26
785.891	17226.28
786.224	17200.75
786.558	17094.08
786.891	16973.86
787.224	16864.94
787.557	16794.43
787.891	16858.16
788.224	16809.8
788.557	16700.2
788.89	16597.15
789.223	16610.03
789.556	16464.04
789.888	16542.01
790.221	16390.6
790.554	16233.77
790.887	16315.12
791.219	16274.9
791.552	16209.14
791.884	16089.14
792.217	16092.08
792.549	16089.37
792.882	15984.96
793.214	15795.81
793.546	15845.08
793.879	15810.28
794.211	15618.19
794.543	15720.56
794.875	15510.4
795.207	15569.6
795.539	15515.37
795.871	15446.9
796.203	15423.39
796.535	15338.65
796.867	15359.67
797.198	15227.01
797.53	15306.33
797.862	15107.92
798.193	15144.31
798.525	15059.34
798.856	15048.71
799.188	14924.65
799.519	14877.87
799.85	14827.48
800.182	14857.08
800.513	14765.78
800.844	14634.26
801.175	14750.42
801.506	14660.25
801.837	14610.76
802.168	14570.08
802.499	14526.69
802.83	14465.45
803.161	14424.1
803.491	14383.42
803.822	14425.68
804.153	14315.85
804.483	14166.48
804.814	14194.95
805.145	14196.53
805.475	14124.22
805.805	14048.06
806.136	14093.94
806.466	14160.38
806.796	14032.24
807.126	13968.52
807.457	13896.2
807.787	13851.68
808.117	13787.73
808.447	13716.55
808.777	13723.55
809.107	13746.83
809.436	13684.46
809.766	13639.49
810.096	13564.91
810.426	13598.13
810.755	13677.23
811.085	13510.9
811.414	13496.66
811.744	13384.8
812.073	13412.6
812.403	13354.52
812.732	13263
813.061	13267.74
813.39	13208.54
813.719	13142.1
814.049	13254.64
814.378	13154.98
814.707	13158.14
815.036	13195.2
815.365	13019.62
815.693	12969.22
816.022	12935.32
816.351	12956.11
816.68	12828.89
817.008	12844.25
817.337	12689.91
817.665	12729.91
817.994	12728.78
818.322	12742.79
818.651	12609
818.979	12636.8
819.307	12646.52
819.636	12583.69
819.964	12548.44
820.292	12538.95
820.62	12581.66
820.948	12468.9
821.276	12534.66
821.604	12490.59
821.932	12491.04
822.259	12508.22
822.587	12436.81
822.915	12385.06
823.243	12449.23
823.57	12472.51
823.898	12503.7
824.225	12420.53
824.553	12416.24
824.88	12402.23
825.207	12399.74
825.535	12395.45
825.862	12461.66
826.189	12397.94
826.516	12423.92
826.843	12471.83
827.17	12375.34
827.497	12400.87
827.824	12477.48
828.151	12420.31
828.478	12459.86
828.805	12435.9
829.131	12357.03
829.458	12408.78
829.785	12343.02
830.111	12387.54
830.438	12421.89
830.764	12400.42
831.09	12341.89
831.417	12365.85
831.743	12375.34
832.069	12383.47
832.395	12301.89
832.722	12390.03
833.048	12259.18
833.374	12267.09
833.7	12291.95
834.026	12217.15
834.351	12315
834.677	12250.37
835.003	12264.15
835.329	12237.94
835.654	12244.27
835.98	12223.7
836.306	12214.66
836.631	12173.08
836.956	12159.75
837.282	12219.86
837.607	12161.78
837.932	12099.87
838.258	12072.75
838.583	12130.15
838.908	11984.39
839.233	11986.87
839.558	11938.74
839.883	11988.91
840.208	11923.15
840.533	11886.99
840.858	11830.49
841.182	11862.58
841.507	11838.63
841.832	11840.89
842.156	11798.86
842.481	11788.69
842.805	11713.66
843.13	11716.82
843.454	11614.23
843.778	11668.46
844.103	11708.24
844.427	11650.39
844.751	11622.59
845.075	11561.8
845.399	11491.75
845.723	11482.93
846.047	11498.98
846.371	11327
846.695	11419.88
847.019	11373.56
847.343	11289.94
847.666	11219.66
847.99	11210.62
848.313	11156.16
848.637	11063.96
848.96	11073.9
849.284	11071.64
849.607	10928.14
849.931	10920.01
850.254	10742.84
850.577	10834.36
850.9	10692.44
851.223	10742.61
851.546	10673.01
851.869	10564.31
852.192	10680.24
852.515	10545.56
852.838	10519.79
853.161	10564.09
853.483	10432.79
853.806	10432.34
854.129	10387.14
854.451	10326.8
854.774	10324.54
855.096	10262.85
855.419	10229.63
855.741	10298.1
856.063	10159.35
856.385	10145.11
856.708	10132.69
857.03	10054.04
857.352	10123.65
857.674	10028.28
857.996	10053.14
858.318	9923.43
858.64	9945.35
858.961	9904.89
859.283	9816.54
859.605	9824.67
859.926	9880.94
860.248	9800.72
860.57	9704.22
860.891	9753.94
861.212	9740.83
861.534	9691.12
861.855	9680.27
862.176	9683.66
862.498	9673.71
862.819	9653.6
863.14	9598.69
863.461	9565.24
863.782	9589.65
864.103	9604.56
864.424	9555.53
864.745	9536.32
865.065	9494.74
865.386	9487.05
865.707	9413.16
866.027	9485.7
866.348	9446.6
866.668	9413.83
866.989	9384.91
867.309	9335.19
867.63	9390.56
867.95	9315.31
868.27	9320.05
868.59	9330.67
868.91	9312.14
869.23	9198.02
869.55	9231.92
869.87	9304.46
870.19	9238.02
870.51	9264.23
870.83	9236.44
871.15	9135.42
871.469	9257.68
871.789	9131.36
872.109	9176.1
872.428	9124.8
872.748	9120.73
873.067	9087.06
873.386	9164.12
873.706	9128.87
874.025	9037.8
874.344	8993.28
874.663	9064.24
874.982	9011.59
875.301	8982.43
875.62	8963
875.939	9003.9
876.258	9013.39
876.577	8932.72
876.896	8902.21
877.214	8891.59
877.533	8895.2
877.852	8942.21
878.17	8847.07
878.489	8902.44
878.807	8873.51
879.125	8847.52
879.444	8855.21
879.762	8815.66
880.08	8829.89
880.398	8768.88
880.716	8747.19
881.034	8718.71
881.352	8707.86
881.67	8693.85
881.988	8688.43
882.306	8643.69
882.624	8653.18
882.941	8616.57
883.259	8557.59
883.577	8595.32
883.894	8567.3
884.212	8550.35
884.529	8547.87
884.846	8536.34
885.164	8484.82
885.481	8441.2
885.798	8449.79
886.115	8397.82
886.432	8407.99
886.75	8378.38
887.067	8390.58
887.383	8297.93
887.7	8335.22
888.017	8325.95
888.334	8318.72
888.651	8256.8
888.967	8278.5
889.284	8247.31
889.6	8165.05
889.917	8121.21
890.233	8157.14
890.55	8159.63
890.866	8087.32
891.182	8075.11
891.498	8049.35
891.815	8085.28
892.131	7975.23
892.447	7958.05
892.763	7943.36
893.079	7924.83
893.395	7882.35
893.71	7920.99
894.026	7918.73
894.342	7829.02
894.657	7770.71
894.973	7770.04
895.289	7802.13
895.604	7749.02
895.92	7656.59
896.235	7665.63
896.55	7637.61
896.865	7697.72
897.181	7632.41
897.496	7611.4
897.811	7544.96
898.126	7566.43
898.441	7470.83
898.756	7454.79
899.071	7478.07
899.386	7450.95
899.7	7421.57
900.015	7366.66
900.33	7343.15
900.644	7289.82
900.959	7311.97
901.273	7266.09
901.588	7228.36
901.902	7212.31
902.216	7148.81
902.531	7187.9
902.845	7107.91
903.159	7124.18
903.473	7089.6
903.787	7079.88
904.101	6996.95
904.415	6994.91
904.729	6983.16
905.042	7003.05
905.356	6874.24
905.67	6874.47
905.984	6903.84
906.297	6821.36
906.611	6834.24
906.924	6797.63
907.237	6863.17
907.551	6788.59
907.864	6768.48
908.177	6709.5
908.491	6675.38
908.804	6630.4
909.117	6614.59
909.43	6580.24
909.743	6549.28
910.056	6522.84
910.368	6500.24
910.681	6586.34
910.994	6445.55
911.307	6454.14
911.619	6362.62
911.932	6414.82
912.244	6355.84
912.557	6315.38
912.869	6326.68
913.181	6299.34
913.494	6279
913.806	6248.27
914.118	6253.01
914.43	6193.13
914.742	6216.4
915.054	6178.67
915.366	6124.66
915.678	6132.34
915.99	6025.45
916.302	5968.28
916.613	6028.39
916.925	5993.81
917.236	6008.73
917.548	5950.87
917.859	5979.8
918.171	5879.46
918.482	5887.15
918.794	5868.16
919.105	5801.5
919.416	5801.95
919.727	5825.68
920.038	5762.86
920.349	5700.71
920.66	5736.42
920.971	5715.63
921.282	5662.52
921.593	5652.35
921.903	5621.62
922.214	5575.07
922.525	5562.18
922.835	5559.02
923.146	5506.14
923.456	5543.65
923.767	5432.47
924.077	5457.55
924.387	5433.15
924.697	5428.85
925.008	5407.16
925.318	5404
925.628	5367.84
925.938	5329.2
926.248	5288.07
926.558	5307.73
926.867	5284.45
927.177	5233.15
927.487	5185.02
927.796	5196.77
928.106	5133.04
928.416	5118.35
928.725	5153.16
929.034	5097.79
929.344	5091.46
929.653	5100.05
929.962	5035.87
930.271	5041.52
930.581	5037.9
930.89	4991.58
931.199	4935.08
931.508	4903.67
931.817	4914.74
932.125	4908.87
932.434	4897.79
932.743	4805.82
933.051	4827.06
933.36	4789.32
933.669	4749.1
933.977	4751.13
934.286	4782.32
934.594	4736.9
934.902	4732.6
935.21	4653.96
935.519	4663
935.827	4630.68
936.135	4625.03
936.443	4591.14
936.751	4573.28
937.059	4545.49
937.367	4536.9
937.674	4536.22
937.982	4504.36
938.29	4482.89
938.597	4470.69
938.905	4420.97
939.213	4423.23
939.52	4416.9
939.827	4398.37
940.135	4387.53
940.442	4347.98
940.749	4384.36
941.056	4302.33
941.363	4265.95
941.67	4275.89
941.977	4261.43
942.284	4256.68
942.591	4261.2
942.898	4166.97
943.205	4247.42
943.511	4179.62
943.818	4176.46
944.125	4144.82
944.431	4099.62
944.738	4113.18
945.044	4141.43
945.35	4026.41
945.657	4060.53
945.963	4044.48
946.269	4040.42
946.575	4031.83
946.881	3993.41
947.187	3974.2
947.493	3986.18
947.799	3931.27
948.105	3956.58
948.41	3891.27
948.716	3875.22
949.022	3880.65
949.327	3883.36
949.633	3819.86
949.938	3845.39
950.244	3813.3
950.549	3770.59
950.854	3736.7
951.16	3766.07
951.465	3760.65
951.77	3714.32
952.075	3663.03
952.38	3658.28
952.685	3668.67
952.99	3676.58
953.294	3620.77
953.599	3642.69
953.904	3615.79
954.209	3614.66
954.513	3587.32
954.818	3544.16
955.122	3552.29
955.426	3557.27
955.731	3522.01
956.035	3530.83
956.339	3483.37
956.643	3521.11
956.948	3475.91
957.252	3456.48
957.556	3439.53
957.86	3423.26
958.163	3443.37
958.467	3395.69
958.771	3359.3
959.075	3323.37
959.378	3332.19
959.682	3385.52
959.985	3328.57
960.289	3290.38
960.592	3285.86
960.896	3305.29
961.199	3251.06
961.502	3266.88
961.805	3254
962.108	3237.05
962.411	3216.48
962.714	3218.97
963.017	3188.69
963.32	3191.63
963.623	3137.16
963.926	3120.44
964.228	3131.29
964.531	3110.95
964.833	3072.76
965.136	3038.41
965.438	3069.82
965.741	3043.61
966.043	3035.92
966.345	3047.45
966.648	3012.87
966.95	3042.7
967.252	2997.51
967.554	2944.17
967.856	2967.9
968.158	2969.26
968.46	2942.82
968.761	2935.36
969.063	2936.49
969.365	2903.5
969.666	2928.58
969.968	2898.75
970.269	2878.86
970.571	2871.18
970.872	2858.3
971.174	2849.04
971.475	2818.08
971.776	2794.57
972.077	2783.5
972.378	2771.07
972.679	2769.26
972.98	2764.29
973.281	2739.66
973.582	2766.33
973.883	2750.73
974.183	2721.58
974.484	2672.99
974.785	2681.13
975.085	2703.05
975.386	2699.89
975.686	2647.68
975.986	2659.21
976.287	2648.81
976.587	2632.77
976.887	2597.06
977.187	2620.79
977.487	2602.49
977.787	2571.53
978.087	2552.77
978.387	2545.31
978.687	2524.07
978.987	2540.34
979.286	2499.21
979.586	2515.71
979.885	2487.24
980.185	2460.57
980.484	2417.41
980.784	2459.89
981.083	2440.68
981.382	2465.32
981.682	2426
981.981	2409.5
982.28	2410.18
982.579	2397.07
982.878	2408.37
983.177	2389.39
983.475	2359.78
983.774	2363.62
984.073	2341.93
984.372	2359.78
984.67	2320.46
984.969	2312.78
985.267	2317.52
985.566	2287.47
985.864	2305.77
986.162	2321.37
986.461	2278.43
986.759	2238.66
987.057	2221.03
987.355	2274.36
987.653	2243.4
987.951	2222.61
988.249	2187.81
988.547	2201.37
988.844	2214.93
989.142	2205.89
989.44	2180.35
989.737	2146.68
990.035	2146.91
990.332	2151.2
990.63	2175.61
990.927	2110.07
991.224	2141.48
991.521	2131.09
991.819	2079.11
992.116	2073.01
992.413	2092.67
992.71	2100.81
993.006	2051.32
993.303	2054.71
993.6	2078.89
993.897	2046.34
994.193	2042.5
994.49	2029.4
994.787	2002.28
995.083	1994.82
995.379	1969.51
995.676	1984.88
995.972	1986.46
996.268	1945.1
996.565	1952.11
996.861	1930.42
997.157	1970.41
997.453	1895.61
997.749	1902.39
998.044	1914.14
998.34	1896.97
998.636	1903.3
998.932	1870.98
999.227	1858.33
999.523	1856.97
999.818	1842.96
1000.114	1830.53
1000.409	1835.28
1000.704	1821.72
1001	1797.99
1001.295	1815.62
1001.59	1755.5
1001.885	1783.53
1002.18	1769.06
1002.475	1751.44
1002.77	1734.49
1003.065	1769.06
1003.359	1756.18
1003.654	1715.51
1003.949	1724.55
1004.243	1735.84
1004.538	1709.86
1004.832	1710.99
1005.127	1689.74
1005.421	1661.95
1005.715	1671.44
1006.009	1679.12
1006.304	1653.59
1006.598	1610.42
1006.892	1621.95
1007.186	1607.94
1007.48	1609.75
1007.773	1604.1
1008.067	1594.15
1008.361	1576.75
1008.655	1583.08
1008.948	1571.33
1009.242	1563.87
1009.535	1561.84
1009.829	1514.16
1010.122	1538.34
1010.415	1519.58
1010.708	1536.53
1011.001	1515.06
1011.295	1508.51
1011.588	1519.35
1011.881	1504.44
1012.173	1491.1
1012.466	1452.24
1012.759	1454.04
1013.052	1468.28
1013.344	1459.92
1013.637	1446.13
1013.93	1431.9
1014.222	1411.11
1014.514	1426.93
1014.807	1375.63
1015.099	1398.45
1015.391	1416.53
1015.683	1379.92
1015.976	1373.37
1016.268	1367.72
1016.56	1364.1
1016.851	1374.95
1017.143	1335.18
1017.435	1320.26
1017.727	1321.17
1018.018	1311
1018.31	1309.87
1018.602	1313.93
1018.893	1305.35
1019.185	1278.68
1019.476	1226.25
1019.767	1280.26
1020.058	1271.45
1020.35	1274.61
1020.641	1259.47
1020.932	1247.04
1021.223	1249.76
1021.514	1261.73
1021.804	1204.78
1022.095	1215.86
1022.386	1205.46
1022.677	1195.75
1022.967	1196.65
1023.258	1181.06
1023.548	1149.64
1023.839	1149.19
1024.129	1166.82
1024.419	1152.13
1024.709	1152.81
1025	1104.45
1025.29	1109.19
1025.58	1118.46
1025.87	1109.42
1026.16	1117.33
1026.449	1104
1026.739	1099.93
1027.029	1093.15
1027.319	1083.21
1027.608	1080.95
1027.898	1080.04
1028.187	1067.61
1028.477	1051.12
1028.766	1060.38
1029.055	1028.07
1029.344	1057.67
1029.634	1045.69
1029.923	1020.38
1030.212	1018.57
1030.501	1007.95
1030.79	1010.67
1031.078	983.32
1031.367	979.71
1031.656	994.17
1031.945	975.19
1032.233	984.23
1032.522	953.49
1032.81	964.34
1033.099	967.5
1033.387	937.9
1033.675	930.89
1033.963	947.16
1034.251	937.22
1034.54	935.19
1034.828	922.76
1035.116	902.19
1035.403	910.78
1035.691	923.89
1035.979	901.74
1036.267	898.35
1036.554	860.61
1036.842	900.84
1037.129	865.13
1037.417	853.16
1037.704	864.23
1037.992	857.9
1038.279	878.01
1038.566	868.07
1038.853	868.07
1039.14	868.07
