Data from hue_32_FLMS001491_00096.txt Node
Date: Tue Feb 07 17:24:17 GMT 2017
User: dcchb
Spectrometer: FLMS00149
Trigger mode: 0
Integration Time (sec): 2.000000E-2
Scans to average: 10
Electric dark correction enabled: true
Nonlinearity correction enabled: false
Boxcar width: 0
XAxis mode: Wavelengths
Number of Pixels in Spectrum: 2048
>>>>>Begin Spectral Data<<<<<
341.393	-14.55
341.776	-14.55
342.16	-14.55
342.543	-58.84
342.927	-68.11
343.31	-76.47
343.693	-59.07
344.077	-73.3
344.46	-71.27
344.843	-55
345.226	-26.52
345.61	-37.82
345.993	-24.94
346.376	-17.26
346.759	3.98
347.142	34.49
347.525	41.04
347.908	72.91
348.291	94.38
348.674	94.6
349.057	100.25
349.44	109.74
349.823	134.6
350.206	162.17
350.588	195.62
350.971	220.02
351.354	210.98
351.737	228.84
352.119	274.03
352.502	270.42
352.884	291.21
353.267	286.46
353.65	308.83
354.032	292.34
354.414	305.67
354.797	323.3
355.179	332.79
355.562	306.12
355.944	340.25
356.326	338.21
356.709	338.21
357.091	354.48
357.473	343.18
357.855	350.19
358.238	352.22
358.62	351.54
359.002	348.83
359.384	335.73
359.766	355.61
360.148	369.85
360.53	349.06
360.912	344.54
361.294	342.96
361.676	354.03
362.057	331.21
362.439	348.61
362.821	335.95
363.203	319
363.584	325.1
363.966	339.34
364.348	324.65
364.729	326.23
365.111	314.48
365.493	344.54
365.874	333.01
366.256	323.3
366.637	328.49
367.019	337.76
367.4	317.65
367.781	320.13
368.163	330.3
368.544	328.72
368.925	310.19
369.306	314.71
369.688	329.62
370.069	308.16
370.45	318.78
370.831	335.5
371.212	299.12
371.593	312.68
371.974	336.63
372.355	317.42
372.736	322.39
373.117	319.23
373.498	329.4
373.879	317.2
374.26	307.25
374.641	323.3
375.021	335.5
375.402	322.84
375.783	316.97
376.163	334.6
376.544	319.68
376.925	327.82
377.305	327.59
377.686	330.53
378.066	320.81
378.447	325.1
378.827	337.08
379.208	328.95
379.588	339.79
379.968	342.28
380.349	361.71
380.729	326.91
381.109	360.36
381.489	353.58
381.87	340.47
382.25	340.47
382.63	352.67
383.01	339.12
383.39	330.98
383.77	352.22
384.15	357.42
384.53	340.7
384.91	336.63
385.29	338.89
385.67	348.61
386.049	364.65
386.429	351.32
386.809	351.77
387.189	349.51
387.568	378.66
387.948	371.66
388.328	362.17
388.707	355.39
389.087	383.86
389.466	369.62
389.846	375.5
390.225	396.74
390.605	371.88
390.984	367.36
391.363	371.88
391.743	365.56
392.122	378.21
392.501	387.02
392.881	374.82
393.26	385.67
393.639	396.74
394.018	373.01
394.397	393.13
394.776	385.67
395.155	407.59
395.534	390.64
395.913	381.15
396.292	425.21
396.671	410.75
397.05	388.38
397.429	405.33
397.808	393.35
398.186	396.06
398.565	397.87
398.944	378.66
399.323	390.87
399.701	370.08
400.08	401.26
400.458	393.13
400.837	392.9
401.215	390.19
401.594	408.27
401.972	407.36
402.351	434.71
402.729	410.53
403.107	424.08
403.486	419.57
403.864	427.7
404.242	408.04
404.62	415.72
404.999	428.6
405.377	420.24
405.755	440.13
406.133	430.86
406.511	407.14
406.889	449.85
407.267	437.64
407.645	443.07
408.023	443.07
408.401	443.29
408.779	452.33
409.156	453.01
409.534	442.62
409.912	452.56
410.29	440.13
410.667	447.14
411.045	470.86
411.422	484.87
411.8	478.32
412.178	478.09
412.555	477.42
412.933	476.96
413.31	465.44
413.687	473.12
414.065	476.29
414.442	482.16
414.819	475.38
415.197	497.76
415.574	509.28
415.951	504.53
416.328	517.42
416.705	507.25
417.082	500.47
417.46	514.25
417.837	514.48
418.214	518.55
418.591	521.26
418.967	524.65
419.344	535.27
419.721	530.07
420.098	548.15
420.475	534.59
420.852	552.9
421.228	528.71
421.605	554.93
421.982	560.13
422.358	560.58
422.735	556.28
423.111	559.45
423.488	559.22
423.864	561.26
424.241	563.74
424.617	568.71
424.994	570.97
425.37	560.8
425.746	573.01
426.123	570.75
426.499	587.02
426.875	581.37
427.251	603.52
427.627	601.48
428.003	594.48
428.379	604.19
428.756	598.54
429.132	610.75
429.507	609.62
429.883	615.49
430.259	624.53
430.635	648.71
431.011	638.09
431.387	659.56
431.763	646.23
432.138	648.94
432.514	660.01
432.89	633.57
433.265	660.46
433.641	666.34
434.016	695.26
434.392	689.84
434.767	683.74
435.143	701.14
435.518	702.04
435.894	714.92
436.269	704.53
436.644	713.34
437.02	712.44
437.395	719.9
437.77	746.56
438.145	736.85
438.52	735.04
438.895	752.66
439.271	769.61
439.646	789.27
440.021	776.62
440.395	758.77
440.77	763.29
441.145	789.5
441.52	809.16
441.895	775.04
442.27	806.9
442.645	782.27
443.019	795.15
443.394	797.18
443.769	796.28
444.143	793.57
444.518	818.2
444.892	795.37
445.267	831.76
445.641	831.08
446.016	829.05
446.39	855.49
446.764	845.32
447.139	831.76
447.513	862.49
447.887	867.24
448.262	855.94
448.636	847.8
449.01	873.79
449.384	875.15
449.758	858.88
450.132	894.81
450.506	884.64
450.88	891.87
451.254	911.3
451.628	923.05
452.002	928.7
452.376	897.29
452.75	927.57
453.123	942.72
453.497	919.89
453.871	940.23
454.244	978.19
454.618	978.65
454.992	990.4
455.365	1005.09
455.739	1005.31
456.112	991.3
456.486	1001.24
456.859	1022.49
457.232	1041.47
457.606	1038.76
457.979	1074.01
458.352	1041.92
458.725	1062.49
459.099	1118.53
459.472	1120.56
459.845	1092.77
460.218	1130.51
460.591	1112.2
460.964	1144.29
461.337	1148.36
461.71	1185.42
462.083	1192.2
462.456	1188.81
462.829	1189.94
463.201	1203.05
463.574	1239.88
463.947	1236.49
464.32	1252.76
464.692	1285.53
465.065	1260.45
465.438	1297.51
465.81	1312.88
466.183	1330.95
466.555	1365.3
466.928	1366.43
467.3	1371.86
467.672	1402.82
468.045	1430.39
468.417	1431.97
468.789	1433.32
469.161	1473.77
469.534	1513.77
469.906	1497.73
470.278	1496.37
470.65	1539.08
471.022	1591.74
471.394	1612.98
471.766	1644.17
472.138	1643.26
472.51	1690.27
472.882	1691.17
473.253	1725.97
473.625	1762.13
473.997	1805.74
474.369	1815.91
474.74	1846.19
475.112	1878.51
475.484	1941.33
475.855	1989.02
476.227	1994.67
476.598	2082.57
476.97	2090.03
477.341	2112.85
477.713	2128.67
478.084	2196.69
478.455	2238.05
478.827	2260.19
479.198	2372.28
479.569	2388.55
479.94	2447.53
480.311	2501.09
480.682	2559.4
481.053	2632.16
481.424	2690.01
481.795	2725.27
482.166	2809.11
482.537	2850.91
482.908	2931.36
483.279	2998.25
483.65	3064.02
484.021	3132.49
484.391	3222.43
484.762	3263.33
485.133	3265.14
485.503	3387.62
485.874	3476.89
486.244	3547.39
486.615	3562.31
486.985	3683.43
487.356	3800.72
487.726	3849.76
488.097	3906.93
488.467	3972.24
488.837	4073.48
489.207	4131.11
489.578	4221.73
489.948	4307.6
490.318	4432.57
490.688	4455.39
491.058	4563.86
491.428	4602.05
491.798	4754.82
492.168	4845.89
492.538	4862.61
492.908	4974.25
493.278	5049.5
493.648	5146.22
494.017	5172.89
494.387	5243.39
494.757	5325.65
495.126	5432.99
495.496	5482.93
495.866	5571.75
496.235	5632.99
496.605	5716.15
496.974	5787.33
497.344	5822.59
497.713	5892.64
498.082	5945.97
498.452	6021.9
498.821	6132.18
499.19	6164.72
499.559	6233.88
499.928	6251.28
500.298	6386.19
500.667	6490.82
501.036	6392.74
501.405	6577.6
501.774	6563.58
502.143	6694.65
502.512	6692.62
502.88	6797.48
503.249	6788.66
503.618	6836.35
503.987	6913.86
504.356	6933.29
504.724	7057.36
505.093	7105.27
505.462	7144.81
505.83	7137.13
506.199	7210.12
506.567	7332.15
506.936	7345.71
507.304	7449.21
507.672	7492.15
508.041	7511.36
508.409	7615.08
508.777	7679.94
509.145	7763.78
509.514	7635.65
509.882	7798.58
510.25	7836.55
510.618	7884.23
510.986	7918.58
511.354	8082.87
511.722	8070.21
512.09	8058.69
512.458	8089.19
512.826	8218.46
513.193	8262.52
513.561	8354.5
513.929	8313.59
514.297	8418.22
514.664	8432.01
515.032	8511.1
515.4	8553.81
515.767	8620.71
516.135	8647.15
516.502	8583.64
516.869	8744.77
517.237	8744.32
517.604	8759.68
517.972	8818.89
518.339	8852.11
518.706	8885.56
519.073	8960.36
519.44	8992.67
519.808	9030.86
520.175	9037.87
520.542	9136.4
520.909	9194.25
521.276	9200.13
521.643	9341.14
522.009	9316.05
522.376	9403.28
522.743	9512.66
523.11	9589.27
523.477	9576.16
523.843	9645.09
524.21	9755.59
524.577	9787.68
524.943	9910.84
525.31	9846.44
525.676	9982.7
526.043	10018.63
526.409	10045.07
526.776	10156.26
527.142	10119.42
527.508	10261.79
527.874	10341.56
528.241	10364.61
528.607	10345.41
528.973	10482.13
529.339	10454.33
529.705	10643.25
530.071	10671.05
530.437	10727.54
530.803	10745.62
531.169	10833.3
531.535	10847.31
531.901	10880.53
532.267	10941.1
532.632	11027.87
532.998	11061.32
533.364	11113.75
533.73	11103.58
534.095	11239.62
534.461	11288.88
534.826	11346.96
535.192	11377.24
535.557	11477.35
535.923	11407.98
536.288	11533.4
536.653	11567.97
537.019	11533.17
537.384	11629.67
537.749	11655.2
538.114	11683.22
538.479	11639.61
538.845	11755.76
539.21	11820.62
539.575	11825.14
539.94	11791.92
540.305	11960.5
540.67	11939.26
541.034	11981.07
541.399	12156.88
541.764	12104.68
542.129	12251.57
542.494	12318.91
542.858	12280.95
543.223	12292.7
543.587	12390.1
543.952	12377.89
544.316	12481.62
544.681	12486.14
545.045	12584.44
545.41	12656.76
545.774	12656.31
546.138	12704.21
546.503	12665.8
546.867	12794.83
547.231	12828.05
547.595	12881.61
547.959	12871.44
548.324	12943.98
548.688	13000.03
549.052	13052
549.416	13095.39
549.779	13086.58
550.143	13146.46
550.507	13241.37
550.871	13271.88
551.235	13217.65
551.599	13402.73
551.962	13408.6
552.326	13363.63
552.689	13589.39
553.053	13511.88
553.417	13594.36
553.78	13774.69
554.143	13645.66
554.507	13690.85
554.87	13830.29
555.234	13999.55
555.597	13787.35
555.96	13888.59
556.323	13910.28
556.686	13952.54
557.05	14011.98
557.413	14032.99
557.776	14232.54
558.139	14215.59
558.502	14283.83
558.865	14310.95
559.228	14390.27
559.59	14371.97
559.953	14425.98
560.316	14582.58
560.679	14595.24
561.041	14624.84
561.404	14709.81
561.767	14784.16
562.129	14762.92
562.492	14877.94
562.854	14866.42
563.217	14854.21
563.579	14915.46
563.941	15072.97
564.304	15102.12
564.666	15165.84
565.028	15183.24
565.39	15267.08
565.753	15403.58
566.115	15337.14
566.477	15414.65
566.839	15419.4
567.201	15507.53
567.563	15514.54
567.925	15647.64
568.287	15699.62
568.648	15666.4
569.01	15740.52
569.372	15851.93
569.734	15735.55
570.095	15914.75
570.457	16040.62
570.819	15999.04
571.18	16147.74
571.542	16249.88
571.903	16258.92
572.265	16353.16
572.626	16377.79
572.987	16540.95
573.349	16503.44
573.71	16601.06
574.071	16754.5
574.432	16818.23
574.794	16986.14
575.155	17019.13
575.516	17002.86
575.877	17205.79
576.238	17253.7
576.599	17357.2
576.96	17405.33
577.32	17520.81
577.681	17793.35
578.042	17873.57
578.403	17904.76
578.763	18013.9
579.124	18137.52
579.485	18228.59
579.845	18438.3
580.206	18531.18
580.566	18658.41
580.927	18864.96
581.287	19120.54
581.648	19202.57
582.008	19420.65
582.368	19490.25
582.728	19716.01
583.089	19896.12
583.449	20015.89
583.809	20212.27
584.169	20417.01
584.529	20538.13
584.889	20954.17
585.249	21025.35
585.609	21262.63
585.969	21499.01
586.329	21716.18
586.688	21905.78
587.048	22102.84
587.408	22366.11
587.768	22534.92
588.127	22872.08
588.487	22947.56
588.846	23412.18
589.206	23428.45
589.565	23776.01
589.925	24033.86
590.284	24245.61
590.643	24698.02
591.003	24848.53
591.362	25230.44
591.721	25299.59
592.08	25626.13
592.44	25922.17
592.799	26313.12
593.158	26364.42
593.517	26758.53
593.876	27181.35
594.235	27135.25
594.593	27514.67
594.952	27730.26
595.311	27968.9
595.67	28225.16
596.029	28703.79
596.387	29058.81
596.746	29221.75
597.104	29380.84
597.463	29672.36
597.822	30068.96
598.18	30073.7
598.538	30382.85
598.897	30676.85
599.255	30770.18
599.613	31473.44
599.972	31539.65
600.33	31803.6
600.688	31933.76
601.046	32358.61
601.404	32459.85
601.762	32786.4
602.12	33133.73
602.478	33220.74
602.836	33426.61
603.194	33610.1
603.552	33742.3
603.91	33912.24
604.268	34236.08
604.625	34346.13
604.983	34732.11
605.341	34744.09
605.698	35085.32
606.056	35418.64
606.413	35426.33
606.771	35668.13
607.128	36015.24
607.485	36014.79
607.843	36118.74
608.2	36553.3
608.557	36741.77
608.914	36825.61
609.272	37187.19
609.629	37325.26
609.986	37572.71
610.343	37570.68
610.7	37986.94
611.057	37993.49
611.414	38110.55
611.771	38417.21
612.127	38615.85
612.484	38731.1
612.841	39067.36
613.198	38872.57
613.554	38980.81
613.911	39496.28
614.267	39473.91
614.624	39425.55
614.98	39616.05
615.337	39931.97
615.693	40070.73
616.05	39990.05
616.406	40247.22
616.762	40290.83
617.118	40416.71
617.475	40585.97
617.831	40752.29
618.187	40760.65
618.543	41012.62
618.899	41277.93
619.255	41300.75
619.611	41375.1
619.967	41586.62
620.323	41687.41
620.678	41627.52
621.034	41578.48
621.39	41731.47
621.746	41798.59
622.101	42262.53
622.457	41985.7
622.812	42245.58
623.168	42345.69
623.523	42326.71
623.879	42556.76
624.234	42227.73
624.589	42442.64
624.945	42566.03
625.3	42706.81
625.655	42675.4
626.01	42709.75
626.365	42803.31
626.72	42766.25
627.075	42768.06
627.43	42862.97
627.785	42712.01
628.14	42956.75
628.495	43008.73
628.85	43037.43
629.205	42945.45
629.559	43154.26
629.914	43033.59
630.269	43231.55
630.623	43075.39
630.978	43080.82
631.332	43233.35
631.687	43264.09
632.041	43267.93
632.396	43367.59
632.75	43148.84
633.104	43214.6
633.459	43175.28
633.813	43117.88
634.167	43215.73
634.521	43215.5
634.875	43139.12
635.229	43239.91
635.583	42961.95
635.937	43091.89
636.291	43133.92
636.645	43164.43
636.999	42987.71
637.352	43327.14
637.706	43048.95
638.06	43138.22
638.413	43057.99
638.767	43006.47
639.121	43180.25
639.474	42917.43
639.828	42936.19
640.181	42933.93
640.534	43119.69
640.888	42924.44
641.241	42916.07
641.594	42970.76
641.947	42988.39
642.301	42894.15
642.654	42925.79
643.007	42936.87
643.36	42979.12
643.713	42921.95
644.066	43075.17
644.419	42691.22
644.771	42567.61
645.124	42211.91
645.477	42221.4
645.83	41950
646.182	41647.41
646.535	41672.94
646.888	41840.17
647.24	41550.91
647.593	41662.32
647.945	41608.76
648.298	41663.68
648.65	41499.84
649.002	41358.6
649.355	41539.84
649.707	41488.77
650.059	41661.87
650.411	42204.23
650.763	42104.57
651.115	42487.39
651.467	42319.48
651.819	42502.75
652.171	42442.19
652.523	42314.73
652.875	42202.2
653.227	42123.33
653.578	42328.07
653.93	42299.37
654.282	42336.2
654.633	42053.05
654.985	42232.7
655.337	42308.18
655.688	42220.27
656.039	42422.53
656.391	42022.54
656.742	42086.72
657.094	42161.52
657.445	42293.72
657.796	42303.44
658.147	42189.54
658.498	42130.56
658.849	42194.74
659.2	42081.52
659.551	41957.23
659.902	42100.05
660.253	42105.25
660.604	42184.12
660.955	42015.76
661.306	41947.06
661.656	41941.41
662.007	42062.09
662.358	41936.67
662.708	42017.12
663.059	41853.28
663.409	41752.49
663.76	42124.91
664.11	41930.11
664.461	42053.72
664.811	41966.5
665.161	42035.42
665.511	41901.86
665.862	41844.69
666.212	41946.83
666.562	41954.29
666.912	41742.55
667.262	41714.3
667.612	41762.21
667.962	41782.55
668.312	41809.44
668.662	42085.81
669.011	41762.88
669.361	41601.99
669.711	41815.99
670.06	41756.56
670.41	41615.32
670.76	41611.48
671.109	41798.82
671.459	41627.97
671.808	41684.24
672.157	41741.87
672.507	41627.07
672.856	41667.52
673.205	41588.88
673.554	41742.32
673.904	41645.83
674.253	41782.77
674.602	41581.19
674.951	41006.52
675.3	40956.58
675.649	41521.31
675.998	41473.85
676.346	41556.34
676.695	41694.41
677.044	41310.02
677.393	41327.19
677.741	41513.4
678.09	41411.03
678.438	41195.89
678.787	41279.96
679.135	41317.7
679.484	41136.46
679.832	41253.07
680.181	41022.57
680.529	41142.79
680.877	41071.6
681.225	40892.85
681.573	41211.49
681.922	40877.48
682.27	40821.67
682.618	40886.3
682.966	40841.33
683.314	40753.42
683.661	40705.74
684.009	40460.77
684.357	40532.63
684.705	40356.59
685.053	40429.59
685.4	40301.45
685.748	40169.48
686.095	40163.15
686.443	40055.59
686.79	40023.95
687.138	40043.83
687.485	40074.57
687.832	39923.39
688.18	39987.56
688.527	39917.28
688.874	39765.2
689.221	39666.22
689.568	39427.35
689.915	39617.63
690.262	39546.67
690.609	39383.29
690.956	39177.19
691.303	39223.97
691.65	38936.74
691.997	38961.38
692.344	38731.78
692.69	38848.61
693.037	38722.74
693.383	38365.91
693.73	38687.03
694.077	38434.61
694.423	38375.86
694.769	38252.92
695.116	38186.48
695.462	38202.53
695.808	38011.8
696.155	38134.96
696.501	37828.07
696.847	37808.64
697.193	37694.74
697.539	37820.62
697.885	37463.56
698.231	37366.39
698.577	37376.33
698.923	37466.05
699.269	37216.11
699.614	36890.47
699.96	37087.75
700.306	37085.95
700.651	36839.17
700.997	36617.94
701.342	36653.64
701.688	36521.21
702.033	36474.44
702.379	36364.83
702.724	36361.9
703.069	36396.02
703.415	35986.54
703.76	35973.21
704.105	36076.48
704.45	35863.61
704.795	35757.62
705.14	35732.54
705.485	35549.94
705.83	35537.29
706.175	35678.07
706.52	35360.12
706.865	35403.96
707.209	35348.14
707.554	35151.99
707.899	35233.34
708.243	34988.6
708.588	35017.53
708.932	34757.65
709.277	34900.92
709.621	34851.2
709.966	34608.72
710.31	34633.81
710.654	34260.48
710.998	34445.56
711.342	34437.88
711.687	34229.98
712.031	34193.82
712.375	34015.74
712.719	34090.77
713.063	34054.16
713.407	34017.78
713.75	33896.65
714.094	33794.73
714.438	33607.62
714.782	33815.98
715.125	33610.56
715.469	33716.77
715.812	33458.7
716.156	33250.34
716.499	33371.47
716.843	33308.42
717.186	33138.93
717.53	33327.17
717.873	33263.22
718.216	33170.12
718.559	32935.55
718.902	32778.94
719.246	32849
719.589	32861.88
719.932	32625.5
720.275	32795.44
720.617	32623.24
720.96	32743.24
721.303	32578.27
721.646	32710.92
721.989	32359.06
722.331	32460.76
722.674	32332.4
723.016	32492.85
723.359	32272.74
723.701	32332.62
724.044	32273.87
724.386	32014.21
724.729	32156.13
725.071	32004.5
725.413	31967.44
725.755	31955.23
726.097	31809.47
726.439	31579.42
726.782	31720.44
727.124	31833.2
727.465	31675.24
727.807	31626.88
728.149	31602.25
728.491	31503.95
728.833	31668.01
729.175	31358.64
729.516	31336.04
729.858	31310.28
730.199	31349.37
730.541	31256.95
730.882	31199.55
731.224	31352.99
731.565	31053.34
731.906	31135.37
732.248	31127.91
732.589	30882.72
732.93	30747.81
733.271	30794.36
733.612	30808.37
733.953	30857.18
734.294	30692.67
734.635	30684.53
734.976	30737.19
735.317	30516.18
735.658	30641.37
735.999	30596.62
736.339	30391.88
736.68	30504.88
737.021	30415.61
737.361	30303.98
737.702	30364.99
738.042	30362.96
738.383	30324.54
738.723	30342.62
739.063	30266.46
739.404	30310.98
739.744	30000.48
740.084	30046.81
740.424	29959.13
740.764	29962.52
741.104	30083.87
741.444	29875.74
741.784	29777.21
742.124	29933.59
742.464	29804.1
742.804	29699.7
743.143	29712.81
743.483	29707.61
743.823	29541.29
744.162	29560.72
744.502	29584.45
744.841	29563.66
745.181	29657.67
745.52	29482.76
745.86	29555.97
746.199	29431.68
746.538	29409.54
746.877	29430.55
747.216	29261.07
747.556	29302.65
747.895	29177.23
748.234	29144.91
748.573	29026.5
748.911	28965.71
749.25	29115.99
749.589	28716.22
749.928	28841.42
750.267	28914.64
750.605	28855.88
750.944	28694.53
751.283	28680.07
751.621	28757.8
751.96	28570.69
752.298	28596.45
752.636	28610.91
752.975	28328.21
753.313	28301.54
753.651	28457.92
753.989	28170.47
754.327	28350.13
754.666	28093.87
755.004	28196.01
755.342	28238.95
755.679	27994.21
756.017	27856.81
756.355	27888
756.693	27879.86
757.031	27908.11
757.368	27761.9
757.706	27664.95
758.044	27576.59
758.381	27590.15
758.719	27469.02
759.056	27448.23
759.394	27398.52
759.731	27326.2
760.068	27255.7
760.405	27095.93
760.743	27115.36
761.08	27132.54
761.417	26970.51
761.754	26871.75
762.091	26848.7
762.428	26749.72
762.765	26612.1
763.102	26704.07
763.438	26503.85
763.775	26493.46
764.112	26495.04
764.449	26507.47
764.785	26332.33
765.122	26160.36
765.458	25942.96
765.795	25973.02
766.131	25918.1
766.467	25912.45
766.804	25775.06
767.14	25744.32
767.476	25764.21
767.812	25523.54
768.148	25611.22
768.485	25408.74
768.821	25301.17
769.157	25300.49
769.492	25216.43
769.828	25123.55
770.164	24959.03
770.5	24892.82
770.836	24946.15
771.171	24772.37
771.507	24626.39
771.842	24474.3
772.178	24401.76
772.513	24448.31
772.849	24350.46
773.184	24246.51
773.519	24363.12
773.855	24068.66
774.19	24077.93
774.525	23825.5
774.86	23926.07
775.195	23824.6
775.53	23841.32
775.865	23671.84
776.2	23359.3
776.535	23311.62
776.87	23375.8
777.205	23260.32
777.539	23112.3
777.874	23122.92
778.209	22837.05
778.543	22998.18
778.878	22793.21
779.212	22790.73
779.547	22587.34
779.881	22677.29
780.215	22453.11
780.55	22578.53
780.884	22367.46
781.218	22393.68
781.552	22306.67
781.886	22125.21
782.22	22018.09
782.554	21871.66
782.888	21744.88
783.222	21743.75
783.556	21603.64
783.889	21566.81
784.223	21299.69
784.557	21378.79
784.89	21336.3
785.224	21312.12
785.557	21081.62
785.891	21076.2
786.224	21093.37
786.558	21008.4
786.891	20911
787.224	20754.4
787.557	20732.03
787.891	20679.37
788.224	20586.27
788.557	20591.69
788.89	20500.39
789.223	20525.03
789.556	20404.8
789.888	20392.83
790.221	20219.27
790.554	20134.08
790.887	20104.7
791.219	19993.51
791.552	19934.98
791.884	19850.47
792.217	19842.56
792.549	19703.58
792.882	19558.5
793.214	19618.61
793.546	19505.84
793.879	19419.07
794.211	19329.35
794.543	19292.97
794.875	19279.63
795.207	19301.78
795.539	19163.71
795.871	19127.77
796.203	19014.1
796.535	18957.83
796.867	18887.33
797.198	18735.24
797.53	18731.4
797.862	18704.06
798.193	18774.79
798.525	18574.57
798.856	18572.31
799.188	18333.67
799.519	18413.89
799.85	18319.89
800.182	18249.83
800.513	18242.83
800.844	18102.26
801.175	18258.64
801.506	18230.85
801.837	18030.18
802.168	17958.09
802.499	17947.92
802.83	17913.57
803.161	17688.94
803.491	17824.76
803.822	17767.81
804.153	17706.12
804.483	17519.45
804.814	17495.05
805.145	17462.73
805.475	17544.09
805.805	17373.92
806.136	17440.13
806.466	17359.91
806.796	17283.3
807.126	17102.97
807.457	17132.35
807.787	17157.2
808.117	17075.4
808.447	16976.87
808.777	16919.92
809.107	16933.93
809.436	16863.2
809.766	16815.74
810.096	16780.94
810.426	16732.81
810.755	16772.13
811.085	16624.79
811.414	16637.22
811.744	16472.93
812.073	16513.15
812.403	16524
812.732	16333.27
813.061	16273.84
813.39	16324.01
813.719	16190.45
814.049	16270.9
814.378	16246.72
814.707	16086.95
815.036	16074.07
815.365	16085.37
815.693	15945.26
816.022	15925.82
816.351	15908.2
816.68	15782.78
817.008	15912.49
817.337	15689.67
817.665	15603.8
817.994	15763.34
818.322	15675.21
818.651	15602.44
818.979	15517.7
819.307	15630.69
819.636	15528.77
819.964	15413.75
820.292	15539.17
820.62	15536
820.948	15445.38
821.276	15492.16
821.604	15521.77
821.932	15481.54
822.259	15388.21
822.587	15369.45
822.915	15408.1
823.243	15405.16
823.57	15421.88
823.898	15344.37
824.225	15329
824.553	15352.05
824.88	15455.33
825.207	15312.51
825.535	15279.97
825.862	15425.05
826.189	15225.5
826.516	15407.19
826.843	15401.54
827.17	15347.31
827.497	15393.18
827.824	15392.96
828.151	15371.71
828.478	15289
828.805	15334.43
829.131	15300.76
829.458	15359.06
829.785	15218.5
830.111	15244.03
830.438	15317.7
830.764	15264.6
831.09	15285.84
831.417	15217.37
831.743	15271.6
832.069	15240.87
832.395	15195.22
832.722	15214.2
833.048	15244.26
833.374	15223.24
833.7	15133.75
834.026	15121.78
834.351	15145.51
834.677	15166.52
835.003	15150.25
835.329	15155.67
835.654	15159.52
835.98	15026.19
836.306	14991.16
836.631	15018.28
836.956	14967.43
837.282	15009.46
837.607	14973.76
837.932	14845.63
838.258	14938.05
838.583	14905.29
838.908	14764.5
839.233	14782.58
839.558	14730.83
839.883	14732.64
840.208	14681.79
840.533	14696.93
840.858	14681.56
841.182	14686.08
841.507	14670.26
841.832	14590.04
842.156	14545.97
842.481	14504.62
842.805	14506.88
843.13	14520.89
843.454	14417.62
843.778	14423.26
844.103	14364.28
844.427	14395.69
844.751	14302.14
845.075	14276.83
845.399	14243.16
845.723	14133.1
846.047	14159.32
846.371	14069.6
846.695	14097.62
847.019	13896.72
847.343	13878.87
847.666	13849.95
847.99	13787.12
848.313	13778.76
848.637	13716.16
848.96	13665.32
849.284	13579.22
849.607	13527.47
849.931	13488.37
850.254	13436.62
850.577	13357.08
850.9	13257.42
851.223	13305.55
851.546	13177.2
851.869	13137.2
852.192	13174.94
852.515	13012.68
852.838	12958.67
853.161	13007.93
853.483	12866.02
853.806	12812.46
854.129	12782.4
854.451	12780.6
854.774	12656.31
855.096	12660.15
855.419	12591
855.741	12572.69
856.063	12587.38
856.385	12543.99
856.708	12460.38
857.03	12383.54
857.352	12511
857.674	12367.95
857.996	12320.04
858.318	12288.86
858.64	12267.16
858.961	12220.61
859.283	12199.82
859.605	12114.85
859.926	12144.23
860.248	12146.26
860.57	12101.97
860.891	12089.31
861.212	11946.27
861.534	11955.76
861.855	11901.3
862.176	11885.03
862.498	11848.87
862.819	11888.42
863.14	11759.15
863.461	11786.72
863.782	11813.16
864.103	11776.78
864.424	11698.14
864.745	11793.28
865.065	11692.04
865.386	11608.88
865.707	11695.43
866.027	11601.87
866.348	11634.86
866.668	11645.26
866.989	11512.83
867.309	11547.86
867.63	11549.67
867.95	11568.2
868.27	11423.12
868.59	11380.63
868.91	11408.88
869.23	11372.05
869.55	11408.65
869.87	11404.59
870.19	11330.46
870.51	11410.91
870.83	11377.02
871.15	11321.2
871.469	11294.08
871.789	11288.66
872.109	11315.1
872.428	11210.69
872.748	11227.87
873.067	11190.81
873.386	11175.44
873.706	11239.39
874.025	11144.93
874.344	11071.94
874.663	11138.83
874.982	11063.81
875.301	11059.96
875.62	11059.51
875.939	11037.59
876.258	11036.01
876.577	11002.56
876.896	10965.28
877.214	10886.41
877.533	10967.31
877.852	10973.19
878.17	10901.1
878.489	10876.69
878.807	10842.79
879.125	10909.68
879.444	10812.06
879.762	10807.99
880.08	10827.2
880.398	10732.29
880.716	10741.55
881.034	10636.7
881.352	10786.98
881.67	10728.9
881.988	10664.72
882.306	10666.98
882.624	10581.56
882.941	10579.07
883.259	10523.03
883.577	10530.26
883.894	10528.45
884.212	10518.06
884.529	10491.84
884.846	10403.94
885.164	10417.49
885.481	10355.12
885.798	10346.08
886.115	10309.7
886.432	10300.66
886.75	10323.71
887.067	10344.73
887.383	10238.97
887.7	10280.32
888.017	10193.77
888.334	10198.07
888.651	10201.68
888.967	10130.27
889.284	10109.71
889.6	10047.11
889.917	10109.71
890.233	9991.29
890.55	9935.7
890.866	9951.29
891.182	9928.24
891.498	9879.88
891.815	9854.35
892.131	9811.86
892.447	9768.02
892.763	9795.82
893.079	9749.04
893.395	9683.5
893.71	9687.12
894.026	9683.05
894.342	9650.96
894.657	9581.13
894.973	9520.12
895.289	9537.07
895.604	9522.38
895.92	9420.01
896.235	9398.76
896.55	9451.87
896.865	9397.41
897.181	9407.13
897.496	9322.38
897.811	9340.91
898.126	9260.91
898.441	9219.33
898.756	9163.74
899.071	9208.49
899.386	9134.82
899.7	9122.16
900.015	9093.01
900.33	9034.25
900.644	9013.24
900.959	9041.94
901.273	8930.75
901.588	8921.04
901.902	8888.95
902.216	8829.06
902.531	8827.71
902.845	8780.48
903.159	8715.62
903.473	8702.06
903.787	8669.52
904.101	8601.05
904.415	8657.09
904.729	8613.02
905.042	8525.11
905.356	8529.86
905.67	8425
905.984	8505.45
906.297	8455.74
906.611	8443.08
906.924	8401.73
907.237	8399.02
907.551	8296.65
907.864	8246.48
908.177	8262.75
908.491	8215.29
908.804	8174.39
909.117	8098.23
909.43	8126.48
909.743	8045.81
910.056	8078.35
910.368	8079.7
910.681	7969.65
910.994	7956.09
911.307	7929.88
911.619	7913.38
911.932	7892.14
912.244	7752.25
912.557	7769.2
912.869	7743.21
913.181	7732.59
913.494	7680.62
913.806	7596.78
914.118	7640.17
914.43	7588.87
914.742	7548.87
915.054	7535.76
915.366	7480.4
915.678	7503.22
915.99	7414.86
916.302	7373.05
916.613	7386.61
916.925	7329.89
917.236	7336.9
917.548	7248.76
917.859	7292.6
918.171	7235.21
918.482	7176
918.794	7200.86
919.105	7126.06
919.416	7081.31
919.727	7108.2
920.038	7071.14
920.349	6959.28
920.66	6969.22
920.971	6991.14
921.282	6924.48
921.593	6860.75
921.903	6827.31
922.214	6879.28
922.525	6757.7
922.835	6806.29
923.146	6709.12
923.456	6671.38
923.767	6713.86
924.077	6721.09
924.387	6585.5
924.697	6612.4
925.008	6598.16
925.318	6580.53
925.628	6507.77
925.938	6472.29
926.248	6397.71
926.558	6405.17
926.867	6369.24
927.177	6434.55
927.487	6326.3
927.796	6279.52
928.106	6278.62
928.416	6298.51
928.725	6235.46
929.034	6205.4
929.344	6197.72
929.653	6120.66
929.962	6148.23
930.271	6081.11
930.581	6076.82
930.89	6042.92
931.199	6008.8
931.508	5995.46
931.817	5997.95
932.125	5956.82
932.434	5924.51
932.743	5858.97
933.051	5901.45
933.36	5850.61
933.669	5787.79
933.977	5806.54
934.286	5801.57
934.594	5764.96
934.902	5664.85
935.21	5657.39
935.519	5681.8
935.827	5648.13
936.135	5630.95
936.443	5616.49
936.751	5582.37
937.059	5554.12
937.367	5487.23
937.674	5554.57
937.982	5454.69
938.29	5444.74
938.597	5464.86
938.905	5398.19
939.213	5388.7
939.52	5382.6
939.827	5321.13
940.135	5310.28
940.442	5293.11
940.749	5241.36
941.056	5245.2
941.363	5199.55
941.67	5213.11
941.977	5151.87
942.284	5155.49
942.591	5166.79
942.898	5117.29
943.205	5131.31
943.511	5107.8
943.818	5024.87
944.125	5031.65
944.431	4985.32
944.738	4994.13
945.044	5009.5
945.35	4969.95
945.657	4935.83
945.963	4873.91
946.269	4899.22
946.575	4922.05
946.881	4839.34
947.187	4832.78
947.493	4833.01
947.799	4794.82
948.105	4756.4
948.41	4758.89
948.716	4797.3
949.022	4739.9
949.327	4693.35
949.633	4653.58
949.938	4608.38
950.244	4602.96
950.549	4603.41
950.854	4537.88
951.16	4562.96
951.465	4537.2
951.77	4543.52
952.075	4516.41
952.38	4503.3
952.685	4467.59
952.99	4442.51
953.294	4405
953.599	4385.56
953.904	4369.07
954.209	4355.96
954.513	4315.96
954.818	4293.59
955.122	4280.48
955.426	4261.72
955.731	4259.46
956.035	4234.38
956.339	4228.5
956.643	4186.92
956.948	4238.9
957.252	4148.51
957.556	4152.12
957.86	4099.92
958.163	4141.95
958.467	4110.77
958.771	4099.24
959.075	4066.25
959.378	4063.99
959.682	4074.16
959.985	4020.83
960.289	4037.1
960.592	3991
960.896	3974.73
961.199	3961.84
961.502	3975.4
961.805	3900.83
962.108	3896.31
962.411	3897.44
962.714	3846.14
963.017	3846.82
963.32	3847.27
963.623	3846.59
963.926	3816.31
964.228	3809.53
964.531	3790.32
964.833	3736.99
965.136	3697.22
965.438	3679.14
965.741	3641.63
966.043	3660.61
966.345	3678.24
966.648	3659.71
966.95	3698.12
967.252	3603.44
967.554	3595.3
967.856	3596.88
968.158	3558.01
968.46	3579.71
968.761	3589.88
969.063	3539.48
969.365	3518.92
969.666	3512.82
969.968	3477.34
970.269	3481.86
970.571	3454.06
970.872	3427.85
971.174	3387.17
971.475	3408.87
971.776	3399.37
972.077	3387.85
972.378	3378.81
972.679	3363.44
972.98	3306.49
973.281	3293.39
973.582	3330.45
973.883	3286.83
974.183	3288.64
974.484	3255.87
974.785	3243.45
975.085	3191.02
975.386	3235.31
975.686	3201.64
975.986	3219.49
976.287	3179.72
976.587	3150.34
976.887	3169.1
977.187	3169.1
977.487	3140.85
977.787	3108.76
978.087	3102.66
978.387	3043.45
978.687	3072.15
978.987	3051.81
979.286	3046.39
979.586	3005.94
979.885	3036.22
980.185	3015.43
980.484	3000.29
980.784	2946.05
981.083	2952.61
981.382	2953.96
981.682	2933.62
981.981	2953.28
982.28	2909.44
982.579	2895.21
982.878	2883
983.177	2848.88
983.475	2879.16
983.774	2838.48
984.073	2840.07
984.372	2807.75
984.67	2792.16
984.969	2790.58
985.267	2767.75
985.566	2717.36
985.864	2726.4
986.162	2708.77
986.461	2708.77
986.759	2744.02
987.057	2701.99
987.355	2679.39
987.653	2673.29
987.951	2659.96
988.249	2647.3
988.547	2662.67
988.844	2627.42
989.142	2638.49
989.44	2625.61
989.737	2608.21
990.035	2601.65
990.332	2573.63
990.63	2537.02
990.927	2549.9
991.224	2573.18
991.521	2535.22
991.819	2509
992.116	2509.91
992.413	2475.33
992.71	2490.02
993.006	2463.58
993.303	2465.84
993.6	2453.64
993.897	2434.65
994.193	2436.69
994.49	2398.5
994.787	2390.36
995.083	2367.99
995.379	2386.75
995.676	2393.3
995.972	2341.55
996.268	2313.3
996.565	2358.05
996.861	2333.41
997.157	2296.13
997.453	2300.65
997.749	2284.6
998.044	2283.7
998.34	2267.65
998.636	2227.65
998.932	2248.22
999.227	2231.72
999.523	2205.73
999.818	2202.34
1000.114	2177.26
1000.409	2153.53
1000.704	2175
1001	2152.63
1001.295	2128.67
1001.59	2117.83
1001.885	2148.11
1002.18	2099.97
1002.475	2105.85
1002.77	2089.58
1003.065	2084.38
1003.359	2081.67
1003.654	2064.04
1003.949	2016.13
1004.243	2022.46
1004.538	1982.01
1004.832	1986.3
1005.127	2011.61
1005.421	1976.13
1005.715	1972.07
1006.009	1946.3
1006.304	1915.57
1006.598	1937.72
1006.892	1944.95
1007.186	1908.34
1007.48	1930.49
1007.773	1908.11
1008.067	1888.45
1008.361	1870.6
1008.655	1882.58
1008.948	1894.33
1009.242	1845.06
1009.535	1848.68
1009.829	1864.05
1010.122	1831.96
1010.415	1817.27
1010.708	1803.71
1011.001	1808
1011.295	1765.29
1011.588	1764.84
1011.881	1775.24
1012.173	1730.27
1012.466	1747.44
1012.759	1758.51
1013.052	1698.85
1013.344	1720.55
1013.637	1704.73
1013.93	1678.06
1014.222	1685.97
1014.514	1656.82
1014.807	1621.34
1015.099	1627.67
1015.391	1626.09
1015.683	1619.53
1015.976	1650.95
1016.268	1615.24
1016.56	1567.78
1016.851	1580.66
1017.143	1593.77
1017.435	1580.44
1017.727	1570.95
1018.018	1578.63
1018.31	1543.15
1018.602	1561.23
1018.893	1509.25
1019.185	1495.47
1019.476	1492.53
1019.767	1480.78
1020.058	1493.66
1020.35	1452.08
1020.641	1496.6
1020.932	1464.74
1021.223	1443.27
1021.514	1441.69
1021.804	1388.81
1022.095	1441.23
1022.386	1412.08
1022.677	1390.61
1022.967	1367.34
1023.258	1394.91
1023.548	1346.09
1023.839	1332.76
1024.129	1374.57
1024.419	1314
1024.709	1337.06
1025	1316.26
1025.29	1311.29
1025.58	1305.87
1025.87	1317.85
1026.16	1292.54
1026.449	1290.73
1026.739	1296.38
1027.029	1278.53
1027.319	1280.33
1027.608	1266.1
1027.898	1250.73
1028.187	1235.14
1028.477	1235.81
1028.766	1223.16
1029.055	1194.46
1029.344	1209.6
1029.634	1211.63
1029.923	1185.19
1030.212	1174.35
1030.501	1169.6
1030.79	1169.6
1031.078	1171.18
1031.367	1160.11
1031.656	1155.59
1031.945	1161.47
1032.233	1145.42
1032.522	1119.21
1032.81	1125.99
1033.099	1087.12
1033.387	1113.56
1033.675	1095.48
1033.963	1082.37
1034.251	1100.23
1034.54	1085.08
1034.828	1070.17
1035.116	1037.18
1035.403	1061.13
1035.691	1035.37
1035.979	1047.35
1036.267	1015.71
1036.554	1024.97
1036.842	1002.37
1037.129	1009.38
1037.417	1009.15
1037.704	973.9
1037.992	997.86
1038.279	984.52
1038.566	977.29
1038.853	977.29
1039.14	977.29
