Data from hue_220_FLMS001491_00046.txt Node
Date: Tue Feb 07 16:39:31 GMT 2017
User: dcchb
Spectrometer: FLMS00149
Trigger mode: 0
Integration Time (sec): 2.000000E-2
Scans to average: 10
Electric dark correction enabled: true
Nonlinearity correction enabled: false
Boxcar width: 0
XAxis mode: Wavelengths
Number of Pixels in Spectrum: 2048
>>>>>Begin Spectral Data<<<<<
341.393	-12.19
341.776	-12.19
342.16	-12.19
342.543	-61.68
342.927	-54.67
343.31	-64.16
343.693	-77.72
344.077	-80.44
344.46	-70.49
344.843	-56.48
345.226	-23.49
345.61	-45.86
345.993	-26.65
346.376	-20.78
346.759	7.25
347.142	21.26
347.525	58.77
347.908	68.94
348.291	83.85
348.674	97.41
349.057	128.6
349.44	134.02
349.823	171.99
350.206	145.55
350.588	195.72
350.971	191.2
351.354	213.12
351.737	234.36
352.119	249.5
352.502	263.28
352.884	262.38
353.267	287.69
353.65	284.98
354.032	294.24
354.414	305.32
354.797	298.99
355.179	329.5
355.562	317.52
355.944	334.69
356.326	329.05
356.709	334.02
357.091	344.86
357.473	356.39
357.855	335.6
358.238	342.83
358.62	323.17
359.002	339.89
359.384	319.1
359.766	349.38
360.148	330.4
360.53	348.25
360.912	336.95
361.294	313.45
361.676	305.99
362.057	321.14
362.439	355.26
362.821	330.17
363.203	324.75
363.584	317.52
363.966	321.14
364.348	319.33
364.729	312.55
365.111	317.75
365.493	324.07
365.874	317.29
366.256	287.01
366.637	311.87
367.019	296.5
367.4	320.46
367.781	310.51
368.163	295.83
368.544	324.3
368.925	309.61
369.306	341.25
369.688	310.51
370.069	304.19
370.45	322.04
370.831	334.92
371.212	311.42
371.593	309.38
371.974	314.58
372.355	316.62
372.736	350.51
373.117	306.67
373.498	329.05
373.879	320.91
374.26	353.9
374.641	290.4
375.021	332.89
375.402	322.04
375.783	303.96
376.163	331.98
376.544	314.13
376.925	320.91
377.305	324.3
377.686	331.3
378.066	329.5
378.447	338.76
378.827	332.66
379.208	332.89
379.588	317.07
379.968	317.97
380.349	332.43
380.729	306.45
381.109	320.68
381.489	327.69
381.87	355.71
382.25	323.17
382.63	335.82
383.01	338.08
383.39	347.12
383.77	334.92
384.15	350.06
384.53	356.39
384.91	343.96
385.29	364.75
385.67	354.13
386.049	365.43
386.429	355.49
386.809	366.33
387.189	367.24
387.568	354.36
387.948	358.65
388.328	353
388.707	361.36
389.087	346.22
389.466	359.55
389.846	366.11
390.225	345.09
390.605	376.05
390.984	363.62
391.363	374.02
391.743	358.2
392.122	374.02
392.501	348.93
392.881	377.86
393.26	393.9
393.639	367.46
394.018	385.31
394.397	394.13
394.776	401.81
395.155	402.49
395.534	401.13
395.913	390.96
396.292	376.73
396.671	377.41
397.05	394.13
397.429	404.07
397.808	377.41
398.186	381.92
398.565	409.49
398.944	396.84
399.323	422.15
399.701	402.49
400.08	423.51
400.458	416.05
400.837	434.35
401.215	439.32
401.594	430.06
401.972	416.5
402.351	447.91
402.729	443.84
403.107	443.62
403.486	446.33
403.864	433.9
404.242	433.68
404.62	465.31
404.999	455.14
405.377	461.24
405.755	470.96
406.133	462.15
406.511	464.41
406.889	477.97
407.267	454.47
407.645	482.49
408.023	499.89
408.401	497.4
408.779	517.51
409.156	530.62
409.534	538.98
409.912	531.75
410.29	513.9
410.667	534.92
411.045	538.76
411.422	534.01
411.8	562.71
412.178	571.98
412.555	585.99
412.933	585.54
413.31	599.09
413.687	597.74
414.065	597.06
414.442	622.37
414.819	638.87
415.197	635.48
415.574	648.36
415.951	641.13
416.328	678.41
416.705	660.11
417.082	665.31
417.46	668.7
417.837	697.62
418.214	699.2
418.591	707.57
418.967	719.32
419.344	740.33
419.721	734.46
420.098	754.34
420.475	753.44
420.852	757.28
421.228	781.91
421.605	784.4
421.982	800.67
422.358	821.69
422.735	826.66
423.111	845.42
423.488	858.52
423.864	866.43
424.241	890.61
424.617	881.57
424.994	900.56
425.37	917.05
425.746	920.22
426.123	942.59
426.499	957.05
426.875	976.94
427.251	975.58
427.627	998.18
428.003	997.05
428.379	1038.18
428.756	1035.24
429.132	1044.05
429.507	1066.43
429.883	1080.21
430.259	1078.18
430.635	1092.64
431.011	1141.23
431.387	1131.96
431.763	1144.84
432.138	1171.28
432.514	1159.08
432.89	1203.82
433.265	1221.68
433.641	1218.06
434.016	1251.96
434.392	1275.69
434.767	1304.39
435.143	1301.22
435.518	1360.2
435.894	1378.73
436.269	1380.77
436.644	1422.8
437.02	1447.43
437.395	1460.54
437.77	1470.26
438.145	1497.38
438.52	1516.81
438.895	1548.67
439.271	1568.56
439.646	1564.04
440.021	1630.71
440.395	1644.72
440.77	1621.89
441.145	1634.32
441.52	1688.56
441.895	1679.07
442.27	1691.27
442.645	1711.61
443.019	1713.64
443.394	1782.79
443.769	1787.31
444.143	1792.96
444.518	1822.11
444.892	1818.72
445.267	1818.5
445.641	1877.48
446.016	1883.13
446.39	1877.48
446.764	1892.39
447.139	1879.74
447.513	1924.94
447.887	1941.21
448.262	1960.19
448.636	1966.06
449.01	1987.08
449.384	1964.48
449.758	2025.05
450.132	2055.55
450.506	2014.65
450.88	2039.51
451.254	2106.17
451.628	2115.21
452.002	2122.44
452.376	2154.99
452.75	2138.49
453.123	2150.01
453.497	2200.18
453.871	2213.74
454.244	2243.12
454.618	2254.87
454.992	2298.48
455.365	2288.77
455.739	2348.2
456.112	2349.56
456.486	2397.47
456.859	2391.59
457.232	2430.68
457.606	2455.54
457.979	2474.53
458.352	2476.79
458.725	2547.97
459.099	2575.54
459.472	2600.85
459.845	2617.35
460.218	2677.91
460.591	2679.94
460.964	2680.62
461.337	2747.29
461.71	2753.16
462.083	2816.66
462.456	2792.03
462.829	2833.16
463.201	2893.95
463.574	2896.44
463.947	2912.93
464.32	2996.77
464.692	3012.36
465.065	3038.8
465.438	3032.25
465.81	3080.16
466.183	3124.9
466.555	3145.92
466.928	3202.19
467.3	3250.1
467.672	3243.32
468.045	3318.8
468.417	3342.3
468.789	3339.81
469.161	3353.37
469.534	3456.19
469.906	3522.86
470.278	3511.11
470.65	3540.94
471.022	3674.72
471.394	3690.99
471.766	3720.82
472.138	3756.3
472.51	3826.81
472.882	3837.65
473.253	3874.71
473.625	3951.1
473.997	4010.53
474.369	3999.46
474.74	4088.04
475.112	4157.87
475.484	4188.6
475.855	4286.91
476.227	4273.57
476.598	4401.48
476.97	4416.62
477.341	4482.61
477.713	4561.02
478.084	4550.63
478.455	4697.07
478.827	4737.06
479.198	4850.28
479.569	4807.8
479.94	4994.91
480.311	4996.49
480.682	5100.44
481.053	5246.88
481.424	5238.97
481.795	5314.45
482.166	5397.39
482.537	5454.56
482.908	5537.72
483.279	5575.69
483.65	5640.54
484.021	5755.12
484.391	5816.58
484.762	5886.64
485.133	5916.47
485.503	5972.29
485.874	6097.71
486.244	6104.71
486.615	6207.76
486.985	6269.23
487.356	6330.92
487.726	6379.73
488.097	6513.29
488.467	6543.12
488.837	6628.09
489.207	6748.31
489.578	6807.07
489.948	6850.91
490.318	6958.25
490.688	6918.02
491.058	7012.49
491.428	7110.79
491.798	7152.37
492.168	7278.69
492.538	7327.51
492.908	7390.1
493.278	7452.25
493.648	7490.44
494.017	7551.23
494.387	7515.75
494.757	7659.25
495.126	7730.43
495.496	7755.74
495.866	7715.52
496.235	7795.29
496.605	7879.13
496.974	7908.51
497.344	7975.62
497.713	7968.84
498.082	8090.87
498.452	8104.21
498.821	8141.27
499.19	8100.59
499.559	8156.64
499.928	8269.63
500.298	8253.58
500.667	8345.11
501.036	8409.06
501.405	8395.05
501.774	8330.64
502.143	8443.63
502.512	8444.99
502.88	8508.26
503.249	8526.8
503.618	8531.99
503.987	8509.17
504.356	8571.09
504.724	8624.19
505.093	8622.84
505.462	8616.51
505.83	8708.03
506.199	8770.4
506.567	8832.78
506.936	8754.13
507.304	8908.71
507.672	8849.72
508.041	8882.27
508.409	8938.99
508.777	8984.86
509.145	9051.98
509.514	8982.6
509.882	9046.78
510.25	9069.61
510.618	9047.91
510.986	9106.89
511.354	9101.47
511.722	9135.59
512.09	9190.51
512.458	9184.63
512.826	9260.56
513.193	9267.57
513.561	9266.21
513.929	9344.4
514.297	9334.91
514.664	9383.72
515.032	9363.61
515.4	9438.64
515.767	9403.61
516.135	9447
516.502	9373.1
516.869	9503.72
517.237	9465.08
517.604	9398.64
517.972	9447.68
518.339	9434.12
518.706	9407.68
519.073	9478.41
519.44	9507.11
519.808	9509.59
520.175	9512.76
520.542	9636.14
520.909	9670.72
521.276	9612.42
521.643	9614.68
522.009	9585.75
522.376	9692.64
522.743	9663.26
523.11	9705.52
523.477	9737.16
523.843	9754.56
524.21	9878.17
524.577	9809.7
524.943	9818.96
525.31	9871.17
525.676	9855.57
526.043	9949.81
526.409	9926.53
526.776	9958.4
527.142	9939.41
527.508	9995.23
527.874	9939.19
528.241	9984.16
528.607	9910.71
528.973	10061.22
529.339	9941.45
529.705	9989.36
530.071	9976.93
530.437	10062.12
530.803	10041.78
531.169	10108
531.535	10035.46
531.901	9968.34
532.267	9958.85
532.632	10008.79
532.998	10005.63
533.364	10050.82
533.73	9998.85
534.095	10051.73
534.461	10006.53
534.826	10005.63
535.192	9962.46
535.557	10049.69
535.923	9972.18
536.288	9969.24
536.653	9939.87
537.019	9843.15
537.384	9957.72
537.749	9863.94
538.114	9941.9
538.479	9836.37
538.845	9832.3
539.21	9856.25
539.575	9802.02
539.94	9828.91
540.305	9815.58
540.67	9806.99
541.034	9765.18
541.399	9823.94
541.764	9764.5
542.129	9773.09
542.494	9782.13
542.858	9702.58
543.223	9673.43
543.587	9732.64
543.952	9688.57
544.316	9631.17
544.681	9642.02
545.045	9727.67
545.41	9621.46
545.774	9584.17
546.138	9624.62
546.503	9493.55
546.867	9476.6
547.231	9558.63
547.595	9540.33
547.959	9506.2
548.324	9438.18
548.688	9509.14
549.052	9451.29
549.416	9415.81
549.779	9360.9
550.143	9391.41
550.507	9429.37
550.871	9376.26
551.235	9400.9
551.599	9357.51
551.962	9356.83
552.326	9301.01
552.689	9358.41
553.053	9241.35
553.417	9287.91
553.78	9383.04
554.143	9267.79
554.507	9268.25
554.87	9234.8
555.234	9250.62
555.597	9275.25
555.96	9286.55
556.323	9177.17
556.686	9151.64
557.05	9223.73
557.413	9216.95
557.776	9207.68
558.139	9242.71
558.502	9200.9
558.865	9136.27
559.228	9209.04
559.59	9269.6
559.953	9228.92
560.316	9265.99
560.679	9281.8
561.041	9252.65
561.404	9251.97
561.767	9281.58
562.129	9193.44
562.492	9310.5
562.854	9237.96
563.217	9334.23
563.579	9307.79
563.941	9305.53
564.304	9271.18
564.666	9266.21
565.028	9365.42
565.39	9341.46
565.753	9360.9
566.115	9401.57
566.477	9392.31
566.839	9405.64
567.201	9343.95
567.563	9418.3
567.925	9433.21
568.287	9453.1
568.648	9420.56
569.01	9502.14
569.372	9526.32
569.734	9437.51
570.095	9584.62
570.457	9561.8
570.819	9572.64
571.18	9556.37
571.542	9599.99
571.903	9582.14
572.265	9583.04
572.626	9643.38
572.987	9624.62
573.349	9707.33
573.71	9691.51
574.071	9711.17
574.432	9754.79
574.794	9766.31
575.155	9769.25
575.516	9769.7
575.877	9773.09
576.238	9738.52
576.599	9868
576.96	9880.88
577.32	9864.39
577.681	9942.35
578.042	9893.09
578.403	9913.43
578.763	9938.06
579.124	9985.29
579.485	9954.1
579.845	9994.55
580.206	10001.79
580.566	10050.15
580.927	10059.64
581.287	10046.53
581.648	10049.92
582.008	10139.41
582.368	10076.81
582.728	10109.13
583.089	10095.12
583.449	10164.49
583.809	10178.05
584.169	10146.41
584.529	10153.42
584.889	10251.5
585.249	10213.53
585.609	10163.36
585.969	10300.53
586.329	10260.99
586.688	10279.52
587.048	10251.72
587.408	10215.11
587.768	10299.18
588.127	10313.42
588.487	10346.41
588.846	10407.65
589.206	10325.84
589.565	10354.54
589.925	10317.93
590.284	10392.74
590.643	10386.86
591.003	10396.35
591.362	10448.78
591.721	10368.1
592.08	10454.43
592.44	10435.9
592.799	10508.21
593.158	10474.77
593.517	10432.51
593.876	10552.51
594.235	10528.78
594.593	10471.38
594.952	10537.36
595.311	10532.62
595.67	10597.7
596.029	10583.24
596.387	10566.97
596.746	10586.18
597.104	10503.24
597.463	10589.79
597.822	10567.42
598.18	10519.74
598.538	10601.77
598.897	10670.02
599.255	10546.4
599.613	10706.63
599.972	10662.33
600.33	10622.56
600.688	10658.04
601.046	10689.68
601.404	10735.55
601.762	10707.3
602.12	10707.98
602.478	10738.94
602.836	10770.8
603.194	10708.43
603.552	10791.14
603.91	10684.93
604.268	10687.42
604.625	10663.69
604.983	10725.83
605.341	10706.17
605.698	10728.32
606.056	10799.73
606.413	10769.9
606.771	10819.84
607.128	10892.61
607.485	10709.56
607.843	10744.82
608.2	10851.25
608.557	10842.67
608.914	10824.59
609.272	10830.24
609.629	10816.68
609.986	10933.06
610.343	10800.18
610.7	10951.14
611.057	10893.96
611.414	10872.95
611.771	10933.74
612.127	10988.2
612.484	10919.73
612.841	10949.78
613.198	10865.27
613.554	10981.65
613.911	11072.72
614.267	11078.82
614.624	11006.28
614.98	10933.06
615.337	11083.56
615.693	11071.14
616.05	11054.64
616.406	11103
616.762	11032.49
617.118	11041.53
617.475	11077.69
617.831	11152.49
618.187	11073.17
618.543	11141.42
618.899	11144.13
619.255	11136.22
619.611	11148.65
619.967	11135.99
620.323	11184.35
620.678	11140.06
621.034	11158.36
621.39	11141.19
621.746	11099.16
622.101	11270.23
622.457	11161.75
622.812	11140.74
623.168	11206.95
623.523	11148.65
623.879	11229.78
624.234	11095.09
624.589	11154.07
624.945	11078.82
625.3	11170.12
625.655	11157.23
626.01	11143
626.365	11087.41
626.72	11196.56
627.075	11135.09
627.43	11123.56
627.785	11164.24
628.14	11168.99
628.495	11084.24
628.85	11093.96
629.205	11150
629.559	11167.18
629.914	11103.9
630.269	11108.42
630.623	11070.68
630.978	11059.38
631.332	11083.79
631.687	11194.97
632.041	11023.45
632.396	11090.57
632.75	11048.54
633.104	11088.31
633.459	10967.18
633.813	10927.41
634.167	11043.57
634.521	11016.9
634.875	10927.18
635.229	10927.86
635.583	10893.74
635.937	10897.58
636.291	10857.81
636.645	10942.1
636.999	10811.26
637.352	10898.26
637.706	10848.77
638.06	10839.73
638.413	10943
638.767	10846.73
639.121	10823.23
639.474	10750.24
639.828	10733.74
640.181	10809.45
640.534	10793.18
640.888	10740.52
641.241	10712.27
641.594	10668.89
641.947	10729.9
642.301	10746.62
642.654	10672.28
643.007	10735.78
643.36	10728.32
643.713	10699.85
644.066	10716.79
644.419	10692.84
644.771	10575.78
645.124	10483.35
645.477	10525.39
645.83	10484.94
646.182	10447.42
646.535	10323.81
646.888	10377.59
647.24	10307.09
647.593	10278.39
647.945	10357.71
648.298	10309.57
648.65	10201.1
649.002	10230.03
649.355	10393.19
649.707	10324.26
650.059	10357.93
650.411	10507.76
650.763	10512.51
651.115	10588.21
651.467	10539.17
651.819	10538.72
652.171	10566.97
652.523	10486.07
652.875	10493.75
653.227	10520.87
653.578	10537.82
653.93	10557.48
654.282	10488.55
654.633	10495.56
654.985	10457.14
655.337	10467.99
655.688	10480.87
656.039	10584.14
656.391	10515.67
656.742	10542.56
657.094	10509.34
657.445	10527.65
657.796	10546.4
658.147	10537.59
658.498	10493.75
658.849	10519.96
659.2	10500.98
659.551	10527.42
659.902	10506.63
660.253	10525.39
660.604	10594.09
660.955	10540.53
661.306	10611.71
661.656	10580.75
662.007	10538.04
662.358	10524.48
662.708	10587.53
663.059	10539.4
663.409	10514.09
663.76	10590.24
664.11	10571.49
664.461	10582.33
664.811	10631.15
665.161	10551.15
665.511	10490.13
665.862	10559.74
666.212	10527.42
666.562	10630.24
666.912	10583.92
667.262	10553.86
667.612	10574.2
667.962	10527.42
668.312	10562.9
668.662	10569.45
669.011	10417.14
669.361	10529.91
669.711	10484.26
670.06	10558.15
670.41	10513.86
670.76	10502.11
671.109	10466.86
671.459	10464.6
671.808	10512.96
672.157	10505.27
672.507	10364.04
672.856	10494.43
673.205	10421.21
673.554	10459.17
673.904	10459.4
674.253	10518.38
674.602	10424.15
674.951	10326.97
675.3	10244.04
675.649	10398.16
675.998	10418.5
676.346	10363.58
676.695	10391.38
677.044	10279.74
677.393	10358.16
677.741	10327.65
678.09	10307.54
678.438	10240.2
678.787	10366.97
679.135	10302.34
679.484	10262.57
679.832	10259.41
680.181	10237.49
680.529	10255.79
680.877	10187.54
681.225	10191.84
681.573	10255.56
681.922	10146.41
682.27	10151.61
682.618	10068.22
682.966	10115.68
683.314	10132.63
683.661	10094.66
684.009	9983.48
684.357	10023.93
684.705	10031.61
685.053	10041.11
685.4	10024.38
685.748	9957.72
686.095	9913.65
686.443	9911.39
686.79	9919.75
687.138	9925.63
687.485	9844.95
687.832	9790.04
688.18	9829.13
688.527	9718.85
688.874	9736.93
689.221	9686.09
689.568	9712.53
689.915	9687.22
690.262	9667.1
690.609	9656.94
690.956	9561.12
691.303	9562.7
691.65	9528.35
691.997	9498.97
692.344	9419.88
692.69	9453.78
693.037	9415.13
693.383	9320.9
693.73	9377.17
694.077	9280
694.423	9300.33
694.769	9242.26
695.116	9222.14
695.462	9229.83
695.808	9179.89
696.155	9151.64
696.501	9070.06
696.847	9062.83
697.193	9012.88
697.539	9016.05
697.885	9009.27
698.231	8940.12
698.577	8950.51
698.923	8943.73
699.269	8812.89
699.614	8754.59
699.96	8822.61
700.306	8808.14
700.651	8748.26
700.997	8715.04
701.342	8667.81
701.688	8688.37
702.033	8625.32
702.379	8533.58
702.724	8536.96
703.069	8560.47
703.415	8429.85
703.76	8491.32
704.105	8482.95
704.45	8437.98
704.795	8459.23
705.14	8338.33
705.485	8368.16
705.83	8367.48
706.175	8252.68
706.52	8298.78
706.865	8284.99
707.209	8243.87
707.554	8176.3
707.899	8167.03
708.243	8156.41
708.588	8165.45
708.932	8049.07
709.277	8001.61
709.621	8089.74
709.966	8003.65
710.31	8042.97
710.654	7971.33
710.998	7959.58
711.342	7995.06
711.687	7981.73
712.031	7863.99
712.375	7839.13
712.719	7920.48
713.063	7854.27
713.407	7877.55
713.75	7795.97
714.094	7787.38
714.438	7760.71
714.782	7828.06
715.125	7751.9
715.469	7789.87
715.812	7709.64
716.156	7650.66
716.499	7731.56
716.843	7708.29
717.186	7672.58
717.53	7682.07
717.873	7674.39
718.216	7626.71
718.559	7709.64
718.902	7582.87
719.246	7626.25
719.589	7594.39
719.932	7511.46
720.275	7536.54
720.617	7575.86
720.96	7513.71
721.303	7544.22
721.646	7535.41
721.989	7491.34
722.331	7589.65
722.674	7516.65
723.016	7478.69
723.359	7537.67
723.701	7505.13
724.044	7460.83
724.386	7415.19
724.729	7494.51
725.071	7487.27
725.413	7435.07
725.755	7421.74
726.097	7401.18
726.439	7376.54
726.782	7419.25
727.124	7362.76
727.465	7374.51
727.807	7415.86
728.149	7332.48
728.491	7348.3
728.833	7379.48
729.175	7309.65
729.516	7344.45
729.858	7297
730.199	7361.63
730.541	7307.62
730.882	7335.19
731.224	7355.75
731.565	7302.42
731.906	7333.83
732.248	7383.77
732.589	7282.08
732.93	7316.66
733.271	7313.49
733.612	7307.39
733.953	7376.54
734.294	7341.74
734.635	7342.42
734.976	7313.27
735.317	7246.83
735.658	7286.38
735.999	7328.41
736.339	7301.07
736.68	7339.93
737.021	7295.64
737.361	7306.49
737.702	7332.02
738.042	7289.77
738.383	7375.64
738.723	7385.81
739.063	7367.5
739.404	7431.01
739.744	7431.01
740.084	7412.47
740.424	7433.72
740.764	7400.05
741.104	7456.32
741.444	7426.26
741.784	7420.38
742.124	7462.42
742.464	7472.13
742.804	7505.13
743.143	7502.42
743.483	7530.66
743.823	7498.35
744.162	7575.41
744.502	7600.27
744.841	7577.89
745.181	7689.3
745.52	7614.05
745.86	7709.42
746.199	7713.94
746.538	7776.31
746.877	7828.96
747.216	7850.88
747.556	7904.89
747.895	7923.65
748.234	7969.07
748.573	8002.74
748.911	8051.33
749.25	8184.43
749.589	8204.09
749.928	8231.21
750.267	8361.83
750.605	8392.56
750.944	8447.25
751.283	8495.84
751.621	8639.33
751.96	8673.91
752.298	8702.38
752.636	8875.04
752.975	8934.02
753.313	9016.95
753.651	9156.84
753.989	9221.24
754.327	9306.89
754.666	9425.53
755.004	9560.44
755.342	9675.24
755.679	9756.59
756.017	9840.21
756.355	10086.53
756.693	10140.31
757.031	10326.07
757.368	10392.28
757.706	10564.71
758.044	10654.88
758.381	10925.15
758.719	11051.02
759.056	11212.15
759.394	11295.08
759.731	11350.45
760.068	11614.62
760.405	11723.1
760.743	11925.35
761.08	12133.03
761.417	12243.76
761.754	12401.04
762.091	12731.88
762.428	12848.94
762.765	12941.37
763.102	13178.88
763.438	13355.37
763.775	13406.44
764.112	13683.95
764.449	13899.99
764.785	13958.52
765.122	14155.8
765.458	14245.06
765.795	14405.74
766.131	14530.03
766.467	14735.67
766.804	14862
767.14	14942.45
767.476	15184.7
767.812	15292.95
768.148	15551.92
768.485	15511.7
768.821	15741.3
769.157	15837.34
769.492	15940.61
769.828	16157.1
770.164	16135.18
770.5	16326.14
770.836	16439.81
771.171	16521.39
771.507	16650.88
771.842	16670.08
772.178	16897.2
772.513	16929.51
772.849	17007.93
773.184	17087.93
773.519	17177.64
773.855	17290.41
774.19	17415.6
774.525	17456.28
774.86	17609.49
775.195	17682.71
775.53	17725.2
775.865	17690.4
776.2	17649.49
776.535	17783.95
776.87	17818.98
777.205	17866.89
777.539	17936.94
777.874	18060.33
778.209	17943.5
778.543	18077.28
778.878	17976.04
779.212	18162.25
779.547	18151.85
779.881	18258.52
780.215	18188.46
780.55	18216.71
780.884	18295.8
781.218	18279.99
781.552	18308.01
781.886	18231.85
782.22	18248.35
782.554	18277.27
782.888	18222.13
783.222	18261.45
783.556	18168.58
783.889	18284.05
784.223	18120.67
784.557	18128.58
784.89	18244.96
785.224	18175.58
785.557	18064.62
785.891	18221.91
786.224	18132.87
786.558	18153.89
786.891	18105.53
787.224	18086.54
787.557	18012.87
787.891	18042.48
788.224	18114.79
788.557	18118.41
788.89	18105.98
789.223	18133.77
789.556	17936.49
789.888	17960.45
790.221	17961.12
790.554	17874.57
790.887	17802.48
791.219	17851.07
791.552	17892.88
791.884	17739.66
792.217	17716.16
792.549	17791.18
792.882	17721.58
793.214	17654.01
793.546	17738.3
793.879	17681.81
794.211	17542.6
794.543	17703.5
794.875	17605.65
795.207	17608.59
795.539	17489.72
795.871	17570.17
796.203	17358.65
796.535	17421.7
796.867	17355.94
797.198	17349.84
797.53	17304.19
797.862	17197.98
798.193	17173.8
798.525	17141.71
798.856	17177.42
799.188	17038.89
799.519	16978.55
799.85	16921.83
800.182	16899.68
800.513	16972.68
800.844	16780.36
801.175	16780.82
801.506	16914.37
801.837	16754.6
802.168	16725
802.499	16703.98
802.83	16635.28
803.161	16616.53
803.491	16619.01
803.822	16617.88
804.153	16531.78
804.483	16412.24
804.814	16475.74
805.145	16376.08
805.475	16339.92
805.805	16372.01
806.136	16292.92
806.466	16275.74
806.796	16241.17
807.126	16146.03
807.457	16128.63
807.787	16120.04
808.117	16105.58
808.447	15994.85
808.777	16056.77
809.107	15984.45
809.436	15971.57
809.766	16028.52
810.096	15853.83
810.426	15881.86
810.755	15812.71
811.085	15795.31
811.414	15781.29
811.744	15756.89
812.073	15771.35
812.403	15645.7
812.732	15577.68
813.061	15558.48
813.39	15556.44
813.719	15443.45
814.049	15445.48
814.378	15483.22
814.707	15414.3
815.036	15464.69
815.365	15365.49
815.693	15283.45
816.022	15245.94
816.351	15296.56
816.68	15253.85
817.008	15217.69
817.337	15125.72
817.665	15146.73
817.994	15108.77
818.322	15116
818.651	15068.54
818.979	14969.11
819.307	14964.82
819.636	14959.39
819.964	14907.19
820.292	15010.01
820.62	14937.02
820.948	14925.95
821.276	14986.51
821.604	14900.19
821.932	14988.09
822.259	15005.72
822.587	14897.25
822.915	14876.01
823.243	14998.72
823.57	14930.69
823.898	14986.29
824.225	14879.17
824.553	14881.66
824.88	14910.13
825.207	14965.27
825.535	14872.84
825.862	14921.43
826.189	14864.48
826.516	14961.43
826.843	15013.86
827.17	14988.32
827.497	15109.45
827.824	15006.17
828.151	14945.61
828.478	14924.14
828.805	15057.25
829.131	14946.06
829.458	14919.85
829.785	14877.36
830.111	14956.68
830.438	14979.96
830.764	14842.79
831.09	14929.11
831.417	14871.49
831.743	14970.92
832.069	14993.52
832.395	14840.3
832.722	14930.69
833.048	14862.67
833.374	14866.29
833.7	14841.88
834.026	14783.35
834.351	14815.22
834.677	14791.49
835.003	14877.14
835.329	14874.65
835.654	14864.93
835.98	14786.29
836.306	14802.11
836.631	14661.78
836.956	14739.74
837.282	14794.2
837.607	14670.59
837.932	14676.24
838.258	14678.72
838.583	14661.1
838.908	14576.81
839.233	14703.36
839.558	14506.07
839.883	14504.72
840.208	14455.68
840.533	14481.89
840.858	14458.84
841.182	14467.88
841.507	14482.57
841.832	14323.25
842.156	14332.29
842.481	14368.45
842.805	14357.6
843.13	14243.48
843.454	14237.83
843.778	14173.65
844.103	14168
844.427	14216.59
844.751	14176.36
845.075	14144.27
845.399	14071.51
845.723	13979.99
846.047	13908.12
846.371	13821.12
846.695	13861.57
847.019	13821.12
847.343	13763.95
847.666	13661.12
847.99	13558.08
848.313	13573.22
848.637	13434.24
848.96	13429.94
849.284	13471.98
849.607	13360.11
849.931	13266.78
850.254	13253.9
850.577	13153.79
850.9	13067.47
851.223	13147.01
851.546	13109.95
851.869	12900.24
852.192	13027.92
852.515	12828.83
852.838	12869.73
853.161	12894.14
853.483	12811.2
853.806	12781.37
854.129	12660.47
854.451	12586.35
854.774	12528.95
855.096	12554.03
855.419	12521.49
855.741	12533.7
856.063	12472.91
856.385	12444.66
856.708	12399.91
857.03	12175.29
857.352	12241.5
857.674	12237.88
857.996	12139.13
858.318	12117.21
858.64	12173.48
858.961	12077.21
859.283	12076.53
859.605	11929.87
859.926	12003.77
860.248	12022.07
860.57	11870.21
860.891	11952.24
861.212	11865.24
861.534	11818.91
861.855	11771.46
862.176	11806.26
862.498	11773.72
862.819	11774.62
863.14	11745.69
863.461	11779.37
863.782	11651.46
864.103	11688.29
864.424	11615.53
864.745	11695.53
865.065	11588.64
865.386	11484.23
865.707	11527.85
866.027	11522.2
866.348	11472.03
866.668	11493.27
866.989	11467.74
867.309	11355.65
867.63	11409.66
867.95	11489.2
868.27	11358.13
868.59	11362.43
868.91	11349.55
869.23	11350.68
869.55	11209.89
869.87	11274.52
870.19	11262.32
870.51	11268.42
870.83	11262.99
871.15	11193.62
871.469	11199.27
871.789	11210.11
872.109	11188.42
872.428	11101.19
872.748	11146.16
873.067	11133.51
873.386	11129.44
873.706	11111.13
874.025	11059.61
874.344	11064.13
874.663	11054.41
874.982	10931.7
875.301	11070.46
875.62	10957.47
875.939	10930.12
876.258	10886.96
876.577	10917.69
876.896	10861.88
877.214	10853.97
877.533	10810.13
877.852	10846.28
878.17	10842.44
878.489	10795.44
878.807	10816.23
879.125	10736.45
879.444	10751.14
879.762	10711.6
880.08	10700.3
880.398	10695.33
880.716	10680.41
881.034	10651.94
881.352	10697.13
881.67	10556.57
881.988	10643.12
882.306	10562.22
882.624	10529.45
882.941	10431.38
883.259	10522.45
883.577	10446.52
883.894	10438.38
884.212	10495.78
884.529	10458.72
884.846	10356.35
885.164	10333.3
885.481	10343.7
885.798	10367.65
886.115	10201.33
886.432	10256.24
886.75	10177.37
887.067	10187.09
887.383	10141.67
887.7	10154.55
888.017	10082.23
888.334	10153.19
888.651	10066.42
888.967	10067.55
889.284	10050.82
889.6	9980.09
889.917	9930.6
890.233	9935.8
890.55	9856.93
890.866	9874.56
891.182	9838.17
891.498	9814.22
891.815	9820.32
892.131	9747.1
892.447	9691.06
892.763	9674.56
893.079	9708.46
893.395	9641.79
893.71	9563.38
894.026	9612.42
894.342	9579.42
894.657	9537.84
894.973	9513.21
895.289	9460.56
895.604	9410.16
895.92	9374.23
896.235	9281.58
896.55	9344.18
896.865	9296.72
897.181	9282.48
897.496	9239.55
897.811	9203.16
898.126	9227.12
898.441	9104.86
898.756	9106.89
899.071	9070.06
899.386	9061.92
899.7	9027.57
900.015	8985.09
900.33	8855.15
900.644	8860.12
900.959	8876.62
901.273	8886.33
901.588	8901.47
901.902	8818.31
902.216	8786.45
902.531	8730.18
902.845	8703.06
903.159	8610.18
903.473	8696.06
903.787	8539.45
904.101	8570.86
904.415	8531.32
904.729	8533.35
905.042	8510.07
905.356	8420.36
905.67	8406.8
905.984	8405.67
906.297	8347.14
906.611	8345.56
906.924	8290.64
907.237	8290.42
907.551	8212.23
907.864	8189.86
908.177	8173.58
908.491	8116.41
908.804	8089.97
909.117	8077.77
909.43	7982.4
909.743	8001.84
910.056	7924.55
910.368	7943.31
910.681	7880.71
910.994	7831.9
911.307	7867.83
911.619	7773.37
911.932	7788.74
912.244	7696.08
912.557	7664.22
912.869	7650.66
913.181	7638.46
913.494	7581.74
913.806	7559.59
914.118	7466.48
914.43	7426.49
914.742	7433.72
915.054	7448.86
915.366	7418.8
915.678	7431.91
915.99	7301.29
916.302	7312.36
916.613	7288.64
916.925	7239.37
917.236	7284.34
917.548	7202.31
917.859	7211.35
918.171	7109.21
918.482	7142.43
918.794	7038.93
919.105	7081.64
919.416	7032.6
919.727	6969.32
920.038	6982.88
920.349	6866.27
920.66	6851.36
920.971	6901.08
921.282	6895.2
921.593	6786.28
921.903	6794.64
922.214	6774.3
922.525	6733.62
922.835	6686.39
923.146	6678.26
923.456	6663.12
923.767	6607.07
924.077	6562.33
924.387	6558.71
924.697	6544.25
925.008	6526.85
925.318	6509.67
925.628	6467.64
925.938	6458.38
926.248	6406.85
926.558	6375.21
926.867	6391.26
927.177	6372.5
927.487	6316.91
927.796	6241.88
928.106	6259.51
928.416	6232.39
928.725	6227.65
929.034	6191.04
929.344	6124.6
929.653	6139.51
929.962	6106.07
930.271	6035.34
930.581	6022.45
930.89	6006.64
931.199	6069.23
931.508	5965.28
931.817	5997.6
932.125	5934.32
932.434	5902.23
932.743	5868.33
933.051	5861.1
933.36	5829.92
933.669	5793.76
933.977	5765.06
934.286	5760.54
934.594	5755.79
934.902	5743.82
935.21	5717.15
935.519	5680.77
935.827	5670.83
936.135	5603.03
936.443	5546.31
936.751	5556.25
937.059	5596.7
937.367	5509.7
937.674	5539.08
937.982	5511.51
938.29	5483.26
938.597	5455.92
938.905	5407.33
939.213	5356.71
939.52	5300.89
939.827	5329.82
940.135	5293.21
940.442	5245.75
940.749	5302.93
941.056	5289.37
941.363	5176.15
941.67	5156.71
941.977	5160.33
942.284	5147.68
942.591	5144.74
942.898	5152.42
943.205	5104.96
943.511	5100.9
943.818	5056.38
944.125	5007.57
944.431	5008.02
944.738	5006.44
945.044	4937.29
945.35	4931.64
945.657	4891.18
945.963	4899.09
946.269	4834.46
946.575	4846.44
946.881	4798.53
947.187	4806.89
947.493	4805.31
947.799	4798.08
948.105	4755.82
948.41	4759.66
948.716	4684.18
949.022	4702.49
949.327	4681.47
949.633	4657.52
949.938	4622.27
950.244	4646.9
950.549	4644.41
950.854	4607.35
951.16	4597.86
951.465	4544.53
951.77	4497.52
952.075	4489.16
952.38	4494.13
952.685	4495.72
952.99	4418.66
953.294	4383.85
953.599	4383.18
953.904	4403.74
954.209	4389.73
954.513	4389.28
954.818	4353.12
955.122	4351.76
955.426	4251.43
955.731	4308.38
956.035	4286.23
956.339	4209.39
956.643	4213.24
956.948	4221.37
957.252	4152
957.556	4165.55
957.86	4154.93
958.163	4159.23
958.467	4095.5
958.771	4129.62
959.075	4101.15
959.378	4019.57
959.682	4057.99
959.985	4048.5
960.289	3978.89
960.592	3973.47
960.896	3972.11
961.199	3923.53
961.502	3921.04
961.805	3910.19
962.108	3895.73
962.411	3907.03
962.714	3866.35
963.017	3870.42
963.32	3834.94
963.623	3783.42
963.926	3789.52
964.228	3810.08
964.531	3747.03
964.833	3727.15
965.136	3744.32
965.438	3718.11
965.741	3723.76
966.043	3680.6
966.345	3659.13
966.648	3660.93
966.95	3672.91
967.252	3597.89
967.554	3627.26
967.856	3563.76
968.158	3554.5
968.46	3606.02
968.761	3559.69
969.063	3522.86
969.365	3527.83
969.666	3520.15
969.968	3497.78
970.269	3458
970.571	3444.22
970.872	3449.64
971.174	3425.91
971.475	3426.14
971.776	3425.46
972.077	3347.5
972.378	3357.67
972.679	3382.3
972.98	3330.55
973.281	3346.59
973.582	3346.14
973.883	3324.67
974.183	3354.05
974.484	3255.97
974.785	3241.74
975.085	3239.48
975.386	3230.89
975.686	3220.04
975.986	3218.69
976.287	3220.72
976.587	3170.1
976.887	3138.46
977.187	3139.14
977.487	3128.07
977.787	3161.74
978.087	3102.98
978.387	3099.59
978.687	3062.98
978.987	3052.59
979.286	3045.81
979.586	3047.17
979.885	3007.39
980.185	3030.22
980.484	2988.18
980.784	2977.11
981.083	2954.06
981.382	2915.19
981.682	2932.37
981.981	2926.49
982.28	2935.76
982.579	2859.83
982.878	2885.36
983.177	2883.55
983.475	2943.67
983.774	2864.12
984.073	2847.62
984.372	2803.56
984.67	2795.19
984.969	2809.66
985.267	2781.86
985.566	2748.42
985.864	2737.34
986.162	2729.66
986.461	2725.59
986.759	2716.33
987.057	2678.81
987.355	2674.97
987.653	2689.21
987.951	2676.1
988.249	2640.62
988.547	2616.67
988.844	2634.07
989.142	2617.8
989.44	2654.18
989.737	2566.73
990.035	2599.72
990.332	2597.23
990.63	2548.65
990.927	2562.43
991.224	2578.48
991.521	2523.56
991.819	2506.84
992.116	2507.52
992.413	2474.3
992.71	2475.43
993.006	2460.51
993.303	2426.62
993.6	2442.89
993.897	2454.41
994.193	2423.68
994.49	2404.7
994.787	2399.27
995.083	2374.19
995.379	2362.21
995.676	2359.27
995.972	2329.22
996.268	2346.39
996.565	2346.85
996.861	2334.19
997.157	2295.77
997.453	2299.16
997.749	2294.64
998.044	2271.59
998.34	2281.76
998.636	2257.81
998.932	2253.74
999.227	2206.06
999.523	2227.07
999.818	2222.33
1000.114	2141.2
1000.409	2187.08
1000.704	2121.99
1001	2160.86
1001.295	2143.01
1001.59	2133.29
1001.885	2119.96
1002.18	2128.32
1002.475	2071.82
1002.77	2081.99
1003.065	2058.72
1003.359	2067.08
1003.654	2019.17
1003.949	2027.98
1004.243	2027.53
1004.538	2028.44
1004.832	1999.06
1005.127	1981.43
1005.421	1967.42
1005.715	1974.65
1006.009	1985.27
1006.304	1947.99
1006.598	1911.38
1006.892	1937.14
1007.186	1926.52
1007.48	1915.44
1007.773	1895.56
1008.067	1870.93
1008.361	1894.2
1008.655	1865.28
1008.948	1846.07
1009.242	1845.16
1009.535	1843.81
1009.829	1834.99
1010.122	1824.82
1010.415	1826.18
1010.708	1761.78
1011.001	1796.13
1011.295	1784.15
1011.588	1754.77
1011.881	1775.11
1012.173	1791.83
1012.466	1725.62
1012.759	1756.13
1013.052	1717.71
1013.344	1682.23
1013.637	1686.75
1013.93	1679.74
1014.222	1713.19
1014.514	1666.19
1014.807	1619.18
1015.099	1641.78
1015.391	1648.11
1015.683	1627.99
1015.976	1586.87
1016.268	1632.06
1016.56	1592.06
1016.851	1580.31
1017.143	1562.23
1017.435	1571.05
1017.727	1581.22
1018.018	1528.56
1018.31	1542.12
1018.602	1510.71
1018.893	1547.54
1019.185	1474.55
1019.476	1489.01
1019.767	1497.15
1020.058	1478.39
1020.35	1453.31
1020.641	1431.39
1020.932	1448.11
1021.223	1410.82
1021.514	1422.12
1021.804	1424.38
1022.095	1426.87
1022.386	1402.92
1022.677	1380.77
1022.967	1373.99
1023.258	1379.86
1023.548	1366.31
1023.839	1358.17
1024.129	1359.3
1024.419	1342.35
1024.709	1314.1
1025	1322.24
1025.29	1307.32
1025.58	1293.09
1025.87	1269.81
1026.16	1288.12
1026.449	1311.17
1026.739	1284.27
1027.029	1274.56
1027.319	1262.58
1027.608	1245.86
1027.898	1238.85
1028.187	1202.24
1028.477	1201.34
1028.766	1238.85
1029.055	1218.06
1029.344	1179.87
1029.634	1206.08
1029.923	1197.04
1030.212	1164.05
1030.501	1151.62
1030.79	1167.67
1031.078	1137.61
1031.367	1153.66
1031.656	1135.8
1031.945	1129.48
1032.233	1152.75
1032.522	1097.84
1032.81	1113.43
1033.099	1116.14
1033.387	1117.05
1033.675	1065.3
1033.963	1078.18
1034.251	1070.04
1034.54	1070.27
1034.828	1076.14
1035.116	1050.61
1035.403	1039.76
1035.691	1040.89
1035.979	1025.98
1036.267	1005.64
1036.554	1008.58
1036.842	999.76
1037.129	987.33
1037.417	996.15
1037.704	977.62
1037.992	993.89
1038.279	990.04
1038.566	950.72
1038.853	950.72
1039.14	950.72
