Data from hue_10_FLMS001491_90.txt Node
Date: Mon Feb 06 15:32:42 GMT 2017
User: dcchb
Spectrometer: FLMS00149
Trigger mode: 0
Integration Time (sec): 2.000000E-2
Scans to average: 10
Electric dark correction enabled: true
Nonlinearity correction enabled: false
Boxcar width: 0
XAxis mode: Wavelengths
Number of Pixels in Spectrum: 2048
>>>>>Begin Spectral Data<<<<<
341.393	-19.66
341.776	-19.66
342.16	-19.66
342.543	-80.68
342.927	-52.88
343.31	-44.97
343.693	-92.2
344.077	-58.3
344.46	-72.54
344.843	-62.37
345.226	-32.32
345.61	-34.58
345.993	-3.39
346.376	-14.01
346.759	-2.26
347.142	37.97
347.525	35.48
347.908	61.69
348.291	78.87
348.674	83.84
349.057	119.09
349.44	127.68
349.823	131.52
350.206	163.84
350.588	187.79
350.971	212.88
351.354	219.88
351.737	236.38
352.119	257.85
352.502	252.65
352.884	267.56
353.267	280.67
353.65	301.24
354.032	313.66
354.414	298.98
354.797	305.3
355.179	317.05
355.562	309.82
355.944	336.94
356.326	346.88
356.709	340.56
357.091	324.96
357.473	336.26
357.855	331.29
358.238	330.16
358.62	343.04
359.002	351.18
359.384	337.17
359.766	345.3
360.148	346.43
360.53	330.61
360.912	331.06
361.294	315.47
361.676	341.01
362.057	327.9
362.439	325.42
362.821	333.32
363.203	323.16
363.584	327.45
363.966	322.7
364.348	333.1
364.729	344.85
365.111	316.38
365.493	312.53
365.874	319.77
366.256	327
366.637	319.77
367.019	299.65
367.4	343.49
367.781	321.57
368.163	334.45
368.544	313.89
368.925	303.04
369.306	338.75
369.688	308.47
370.069	307.34
370.45	315.02
370.831	305.53
371.212	315.92
371.593	323.83
371.974	318.86
372.355	313.89
372.736	319.99
373.117	327.9
373.498	333.55
373.879	310.27
374.26	329.26
374.641	329.26
375.021	315.92
375.402	306.21
375.783	304.4
376.163	342.59
376.544	321.35
376.925	311.18
377.305	338.52
377.686	334.23
378.066	328.13
378.447	318.86
378.827	330.61
379.208	357.28
379.588	346.21
379.968	322.03
380.349	359.54
380.729	320.22
381.109	317.51
381.489	328.13
381.87	334.23
382.25	343.27
382.63	325.42
383.01	326.09
383.39	344.17
383.77	325.42
384.15	337.17
384.53	352.53
384.91	348.69
385.29	320.44
385.67	346.66
386.049	367.67
386.429	343.27
386.809	340.56
387.189	349.82
387.568	335.13
387.948	351.4
388.328	366.54
388.707	362.02
389.087	336.94
389.466	360.67
389.846	360.89
390.225	359.76
390.605	366.09
390.984	355.7
391.363	344.4
391.743	372.42
392.122	350.27
392.501	355.02
392.881	374.91
393.26	373.1
393.639	368.35
394.018	371.97
394.397	367.45
394.776	385.3
395.155	369.03
395.534	385.75
395.913	363.83
396.292	362.02
396.671	365.19
397.05	361.35
397.429	358.86
397.808	375.58
398.186	372.19
398.565	373.1
398.944	377.39
399.323	382.14
399.701	373.32
400.08	353.89
400.458	402.25
400.837	375.81
401.215	401.12
401.594	386.66
401.972	387.56
402.351	386.66
402.729	404.74
403.107	406.09
403.486	410.16
403.864	411.06
404.242	406.54
404.62	403.38
404.999	406.99
405.377	412.87
405.755	395.02
406.133	398.18
406.511	400.44
406.889	418.29
407.267	395.92
407.645	427.11
408.023	414.23
408.401	444.28
408.779	409.25
409.156	430.05
409.534	410.16
409.912	436.37
410.29	434.34
410.667	427.11
411.045	434.34
411.422	431.18
411.8	458.74
412.178	461.46
412.555	461.46
412.933	452.42
413.31	437.05
413.687	451.51
414.065	461.68
414.442	464.39
414.819	464.85
415.197	477.5
415.574	461.46
415.951	465.52
416.328	482.25
416.705	465.07
417.082	477.05
417.46	488.57
417.837	486.54
418.214	495.35
418.591	498.74
418.967	493.77
419.344	491.06
419.721	494.9
420.098	508.46
420.475	502.13
420.852	504.85
421.228	491.74
421.605	492.64
421.982	501.23
422.358	525.86
422.735	505.98
423.111	527.67
423.488	538.29
423.864	510.5
424.241	528.12
424.617	519.99
424.994	519.31
425.37	543.94
425.746	523.38
426.123	552.53
426.499	552.98
426.875	543.04
427.251	570.83
427.627	566.99
428.003	568.35
428.379	569.25
428.756	579.65
429.132	563.15
429.507	574
429.883	572.64
430.259	600.66
430.635	557.5
431.011	596.37
431.387	607.22
431.763	612.19
432.138	609.25
432.514	606.99
432.89	607.22
433.265	633.43
433.641	612.87
434.016	613.54
434.392	623.49
434.767	649.93
435.143	651.51
435.518	644.73
435.894	659.87
436.269	663.49
436.644	675.46
437.02	664.84
437.395	670.04
437.77	642.92
438.145	700.77
438.52	685.18
438.895	698.51
439.271	709.36
439.646	700.32
440.021	720.43
440.395	712.52
440.77	709.81
441.145	719.08
441.52	711.62
441.895	714.56
442.27	727.21
442.645	710.49
443.019	747.1
443.394	729.47
443.769	729.47
444.143	732.64
444.518	733.31
444.892	730.83
445.267	748
445.641	773.54
446.016	761.56
446.39	766.76
446.764	763.6
447.139	750.71
447.513	768.34
447.887	763.6
448.262	768.57
448.636	794.1
449.01	775.57
449.384	795.01
449.758	797.27
450.132	799.75
450.506	779.64
450.88	780.77
451.254	813.09
451.628	807.21
452.002	805.85
452.376	839.75
452.75	835.46
453.123	822.58
453.497	858.73
453.871	850.6
454.244	862.35
454.618	877.04
454.992	854.67
455.365	884.5
455.739	903.71
456.112	912.07
456.486	890.6
456.859	923.37
457.232	920.43
457.606	900.99
457.979	901.67
458.352	939.86
458.725	953.65
459.099	964.72
459.472	971.05
459.845	971.27
460.218	975.12
460.591	1006.53
460.964	999.07
461.337	1023.25
461.71	1039.07
462.083	1035.68
462.456	1017.83
462.829	1056.92
463.201	1050.37
463.574	1044.49
463.947	1068.9
464.32	1078.39
464.692	1081.78
465.065	1122.46
465.438	1121.1
465.81	1124.94
466.183	1157.03
466.555	1147.99
466.928	1177.6
467.3	1146.41
467.672	1190.03
468.045	1216.24
468.417	1199.06
468.789	1233.19
469.161	1249.01
469.534	1264.37
469.906	1287.2
470.278	1273.19
470.65	1313.86
471.022	1345.73
471.394	1347.54
471.766	1357.7
472.138	1378.27
472.51	1402.45
472.882	1441.54
473.253	1446.06
473.625	1455.55
473.997	1487.19
474.369	1506.63
474.74	1497.59
475.112	1537.81
475.484	1550.02
475.855	1574.65
476.227	1611.03
476.598	1656.23
476.97	1642.67
477.341	1689.67
477.713	1746.62
478.084	1736.23
478.455	1800.86
478.827	1783.68
479.198	1847.41
479.569	1852.83
479.94	1908.2
480.311	1911.36
480.682	1977.58
481.053	2023.68
481.424	2065.03
481.795	2049.89
482.166	2126.5
482.537	2140.96
482.908	2194.29
483.279	2217.34
483.65	2252.6
484.021	2315.65
484.391	2315.42
484.762	2365.59
485.133	2393.84
485.503	2405.36
485.874	2483.1
486.244	2514.74
486.615	2564.45
486.985	2603.77
487.356	2681.96
487.726	2658.01
488.097	2748.18
488.467	2742.75
488.837	2802.19
489.207	2821.85
489.578	2856.87
489.948	2930.09
490.318	2968.74
490.688	2988.85
491.058	3084.89
491.428	3078.34
491.798	3136.64
492.168	3215.06
492.538	3194.49
492.908	3241.95
493.278	3271.78
493.648	3304.32
494.017	3338.67
494.387	3365.11
494.757	3406.01
495.126	3458.89
495.496	3439.91
495.866	3473.35
496.235	3540.47
496.605	3579.79
496.974	3625.67
497.344	3651.43
497.713	3666.57
498.082	3710.18
498.452	3713.35
498.821	3749.05
499.19	3803.97
499.559	3814.36
499.928	3824.53
500.298	3863.85
500.667	3881.93
501.036	3899.11
501.405	3916.96
501.774	3944.3
502.143	3962.83
502.512	3957.64
502.88	4012.55
503.249	4020.23
503.618	4034.02
503.987	4064.07
504.356	4116.73
504.724	4117.63
505.093	4163.05
505.462	4149.27
505.83	4154.92
506.199	4211.41
506.567	4260.68
506.936	4229.27
507.304	4272.2
507.672	4336.38
508.041	4352.88
508.409	4337.29
508.777	4387.91
509.145	4399.43
509.514	4390.17
509.882	4455.93
510.25	4459.54
510.618	4464.97
510.986	4480.79
511.354	4490.73
511.722	4562.59
512.09	4554.91
512.458	4576.83
512.826	4657.05
513.193	4609.14
513.561	4650.73
513.929	4668.13
514.297	4712.64
514.664	4706.99
515.032	4677.62
515.4	4767.11
515.767	4754
516.135	4797.39
516.502	4744.28
516.869	4837.39
517.237	4809.82
517.604	4795.81
517.972	4911.28
518.339	4891.62
518.706	4863.83
519.073	4890.27
519.44	4909.25
519.808	4986.54
520.175	4936.37
520.542	5001.68
520.909	4983.37
521.276	5019.53
521.643	5032.86
522.009	5092.52
522.376	5096.36
522.743	5126.87
523.11	5174.55
523.477	5156.7
523.843	5215.68
524.21	5246.87
524.577	5308.56
524.943	5334.77
525.31	5313.08
525.676	5322.8
526.043	5396.69
526.409	5363.47
526.776	5479.4
527.142	5512.4
527.508	5507.65
527.874	5558.95
528.241	5554.2
528.607	5586.52
528.973	5610.25
529.339	5617.93
529.705	5702
530.071	5680.08
530.437	5730.02
530.803	5713.75
531.169	5789.45
531.535	5772.28
531.901	5778.61
532.267	5847.08
532.632	5859.73
532.998	5892.05
533.364	5925.49
533.73	5872.16
534.095	5948.32
534.461	5950.35
534.826	5982.44
535.192	6057.24
535.557	6053.17
535.923	6101.08
536.288	6070.57
536.653	6127.07
537.019	6094.08
537.384	6151.25
537.749	6218.37
538.114	6212.49
538.479	6210.91
538.845	6244.81
539.21	6281.87
539.575	6259.04
539.94	6307.86
540.305	6372.04
540.67	6374.3
541.034	6412.03
541.399	6455.65
541.764	6400.51
542.129	6457.46
542.494	6522.77
542.858	6562.09
543.223	6560.73
543.587	6598.02
543.952	6574.52
544.316	6587.17
544.681	6620.62
545.045	6671.24
545.41	6698.35
545.774	6751.46
546.138	6765.02
546.503	6836.88
546.867	6777.9
547.231	6847.96
547.595	6862.42
547.959	6969.99
548.324	6859.25
548.688	6897.45
549.052	6951
549.416	6957.11
549.779	7032.58
550.143	6993.04
550.507	7074.84
550.871	7031.45
551.235	7082.53
551.599	7100.15
551.962	7118.23
552.326	7187.83
552.689	7189.42
553.053	7159.13
553.417	7195.29
553.78	7307.15
554.143	7209.98
554.507	7304.44
554.87	7344.21
555.234	7378.11
555.597	7386.25
555.96	7444.78
556.323	7398.68
556.686	7424.21
557.05	7486.81
557.413	7470.76
557.776	7491.33
558.139	7521.16
558.502	7589.18
558.865	7557.09
559.228	7569.97
559.59	7640.93
559.953	7633.7
560.316	7762.06
560.679	7749.63
561.041	7724.77
561.404	7716.63
561.767	7842.73
562.129	7798.44
562.492	7901.04
562.854	7880.47
563.217	7881.83
563.579	7993.01
563.941	7979.23
564.304	7979.68
564.666	8050.86
565.028	8022.84
565.39	8089.05
565.753	8128.37
566.115	8149.39
566.477	8219.9
566.839	8209.73
567.201	8196.85
567.563	8219.22
567.925	8293.79
568.287	8341.93
568.648	8371.53
569.01	8386.45
569.372	8409.04
569.734	8413.79
570.095	8529.95
570.457	8536.27
570.819	8616.5
571.18	8594.35
571.542	8680.68
571.903	8689.26
572.265	8686.55
572.626	8765.42
572.987	8784.63
573.349	8791.63
573.71	8899.88
574.071	8891.52
574.432	8964.96
574.794	9075.02
575.155	9121.57
575.516	9115.47
575.877	9221
576.238	9279.76
576.599	9393.2
576.96	9438.4
577.32	9443.59
577.681	9597.71
578.042	9702.57
578.403	9759.07
578.763	9850.81
579.124	9875.22
579.485	9991.83
579.845	10149.34
580.206	10130.36
580.566	10267.07
580.927	10433.17
581.287	10612.83
581.648	10678.82
582.008	10848.3
582.368	10966.72
582.728	11107.73
583.089	11218.69
583.449	11290.1
583.809	11458.68
584.169	11672.01
584.529	11749.52
584.889	12093.24
585.249	12227.25
585.609	12361.03
585.969	12651.64
586.329	12779.78
586.688	13026.1
587.048	13105.64
587.408	13410.27
587.768	13584.05
588.127	13819.07
588.487	13964.38
588.846	14475.1
589.206	14563.46
589.565	14836.67
589.925	15111.69
590.284	15321.18
590.643	15646.14
591.003	15847.49
591.362	16112.34
591.721	16402.05
592.08	16644.53
592.44	17019.44
592.799	17205.88
593.158	17453.78
593.517	17810.15
593.876	18118.17
594.235	18377.6
594.593	18668.21
594.952	19067.75
595.311	19259.61
595.67	19660.27
596.029	19998.34
596.387	20366.02
596.746	20534.38
597.104	20742.05
597.463	21135.72
597.822	21552.65
598.18	21690.5
598.538	21964.62
598.897	22446.87
599.255	22445.74
599.613	23086.62
599.972	23298.6
600.33	23653.16
600.688	23845.47
601.046	24210.21
601.404	24698.33
601.762	24810.87
602.12	25274.36
602.478	25498.31
602.836	25720.45
603.194	25829.15
603.552	26294.45
603.91	26430.04
604.268	26776.7
604.625	27015.79
604.983	27295.33
605.341	27591.59
605.698	27896.67
606.056	28184.8
606.413	28374.4
606.771	28657.55
607.128	28977.32
607.485	29027.71
607.843	29348.15
608.2	29724.19
608.557	30075.59
608.914	30182.71
609.272	30416.15
609.629	30737.72
609.986	31015.46
610.343	31057.26
610.7	31570.92
611.057	31820.86
611.414	31749.9
611.771	32090.46
612.127	32268.76
612.484	32576.77
612.841	32801.17
613.198	32815.41
613.554	32903.09
613.911	33245.68
614.267	33354.15
614.624	33505.79
614.98	33907.58
615.337	34084.3
615.693	34249.95
616.05	34389.38
616.406	34604.06
616.762	34702.14
617.118	34836.6
617.475	35049.93
617.831	35335.79
618.187	35406.75
618.543	35525.17
618.899	35809.23
619.255	35913.41
619.611	35938.72
619.967	36180.74
620.323	36464.8
620.678	36325.6
621.034	36381.64
621.39	36467.29
621.746	36571.92
622.101	37221.17
622.457	36876.09
622.812	37115.63
623.168	37366.02
623.523	37408.51
623.879	37539.8
624.234	37291.22
624.589	37639.01
624.945	37674.72
625.3	37906.12
625.655	37827.25
626.01	37864.54
626.365	38073.8
626.72	38045.33
627.075	38147.7
627.43	38194.25
627.785	38245.32
628.14	38345.66
628.495	38582.04
628.85	38287.58
629.205	38389.73
629.559	38632.2
629.914	38499.55
630.269	38627.01
630.623	38520.57
630.978	38465.66
631.332	38705.42
631.687	38841.69
632.041	38696.16
632.396	38897.96
632.75	38742.26
633.104	38823.61
633.459	38605.31
633.813	38601.02
634.167	38751.07
634.521	38772.99
634.875	38865.64
635.229	38836.72
635.583	38589.49
635.937	38924.63
636.291	38833.33
636.645	38732.31
636.999	38790.17
637.352	38882.59
637.706	38724.41
638.06	38951.29
638.413	38765.53
638.767	38773.67
639.121	38798.75
639.474	38591.75
639.828	38625.88
640.181	38813.44
640.534	38799.88
640.888	38713.56
641.241	38500.91
641.594	38613.9
641.947	38659.1
642.301	38647.12
642.654	38601.24
643.007	38614.35
643.36	38566.67
643.713	38513.56
644.066	38816.38
644.419	38479.44
644.771	38233.34
645.124	37952.9
645.477	37788.16
645.83	37861.83
646.182	37643.76
646.535	37528.05
646.888	37577.99
647.24	37425.23
647.593	37674.04
647.945	37494.83
648.298	37411.22
648.65	37429.52
649.002	37231.34
649.355	37480.82
649.707	37255.29
650.059	37506.58
650.411	37892.79
650.763	38077.64
651.115	38495.71
651.467	38184.31
651.819	38141.82
652.171	38093.46
652.523	38010.75
652.875	38090.52
653.227	37974.82
653.578	38219.56
653.93	38111.09
654.282	37901.6
654.633	37928.04
654.985	38134.82
655.337	38019.79
655.688	37950.19
656.039	38049.62
656.391	37875.16
656.742	37921.71
657.094	37906.8
657.445	37915.16
657.796	37809.18
658.147	37862.28
658.498	37733.02
658.849	37956.74
659.2	37834.49
659.551	37791.55
659.902	37955.61
660.253	37799.68
660.604	37794.03
660.955	37681.5
661.306	37772.57
661.656	37842.39
662.007	37789.74
662.358	37771.21
662.708	37742.06
663.059	37762.4
663.409	37534.38
663.76	37744.32
664.11	37744.54
664.461	37850.3
664.811	37676.3
665.161	37679.24
665.511	37580.93
665.862	37819.8
666.212	37744.09
666.562	37684.21
666.912	37785
667.262	37624.55
667.612	37587.03
667.962	37567.83
668.312	37669.74
668.662	37805.33
669.011	37583.64
669.361	37691.66
669.711	37620.03
670.06	37514.04
670.41	37335.52
670.76	37563.08
671.109	37605.34
671.459	37432.69
671.808	37488.96
672.157	37514.95
672.507	37234.05
672.856	37272.01
673.205	37348.62
673.554	37479.01
673.904	37453.7
674.253	37434.72
674.602	37387.49
674.951	36864.34
675.3	36620.96
675.649	37337.1
675.998	37222.52
676.346	37263.65
676.695	37385.68
677.044	36952.93
677.393	37236.08
677.741	37196.31
678.09	37131.68
678.438	37102.75
678.787	36991.57
679.135	37202.64
679.484	36840.61
679.832	36914.74
680.181	36872.93
680.529	36971.68
680.877	36821.63
681.225	36852.36
681.573	36937.33
681.922	36706.15
682.27	36632.48
682.618	36688.3
682.966	36615.31
683.314	36638.81
683.661	36626.16
684.009	36392.26
684.357	36354.52
684.705	36306.62
685.053	36272.49
685.4	36212.83
685.748	35996.57
686.095	36043.8
686.443	35740.53
686.79	35968.32
687.138	35932.16
687.485	35891.94
687.832	35742.56
688.18	35746.4
688.527	35570.14
688.874	35623.24
689.221	35539.4
689.568	35408.11
689.915	35299.18
690.262	35296.7
690.609	35045.86
690.956	35119.08
691.303	34938.52
691.65	34897.39
691.997	34980.78
692.344	34778.29
692.69	34785.53
693.037	34661.46
693.383	34519.77
693.73	34610.16
694.077	34305.54
694.423	34380.79
694.769	34415.37
695.116	34155.94
695.462	34098.31
695.808	34050.63
696.155	34107.13
696.501	33873.01
696.847	33778.55
697.193	33597.99
697.539	33724.31
697.885	33392.57
698.231	33423.98
698.577	33530.19
698.923	33252.23
699.269	33160.03
699.614	32994.84
699.96	32973.82
700.306	32926.37
700.651	32943.54
700.997	32648.18
701.342	32676.2
701.688	32638.01
702.033	32574.74
702.379	32595.3
702.724	32384.23
703.069	32423.1
703.415	32042.1
703.76	32065.15
704.105	32199.15
704.45	32038.93
704.795	31877.81
705.14	31760.97
705.485	31896.11
705.83	31665.16
706.175	31708.77
706.52	31515.78
706.865	31431.94
707.209	31483.24
707.554	31341.1
707.899	31400.76
708.243	31224.26
708.588	31162.34
708.932	30931.39
709.277	30907.66
709.621	30965.29
709.966	30731.4
710.31	30888.45
710.654	30540.44
710.998	30554.68
711.342	30518.52
711.687	30485.75
712.031	30243.72
712.375	30233.1
712.719	30347.9
713.063	30200.79
713.407	30385.42
713.75	30160.79
714.094	30145.42
714.438	29937.74
714.782	30047.12
715.125	29947.91
715.469	29969.38
715.812	29859.55
716.156	29733.23
716.499	29650.07
716.843	29758.99
717.186	29611.42
717.53	29730.07
717.873	29596.74
718.216	29535.49
718.559	29489.39
718.902	29157.88
719.246	29297.76
719.589	29221.83
719.932	29127.14
720.275	29167.14
720.617	29045.11
720.96	29195.62
721.303	28985
721.646	29044.89
721.989	28738
722.331	28948.62
722.674	28817.77
723.016	28726.02
723.359	28645.57
723.701	28744.1
724.044	28546.82
724.386	28413.49
724.729	28546.82
725.071	28519.48
725.413	28368.07
725.755	28387.05
726.097	28279.71
726.439	28202.65
726.782	28195.42
727.124	28265.92
727.465	28135.76
727.807	28072.48
728.149	28177.34
728.491	28000.39
728.833	27977.57
729.175	27843.56
729.516	27703
729.858	27813.28
730.199	27802.43
730.541	27660.97
730.882	27899.15
731.224	27846.95
731.565	27637.92
731.906	27553.85
732.248	27524.93
732.589	27574.19
732.93	27353.63
733.271	27474.76
733.612	27396.57
733.953	27445.61
734.294	27332.16
734.635	27211.26
734.976	27330.81
735.317	27104.82
735.658	27131.04
735.999	27110.47
736.339	26985.51
736.68	27161.55
737.021	27062.34
737.361	26968.1
737.702	27060.98
738.042	26952.06
738.383	26802.46
738.723	26922.91
739.063	26792.06
739.404	26977.37
739.744	26708.22
740.084	26595.46
740.424	26778.5
740.764	26555.69
741.104	26700.31
741.444	26570.37
741.784	26512.52
742.124	26538.51
742.464	26338.29
742.804	26264.17
743.143	26362.47
743.483	26343.49
743.823	26215.36
744.162	26211.06
744.502	26262.13
744.841	26131.97
745.181	26173.55
745.52	26087.9
745.86	26169.03
746.199	26036.6
746.538	26119.54
746.877	26068.47
747.216	25983.5
747.556	25942.37
747.895	25898.08
748.234	25816.95
748.573	25917.51
748.911	25723.39
749.25	25775.37
749.589	25657.18
749.928	25649.27
750.267	25727.01
750.605	25606.78
750.944	25563.4
751.283	25474.58
751.621	25531.98
751.96	25418.54
752.298	25467.58
752.636	25277.08
752.975	25190.52
753.313	25160.02
753.651	25284.31
753.989	25120.24
754.327	25061.26
754.666	24945.11
755.004	25031.66
755.342	25093.13
755.679	24831.21
756.017	24721.16
756.355	24823.08
756.693	24768.16
757.031	24741.95
757.368	24549.41
757.706	24583.31
758.044	24363.88
758.381	24539.47
758.719	24407.72
759.056	24411.79
759.394	24312.36
759.731	24119.37
760.068	24264.22
760.405	24120.72
760.743	23958.92
761.08	24020.61
761.417	23849.99
761.754	23854.51
762.091	23759.15
762.428	23662.65
762.765	23661.98
763.102	23669.43
763.438	23461.98
763.775	23456.33
764.112	23431.47
764.449	23459.72
764.785	23316.22
765.122	23267.18
765.458	23154.87
765.795	23044.82
766.131	23059.96
766.467	22996.46
766.804	22852.96
767.14	22872.17
767.476	22758.95
767.812	22756.01
768.148	22524.61
768.485	22451.39
768.821	22376.36
769.157	22360.99
769.492	22396.02
769.828	22222.47
770.164	22051.4
770.5	22099.08
770.836	22001.68
771.171	21871.06
771.507	21876.26
771.842	21761.69
772.178	21759.88
772.513	21628.13
772.849	21567.57
773.184	21497.97
773.519	21480.79
773.855	21342.94
774.19	21284.64
774.525	21224.98
774.86	21168.93
775.195	21070.41
775.53	21006.45
775.865	20850.75
776.2	20710.87
776.535	20627.25
776.87	20674.94
777.205	20594.49
777.539	20506.13
777.874	20520.59
778.209	20286.25
778.543	20253.48
778.878	20145.01
779.212	20104.33
779.547	20057.33
779.881	20136.42
780.215	19762.42
780.55	19879.03
780.884	19723.78
781.218	19706.15
781.552	19741.4
781.886	19741.4
782.22	19449.88
782.554	19528.07
782.888	19290.57
783.222	19196.78
783.556	19096.67
783.889	19170.57
784.223	18998.37
784.557	18963.34
784.89	19018.71
785.224	18807.87
785.557	18727.64
785.891	18761.09
786.224	18675.67
786.558	18711.15
786.891	18573.07
787.224	18373.75
787.557	18450.81
787.891	18435.9
788.224	18327.65
788.557	18306.64
788.89	18331.95
789.223	18249.92
789.556	18071.84
789.888	18073.65
790.221	18036.36
790.554	17864.39
790.887	17878.17
791.219	17780.55
791.552	17702.13
791.884	17627.11
792.217	17575.58
792.549	17592.08
792.882	17413.1
793.214	17329.26
793.546	17365.19
793.879	17203.39
794.211	17161.13
794.543	17131.75
794.875	17095.6
795.207	17089.95
795.539	17040.91
795.871	17017.86
796.203	16753.01
796.535	16712.33
796.867	16783.06
797.198	16760.01
797.53	16633.46
797.862	16508.94
798.193	16535.84
798.525	16468.27
798.856	16461.94
799.188	16272.79
799.519	16239.8
799.85	16135.85
800.182	16150.76
800.513	16103.53
800.844	16012.69
801.175	16064.21
801.506	15962.52
801.837	15954.61
802.168	15905.34
802.499	15836.19
802.83	15732.92
803.161	15761.39
803.491	15729.08
803.822	15682.3
804.153	15650.89
804.483	15496.32
804.814	15442.53
805.145	15466.94
805.475	15456.32
805.805	15390.1
806.136	15387.17
806.466	15371.8
806.796	15308.3
807.126	15200.73
807.457	15106.95
807.787	15201.18
808.117	15107.63
808.447	14919.61
808.777	14991.24
809.107	14948.08
809.436	14927.29
809.766	14967.06
810.096	14837.35
810.426	14774.98
810.755	14875.09
811.085	14811.81
811.414	14712.16
811.744	14590.35
812.073	14569.33
812.403	14565.94
812.732	14524.59
813.061	14474.2
813.39	14378.6
813.719	14352.16
814.049	14496.79
814.378	14379.96
814.707	14287.08
815.036	14326.85
815.365	14134.32
815.693	14145.84
816.022	14160.31
816.351	14093.64
816.68	14015
817.008	14011.61
817.337	13984.72
817.665	13906.98
817.994	13891.39
818.322	13843.03
818.651	13803.93
818.979	13846.42
819.307	13843.03
819.636	13792.86
819.964	13729.13
820.292	13743.59
820.62	13747.21
820.948	13694.33
821.276	13680.54
821.604	13604.61
821.932	13697.27
822.259	13711.28
822.587	13710.15
822.915	13631.96
823.243	13705.18
823.57	13637.16
823.898	13582.69
824.225	13591.06
824.553	13562.58
824.88	13642.13
825.207	13629.92
825.535	13579.53
825.862	13600.55
826.189	13554.22
826.516	13631.28
826.843	13710.15
827.17	13741.79
827.497	13599.64
827.824	13543.15
828.151	13582.92
828.478	13584.5
828.805	13595.8
829.131	13560.55
829.458	13610.94
829.785	13515.8
830.111	13512.19
830.438	13616.14
830.764	13545.18
831.09	13657.95
831.417	13517.61
831.743	13558.97
832.069	13570.94
832.395	13511.96
832.722	13561.9
833.048	13445.97
833.374	13448.01
833.7	13358.07
834.026	13424.96
834.351	13371.4
834.677	13386.77
835.003	13453.43
835.329	13363.04
835.654	13409.14
835.98	13329.14
836.306	13343.6
836.631	13273.55
836.956	13339.76
837.282	13330.27
837.607	13267.22
837.932	13226.32
838.258	13267.22
838.583	13258.86
838.908	13118.07
839.233	13167.79
839.558	13133.44
839.883	13112.65
840.208	13023.16
840.533	12983.39
840.858	12989.49
841.182	13036.27
841.507	13062.03
841.832	12973.9
842.156	12916.27
842.481	12865.88
842.805	12858.64
843.13	12879.66
843.454	12842.15
843.778	12697.97
844.103	12734.81
844.427	12714.92
844.751	12655.94
845.075	12645.54
845.399	12648.93
845.723	12544.08
846.047	12597.86
846.371	12443.97
846.695	12573.45
847.019	12382.5
847.343	12289.39
847.666	12266.34
847.99	12214.14
848.313	12140.25
848.637	12177.76
848.96	12060.47
849.284	12067.25
849.607	11907.03
849.931	11917.88
850.254	11826.58
850.577	11842.63
850.9	11763.98
851.223	11781.16
851.546	11643.31
851.869	11574.84
852.192	11614.38
852.515	11444.22
852.838	11495.52
853.161	11533.93
853.483	11446.25
853.806	11404.45
854.129	11330.1
854.451	11294.17
854.774	11275.41
855.096	11253.26
855.419	11202.42
855.741	11195.19
856.063	11083.1
856.385	11063.44
856.708	11042.42
857.03	10996.55
857.352	10973.04
857.674	11001.52
857.996	10884.91
858.318	10851.01
858.64	10865.7
858.961	10850.56
859.283	10775.76
859.605	10685.59
859.926	10771.02
860.248	10704.8
860.57	10653.96
860.891	10721.3
861.212	10554.75
861.534	10564.02
861.855	10535.99
862.176	10555.65
862.498	10565.15
862.819	10531.93
863.14	10434.75
863.461	10457.35
863.782	10365.38
864.103	10418.48
864.424	10384.81
864.745	10448.31
865.065	10380.29
865.386	10224.82
865.707	10352.5
866.027	10309.79
866.348	10317.24
866.668	10365.6
866.989	10251.93
867.309	10190.47
867.63	10217.58
867.95	10222.1
868.27	10174.2
868.59	10168.32
868.91	10183.24
869.23	10125.84
869.55	10098.04
869.87	10129
870.19	10065.5
870.51	10110.69
870.83	10056.91
871.15	9988.89
871.469	9987.31
871.789	9982.34
872.109	9985.5
872.428	9909.34
872.748	9920.64
873.067	9993.41
873.386	9978.72
873.706	9913.86
874.025	9872.73
874.344	9830.48
874.663	9889.68
874.982	9829.35
875.301	9897.14
875.62	9826.18
875.939	9745.73
876.258	9770.14
876.577	9746.86
876.896	9740.31
877.214	9732.4
877.533	9725.39
877.852	9695.79
878.17	9603.14
878.489	9641.33
878.807	9618.73
879.125	9593.65
879.444	9601.33
879.762	9601.33
880.08	9663.7
880.398	9543.03
880.716	9567.66
881.034	9510.71
881.352	9482.24
881.67	9403.82
881.988	9465.06
882.306	9405.18
882.624	9446.31
882.941	9376.93
883.259	9349.81
883.577	9398.4
883.894	9294.67
884.212	9264.16
884.529	9298.06
884.846	9270.94
885.164	9262.58
885.481	9219.64
885.798	9231.62
886.115	9077.73
886.432	9190.04
886.75	9146.2
887.067	9132.87
887.383	9069.59
887.7	9072.08
888.017	9052.19
888.334	9041.8
888.651	9002.02
888.967	9022.59
889.284	8996.15
889.6	8899.65
889.917	8860.33
890.233	8849.26
890.55	8905.98
890.866	8813.78
891.182	8772.42
891.498	8745.98
891.815	8767.45
892.131	8701.92
892.447	8666.21
892.763	8656.5
893.079	8624.86
893.395	8571.75
893.71	8574.69
894.026	8514.13
894.342	8552.32
894.657	8483.84
894.973	8467.8
895.289	8429.38
895.604	8482.04
895.92	8433.9
896.235	8311.65
896.55	8392.77
896.865	8398.42
897.181	8247.92
897.496	8244.3
897.811	8196.39
898.126	8251.53
898.441	8169.73
898.756	8129.28
899.071	8114.14
899.386	8129.73
899.7	8066.45
900.015	8084.99
900.33	8011.09
900.644	7983.07
900.959	7962.73
901.273	7926.57
901.588	7963.63
901.902	7871.21
902.216	7842.51
902.531	7831.21
902.845	7754.37
903.159	7743.75
903.473	7747.82
903.787	7707.59
904.101	7637.31
904.415	7659.69
904.729	7576.3
905.042	7553.25
905.356	7534.27
905.67	7535.4
905.984	7499.92
906.297	7495.62
906.611	7478.67
906.924	7424.66
907.237	7411.1
907.551	7398.45
907.864	7292.24
908.177	7314.16
908.491	7319.58
908.804	7232.58
909.117	7184.44
909.43	7115.75
909.743	7172.01
910.056	7130.43
910.368	7059.48
910.681	7080.27
910.994	7042.3
911.307	7012.7
911.619	6946.48
911.932	6923.66
912.244	6929.31
912.557	6909.87
912.869	6843.21
913.181	6805.02
913.494	6806.37
913.806	6811.35
914.118	6755.53
914.43	6715.53
914.742	6678.69
915.054	6649.54
915.366	6663.55
915.678	6609.09
915.99	6645.25
916.302	6530.45
916.613	6548.53
916.925	6566.83
917.236	6509.43
917.548	6476.21
917.859	6463.11
918.171	6428.08
918.482	6376.33
918.794	6360.28
919.105	6337.69
919.416	6293.17
919.727	6240.74
920.038	6283.68
920.349	6240.74
920.66	6185.37
920.971	6210.68
921.282	6124.58
921.593	6066.96
921.903	6077.81
922.214	6101.53
922.525	6040.52
922.835	6013.18
923.146	5942.22
923.456	5940.18
923.767	5946.28
924.077	5968.88
924.387	5886.4
924.697	5883.01
925.008	5894.99
925.318	5824.93
925.628	5832.84
925.938	5772.05
926.248	5693.41
926.558	5714.43
926.867	5708.55
927.177	5664.48
927.487	5681.88
927.796	5576.58
928.106	5626.07
928.416	5549.23
928.725	5563.24
929.034	5518.95
929.344	5544.49
929.653	5491.38
929.962	5483.92
930.271	5485.51
930.581	5447.54
930.89	5365.73
931.199	5415
931.508	5334.55
931.817	5332.06
932.125	5276.7
932.434	5340.88
932.743	5273.53
933.051	5210.26
933.36	5212.07
933.669	5253.87
933.977	5192.18
934.286	5160.09
934.594	5116.7
934.902	5119.41
935.21	5074.44
935.519	5091.17
935.827	5073.31
936.135	5018.85
936.443	4952.64
936.751	4955.58
937.059	4958.74
937.367	4952.64
937.674	4913.09
937.982	4883.49
938.29	4869.48
938.597	4885.07
938.905	4837.84
939.213	4808.01
939.52	4772.53
939.827	4793.55
940.135	4743.38
940.442	4736.37
940.749	4669.71
941.056	4663.83
941.363	4681.68
941.67	4676.04
941.977	4629.26
942.284	4593.1
942.591	4608.69
942.898	4539.54
943.205	4571.41
943.511	4501.35
943.818	4516.04
944.125	4487.11
944.431	4453.67
944.738	4452.09
945.044	4428.36
945.35	4414.8
945.657	4385.42
945.963	4367.79
946.269	4326.67
946.575	4341.13
946.881	4315.82
947.187	4312.65
947.493	4277.4
947.799	4239.89
948.105	4254.35
948.41	4217.74
948.716	4185.88
949.022	4203.73
949.327	4195.14
949.633	4151.98
949.938	4160.34
950.244	4158.76
950.549	4066.79
950.854	4072.44
951.16	4049.84
951.465	4045.32
951.77	4061.36
952.075	4017.52
952.38	4013.23
952.685	3980.46
952.99	3955.6
953.294	3956.96
953.599	3933.91
953.904	3913.57
954.209	3870.63
954.513	3904.53
954.818	3834.02
955.122	3850.75
955.426	3817.98
955.731	3794.7
956.035	3866.57
956.339	3784.31
956.643	3778.88
956.948	3700.92
957.252	3714.93
957.556	3704.08
957.86	3736.4
958.163	3718.55
958.467	3645.33
958.771	3692.78
959.075	3641.03
959.378	3630.19
959.682	3627.02
959.985	3583.86
960.289	3627.02
960.592	3582.73
960.896	3554.26
961.199	3497.76
961.502	3523.07
961.805	3499.12
962.108	3446.01
962.411	3452.56
962.714	3451.66
963.017	3456.41
963.32	3439.46
963.623	3416.63
963.926	3384.09
964.228	3411.21
964.531	3408.05
964.833	3365.34
965.136	3338.67
965.438	3313.13
965.741	3306.35
966.043	3301.38
966.345	3230.42
966.648	3274.26
966.95	3300.25
967.252	3222.97
967.554	3235.4
967.856	3262.74
968.158	3170.99
968.46	3179.13
968.761	3188.39
969.063	3147.94
969.365	3111.78
969.666	3130.31
969.968	3082.4
970.269	3079.02
970.571	3130.77
970.872	3098.45
971.174	3052.58
971.475	3031.56
971.776	3040.15
972.077	3018.68
972.378	2999.92
972.679	2999.02
972.98	2989.75
973.281	2939.58
973.582	2986.81
973.883	2962.41
974.183	2947.27
974.484	2970.32
974.785	2888.06
975.085	2909.08
975.386	2894.16
975.686	2860.49
975.986	2858.68
976.287	2877.44
976.587	2808.97
976.887	2815.52
977.187	2809.42
977.487	2813.26
977.787	2777.1
978.087	2754.5
978.387	2719.48
978.687	2755.18
978.987	2735.75
979.286	2737.1
979.586	2740.72
979.885	2682.19
980.185	2681.51
980.484	2654.17
980.784	2638.12
981.083	2646.48
981.382	2636.54
981.682	2635.18
981.981	2618.01
982.28	2605.58
982.579	2563.77
982.878	2588.41
983.177	2565.36
983.475	2566.03
983.774	2525.81
984.073	2486.04
984.372	2496.66
984.67	2523.55
984.969	2535.75
985.267	2481.97
985.566	2470.67
985.864	2480.84
986.162	2480.84
986.461	2461.63
986.759	2406.72
987.057	2379.82
987.355	2425.92
987.653	2394.74
987.951	2390.45
988.249	2350.9
988.547	2338.92
988.844	2367.17
989.142	2364.68
989.44	2322.42
989.737	2307.28
990.035	2295.53
990.332	2330.56
990.63	2279.49
990.927	2290.34
991.224	2302.76
991.521	2281.52
991.819	2257.79
992.116	2245.82
992.413	2241.52
992.71	2208.53
993.006	2194.74
993.303	2202.88
993.6	2203.11
993.897	2197.46
994.193	2171.92
994.49	2185.93
994.787	2180.28
995.083	2145.71
995.379	2140.28
995.676	2112.71
995.972	2112.71
996.268	2101.41
996.565	2101.64
996.861	2110.68
997.157	2089.21
997.453	2063
997.749	2049.44
998.044	2026.84
998.34	2008.53
998.636	2032.49
998.932	2022.77
999.227	1999.04
999.523	2016.22
999.818	2002.43
1000.114	1950.68
1000.409	1998.14
1000.704	1948.65
1001	1933.96
1001.295	1918.14
1001.59	1908.2
1001.885	1902.77
1002.18	1896.22
1002.475	1867.97
1002.77	1898.71
1003.065	1844.7
1003.359	1854.64
1003.654	1867.07
1003.949	1852.38
1004.243	1871.82
1004.538	1845.38
1004.832	1802.21
1005.127	1768.77
1005.421	1777.58
1005.715	1810.57
1006.009	1773.06
1006.304	1793.85
1006.598	1742.78
1006.892	1747.3
1007.186	1721.99
1007.48	1709.33
1007.773	1719.73
1008.067	1708.2
1008.361	1693.06
1008.655	1703.23
1008.948	1677.24
1009.242	1669.11
1009.535	1709.79
1009.829	1656.68
1010.122	1650.13
1010.415	1632.95
1010.708	1611.71
1011.001	1645.61
1011.295	1619.39
1011.588	1569.68
1011.881	1575.55
1012.173	1608.77
1012.466	1579.39
1012.759	1550.24
1013.052	1540.3
1013.344	1548.89
1013.637	1523.58
1013.93	1504.14
1014.222	1538.04
1014.514	1486.29
1014.807	1516.8
1015.099	1470.02
1015.391	1464.14
1015.683	1481.54
1015.976	1469.57
1016.268	1445.61
1016.56	1460.75
1016.851	1410.58
1017.143	1443.35
1017.435	1429.57
1017.727	1414.2
1018.018	1395.22
1018.31	1400.19
1018.602	1398.16
1018.893	1405.39
1019.185	1373.98
1019.476	1376.91
1019.767	1353.41
1020.058	1343.69
1020.35	1331.04
1020.641	1327.42
1020.932	1324.03
1021.223	1340.08
1021.514	1304.6
1021.804	1285.39
1022.095	1283.13
1022.386	1268.22
1022.677	1269.12
1022.967	1264.6
1023.258	1250.36
1023.548	1231.61
1023.839	1258.72
1024.129	1233.87
1024.419	1242.23
1024.709	1208.1
1025	1217.37
1025.29	1226.86
1025.58	1213.53
1025.87	1172.85
1026.16	1162
1026.449	1170.59
1026.739	1171.27
1027.029	1169.46
1027.319	1130.59
1027.608	1146.18
1027.898	1168.1
1028.187	1160.42
1028.477	1113.19
1028.766	1146.41
1029.055	1113.19
1029.344	1142.12
1029.634	1084.49
1029.923	1074.77
1030.212	1081.55
1030.501	1060.99
1030.79	1057.37
1031.078	1047.2
1031.367	1054.21
1031.656	1064.83
1031.945	1052.18
1032.233	1028.9
1032.522	1030.26
1032.81	1001.56
1033.099	987.77
1033.387	1039.75
1033.675	983.25
1033.963	991.84
1034.251	972.63
1034.54	994.32
1034.828	972.63
1035.116	976.25
1035.403	979.64
1035.691	962.23
1035.979	949.13
1036.267	948.68
1036.554	948.22
1036.842	912.52
1037.129	917.26
1037.417	936.47
1037.704	906.64
1037.992	910.48
1038.279	902.12
1038.566	909.81
1038.853	909.81
1039.14	909.81
