Data from hue_38_FLMS001491_00019.txt Node
Date: Tue Feb 07 17:31:07 GMT 2017
User: dcchb
Spectrometer: FLMS00149
Trigger mode: 0
Integration Time (sec): 2.000000E-2
Scans to average: 10
Electric dark correction enabled: true
Nonlinearity correction enabled: false
Boxcar width: 0
XAxis mode: Wavelengths
Number of Pixels in Spectrum: 2048
>>>>>Begin Spectral Data<<<<<
341.393	-17.95
341.776	-17.95
342.16	-17.95
342.543	-76.93
342.927	-68.12
343.31	-69.93
343.693	-72.19
344.077	-26.76
344.46	-66.31
344.843	-58.85
345.226	-36.71
345.61	-48.23
345.993	-21.34
346.376	-11.85
346.759	10.52
347.142	33.12
347.525	38.77
347.908	47.36
348.291	79.45
348.674	98.43
349.057	104.53
349.44	122.84
349.823	155.6
350.206	140.69
350.588	200.57
350.971	207.81
351.354	220.91
351.737	243.06
352.119	250.29
352.502	272.44
352.884	253.23
353.267	281.93
353.65	300.68
354.032	308.37
354.414	277.63
354.797	307.46
355.179	336.39
355.562	334.81
355.944	321.93
356.326	327.12
356.709	351.08
357.091	347.24
357.473	345.65
357.855	349.04
358.238	343.85
358.62	340.01
359.002	364.41
359.384	340.68
359.766	334.81
360.148	350.85
360.53	347.69
360.912	335.49
361.294	336.16
361.676	327.35
362.057	322.6
362.439	323.73
362.821	337.97
363.203	330.06
363.584	323.28
363.966	306.79
364.348	326.9
364.729	303.62
365.111	314.7
365.493	319.21
365.874	332.32
366.256	325.32
366.637	315.83
367.019	307.24
367.4	318.31
367.781	318.76
368.163	313.57
368.544	309.72
368.925	317.63
369.306	338.88
369.688	305.43
370.069	291.19
370.45	318.99
370.831	315.37
371.212	311.31
371.593	311.31
371.974	299.78
372.355	319.67
372.736	323.73
373.117	320.34
373.498	311.76
373.879	314.24
374.26	318.08
374.641	322.15
375.021	309.05
375.402	309.95
375.783	328.93
376.163	352.89
376.544	333.68
376.925	335.03
377.305	313.57
377.686	345.88
378.066	343.39
378.447	343.85
378.827	320.12
379.208	317.86
379.588	346.56
379.968	338.65
380.349	318.54
380.729	340.23
381.109	337.52
381.489	345.2
381.87	354.69
382.25	328.71
382.63	340.01
383.01	358.54
383.39	348.37
383.77	340.91
384.15	358.08
384.53	347.24
384.91	354.24
385.29	327.58
385.67	343.62
386.049	358.08
386.429	341.14
386.809	371.64
387.189	363.06
387.568	363.73
387.948	359.44
388.328	342.27
388.707	361.93
389.087	352.66
389.466	345.65
389.846	375.26
390.225	370.74
390.605	351.08
390.984	377.74
391.363	370.06
391.743	364.64
392.122	369.83
392.501	377.07
392.881	374.13
393.26	389.95
393.639	360.12
394.018	382.49
394.397	407.12
394.776	363.96
395.155	375.71
395.534	374.81
395.913	365.32
396.292	389.27
396.671	399.21
397.05	410.51
397.429	392.43
397.808	390.4
398.186	385.88
398.565	377.97
398.944	387.91
399.323	380.91
399.701	401.7
400.08	400.12
400.458	394.92
400.837	397.63
401.215	411.87
401.594	396.73
401.972	391.76
402.351	427.01
402.729	405.54
403.107	419.33
403.486	407.35
403.864	397.18
404.242	417.74
404.62	413.68
404.999	418.65
405.377	418.65
405.755	430.85
406.133	423.39
406.511	422.49
406.889	442.15
407.267	430.62
407.645	447.57
408.023	437.4
408.401	447.12
408.779	451.64
409.156	431.75
409.534	462.49
409.912	464.75
410.29	443.05
410.667	453.67
411.045	472.21
411.422	450.74
411.8	460
412.178	461.36
412.555	471.3
412.933	466.56
413.31	481.24
413.687	448.93
414.065	457.52
414.442	453.67
414.819	480.79
415.197	498.19
415.574	474.24
415.951	469.04
416.328	482.6
416.705	462.71
417.082	502.71
417.46	496.16
417.837	523.05
418.214	498.65
418.591	501.81
418.967	501.58
419.344	511.98
419.721	514.01
420.098	532.54
420.475	514.92
420.852	525.09
421.228	509.27
421.605	531.19
421.982	542.26
422.358	527.12
422.735	544.75
423.111	522.83
423.488	550.17
423.864	567.12
424.241	575.03
424.617	552.65
424.994	557.63
425.37	552.2
425.746	573.22
426.123	572.99
426.499	544.29
426.875	574.8
427.251	574.35
427.627	587.91
428.003	570.51
428.379	586.1
428.756	584.29
429.132	595.59
429.507	604.18
429.883	593.56
430.259	608.92
430.635	605.08
431.011	613.9
431.387	655.48
431.763	610.28
432.138	616.83
432.514	655.7
432.89	645.31
433.265	664.52
433.641	659.32
434.016	662.03
434.392	668.58
434.767	695.48
435.143	680.11
435.518	686.66
435.894	695.02
436.269	692.31
436.644	683.95
437.02	722.37
437.395	690.96
437.77	718.3
438.145	718.53
438.52	729.37
438.895	707
439.271	739.99
439.646	723.72
440.021	751.97
440.395	732.54
440.77	748.36
441.145	753.78
441.52	775.02
441.895	778.41
442.27	749.49
442.645	759.43
443.019	751.75
443.394	777.96
443.769	777.51
444.143	782.93
444.518	784.29
444.892	787.9
445.267	785.87
445.641	822.7
446.016	815.02
446.39	814.79
446.764	806.89
447.139	810.5
447.513	810.28
447.887	823.83
448.262	831.97
448.636	816.15
449.01	830.16
449.384	841.69
449.758	865.64
450.132	860.9
450.506	868.58
450.88	839.65
451.254	884.17
451.628	886.43
452.002	878.3
452.376	882.82
452.75	892.76
453.123	903.15
453.497	911.97
453.871	917.17
454.244	924.4
454.618	941.57
454.992	955.58
455.365	999.87
455.739	961.91
456.112	986.09
456.486	1002.36
456.859	989.48
457.232	1022.93
457.606	991.06
457.979	989.25
458.352	1041.46
458.725	1053.43
459.099	1048.46
459.472	1059.31
459.845	1063.38
460.218	1061.57
460.591	1109.7
460.964	1105.63
461.337	1111.96
461.71	1155.12
462.083	1178.85
462.456	1177.5
462.829	1185.86
463.201	1194.22
463.574	1207.33
463.947	1215.46
464.32	1226.08
464.692	1248.68
465.065	1273.31
465.438	1283.94
465.81	1290.04
466.183	1341.33
466.555	1345.63
466.928	1328
467.3	1350.15
467.672	1395.12
468.045	1401.22
468.417	1409.36
468.789	1440.77
469.161	1427.66
469.534	1466.98
469.906	1516.7
470.278	1530.93
470.65	1539.07
471.022	1584.72
471.394	1577.49
471.766	1633.53
472.138	1659.07
472.51	1687.09
472.882	1723.7
473.253	1740.65
473.625	1802.11
473.997	1813.19
474.369	1821.77
474.74	1859.74
475.112	1903.81
475.484	1949.23
475.855	2001.66
476.227	2002.33
476.598	2089.56
476.97	2116.23
477.341	2195.1
477.713	2247.07
478.084	2257.69
478.455	2343.34
478.827	2398.48
479.198	2457.24
479.569	2496.33
479.94	2561.42
480.311	2642.54
480.682	2732.03
481.053	2791.24
481.424	2809.77
481.795	2895.19
482.166	2976.77
482.537	3047.5
482.908	3147.39
483.279	3184.45
483.65	3256.09
484.021	3378.12
484.391	3442.75
484.762	3525.68
485.133	3562.29
485.503	3708.28
485.874	3798.67
486.244	3863.98
486.615	3948.95
486.985	4032.56
487.356	4156.63
487.726	4228.49
488.097	4364.53
488.467	4410.86
488.837	4562.94
489.207	4680.91
489.578	4743.51
489.948	4860.11
490.318	4929.49
490.688	5034.12
491.058	5128.13
491.428	5255.81
491.798	5363.38
492.168	5500.77
492.538	5582.13
492.908	5635.01
493.278	5806.3
493.648	5891.27
494.017	6017.14
494.387	6101.44
494.757	6182.79
495.126	6288.1
495.496	6418.72
495.866	6449
496.235	6559.73
496.605	6674.98
496.974	6804.92
497.344	6856.9
497.713	6987.51
498.082	7067.74
498.452	7200.39
498.821	7309.31
499.19	7336.43
499.559	7452.13
499.928	7510.21
500.298	7633.6
500.667	7660.94
501.036	7731.9
501.405	7804.67
501.774	7910.43
502.143	8040.37
502.512	8093.93
502.88	8238.55
503.249	8197.2
503.618	8340.25
503.987	8373.69
504.356	8490.75
504.724	8603.74
505.093	8574.14
505.462	8765.32
505.83	8787.47
506.199	8885.54
506.567	9049.38
506.936	9041.7
507.304	9194.69
507.672	9211.64
508.041	9317.62
508.409	9336.15
508.777	9500.44
509.145	9562.59
509.514	9540.44
509.882	9660.89
510.25	9696.82
510.618	9761.68
510.986	9834.44
511.354	9907.66
511.722	10099.3
512.09	10127.77
512.458	10186.75
512.826	10239.86
513.193	10349.01
513.561	10327.77
513.929	10445.73
514.297	10527.76
514.664	10677.59
515.032	10630.58
515.4	10766.85
515.767	10819.73
516.135	10916.68
516.502	10821.09
516.869	11052.04
517.237	11032.61
517.604	11041.19
517.972	11170
518.339	11206.16
518.706	11290.45
519.073	11266.27
519.44	11412.93
519.808	11597.56
520.175	11610.22
520.542	11721.63
520.909	11767.95
521.276	11743.32
521.643	11847.5
522.009	11976.08
522.376	12059.7
522.743	12119.58
523.11	12200.03
523.477	12396.19
523.843	12391.44
524.21	12520.93
524.577	12624.43
524.943	12674.6
525.31	12716.4
525.676	12847.25
526.043	12947.13
526.409	12957.53
526.776	13140.8
527.142	13189.38
527.508	13250.17
527.874	13179.67
528.241	13319.1
528.607	13408.59
528.973	13533.33
529.339	13574.23
529.705	13666.89
530.071	13840.44
530.437	13910.27
530.803	13928.35
531.169	14075.92
531.535	13975.13
531.901	14057.84
532.267	14143.03
532.632	14203.14
532.998	14253.09
533.364	14380.99
533.73	14420.09
534.095	14512.29
534.461	14592.96
534.826	14663.92
535.192	14692.62
535.557	14860.53
535.923	14764.48
536.288	14854.43
536.653	14935.1
537.019	14906.63
537.384	15049.45
537.749	15135.32
538.114	15154.3
538.479	15184.59
538.845	15211.7
539.21	15261.19
539.575	15350.46
539.94	15380.74
540.305	15482.88
540.67	15490.12
541.034	15574.86
541.399	15613.95
541.764	15723.56
542.129	15735.53
542.494	15801.29
542.858	15895.53
543.223	15883.1
543.587	16030.44
543.952	15944.79
544.316	16120.38
544.681	16133.94
545.045	16152.24
545.41	16313.14
545.774	16342.3
546.138	16359.92
546.503	16386.14
546.867	16450.32
547.231	16644.44
547.595	16590.88
547.959	16635.62
548.324	16682.4
548.688	16756.75
549.052	16820.7
549.416	16818.67
549.779	16893.02
550.143	17015.05
550.507	17025.44
550.871	17062.5
551.235	17037.19
551.599	17267.92
551.962	17244.42
552.326	17273.35
552.689	17498.42
553.053	17378.65
553.417	17428.14
553.78	17722.6
554.143	17631.98
554.507	17733.67
554.87	17827.45
555.234	17855.7
555.597	17865.87
555.96	17937.28
556.323	18019.09
556.686	17977.06
557.05	18148.12
557.413	18254.34
557.776	18255.24
558.139	18334.56
558.502	18336.59
558.865	18495.91
559.228	18546.08
559.59	18457.72
559.953	18525.52
560.316	18779.07
560.679	18774.77
561.041	18881.89
561.404	18954.43
561.767	19074.43
562.129	19042.56
562.492	19233.07
562.854	19200.07
563.217	19164.82
563.579	19344.03
563.941	19460.41
564.304	19537.01
564.666	19655.66
565.028	19672.15
565.39	19652.72
565.753	19784.69
566.115	19920.73
566.477	19939.94
566.839	20025.59
567.201	20106.72
567.563	20126.6
567.925	20315.3
568.287	20332.93
568.648	20306.71
569.01	20600.49
569.372	20634.61
569.734	20569.98
570.095	20779.92
570.457	20846.81
570.819	20869.63
571.18	20904.21
571.542	21096.3
571.903	21073.47
572.265	21244.09
572.626	21292
572.987	21335.39
573.349	21416.06
573.71	21557.75
574.071	21702.16
574.432	21718.2
574.794	21915.48
575.155	21924.3
575.516	21812.89
575.877	22048.36
576.238	22276.83
576.599	22297.62
576.96	22301.01
577.32	22458.52
577.681	22590.49
578.042	22761.11
578.403	22843.59
578.763	22986.19
579.124	23079.29
579.485	23434.09
579.845	23449.91
580.206	23618.04
580.566	23627.08
580.927	23837.92
581.287	24007.41
581.648	24063.68
582.008	24364.91
582.368	24424.12
582.728	24562.42
583.089	24688.07
583.449	24792.02
583.809	25103.65
584.169	25148.39
584.529	25350.2
584.889	25665.44
585.249	25667.25
585.609	25825.89
585.969	26263.39
586.329	26174.81
586.688	26480.11
587.048	26578.86
587.408	26750.38
587.768	27113.99
588.127	27269.47
588.487	27366.64
588.846	27752.84
589.206	27784.48
589.565	27951.03
589.925	28240.29
590.284	28387.63
590.643	28652.71
591.003	28796.21
591.362	29071.45
591.721	29321.16
592.08	29539.46
592.44	29629.63
592.799	29980.36
593.158	30176.06
593.517	30281.59
593.876	30525.43
594.235	30614.46
594.593	30855.59
594.952	31060.1
595.311	31237.05
595.67	31557.04
596.029	31737.6
596.387	31883.36
596.746	32104.37
597.104	32249.45
597.463	32288.09
597.822	32643.56
598.18	32813.95
598.538	32921.07
598.897	33264.34
599.255	33227.28
599.613	33744.32
599.972	33733.7
600.33	34005.11
600.688	34047.37
601.046	34425.66
601.404	34502.5
601.762	34687.58
602.12	34964.18
602.478	35071.75
602.836	35215.02
603.194	35234.23
603.552	35449.14
603.91	35610.49
604.268	35771.39
604.625	35745.18
604.983	36060.87
605.341	36047.31
605.698	36342.67
606.056	36495.44
606.413	36527.75
606.771	36788.99
607.128	37002.32
607.485	36960.29
607.843	37061.53
608.2	37402.08
608.557	37574.51
608.914	37519.59
609.272	37948.28
609.629	38005.23
609.986	38160.25
610.343	38299.46
610.7	38542.84
611.057	38434.14
611.414	38561.37
611.771	38649.51
612.127	38919.56
612.484	39024.64
612.841	39184.86
613.198	39259.89
613.554	39171.98
613.911	39559.99
614.267	39411.52
614.624	39747.56
614.98	39771.06
615.337	40151.84
615.693	39902.35
616.05	40011.5
616.406	40460.08
616.762	40237.49
617.118	40437.71
617.475	40298.73
617.831	40505.05
618.187	40415.34
618.543	40734.2
618.899	40926.51
619.255	40867.08
619.611	40712.73
619.967	41046.28
620.323	41227.52
620.678	41151.36
621.034	41158.37
621.39	41178.71
621.746	41303.9
622.101	41743.44
622.457	41382.32
622.812	41683.1
623.168	41779.82
623.523	41761.97
623.879	41902.3
624.234	41722.42
624.589	41830.67
624.945	41900.49
625.3	42060.94
625.655	42013.94
626.01	42012.36
626.365	42066.59
626.72	42191.33
627.075	42135.74
627.43	42166.93
627.785	42020.27
628.14	42233.37
628.495	42189.07
628.85	42174.84
629.205	42159.02
629.559	42278.56
629.914	42241.95
630.269	42175.97
630.623	42252.58
630.978	42334.16
631.332	42486.24
631.687	42516.07
632.041	42265.68
632.396	42382.29
632.75	42333.03
633.104	42385.45
633.459	42170.09
633.813	42102.3
634.167	42291.22
634.521	42192.69
634.875	42373.25
635.229	42502.51
635.583	42228.85
635.937	42325.79
636.291	42320.37
636.645	42271.11
636.999	42178.23
637.352	42202.86
637.706	42103.2
638.06	42219.81
638.413	42139.81
638.767	42000.83
639.121	42148.85
639.474	41891.46
639.828	41836.54
640.181	41981.85
640.534	42032.02
640.888	41872.92
641.241	41703.21
641.594	41945.92
641.947	41926.48
642.301	41834.51
642.654	41992.02
643.007	41859.59
643.36	41834.96
643.713	41721.52
644.066	41993.15
644.419	41507.06
644.771	41520.62
645.124	41133.96
645.477	40951.14
645.83	40888.54
646.182	40759.06
646.535	40649.68
646.888	40654.88
647.24	40485.62
647.593	40660.98
647.945	40668.66
648.298	40539.63
648.65	40421.44
649.002	40298.5
649.355	40502.34
649.707	40515.45
650.059	40744.59
650.411	41203.56
650.763	41145.71
651.115	41570.56
651.467	41416.67
651.819	41340.74
652.171	41234.52
652.523	41211.92
652.875	41172.38
653.227	40969.45
653.578	41390
653.93	41177.58
654.282	40957.24
654.633	41060.74
654.985	41096.45
655.337	40990.69
655.688	41092.15
656.039	41231.36
656.391	40858.26
656.742	40991.59
657.094	40820.97
657.445	41281.75
657.796	41140.29
658.147	40861.2
658.498	40951.14
658.849	41161.3
659.2	40926.28
659.551	40863.01
659.902	41096.22
660.253	40961.31
660.604	41003.12
660.955	40882.44
661.306	40923.34
661.656	40882.89
662.007	40947.3
662.358	40811.03
662.708	40964.7
663.059	40789.56
663.409	40648.78
663.76	40855.32
664.11	40936.9
664.461	40854.87
664.811	40777.81
665.161	40818.04
665.511	40616.46
665.862	40667.98
666.212	40813.29
666.562	40749.11
666.912	40868.21
667.262	40653.52
667.612	40716.34
667.962	40860.3
668.312	40785.5
668.662	40981.65
669.011	40837.02
669.361	40816.23
669.711	40599.06
670.06	40596.35
670.41	40452.85
670.76	40556.8
671.109	40563.13
671.459	40649.45
671.808	40404.49
672.157	40664.37
672.507	40343.25
672.856	40375.56
673.205	40449.46
673.554	40614.65
673.904	40570.13
674.253	40761.32
674.602	40467.76
674.951	39988
675.3	39687.45
675.649	40429.57
675.998	40225.96
676.346	40299.18
676.695	40475.67
677.044	40200.65
677.393	40337.37
677.741	40271.84
678.09	40124.27
678.438	40096.47
678.787	40091.5
679.135	40194.32
679.484	40026.19
679.832	40111.61
680.181	40011.96
680.529	40067.77
680.877	39901.68
681.225	39848.34
681.573	40032.29
681.922	39791.62
682.27	39687.67
682.618	39599.09
682.966	39661.91
683.314	39713.21
683.661	39695.58
684.009	39409.03
684.357	39269.6
684.705	39268.7
685.053	39329.94
685.4	39215.37
685.748	39099.21
686.095	38993
686.443	39003.4
686.79	38934.7
687.138	38941.7
687.485	39026.22
687.832	38874.36
688.18	38735.38
688.527	38707.58
688.874	38674.82
689.221	38545.33
689.568	38411.09
689.915	38412
690.262	38484.76
690.609	38369.29
690.956	38252
691.303	38185.56
691.65	38052.69
691.997	37981.28
692.344	37852.01
692.69	37779.47
693.037	37828.29
693.383	37575.18
693.73	37557.33
694.077	37402.53
694.423	37487.05
694.769	37297.45
695.116	37140.17
695.462	37184.01
695.808	37122.09
696.155	37026.05
696.501	36784.92
696.847	36867.18
697.193	36599.39
697.539	36870.8
697.885	36534.76
698.231	36401.2
698.577	36543.8
698.923	36271.26
699.269	36142.23
699.614	36136.58
699.96	36042.12
700.306	35918.96
700.651	35788.79
700.997	35594.9
701.342	35607.1
701.688	35566.2
702.033	35398.97
702.379	35486.65
702.724	35292.08
703.069	35442.13
703.415	35049.6
703.76	35034.46
704.105	35103.38
704.45	34950.62
704.795	34669.05
705.14	34653.68
705.485	34621.82
705.83	34474.02
706.175	34625.88
706.52	34302.95
706.865	34326.91
707.209	34214.37
707.554	34095.05
707.899	34162.84
708.243	34063.19
708.588	33887.37
708.932	33744.32
709.277	33760.82
709.621	33754.95
709.966	33572.35
710.31	33591.79
710.654	33461.62
710.998	33390.44
711.342	33440.15
711.687	33260.04
712.031	33182.98
712.375	33035.87
712.719	33141.4
713.063	33034.06
713.407	33176.43
713.75	32891.24
714.094	32830.22
714.438	32650.79
714.782	32716.33
715.125	32528.54
715.469	32655.54
715.812	32559.05
716.156	32350.69
716.499	32341.42
716.843	32359.5
717.186	32107.76
717.53	32346.62
717.873	32334.19
718.216	32245.15
718.559	32095.78
718.902	31919.97
719.246	31898.05
719.589	31852.4
719.932	31801.55
720.275	31755.45
720.617	31720.2
720.96	31597.94
721.303	31696.24
721.646	31626.41
721.989	31448.34
722.331	31519.3
722.674	31541.22
723.016	31470.71
723.359	31310.94
723.701	31384.84
724.044	31213.32
724.386	31076.15
724.729	31191.4
725.071	31096.94
725.413	31015.36
725.755	31051.51
726.097	30835.02
726.439	30774.69
726.782	30817.4
727.124	30909.82
727.465	30741.01
727.807	30839.32
728.149	30616.5
728.491	30524.75
728.833	30648.81
729.175	30383.73
729.516	30424.19
729.858	30361.14
730.199	30493.11
730.541	30288.82
730.882	30285.43
731.224	30378.54
731.565	30113.46
731.906	30136.51
732.248	30242.04
732.589	29995.04
732.93	30024.87
733.271	29960.7
733.612	29990.52
733.953	29982.84
734.294	29883.18
734.635	29699.91
734.976	29780.36
735.317	29682.74
735.658	29659.91
735.999	29633.92
736.339	29679.57
736.68	29617.88
737.021	29512.35
737.361	29498.33
737.702	29581.72
738.042	29473.48
738.383	29356.42
738.723	29424.21
739.063	29317.77
739.404	29328.4
739.744	29291.11
740.084	29099.93
740.424	29303.31
740.764	29145.8
741.104	29246.36
741.444	28939.93
741.784	28866.49
742.124	29046.6
742.464	29001.85
742.804	28856.09
743.143	28753.95
743.483	28789.88
743.823	28673.72
744.162	28669.66
744.502	28839.14
744.841	28504.24
745.181	28724.34
745.52	28605.48
745.86	28547.17
746.199	28477.8
746.538	28501.3
746.877	28505.59
747.216	28426.27
747.556	28338.37
747.895	28419.04
748.234	28254.98
748.573	28161.19
748.911	28106.51
749.25	28122.33
749.589	28095.66
749.928	28155.77
750.267	28043.68
750.605	27918.72
750.944	27886.4
751.283	27761.88
751.621	27795.78
751.96	27722.34
752.298	27653.64
752.636	27615.22
752.975	27641.43
753.313	27477.37
753.651	27582.9
753.989	27364.61
754.327	27376.13
754.666	27241.44
755.004	27339.3
755.342	27215.91
755.679	27270.37
756.017	27052.98
756.355	27004.84
756.693	26896.37
757.031	27091.84
757.368	26858.63
757.706	26800.78
758.044	26775.24
758.381	26877.61
758.719	26715.58
759.056	26749.25
759.394	26563.95
759.731	26336.84
760.068	26232.88
760.405	26341.58
760.743	26276.95
761.08	26352.2
761.417	26098.2
761.754	26134.58
762.091	26030.86
762.428	25893.23
762.765	25758.77
763.102	25863.85
763.438	25784.53
763.775	25563.3
764.112	25657.53
764.449	25574.6
764.785	25403.98
765.122	25314.49
765.458	25291.44
765.795	25129.41
766.131	25112.91
766.467	25036.98
766.804	24917.44
767.14	24854.61
767.476	24742.75
767.812	24714.51
768.148	24746.82
768.485	24569.88
768.821	24400.16
769.157	24377.79
769.492	24366.94
769.828	24295.76
770.164	24129.44
770.5	24087.86
770.836	24116.78
771.171	23973.51
771.507	23861.87
771.842	23804.47
772.178	23612.84
772.513	23610.35
772.849	23562.67
773.184	23444.71
773.519	23405.16
773.855	23261.89
774.19	23134.43
774.525	23080.42
774.86	23044.94
775.195	22993.87
775.53	22896.93
775.865	22913.2
776.2	22591.85
776.535	22556.6
776.87	22529.25
777.205	22485.41
777.539	22412.42
777.874	22260.11
778.209	22085.42
778.543	22158.19
778.878	21934.01
779.212	22030.28
779.547	21840
779.881	21896.27
780.215	21758.2
780.55	21784.87
780.884	21660.57
781.218	21635.94
781.552	21531.09
781.886	21407.7
782.22	21245.22
782.554	21256.07
782.888	21049.07
783.222	20983.3
783.556	20917.77
783.889	20803.65
784.223	20655.63
784.557	20703.54
784.89	20719.58
785.224	20535.41
785.557	20397.78
785.891	20426.03
786.224	20370.44
786.558	20332.25
786.891	20127.06
787.224	20148.07
787.557	20034.4
787.891	20089.09
788.224	20042.31
788.557	20038.7
788.89	19880.06
789.223	19913.5
789.556	19667.63
789.888	19693.85
790.221	19558.71
790.554	19470.58
790.887	19461.99
791.219	19378.15
791.552	19316.23
791.884	19266.51
792.217	19183.35
792.549	19186.97
792.882	18964.37
793.214	18854.09
793.546	18930.25
793.879	18850.25
794.211	18629.47
794.543	18696.58
794.875	18732.74
795.207	18651.39
795.539	18511.28
795.871	18680.54
796.203	18405.74
796.535	18233.77
796.867	18181.34
797.198	18200.33
797.53	18143.38
797.862	18130.27
798.193	18072.42
798.525	17864.74
798.856	18062.7
799.188	17914.46
799.519	17770.96
799.85	17660.23
800.182	17686.22
800.513	17669.49
800.844	17544.52
801.175	17655.03
801.506	17497.97
801.837	17435.6
802.168	17459.56
802.499	17394.7
802.83	17351.54
803.161	17217.98
803.491	17233.8
803.822	17175.72
804.153	17029.51
804.483	16875.39
804.814	16818.22
805.145	16883.75
805.475	16892.34
805.805	16822.51
806.136	16803.98
806.466	16886.24
806.796	16613.7
807.126	16581.16
807.457	16667.26
807.787	16535.06
808.117	16461.16
808.447	16422.75
808.777	16410.32
809.107	16290.32
809.436	16275.63
809.766	16283.31
810.096	16291.22
810.426	16186.14
810.755	16155.63
811.085	16082.87
811.414	16142.98
811.744	15877.68
812.073	15901.18
812.403	15895.08
812.732	15858.92
813.061	15875.19
813.39	15802.88
813.719	15738.7
814.049	15796.77
814.378	15704.57
814.707	15683.56
815.036	15616.89
815.365	15540.74
815.693	15330.35
816.022	15390.91
816.351	15311.81
816.68	15313.4
817.008	15312.27
817.337	15169.45
817.665	15144.14
817.994	15221.65
818.322	15204.7
818.651	15120.86
818.979	15051.03
819.307	15032.05
819.636	15097.36
819.964	14872.28
820.292	15030.01
820.62	14984.14
820.948	14951.15
821.276	14915.67
821.604	14910.24
821.932	14892.84
822.259	14947.98
822.587	14869.57
822.915	14840.19
823.243	15005.83
823.57	14827.99
823.898	14836.57
824.225	14778.95
824.553	14854.88
824.88	14881.77
825.207	14851.04
825.535	14842.22
825.862	14862.34
826.189	14767.87
826.516	14847.65
826.843	14872.05
827.17	14921.09
827.497	14857.82
827.824	14817.59
828.151	14884.48
828.478	14846.29
828.805	14836.57
829.131	14844.48
829.458	14803.58
829.785	14724.26
830.111	14736.69
830.438	14878.38
830.764	14811.04
831.09	14809.23
831.417	14682.68
831.743	14788.21
832.069	14779.4
832.395	14640.42
832.722	14747.76
833.048	14715.67
833.374	14802.9
833.7	14549.8
834.026	14649.01
834.351	14678.16
834.677	14737.59
835.003	14636.8
835.329	14663.7
835.654	14557.26
835.98	14594.09
836.306	14469.13
836.631	14534.21
836.956	14500.76
837.282	14542.8
837.607	14431.61
837.932	14430.93
838.258	14334.44
838.583	14366.76
838.908	14343.03
839.233	14400.2
839.558	14293.31
839.883	14315.46
840.208	14279.98
840.533	14169.02
840.858	14157.04
841.182	14188.45
841.507	14212.18
841.832	14057.84
842.156	14155.69
842.481	14066.65
842.805	14013.77
843.13	14015.8
843.454	13988.69
843.778	13941.46
844.103	13903.72
844.427	13886.77
844.751	13839.31
845.075	13757.28
845.399	13815.36
845.723	13701.69
846.047	13686.77
846.371	13658.75
846.695	13628.47
847.019	13510.73
847.343	13409.94
847.666	13382.83
847.99	13323.84
848.313	13338.76
848.637	13265.99
848.96	13257.86
849.284	13133.57
849.607	13085.88
849.931	13042.72
850.254	12928.83
850.577	12901.26
850.9	12855.83
851.223	12828.26
851.546	12695.61
851.869	12561.15
852.192	12680.92
852.515	12624.43
852.838	12586.24
853.161	12583.3
853.483	12466.01
853.806	12403.87
854.129	12395.96
854.451	12286.58
854.774	12291.1
855.096	12202.07
855.419	12193.93
855.741	12180.82
856.063	12120.49
856.385	12079.81
856.708	12049.3
857.03	11996.65
857.352	11941.51
857.674	11989.19
857.996	11825.58
858.318	11794.85
858.64	11889.98
858.961	11809.08
859.283	11684.79
859.605	11719.82
859.926	11666.04
860.248	11680.27
860.57	11677.33
860.891	11730.21
861.212	11628.52
861.534	11469.66
861.855	11543.55
862.176	11560.95
862.498	11565.92
862.819	11531.58
863.14	11468.53
863.461	11455.42
863.782	11372.03
864.103	11395.99
864.424	11345.82
864.745	11282.99
865.065	11292.26
865.386	11265.14
865.707	11268.76
866.027	11215.88
866.348	11252.49
866.668	11263.79
866.989	11182.43
867.309	11097.69
867.63	11199.83
867.95	11161.87
868.27	11100.17
868.59	11146.73
868.91	11004.13
869.23	11041.87
869.55	11027.63
869.87	11091.13
870.19	11025.6
870.51	11062.66
870.83	11017.24
871.15	10932.5
871.469	10911.25
871.789	11000.52
872.109	10955.55
872.428	10858.82
872.748	10825.83
873.067	10807.98
873.386	10826.96
873.706	10798.94
874.025	10753.29
874.344	10689.34
874.663	10744.93
874.982	10760.3
875.301	10728.21
875.62	10624.71
875.939	10689.56
876.258	10642.11
876.577	10610.7
876.896	10690.69
877.214	10552.62
877.533	10570.47
877.852	10542
878.17	10605.95
878.489	10531.83
878.807	10505.16
879.125	10506.07
879.444	10422.9
879.762	10352.62
880.08	10471.04
880.398	10411.83
880.716	10391.04
881.034	10344.26
881.352	10362.57
881.67	10344.49
881.988	10315.56
882.306	10285.51
882.624	10254.77
882.941	10250.03
883.259	10200.31
883.577	10091.61
883.894	10164.15
884.212	10083.48
884.529	10114.66
884.846	10059.98
885.164	10046.42
885.481	10037.6
885.798	9978.4
886.115	9952.41
886.432	10026.53
886.75	9978.85
887.067	9994.21
887.383	9885.74
887.7	9903.6
888.017	9856.37
888.334	9862.01
888.651	9796.93
888.967	9774.11
889.284	9728.01
889.6	9801.68
889.917	9610.27
890.233	9739.76
890.55	9604.85
890.866	9697.95
891.182	9664.28
891.498	9560.1
891.815	9566.66
892.131	9538.86
892.447	9430.61
892.763	9454.57
893.079	9399.65
893.395	9394.46
893.71	9415.47
894.026	9432.42
894.342	9320.33
894.657	9307.68
894.973	9304.74
895.289	9227.23
895.604	9263.16
895.92	9199.43
896.235	9112.88
896.55	9110.17
896.865	9118.31
897.181	9054.35
897.496	9072.2
897.811	9028.14
898.126	8946.33
898.441	8932.32
898.756	8936.62
899.071	8831.31
899.386	8882.83
899.7	8786.34
900.015	8722.16
900.33	8659.79
900.644	8724.64
900.959	8724.19
901.273	8625.44
901.588	8624.31
901.902	8573.24
902.216	8539.11
902.531	8580.92
902.845	8454.59
903.159	8409.85
903.473	8372.11
903.787	8368.04
904.101	8326.01
904.415	8364.2
904.729	8285.33
905.042	8278.78
905.356	8312.45
905.67	8264.99
905.984	8205.34
906.297	8233.36
906.611	8100.93
906.924	8125.79
907.237	8114.49
907.551	8042.18
907.864	8015.96
908.177	8018.45
908.491	7969.18
908.804	7951.56
909.117	7902.74
909.43	7842.63
909.743	7748.85
910.056	7800.15
910.368	7713.37
910.681	7678.8
910.994	7700.94
911.307	7679.25
911.619	7580.49
911.932	7605.12
912.244	7502.98
912.557	7501.4
912.869	7487.61
913.181	7463.89
913.494	7509.53
913.806	7411.01
914.118	7364
914.43	7378.46
914.742	7384.34
915.054	7264.79
915.366	7242.65
915.678	7238.13
915.99	7245.13
916.302	7138.92
916.613	7194.74
916.925	7118.58
917.236	7087.4
917.548	7095.08
917.859	7071.35
918.171	6934.86
918.482	6966.5
918.794	6959.94
919.105	6895.77
919.416	6882.21
919.727	6861.42
920.038	6831.36
920.349	6780.51
920.66	6761.31
920.971	6775.09
921.282	6726.73
921.593	6693.28
921.903	6635.21
922.214	6649.67
922.525	6587.75
922.835	6584.59
923.146	6497.81
923.456	6520.18
923.767	6506.17
924.077	6483.12
924.387	6390.69
924.697	6406.96
925.008	6377.13
925.318	6397.92
925.628	6312.96
925.938	6273.63
926.248	6264.14
926.558	6211.04
926.867	6226.18
927.177	6173.52
927.487	6139.85
927.796	6107.31
928.106	6118.38
928.416	6072.51
928.725	6065.73
929.034	6040.87
929.344	6076.13
929.653	5991.38
929.962	5954.77
930.271	5916.58
930.581	5912.06
930.89	5860.54
931.199	5810.82
931.508	5807.21
931.817	5810.82
932.125	5770.82
932.434	5744.61
932.743	5682.69
933.051	5697.6
933.36	5653.54
933.669	5625.74
933.977	5648.57
934.286	5606.08
934.594	5598.17
934.902	5566.53
935.21	5533.09
935.519	5536.7
935.827	5489.47
936.135	5467.55
936.443	5415.8
936.751	5394.11
937.059	5379.42
937.367	5385.97
937.674	5378.74
937.982	5311.63
938.29	5282.7
938.597	5277.73
938.905	5220.55
939.213	5252.19
939.52	5179.88
939.827	5216.26
940.135	5176.71
940.442	5144.85
940.749	5201.57
941.056	5116.83
941.363	5059.43
941.67	5105.76
941.977	5038.41
942.284	4999.32
942.591	5000.9
942.898	4977.62
943.205	4938.08
943.511	4945.08
943.818	4919.32
944.125	4879.55
944.431	4870.06
944.738	4842.94
945.044	4819.66
945.35	4781.24
945.657	4763.17
945.963	4761.36
946.269	4732.88
946.575	4719.78
946.881	4672.55
947.187	4658.76
947.493	4677.74
947.799	4608.14
948.105	4591.64
948.41	4565.88
948.716	4574.7
949.022	4542.83
949.327	4554.58
949.633	4515.49
949.938	4491.99
950.244	4513.23
950.549	4480.01
950.854	4424.64
951.16	4404.08
951.465	4402.72
951.77	4390.29
952.075	4326.12
952.38	4375.83
952.685	4329.5
952.99	4316.85
953.294	4291.99
953.599	4209.51
953.904	4250.41
954.209	4220.58
954.513	4203.63
954.818	4204.54
955.122	4177.87
955.426	4149.62
955.731	4146.01
956.035	4144.65
956.339	4136.52
956.643	4105.56
956.948	4092
957.252	4043.18
957.556	4042.51
957.86	3992.56
958.163	4023.07
958.467	3986.01
958.771	3973.58
959.075	3975.84
959.378	3908.05
959.682	3907.59
959.985	3929.29
960.289	3831.66
960.592	3882.51
960.896	3868.05
961.199	3826.92
961.502	3854.26
961.805	3801.38
962.108	3767.03
962.411	3763.87
962.714	3736.3
963.017	3724.77
963.32	3752.12
963.623	3705.11
963.926	3683.42
964.228	3667.6
964.531	3656.08
964.833	3668.51
965.136	3587.38
965.438	3575.63
965.741	3588.06
966.043	3565.01
966.345	3561.62
966.648	3552.12
966.95	3530.43
967.252	3469.19
967.554	3445.69
967.856	3494.5
968.158	3466.93
968.46	3461.05
968.761	3437.55
969.063	3443.65
969.365	3369.08
969.666	3390.55
969.968	3382.64
970.269	3371.34
970.571	3329.53
970.872	3360.04
971.174	3311.45
971.475	3287.72
971.776	3294.28
972.077	3273.26
972.378	3283.66
972.679	3293.37
972.98	3247.95
973.281	3193.94
973.582	3188.97
973.883	3221.96
974.183	3170.44
974.484	3176.31
974.785	3136.32
975.085	3157.11
975.386	3167.5
975.686	3126.15
975.986	3083.21
976.287	3078.46
976.587	3083.89
976.887	3059.93
977.187	3031.91
977.487	3049.99
977.787	3019.93
978.087	3019.93
978.387	3008.64
978.687	2978.81
978.987	2986.26
979.286	2949.65
979.586	2918.02
979.885	2891.58
980.185	2885.02
980.484	2865.81
980.784	2880.05
981.083	2879.6
981.382	2846.38
981.682	2889.32
981.981	2834.63
982.28	2831.01
982.579	2823.78
982.878	2824.46
983.177	2778.59
983.475	2770
983.774	2746.72
984.073	2760.28
984.372	2710.79
984.67	2739.72
984.969	2715.31
985.267	2702.43
985.566	2683.22
985.864	2682.32
986.162	2638.93
986.461	2670.11
986.759	2644.13
987.057	2642.09
987.355	2604.13
987.653	2609.78
987.951	2590.79
988.249	2569.33
988.547	2574.75
988.844	2573.17
989.142	2559.16
989.44	2544.02
989.737	2496.33
990.035	2483.23
990.332	2504.92
990.63	2467.18
990.927	2489.55
991.224	2499.72
991.521	2442.32
991.819	2461.31
992.116	2455.2
992.413	2429.44
992.71	2380.86
993.006	2392.38
993.303	2372.27
993.6	2357.58
993.897	2362.1
994.193	2348.99
994.49	2366.84
994.787	2336.34
995.083	2293.63
995.379	2294.76
995.676	2299.5
995.972	2268.54
996.268	2264.47
996.565	2280.75
996.861	2246.62
997.157	2276
997.453	2211.14
997.749	2207.3
998.044	2203.46
998.34	2223.57
998.636	2202.33
998.932	2177.02
999.227	2146.06
999.523	2116.23
999.818	2115.55
1000.114	2118.26
1000.409	2131.6
1000.704	2089.79
1001	2113.74
1001.295	2066.06
1001.59	2059.96
1001.885	2043.69
1002.18	2069
1002.475	2045.05
1002.77	2012.28
1003.065	1979.06
1003.359	1966.4
1003.654	1992.17
1003.949	1980.64
1004.243	1981.54
1004.538	1952.84
1004.832	1986.29
1005.127	1920.08
1005.421	1928.89
1005.715	1895.44
1006.009	1891.38
1006.304	1891.15
1006.598	1898.61
1006.892	1894.31
1007.186	1864.03
1007.48	1836.01
1007.773	1854.09
1008.067	1830.59
1008.361	1836.91
1008.655	1837.59
1008.948	1839.63
1009.242	1824.49
1009.535	1794.88
1009.829	1775
1010.122	1767.09
1010.415	1767.99
1010.708	1751.72
1011.001	1765.5
1011.295	1732.74
1011.588	1732.96
1011.881	1702.68
1012.173	1704.49
1012.466	1669.46
1012.759	1674.89
1013.052	1680.53
1013.344	1641.89
1013.637	1666.07
1013.93	1647.32
1014.222	1646.19
1014.514	1651.61
1014.807	1603.7
1015.099	1603.93
1015.391	1582.01
1015.683	1584.49
1015.976	1597.15
1016.268	1562.12
1016.56	1552.63
1016.851	1565.96
1017.143	1555.11
1017.435	1519.41
1017.727	1522.35
1018.018	1509.47
1018.31	1511.05
1018.602	1480.99
1018.893	1489.13
1019.185	1449.35
1019.476	1455.46
1019.767	1461.78
1020.058	1466.08
1020.35	1432.63
1020.641	1441.67
1020.932	1409.36
1021.223	1397.83
1021.514	1403.25
1021.804	1390.37
1022.095	1367.1
1022.386	1385.4
1022.677	1346.08
1022.967	1333.65
1023.258	1329.81
1023.548	1359.41
1023.839	1327.78
1024.129	1321.45
1024.419	1315.8
1024.709	1320.09
1025	1301.11
1025.29	1271.05
1025.58	1284.39
1025.87	1259.98
1026.16	1285.29
1026.449	1262.47
1026.739	1253.65
1027.029	1234.67
1027.319	1222.02
1027.608	1241.22
1027.898	1236.25
1028.187	1200.1
1028.477	1180.66
1028.766	1187.67
1029.055	1158.51
1029.344	1159.42
1029.634	1188.8
1029.923	1170.04
1030.212	1152.19
1030.501	1146.09
1030.79	1130.72
1031.078	1127.78
1031.367	1132.3
1031.656	1116.48
1031.945	1097.5
1032.233	1124.62
1032.522	1078.29
1032.81	1085.97
1033.099	1100.66
1033.387	1080.78
1033.675	1050.27
1033.963	1055.69
1034.251	1067.9
1034.54	1051.17
1034.828	1063.6
1035.116	1013.66
1035.403	1053.21
1035.691	1038.29
1035.979	1020.44
1036.267	1012.76
1036.554	999.87
1036.842	994.23
1037.129	1006.65
1037.417	990.84
1037.704	981.12
1037.992	977.05
1038.279	972.3
1038.566	953.77
1038.853	953.77
1039.14	953.77
