Data from hue_38_FLMS001491_00032.txt Node
Date: Tue Feb 07 17:31:24 GMT 2017
User: dcchb
Spectrometer: FLMS00149
Trigger mode: 0
Integration Time (sec): 2.000000E-2
Scans to average: 10
Electric dark correction enabled: true
Nonlinearity correction enabled: false
Boxcar width: 0
XAxis mode: Wavelengths
Number of Pixels in Spectrum: 2048
>>>>>Begin Spectral Data<<<<<
341.393	-8.32
341.776	-8.32
342.16	-8.32
342.543	-55.55
342.927	-60.52
343.31	-70.92
343.693	-67.07
344.077	-70.92
344.46	-57.58
344.843	-55.55
345.226	-47.19
345.61	-24.36
345.993	-28.88
346.376	-1.54
346.759	12.02
347.142	21.74
347.525	53.6
347.908	73.49
348.291	69.42
348.674	83.2
349.057	110.55
349.44	145.8
349.823	156.87
350.206	164.78
350.588	190.32
350.971	214.05
351.354	232.13
351.737	260.83
352.119	236.65
352.502	270.77
352.884	278.23
353.267	294.95
353.65	288.17
354.032	312.58
354.414	310.09
354.797	320.94
355.179	344.21
355.562	339.02
355.944	334.04
356.326	323.65
356.709	337.89
357.091	339.69
357.473	348.06
357.855	333.14
358.238	337.66
358.62	348.06
359.002	343.76
359.384	344.21
359.766	366.13
360.148	355.29
360.53	349.41
360.912	315.74
361.294	357.32
361.676	325.46
362.057	347.38
362.439	346.7
362.821	338.34
363.203	300.83
363.584	334.5
363.966	345.8
364.348	347.15
364.729	319.36
365.111	350.99
365.493	331.11
365.874	315.06
366.256	309.41
366.637	321.16
367.019	313.25
367.4	329.3
367.781	331.56
368.163	328.17
368.544	338.79
368.925	325.68
369.306	318.45
369.688	318.45
370.069	301.5
370.45	309.64
370.831	323.42
371.212	333.82
371.593	316.42
371.974	325.91
372.355	314.38
372.736	309.41
373.117	318
373.498	308.96
373.879	322.97
374.26	329.75
374.641	336.76
375.021	339.47
375.402	341.28
375.783	337.66
376.163	332.69
376.544	341.28
376.925	339.92
377.305	339.02
377.686	331.56
378.066	351.67
378.447	334.27
378.827	340.6
379.208	336.3
379.588	327.04
379.968	334.04
380.349	321.62
380.729	327.27
381.109	345.12
381.489	335.17
381.87	335.85
382.25	338.11
382.63	322.75
383.01	351.9
383.39	368.62
383.77	358.68
384.15	348.06
384.53	363.87
384.91	354.84
385.29	339.02
385.67	370.65
386.049	363.2
386.429	366.59
386.809	365.46
387.189	352.12
387.568	362.97
387.948	374.27
388.328	341.5
388.707	338.34
389.087	353.25
389.466	379.47
389.846	371.11
390.225	373.82
390.605	365.46
390.984	358.68
391.363	383.08
391.743	383.54
392.122	374.5
392.501	365.91
392.881	369.98
393.26	372.69
393.639	395.06
394.018	374.27
394.397	368.17
394.776	382.41
395.155	414.72
395.534	369.52
395.913	401.39
396.292	369.52
396.671	393.93
397.05	391.22
397.429	378.56
397.808	396.42
398.186	367.26
398.565	380.37
398.944	386.92
399.323	414.72
399.701	403.87
400.08	391.44
400.458	400.03
400.837	405.91
401.215	389.18
401.594	397.32
401.972	402.97
402.351	381.73
402.729	428.96
403.107	419.92
403.486	405.68
403.864	408.62
404.242	408.17
404.62	423.08
404.999	410.43
405.377	418.34
405.755	411.78
406.133	423.76
406.511	409.98
406.889	430.31
407.267	437.09
407.645	432.57
408.023	432.57
408.401	408.17
408.779	425.57
409.156	446.36
409.534	445.23
409.912	443.87
410.29	459.92
410.667	438.22
411.045	447.04
411.422	461.73
411.8	476.87
412.178	466.02
412.555	461.05
412.933	462.18
413.31	470.54
413.687	476.64
414.065	478.22
414.442	464.44
414.819	480.26
415.197	487.71
415.574	489.3
415.951	471.44
416.328	489.07
416.705	512.12
417.082	502.4
417.46	501.95
417.837	490.42
418.214	515.51
418.591	510.31
418.967	521.84
419.344	531.55
419.721	499.46
420.098	538.11
420.475	528.84
420.852	542.63
421.228	539.46
421.605	528.39
421.982	537.66
422.358	539.01
422.735	539.46
423.111	545.56
423.488	555.96
423.864	547.37
424.241	553.47
424.617	548.73
424.994	570.65
425.37	588.73
425.746	583.3
426.123	565
426.499	560.93
426.875	588.28
427.251	588.28
427.627	607.26
428.003	627.37
428.379	584.89
428.756	608.84
429.132	606.81
429.507	603.87
429.883	624.66
430.259	631.89
430.635	606.58
431.011	632.12
431.387	632.12
431.763	661.95
432.138	652.45
432.514	635.73
432.89	668.5
433.265	663.75
433.641	646.81
434.016	682.28
434.392	673.25
434.767	657.43
435.143	671.21
435.518	685
435.894	710.31
436.269	718.89
436.644	709.4
437.02	708.05
437.395	694.04
437.77	715.05
438.145	740.36
438.52	723.87
438.895	738.55
439.271	740.14
439.646	737.88
440.021	749.63
440.395	760.7
440.77	754.37
441.145	773.13
441.52	768.38
441.895	756.41
442.27	767.25
442.645	785.56
443.019	814.26
443.394	783.07
443.769	789.63
444.143	808.61
444.518	781.26
444.892	796.41
445.267	816.74
445.641	820.81
446.016	836.86
446.39	815.16
446.764	828.5
447.139	831.21
447.513	855.39
447.887	850.19
448.262	829.17
448.636	843.64
449.01	849.96
449.384	863.3
449.758	880.02
450.132	874.82
450.506	851.09
450.88	879.12
451.254	904.88
451.628	894.93
452.002	915.72
452.376	900.13
452.75	917.08
453.123	910.75
453.497	935.16
453.871	939
454.244	946.23
454.618	943.97
454.992	964.08
455.365	962.05
455.739	979
456.112	974.48
456.486	993.69
456.859	1002.5
457.232	1044.76
457.606	1036.17
457.979	1027.13
458.352	1071.2
458.725	1056.74
459.099	1037.3
459.472	1084.53
459.845	1092.44
460.218	1115.04
460.591	1125.21
460.964	1109.17
461.337	1158.88
461.71	1170.86
462.083	1188.03
462.456	1159.11
462.829	1190.29
463.201	1188.49
463.574	1219.9
463.947	1220.12
464.32	1265.55
464.692	1246.56
465.065	1257.86
465.438	1290.63
465.81	1307.13
466.183	1332.21
466.555	1323.62
466.928	1368.82
467.3	1389.16
467.672	1388.25
468.045	1430.06
468.417	1443.62
468.789	1451.76
469.161	1470.29
469.534	1468.03
469.906	1515.48
470.278	1527.91
470.65	1560.45
471.022	1611.3
471.394	1602.26
471.766	1627.34
472.138	1675.93
472.51	1695.14
472.882	1732.88
473.253	1745.76
473.625	1819.88
473.997	1847.23
474.369	1850.62
474.74	1882.93
475.112	1917.51
475.484	1985.07
475.855	2015.36
476.227	2091.06
476.598	2114.56
476.97	2147.56
477.341	2212.87
477.713	2245.86
478.084	2275.24
478.455	2366.31
478.827	2389.36
479.198	2480.43
479.569	2533.54
479.94	2581.67
480.311	2659.41
480.682	2757.26
481.053	2776.24
481.424	2867.09
481.795	2933.3
482.166	3020.08
482.537	3074.31
482.908	3141.88
483.279	3213.74
483.65	3290.13
484.021	3438.6
484.391	3485.6
484.762	3553.17
485.133	3633.62
485.503	3699.61
485.874	3790.45
486.244	3825.25
486.615	3987.06
486.985	4050.33
487.356	4210.1
487.726	4257.56
488.097	4369.42
488.467	4464.56
488.837	4653.03
489.207	4696.19
489.578	4799.69
489.948	4909.97
490.318	4989.06
490.688	5046.46
491.058	5215.05
491.428	5297.76
491.798	5373.23
492.168	5516.96
492.538	5621.82
492.908	5734.13
493.278	5810.74
493.648	5875.82
494.017	6022.48
494.387	6121.46
494.757	6229.94
495.126	6320.33
495.496	6417.27
495.866	6440.78
496.235	6554.45
496.605	6649.36
496.974	6755.12
497.344	6830.6
497.713	6969.12
498.082	7087.54
498.452	7180.42
498.821	7232.85
499.19	7262.22
499.559	7395.55
499.928	7465.16
500.298	7561.43
500.667	7673.06
501.036	7703.12
501.405	7828.99
501.774	7883.68
502.143	7970
502.512	8032.15
502.88	8177.23
503.249	8177
503.618	8296.55
503.987	8356.66
504.356	8412.93
504.724	8530.67
505.093	8573.6
505.462	8634.84
505.83	8721.39
506.199	8853.37
506.567	8962.52
506.936	8961.84
507.304	9079.35
507.672	9143.76
508.041	9240.48
508.409	9335.39
508.777	9408.61
509.145	9467.14
509.514	9436.18
509.882	9532.45
510.25	9611.32
510.618	9687.25
510.986	9750.97
511.354	9829.84
511.722	9921.14
512.09	10136.27
512.458	10071.64
512.826	10156.61
513.193	10221.24
513.561	10284.52
513.929	10354.12
514.297	10443.61
514.664	10502.82
515.032	10569.71
515.4	10562.02
515.767	10636.6
516.135	10731.74
516.502	10672.53
516.869	10840.44
517.237	10848.34
517.604	10849.02
517.972	11103.93
518.339	11144.61
518.706	11110.48
519.073	11232.06
519.44	11247.43
519.808	11413.75
520.175	11415.56
520.542	11549.57
520.909	11540.08
521.276	11610.13
521.643	11696.46
522.009	11804.48
522.376	11877.24
522.743	11940.97
523.11	11957.24
523.477	12153.4
523.843	12225.71
524.21	12260.28
524.577	12413.5
524.943	12504.57
525.31	12503.67
525.676	12601.97
526.043	12654.62
526.409	12633.61
526.776	12872.7
527.142	12881.29
527.508	12957.22
527.874	13072.24
528.241	13145.46
528.607	13173.71
528.973	13324.21
529.339	13221.16
529.705	13478.56
530.071	13592.91
530.437	13616.41
530.803	13652.11
531.169	13751.55
531.535	13651.66
531.901	13781.37
532.267	13871.09
532.632	13889.62
532.998	14032.22
533.364	14133.23
533.73	14179.56
534.095	14226.56
534.461	14296.84
534.826	14458.42
535.192	14432.43
535.557	14518.08
535.923	14574.8
536.288	14615.03
536.653	14674.91
537.019	14636.72
537.384	14755.13
537.749	14819.77
538.114	14902.93
538.479	14899.31
538.845	14958.29
539.21	14947.9
539.575	15040.55
539.94	15147.21
540.305	15254.56
540.67	15237.83
541.034	15265.18
541.399	15344.27
541.764	15344.95
542.129	15414.78
542.494	15479.41
542.858	15541.33
543.223	15511.27
543.587	15760.76
543.952	15740.87
544.316	15779.51
544.681	15840.98
545.045	15958.94
545.41	16000.98
545.774	15990.36
546.138	15994.65
546.503	16103.12
546.867	16218.6
547.231	16367.3
547.595	16385.83
547.959	16363.45
548.324	16356.9
548.688	16464.47
549.052	16535.2
549.416	16547.18
549.779	16550.12
550.143	16657.68
550.507	16726.83
550.871	16776.78
551.235	16735.65
551.599	17042.53
551.962	17003.66
552.326	17016.77
552.689	17119.37
553.053	17055.64
553.417	17076.2
553.78	17269.87
554.143	17328.85
554.507	17385.8
554.87	17482.07
555.234	17597.09
555.597	17556.42
555.96	17652.23
556.323	17704.44
556.686	17633.03
557.05	17770.42
557.413	17854.49
557.776	17886.8
558.139	18051.09
558.502	18056.29
558.865	18069.85
559.228	18193.69
559.59	18236.63
559.953	18272.1
560.316	18442.95
560.679	18423.51
561.041	18555.49
561.404	18573.79
561.767	18675.26
562.129	18638.42
562.492	18844.74
562.854	18848.13
563.217	18767.23
563.579	18931.75
563.941	19063.27
564.304	19028.47
564.666	19235.02
565.028	19310.95
565.39	19277.28
565.753	19421.68
566.115	19507.78
566.477	19534.67
566.839	19602.69
567.201	19740.77
567.563	19731.5
567.925	19955.45
568.287	19836.13
568.648	20020.98
569.01	20021.21
569.372	20127.65
569.734	20139.17
570.095	20411.48
570.457	20506.85
570.819	20440.86
571.18	20467.3
571.542	20575.55
571.903	20730.34
572.265	20785.48
572.626	20878.14
572.987	20837.46
573.349	21023.44
573.71	21132.14
574.071	21069.09
574.432	21270.22
574.794	21468.63
575.155	21533.71
575.516	21549.98
575.877	21757.89
576.238	21787.04
576.599	22008.73
576.96	21950.43
577.32	22154.94
577.681	22236.97
578.042	22398.78
578.403	22544.99
578.763	22549.28
579.124	22837.18
579.485	22901.59
579.845	23113.33
580.206	23120.34
580.566	23400.78
580.927	23564.62
581.287	23681.91
581.648	23788.8
582.008	24022.69
582.368	24033.31
582.728	24258.61
583.089	24414.77
583.449	24578.38
583.809	24711.71
584.169	24943.79
584.529	24977.92
584.889	25392.82
585.249	25391.92
585.609	25452.93
585.969	25839.81
586.329	25955.07
586.688	26266.47
587.048	26472.11
587.408	26524.99
587.768	26729.28
588.127	26912.1
588.487	27209.04
588.846	27510.05
589.206	27532.2
589.565	27658.75
589.925	28113.88
590.284	28187.1
590.643	28366.08
591.003	28574.43
591.362	28864.82
591.721	29130.8
592.08	29224.81
592.44	29500.74
592.799	29655.31
593.158	29928.97
593.517	30066.6
593.876	30431.78
594.235	30437.21
594.593	30624.32
594.952	30915.84
595.311	30996.74
595.67	31299.11
596.029	31722.82
596.387	31874.68
596.746	31947.9
597.104	32078.29
597.463	32273.09
597.822	32485.52
598.18	32507.21
598.538	32742.23
598.897	33120.08
599.255	32975.22
599.613	33539.95
599.972	33595.09
600.33	33829.21
600.688	33932.94
601.046	34146.04
601.404	34386.03
601.762	34456.99
602.12	34842.74
602.478	34910.31
602.836	35188.72
603.194	34992.12
603.552	35220.36
603.91	35255.84
604.268	35536.51
604.625	35619.22
604.983	35833.9
605.341	35853.79
605.698	36044.07
606.056	36277.05
606.413	36381.91
606.771	36793.65
607.128	36789.36
607.485	36717.72
607.843	36938.28
608.2	37230.93
608.557	37397.7
608.914	37359.06
609.272	37564.25
609.629	37632.73
609.986	37938.71
610.343	37817.81
610.7	38183.9
611.057	38186.38
611.414	38383.21
611.771	38522.19
612.127	38679.48
612.484	38769.42
612.841	38869.53
613.198	38949.98
613.554	38961.28
613.911	39359.23
614.267	39401.72
614.624	39422.51
614.98	39558.55
615.337	39824.98
615.693	39797.41
616.05	39820.01
616.406	40007.35
616.762	39941.59
617.118	40133.9
617.475	40212.77
617.831	40369.38
618.187	40358.76
618.543	40536.15
618.899	40735.69
619.255	40706.32
619.611	40646.88
619.967	40883.04
620.323	41041.9
620.678	40985.86
621.034	41018.4
621.39	41083.93
621.746	41012.07
622.101	41414.32
622.457	41200.54
622.812	41332.29
623.168	41564.83
623.523	41547.2
623.879	41468.1
624.234	41476.24
624.589	41659.06
624.945	41676.01
625.3	41707.65
625.655	41699.06
626.01	41624.48
626.365	41765.05
626.72	41727.08
627.075	41791.03
627.43	41863.35
627.785	41851.15
628.14	41934.53
628.495	41987.64
628.85	41972.05
629.205	41814.99
629.559	42280.96
629.914	42062.21
630.269	42039.16
630.623	42020.41
630.978	41984.93
631.332	42152.15
631.687	42259.04
632.041	41961.42
632.396	42144.24
632.75	41912.61
633.104	42092.95
633.459	42044.36
633.813	42044.59
634.167	41990.8
634.521	42134.53
634.875	42170.91
635.229	42056.56
635.583	41941.31
635.937	41940.86
636.291	41862.44
636.645	41990.12
636.999	41786.74
637.352	41982.22
637.706	41826.51
638.06	41850.24
638.413	41889.34
638.767	41720.53
639.121	41806.4
639.474	41711.49
639.828	41686.18
640.181	41776.8
640.534	41765.95
640.888	41561.89
641.241	41467.43
641.594	41529.8
641.947	41691.6
642.301	41510.59
642.654	41704.03
643.007	41745.16
643.36	41494.77
643.713	41479.63
644.066	41753.29
644.419	41398.73
644.771	41070.15
645.124	40894.79
645.477	40729.37
645.83	40556.94
646.182	40519.88
646.535	40302.49
646.888	40422.03
647.24	40169.61
647.593	40532.76
647.945	40265.42
648.298	40237.85
648.65	40107.01
649.002	40073.79
649.355	40304.29
649.707	40188.36
650.059	40349.04
650.411	40873.77
650.763	40857.05
651.115	41171.84
651.467	41140.43
651.819	41168.68
652.171	41048.23
652.523	40891.17
652.875	40813.66
653.227	40779.99
653.578	41110.15
653.93	40982.24
654.282	40934.79
654.633	40682.59
654.985	40763.26
655.337	40724.17
655.688	40799.65
656.039	41013.2
656.391	40477.17
656.742	40774.56
657.094	40734.79
657.445	40745.64
657.796	40669.71
658.147	40679.65
658.498	40697.05
658.849	40791.06
659.2	40671.06
659.551	40638.3
659.902	40876.03
660.253	40780.67
660.604	40758.07
660.955	40594.46
661.306	40758.07
661.656	40696.37
662.007	40595.36
662.358	40557.17
662.708	40630.61
663.059	40545.42
663.409	40321.69
663.76	40570.73
664.11	40634.68
664.461	40687.11
664.811	40614.57
665.161	40579.77
665.511	40528.24
665.862	40427.91
666.212	40628.35
666.562	40656.37
666.912	40530.05
667.262	40413.44
667.612	40526.43
667.962	40579.54
668.312	40503.84
668.662	40634.91
669.011	40551.29
669.361	40350.85
669.711	40390.39
670.06	40520.33
670.41	40275.37
670.76	40175.94
671.109	40442.82
671.459	40324.18
671.808	40180.91
672.157	40425.42
672.507	40121.02
672.856	40113.56
673.205	40293.45
673.554	40284.18
673.904	40154.69
674.253	40312.88
674.602	40350.62
674.951	39657.08
675.3	39495.28
675.649	40193.11
675.998	40141.81
676.346	40183.84
676.695	40263.16
677.044	39945.88
677.393	40108.82
677.741	40137.97
678.09	40099.78
678.438	39810.3
678.787	39930.97
679.135	39881.93
679.484	39738.66
679.832	39911.08
680.181	39658.89
680.529	39837.64
680.877	39664.54
681.225	39613.92
681.573	39883.29
681.922	39631.09
682.27	39493.69
682.618	39423.64
682.966	39232.91
683.314	39500.7
683.661	39302.74
684.009	39012.58
684.357	39038.11
684.705	38985.46
685.053	39026.36
685.4	38976.19
685.748	38868.4
686.095	38734.17
686.443	38742.98
686.79	38556.32
687.138	38675.41
687.485	38691.45
687.832	38556.99
688.18	38499.82
688.527	38354.06
688.874	38252.37
689.221	38247.17
689.568	38125.14
689.915	38101.64
690.262	38147.74
690.609	37949.78
690.956	38008.31
691.303	37888.99
691.65	37667.07
691.997	37738.49
692.344	37436.35
692.69	37438.38
693.037	37498.27
693.383	37167.88
693.73	37333.98
694.077	37040.42
694.423	37011.27
694.769	36895.8
695.116	36808.11
695.462	36849.92
695.808	36730.15
696.155	36705.29
696.501	36428.01
696.847	36458.29
697.193	36266.43
697.539	36429.14
697.885	36183.95
698.231	36037.06
698.577	36150.73
698.923	35957.74
699.269	35729.05
699.614	35809.72
699.96	35687.01
700.306	35774.47
700.651	35518.43
700.997	35386.23
701.342	35440.47
701.688	35254.71
702.033	35255.39
702.379	35132
702.724	34981.72
703.069	35214.94
703.415	34647.04
703.76	34861.27
704.105	34810.2
704.45	34699.02
704.795	34379.7
705.14	34326.6
705.485	34316.43
705.83	34158.47
706.175	34298.8
706.52	34216.77
706.865	34072.59
707.209	34039.15
707.554	33848.64
707.899	34052.71
708.243	33695.2
708.588	33807.74
708.932	33598.71
709.277	33594.87
709.621	33563.68
709.966	33350.8
710.31	33392.16
710.654	33075.56
710.998	33354.19
711.342	33166.4
711.687	33141.54
712.031	32913.53
712.375	32802.12
712.719	32845.28
713.063	32641.22
713.407	32906.97
713.75	32625.4
714.094	32724.83
714.438	32560.54
714.782	32589.69
715.125	32303.15
715.469	32475.12
715.812	32316.03
716.156	32183.83
716.499	32158.52
716.843	32171.85
717.186	32094.11
717.53	32105.19
717.873	32041.46
718.216	31944.97
718.559	31869.26
718.902	31578.65
719.246	31669.72
719.589	31629.95
719.932	31471.76
720.275	31531.64
720.617	31401.93
720.96	31422.04
721.303	31261.37
721.646	31409.39
721.989	31149.73
722.331	31301.82
722.674	31005.33
723.016	31154.93
723.359	31090.52
723.701	31135.04
724.044	30978.44
724.386	30792.45
724.729	30924.2
725.071	30887.82
725.413	30850.98
725.755	30837.2
726.097	30683.08
726.439	30585.45
726.782	30587.71
727.124	30720.36
727.465	30559.92
727.807	30500.71
728.149	30413.03
728.491	30495.51
728.833	30389.3
729.175	30349.3
729.516	30163.09
729.858	30260.72
730.199	30026.37
730.541	30145.92
730.882	30002.19
731.224	30087.84
731.565	29855.3
731.906	29904.57
732.248	30020.72
732.589	29767.62
732.93	29661.41
733.271	29715.19
733.612	29829.77
733.953	29733.27
734.294	29598.81
734.635	29535.31
734.976	29563.33
735.317	29460.28
735.658	29500.28
735.999	29420.96
736.339	29387.52
736.68	29554.97
737.021	29241.08
737.361	29180.97
737.702	29281.76
738.042	29171.7
738.383	29224.58
738.723	29173.06
739.063	29098.49
739.404	29150.01
739.744	29054.42
740.084	28962.9
740.424	28967.87
740.764	28782.56
741.104	28879.06
741.444	28839.06
741.784	28650.36
742.124	28729.91
742.464	28632.06
742.804	28639.06
743.143	28525.17
743.483	28573.3
743.823	28381.22
744.162	28399.3
744.502	28427.32
744.841	28392.52
745.181	28362.01
745.52	28357.04
745.86	28317.72
746.199	28253.08
746.538	28164.73
746.877	28306.19
747.216	28220.09
747.556	28156.14
747.895	28157.49
748.234	28011.28
748.573	27929.03
748.911	27967.67
749.25	27972.41
749.589	27718.18
749.928	27828.46
750.267	27814.45
750.605	27837.5
750.944	27583.5
751.283	27510.96
751.621	27653.78
751.96	27530.17
752.298	27413.56
752.636	27302.15
752.975	27327.91
753.313	27123.17
753.651	27318.65
753.989	27125.88
754.327	27227.12
754.666	26992.33
755.004	27167.69
755.342	27115.71
755.679	27064.19
756.017	26812.67
756.355	27047.01
756.693	26788.04
757.031	26767.93
757.368	26663.3
757.706	26686.57
758.044	26568.38
758.381	26605.44
758.719	26513.02
759.056	26415.39
759.394	26333.81
759.731	26247.26
760.068	26141.28
760.405	26020.83
760.743	25943.54
761.08	26026.7
761.417	25816.76
761.754	25817.22
762.091	25802.75
762.428	25652.48
762.765	25509.65
763.102	25540.16
763.438	25418.81
763.775	25352.6
764.112	25377.45
764.449	25289.32
764.785	25218.81
765.122	25066.28
765.458	25092.49
765.795	24996.9
766.131	24878.94
766.467	24714.65
766.804	24755.1
767.14	24645.72
767.476	24587.19
767.812	24469.23
768.148	24530.47
768.485	24312.4
768.821	24162.34
769.157	24044.38
769.492	24044.38
769.828	24068.34
770.164	23943.59
770.5	23819.08
770.836	23749.93
771.171	23733.43
771.507	23600.33
771.842	23437.84
772.178	23438.52
772.513	23338.86
772.849	23295.02
773.184	23149.72
773.519	23223.61
773.855	23095.93
774.19	22978.42
774.525	22874.47
774.86	22857.75
775.195	22824.08
775.53	22712.67
775.865	22534.59
776.2	22410.3
776.535	22356.29
776.87	22332.11
777.205	22265.22
777.539	22117.43
777.874	22225.67
778.209	21926.92
778.543	21874.27
778.878	21782.52
779.212	21726.25
779.547	21682.41
779.881	21695.52
780.215	21530.78
780.55	21480.61
780.884	21348.63
781.218	21332.59
781.552	21336.88
781.886	21195.64
782.22	21097.79
782.554	21005.82
782.888	20850.12
783.222	20730.34
783.556	20637.01
783.889	20581.42
784.223	20413.97
784.557	20462.33
784.89	20529.45
785.224	20333.75
785.557	20237.02
785.891	20267.98
786.224	20117.25
786.558	20187.99
786.891	20032.74
787.224	20003.36
787.557	19856.47
787.891	19819.86
788.224	19785.96
788.557	19757.04
788.89	19668.68
789.223	19665.74
789.556	19477.72
789.888	19424.39
790.221	19376.03
790.554	19183.27
790.887	19213.55
791.219	19137.84
791.552	19132.65
791.884	19075.02
792.217	18958.64
792.549	18868.92
792.882	18841.81
793.214	18717.06
793.546	18743.05
793.879	18643.39
794.211	18524.53
794.543	18605.65
794.875	18518.65
795.207	18451.08
795.539	18444.3
795.871	18407.24
796.203	18247.02
796.535	18130.64
796.867	18074.14
797.198	18128.15
797.53	18001.83
797.862	17939.23
798.193	17896.75
798.525	17758.67
798.856	17766.35
799.188	17654.49
799.519	17628.73
799.85	17495.4
800.182	17557.09
800.513	17545.12
800.844	17334.05
801.175	17454.95
801.506	17386.7
801.837	17202.3
802.168	17163.88
802.499	17082.31
802.83	17070.78
803.161	17009.99
803.491	17053.83
803.822	16944.23
804.153	16873.72
804.483	16795.53
804.814	16651.36
805.145	16601.87
805.475	16637.35
805.805	16595.76
806.136	16551.25
806.466	16591.24
806.796	16446.84
807.126	16398.48
807.457	16332.95
807.787	16352.61
808.117	16259.5
808.447	16189.45
808.777	16233.51
809.107	16218.15
809.436	16173.63
809.766	16214.53
810.096	16052.5
810.426	15952.84
810.755	16012.73
811.085	16020.41
811.414	15808.67
811.744	15816.35
812.073	15742
812.403	15747.2
812.732	15715.79
813.061	15674.21
813.39	15568.9
813.719	15599.18
814.049	15632.85
814.378	15579.75
814.707	15558.73
815.036	15499.97
815.365	15374.78
815.693	15311.96
816.022	15237.38
816.351	15130.27
816.68	15106.54
817.008	15178.4
817.337	15030.83
817.665	15097.27
817.994	15025.86
818.322	15091.62
818.651	14896.83
818.979	14888.01
819.307	14951.51
819.636	14850.27
819.964	14836.49
820.292	14829.03
820.62	14819.31
820.948	14748.13
821.276	14748.81
821.604	14751.74
821.932	14786.32
822.259	14770.28
822.587	14695.48
822.915	14680.79
823.243	14734.12
823.57	14714.68
823.898	14618.64
824.225	14617.29
824.553	14641.01
824.88	14659.77
825.207	14666.1
825.535	14629.04
825.862	14667
826.189	14586.78
826.516	14706.1
826.843	14745.87
827.17	14723.27
827.497	14736.83
827.824	14681.01
828.151	14809.82
828.478	14620
828.805	14721.69
829.131	14595.59
829.458	14600.11
829.785	14588.81
830.111	14646.21
830.438	14611.18
830.764	14578.87
831.09	14534.58
831.417	14543.16
831.743	14671.3
832.069	14630.17
832.395	14605.31
832.722	14586.55
833.048	14521.69
833.374	14534.12
833.7	14465.42
834.026	14445.09
834.351	14495.48
834.677	14495.03
835.003	14506.55
835.329	14597.4
835.654	14519.66
835.98	14367.57
836.306	14393.34
836.631	14346.33
836.956	14293.45
837.282	14423.62
837.607	14264.3
837.932	14192.21
838.258	14259.55
838.583	14177.52
838.908	14216.39
839.233	14196.51
839.558	14125.09
839.883	14061.37
840.208	14094.59
840.533	14031.09
840.858	14063.4
841.182	14042.84
841.507	13924.42
841.832	13893.24
842.156	13944.08
842.481	13883.75
842.805	13891.88
843.13	13856.63
843.454	13802.39
843.778	13737.31
844.103	13729.4
844.427	13714.48
844.751	13678.1
845.075	13653.92
845.399	13633.13
845.723	13581.61
846.047	13521.72
846.371	13439.91
846.695	13448.73
847.019	13346.58
847.343	13280.82
847.666	13195.63
847.99	13203.99
848.313	13202.18
848.637	13044.22
848.96	13069.76
849.284	12992.92
849.607	12852.59
849.931	12832.25
850.254	12753.38
850.577	12760.84
850.9	12635.19
851.223	12693.27
851.546	12593.38
851.869	12578.69
852.192	12557
852.515	12466.16
852.838	12358.36
853.161	12390.45
853.483	12313.16
853.806	12297.57
854.129	12248.08
854.451	12153.85
854.774	12105.94
855.096	12114.75
855.419	12160.17
855.741	12072.49
856.063	12038.14
856.385	11978.94
856.708	11946.85
857.03	11884.25
857.352	11914.76
857.674	11791.82
857.996	11776.91
858.318	11738.49
858.64	11734.2
858.961	11705.05
859.283	11647.87
859.605	11656.01
859.926	11611.26
860.248	11558.83
860.57	11538.95
860.891	11514.09
861.212	11502.11
861.534	11392.51
861.855	11401.78
862.176	11391.83
862.498	11408.1
862.819	11379.18
863.14	11341.89
863.461	11280.65
863.782	11286.07
864.103	11293.08
864.424	11239.52
864.745	11284.27
865.065	11180.09
865.386	11105.74
865.707	11079.75
866.027	11123.82
866.348	11110.48
866.668	11147.32
866.989	11082.46
867.309	11001.34
867.63	11051.5
867.95	10990.04
868.27	10983.48
868.59	10983.26
868.91	10970.83
869.23	10935.35
869.55	10873.2
869.87	10907.78
870.19	10904.84
870.51	10897.83
870.83	10836.82
871.15	10797.95
871.469	10780.32
871.789	10844.5
872.109	10819.19
872.428	10684.96
872.748	10763.38
873.067	10705.07
873.386	10787.33
873.706	10738.07
874.025	10621.91
874.344	10564.96
874.663	10599.54
874.982	10553.21
875.301	10567.67
875.62	10552.53
875.939	10522.93
876.258	10569.93
876.577	10522.03
876.896	10515.7
877.214	10466.43
877.533	10515.25
877.852	10466.21
878.17	10491.74
878.489	10423.27
878.807	10367.68
879.125	10402.93
879.444	10397.96
879.762	10320.9
880.08	10348.92
880.398	10299.21
880.716	10254.69
881.034	10321.13
881.352	10321.13
881.67	10255.37
881.988	10214.92
882.306	10200.45
882.624	10259.66
882.941	10109.16
883.259	10045.43
883.577	10078.2
883.894	10069.83
884.212	10044.52
884.529	9991.64
884.846	9995.03
885.164	9994.81
885.481	10013.56
885.798	9941.02
886.115	9895.6
886.432	9969.5
886.75	9886.56
887.067	9867.58
887.383	9796.17
887.7	9841.37
888.017	9801.59
888.334	9814.7
888.651	9767.24
888.967	9752.55
889.284	9704.65
889.6	9597.3
889.917	9545.55
890.233	9534.71
890.55	9587.81
890.866	9556.85
891.182	9542.84
891.498	9471.66
891.815	9460.81
892.131	9386.01
892.447	9462.17
892.763	9360.93
893.079	9316.18
893.395	9288.16
893.71	9231.66
894.026	9222.4
894.342	9247.03
894.657	9174.04
894.973	9140.59
895.289	9226.47
895.604	9170.42
895.92	9043.65
896.235	9073.93
896.55	9000.48
896.865	9009.07
897.181	8963.87
897.496	8901.5
897.811	8907.38
898.126	8879.81
898.441	8854.05
898.756	8839.36
899.071	8733.82
899.386	8796.65
899.7	8682.3
900.015	8646.37
900.33	8570.66
900.644	8694.95
900.959	8639.14
901.273	8561.63
901.588	8513.94
901.902	8499.25
902.216	8520.27
902.531	8475.3
902.845	8454.28
903.159	8288.86
903.473	8242.54
903.787	8308.75
904.101	8230.11
904.415	8271.46
904.729	8214.52
905.042	8181.52
905.356	8162.99
905.67	8112.15
905.984	8092.94
906.297	8094.74
906.611	8053.39
906.924	7982.43
907.237	7965.48
907.551	7959.61
907.864	7965.03
908.177	7907.18
908.491	7865.82
908.804	7817.01
909.117	7717.13
909.43	7716.68
909.743	7650.69
910.056	7649.56
910.368	7669.45
910.681	7580.86
910.994	7564.59
911.307	7543.8
911.619	7482.56
911.932	7525.49
912.244	7514.87
912.557	7507.42
912.869	7512.16
913.181	7441.65
913.494	7385.61
913.806	7322.56
914.118	7343.58
914.43	7237.59
914.742	7271.04
915.054	7229.23
915.366	7243.92
915.678	7169.35
915.99	7129.12
916.302	7146.52
916.613	7090.93
916.925	6993.98
917.236	7015.23
917.548	7014.32
917.859	6952.63
918.171	6921.89
918.482	6934.78
918.794	6839.86
919.105	6873.99
919.416	6805.29
919.727	6786.98
920.038	6699.08
920.349	6694.33
920.66	6701.11
920.971	6667.44
921.282	6669.92
921.593	6563.94
921.903	6569.81
922.214	6590.6
922.525	6527.78
922.835	6445.75
923.146	6483.71
923.456	6458.86
923.767	6421.12
924.077	6411.85
924.387	6360.78
924.697	6313.77
925.008	6321.01
925.318	6302.7
925.628	6288.92
925.938	6235.81
926.248	6155.59
926.558	6208.24
926.867	6134.12
927.177	6086.89
927.487	6097.51
927.796	6006.21
928.106	6030.62
928.416	6022.71
928.725	5972.31
929.034	5956.27
929.344	5945.65
929.653	5869.94
929.962	5900.68
930.271	5825.65
930.581	5853.22
930.89	5752.66
931.199	5757.18
931.508	5772.32
931.817	5773
932.125	5731.19
932.434	5694.36
932.743	5577.97
933.051	5634.47
933.36	5621.36
933.669	5613.45
933.977	5522.16
934.286	5510.86
934.594	5535.72
934.902	5437.87
935.21	5430.18
935.519	5481.03
935.827	5425.21
936.135	5384.08
936.443	5352.44
936.751	5318.32
937.059	5336.17
937.367	5298.89
937.674	5332.11
937.982	5281.94
938.29	5239.68
938.597	5233.35
938.905	5192.45
939.213	5182.05
939.52	5178.44
939.827	5211.66
940.135	5113.81
940.442	5128.72
940.749	5101.6
941.056	5051.89
941.363	4963.53
941.67	5010.76
941.977	4960.14
942.284	4910.65
942.591	4970.31
942.898	4889.86
943.205	4904.09
943.511	4887.82
943.818	4847.82
944.125	4832.23
944.431	4783.42
944.738	4848.28
945.044	4861.84
945.35	4774.38
945.657	4698.22
945.963	4715.62
946.269	4689.86
946.575	4649.64
946.881	4647.15
947.187	4648.96
947.493	4580.49
947.799	4552.69
948.105	4555.63
948.41	4521.51
948.716	4526.48
949.022	4516.99
949.327	4500.94
949.633	4444.9
949.938	4434.95
950.244	4431.79
950.549	4395.86
950.854	4426.14
951.16	4362.87
951.465	4347.05
951.77	4339.14
952.075	4351.11
952.38	4307.27
952.685	4290.78
952.99	4254.39
953.294	4253.72
953.599	4229.76
953.904	4198.58
954.209	4171.68
954.513	4175.3
954.818	4151.12
955.122	4128.52
955.426	4125.58
955.731	4110.89
956.035	4084.68
956.339	4029.54
956.643	4063.44
956.948	4022.54
957.252	4039.94
957.556	4001.52
957.86	3988.41
958.163	3937.11
958.467	3924.23
958.771	3954.29
959.075	3885.14
959.378	3874.74
959.682	3904.12
959.985	3886.27
960.289	3847.62
960.592	3839.26
960.896	3798.13
961.199	3782.77
961.502	3798.81
961.805	3742.99
962.108	3735.09
962.411	3745.93
962.714	3729.21
963.017	3699.15
963.32	3653.73
963.623	3681.08
963.926	3676.33
964.228	3601.3
964.531	3643.56
964.833	3591.59
965.136	3576.45
965.438	3603.34
965.741	3526.28
966.043	3583.9
966.345	3544.36
966.648	3513.4
966.95	3481.08
967.252	3462.32
967.554	3433.62
967.856	3469.56
968.158	3422.1
968.46	3405.15
968.761	3375.09
969.063	3403.34
969.365	3377.81
969.666	3389.11
969.968	3310.24
970.269	3334.42
970.571	3308.2
970.872	3293.52
971.174	3276.34
971.475	3277.92
971.776	3239.73
972.077	3256.91
972.378	3234.08
972.679	3216.91
972.98	3205.16
973.281	3192.95
973.582	3174.42
973.883	3181.65
974.183	3136.46
974.484	3178.49
974.785	3154.76
975.085	3109.57
975.386	3094.2
975.686	3110.7
975.986	3075.89
976.287	3012.39
976.587	3015.56
976.887	3011.04
977.187	3009.23
977.487	2985.73
977.787	2998.16
978.087	3002.45
978.387	2950.02
978.687	2930.13
978.987	2923.36
979.286	2929.91
979.586	2910.02
979.885	2868.22
980.185	2875.45
980.484	2859.63
980.784	2846.07
981.083	2856.46
981.382	2853.98
981.682	2806.97
981.981	2839.52
982.28	2776.69
982.579	2778.95
982.878	2745.73
983.177	2767.65
983.475	2750.03
983.774	2734.89
984.073	2745.28
984.372	2675.9
984.67	2721.78
984.969	2699.63
985.267	2690.82
985.566	2667.99
985.864	2664.15
986.162	2617.15
986.461	2655.79
986.759	2603.59
987.057	2549.35
987.355	2609.69
987.653	2555.46
987.951	2578.28
988.249	2547.55
988.547	2567.88
988.844	2545.96
989.142	2540.09
989.44	2487.43
989.737	2515.68
990.035	2497.15
990.332	2468.23
990.63	2498.73
990.927	2452.86
991.224	2454.22
991.521	2437.04
991.819	2390.04
992.116	2425.29
992.413	2394.78
992.71	2417.15
993.006	2364.73
993.303	2361.56
993.6	2380.54
993.897	2367.89
994.193	2353.65
994.49	2298.29
994.787	2328.34
995.083	2301.22
995.379	2277.27
995.676	2260.55
995.972	2259.42
996.268	2249.02
996.565	2245.41
996.861	2227.1
997.157	2237.95
997.453	2230.04
997.749	2195.24
998.044	2204.05
998.34	2184.84
998.636	2159.08
998.932	2146.2
999.227	2152.75
999.523	2144.62
999.818	2129.03
1000.114	2114.34
1000.409	2089.03
1000.704	2109.59
1001	2085.86
1001.295	2075.69
1001.59	2016.71
1001.885	2051.29
1002.18	2020.78
1002.475	1999.31
1002.77	1995.7
1003.065	2019.65
1003.359	1992.08
1003.654	2011.51
1003.949	2001.35
1004.243	1942.36
1004.538	1923.16
1004.832	1943.95
1005.127	1957.51
1005.421	1923.16
1005.715	1931.74
1006.009	1923.61
1006.304	1877.51
1006.598	1851.75
1006.892	1883.38
1007.186	1831.86
1007.48	1839.54
1007.773	1877.73
1008.067	1847.45
1008.361	1787.79
1008.655	1804.97
1008.948	1785.98
1009.242	1781.69
1009.535	1793.22
1009.829	1782.59
1010.122	1747.34
1010.415	1772.88
1010.708	1727.45
1011.001	1725.87
1011.295	1711.18
1011.588	1688.81
1011.881	1701.69
1012.173	1680
1012.466	1696.27
1012.759	1658.3
1013.052	1675.93
1013.344	1659.66
1013.637	1657.85
1013.93	1656.04
1014.222	1629.6
1014.514	1598.87
1014.807	1593.9
1015.099	1581.47
1015.391	1580.57
1015.683	1586.22
1015.976	1582.37
1016.268	1552.32
1016.56	1534.47
1016.851	1517.29
1017.143	1534.01
1017.435	1496.73
1017.727	1531.98
1018.018	1538.76
1018.31	1503.51
1018.602	1487.46
1018.893	1456.05
1019.185	1466.22
1019.476	1445.43
1019.767	1432.32
1020.058	1460.79
1020.35	1429.16
1020.641	1404.98
1020.932	1413.56
1021.223	1377.86
1021.514	1393.68
1021.804	1366.11
1022.095	1366.79
1022.386	1340.57
1022.677	1370.63
1022.967	1358.88
1023.258	1328.37
1023.548	1319.1
1023.839	1303.74
1024.129	1284.75
1024.419	1291.53
1024.709	1283.62
1025	1312.32
1025.29	1259.22
1025.58	1263.06
1025.87	1268.26
1026.16	1240.01
1026.449	1246.11
1026.739	1235.26
1027.029	1240.01
1027.319	1216.96
1027.608	1239.11
1027.898	1206.34
1028.187	1189.62
1028.477	1207.47
1028.766	1190.29
1029.055	1167.47
1029.344	1152.78
1029.634	1168.37
1029.923	1168.37
1030.212	1164.31
1030.501	1158.2
1030.79	1124.98
1031.078	1135.61
1031.367	1112.78
1031.656	1103.06
1031.945	1085.89
1032.233	1116.17
1032.522	1085.89
1032.81	1077.3
1033.099	1075.72
1033.387	1070.75
1033.675	1092.22
1033.963	1050.64
1034.251	1061.94
1034.54	1027.59
1034.828	1027.36
1035.116	1025.33
1035.403	1021.03
1035.691	1012.9
1035.979	1013.58
1036.267	1016.06
1036.554	1001.82
1036.842	985.1
1037.129	976.74
1037.417	975.16
1037.704	959.79
1037.992	955.72
1038.279	932.9
1038.566	950.75
1038.853	950.75
1039.14	950.75
