Data from hue_38_FLMS001491_00007.txt Node
Date: Tue Feb 07 17:30:58 GMT 2017
User: dcchb
Spectrometer: FLMS00149
Trigger mode: 0
Integration Time (sec): 2.000000E-2
Scans to average: 10
Electric dark correction enabled: true
Nonlinearity correction enabled: false
Boxcar width: 0
XAxis mode: Wavelengths
Number of Pixels in Spectrum: 2048
>>>>>Begin Spectral Data<<<<<
341.393	-18.29
341.776	-18.29
342.16	-18.29
342.543	-53.32
342.927	-50.38
343.31	-63.26
343.693	-70.04
344.077	-70.04
344.46	-54
344.843	-41.79
345.226	-61.23
345.61	-40.89
345.993	-8.35
346.376	-1.34
346.759	23.29
347.142	29.84
347.525	58.09
347.908	48.37
348.291	64.42
348.674	97.19
349.057	89.73
349.44	121.37
349.823	157.98
350.206	166.79
350.588	193
350.971	199.33
351.354	216.05
351.737	241.82
352.119	251.53
352.502	269.84
352.884	274.36
353.267	274.81
353.65	287.01
354.032	304.86
354.414	319.33
354.797	334.02
355.179	318.42
355.562	330.85
355.944	335.37
356.326	311.87
356.709	344.86
357.091	341.7
357.473	360.68
357.855	362.26
358.238	348.93
358.62	338.99
359.002	338.54
359.384	342.15
359.766	334.24
360.148	348.71
360.53	343.96
360.912	342.38
361.294	344.19
361.676	334.47
362.057	341.02
362.439	324.07
362.821	343.96
363.203	330.63
363.584	334.24
363.966	343.06
364.348	331.98
364.729	318.2
365.111	322.94
365.493	325.66
365.874	339.67
366.256	327.69
366.637	325.2
367.019	311.64
367.4	317.29
367.781	310.74
368.163	319.1
368.544	336.28
368.925	333.34
369.306	328.82
369.688	331.53
370.069	337.41
370.45	340.12
370.831	321.81
371.212	333.34
371.593	324.3
371.974	325.43
372.355	334.69
372.736	308.93
373.117	310.97
373.498	320.01
373.879	319.78
374.26	303.28
374.641	333.11
375.021	322.04
375.402	306.22
375.783	317.52
376.163	323.4
376.544	326.79
376.925	331.08
377.305	332.89
377.686	337.63
378.066	332.21
378.447	342.38
378.827	336.95
379.208	341.7
379.588	339.67
379.968	329.72
380.349	336.95
380.729	335.15
381.109	361.81
381.489	334.69
381.87	328.14
382.25	341.02
382.63	332.89
383.01	343.73
383.39	342.83
383.77	360.23
384.15	352.55
384.53	355.03
384.91	352.55
385.29	340.12
385.67	348.71
386.049	338.76
386.429	367.91
386.809	377.18
387.189	366.11
387.568	372.66
387.948	365.88
388.328	358.65
388.707	354.36
389.087	376.28
389.466	376.28
389.846	359.1
390.225	361.59
390.605	360.91
390.984	364.52
391.363	386.44
391.743	391.19
392.122	364.3
392.501	378.76
392.881	379.44
393.26	393.9
393.639	376.95
394.018	402.49
394.397	374.69
394.776	394.13
395.155	380.8
395.534	381.47
395.913	393.68
396.292	404.75
396.671	381.02
397.05	395.48
397.429	392.09
397.808	398.42
398.186	412.21
398.565	392.32
398.944	388.93
399.323	401.59
399.701	408.82
400.08	393
400.458	404.07
400.837	409.72
401.215	405.65
401.594	381.47
401.972	401.13
402.351	411.08
402.729	398.65
403.107	427.35
403.486	421.47
403.864	413.79
404.242	427.8
404.62	405.2
404.999	412.43
405.377	426.44
405.755	423.28
406.133	439.78
406.511	440.45
406.889	429.38
407.267	419.21
407.645	417.63
408.023	433
408.401	444.52
408.779	439.78
409.156	425.09
409.534	449.49
409.912	476.16
410.29	463.05
410.667	460.79
411.045	470.28
411.422	476.16
411.8	452.21
412.178	467.35
412.555	478.87
412.933	503.28
413.31	500.57
413.687	505.09
414.065	477.06
414.442	495.82
414.819	490.17
415.197	493.56
415.574	511.64
415.951	503.5
416.328	517.74
416.705	519.55
417.082	510.51
417.46	512.99
417.837	531.75
418.214	518.87
418.591	501.47
418.967	511.41
419.344	511.87
419.721	531.75
420.098	538.08
420.475	512.54
420.852	529.94
421.228	533.11
421.605	543.73
421.982	545.31
422.358	557.06
422.735	564.07
423.111	565.2
423.488	568.13
423.864	563.39
424.241	558.64
424.617	582.6
424.994	591.64
425.37	572.65
425.746	601.13
426.123	600
426.499	611.07
426.875	600.68
427.251	599.55
427.627	582.6
428.003	606.78
428.379	623.5
428.756	617.4
429.132	626.66
429.507	614.01
429.883	659.66
430.259	630.73
430.635	658.3
431.011	647.91
431.387	651.07
431.763	647.23
432.138	660.34
432.514	672.54
432.89	680.9
433.265	694.69
433.641	689.04
434.016	698.07
434.392	728.13
434.767	730.16
435.143	694.46
435.518	724.74
435.894	726.55
436.269	748.92
436.644	727
437.02	762.25
437.395	750.95
437.77	764.06
438.145	755.25
438.52	762.25
438.895	779.43
439.271	752.31
439.646	775.81
440.021	776.49
440.395	781.91
440.77	805.42
441.145	792.76
441.52	797.96
441.895	831.18
442.27	826.89
442.645	836.83
443.019	838.64
443.394	837.28
443.769	827.56
444.143	855.36
444.518	842.03
444.892	815.59
445.267	856.26
445.641	851.52
446.016	840.9
446.39	859.65
446.764	874.79
447.139	845.42
447.513	865.53
447.887	885.19
448.262	886.32
448.636	889.48
449.01	889.93
449.384	891.52
449.758	901.23
450.132	903.27
450.506	929.71
450.88	933.55
451.254	924.28
451.628	934.45
452.002	952.76
452.376	952.08
452.75	947.33
453.123	954.11
453.497	977.84
453.871	984.62
454.244	979.2
454.618	994.79
454.992	1018.74
455.365	1010.84
455.739	1043.83
456.112	1035.24
456.486	1042.25
456.859	1057.84
457.232	1086.09
457.606	1069.36
457.979	1094.45
458.352	1107.78
458.725	1139.42
459.099	1132.19
459.472	1133.54
459.845	1150.72
460.218	1170.15
460.591	1159.31
460.964	1174.22
461.337	1230.94
461.71	1240.89
462.083	1246.99
462.456	1245.18
462.829	1249.25
463.201	1279.98
463.574	1286.08
463.947	1283.6
464.32	1311.17
464.692	1334.22
465.065	1315.91
465.438	1366.31
465.81	1372.86
466.183	1370.6
466.555	1404.95
466.928	1447.89
467.3	1450.37
467.672	1459.18
468.045	1479.98
468.417	1489.92
468.789	1540.09
469.161	1529.69
469.534	1547.09
469.906	1613.08
470.278	1620.08
470.65	1642.46
471.022	1664.6
471.394	1687.43
471.766	1737.82
472.138	1735.79
472.51	1809.91
472.882	1816.92
473.253	1828.21
473.625	1885.84
473.997	1897.82
474.369	1893.52
474.74	1961.09
475.112	2014.2
475.484	2072.73
475.855	2107.3
476.227	2125.83
476.598	2199.73
476.97	2208.54
477.341	2287.19
477.713	2302.33
478.084	2396.79
478.455	2433.17
478.827	2505.03
479.198	2578.7
479.569	2632.94
479.94	2670.9
480.311	2732.15
480.682	2782.54
481.053	2869.32
481.424	2950.9
481.795	3027.05
482.166	3111.12
482.537	3140.72
482.908	3252.81
483.279	3259.59
483.65	3368.97
484.021	3508.62
484.391	3560.82
484.762	3597.89
485.133	3683.31
485.503	3746.58
485.874	3837.43
486.244	3944.32
486.615	4018.21
486.985	4149.51
487.356	4243.97
487.726	4302.95
488.097	4438.54
488.467	4493.91
488.837	4621.59
489.207	4768.93
489.578	4803.28
489.948	4903.16
490.318	5038.75
490.688	5068.13
491.058	5222.48
491.428	5350.83
491.798	5379.99
492.168	5556.25
492.538	5612.07
492.908	5735.46
493.278	5852.06
493.648	5951.27
494.017	6053.41
494.387	6075.33
494.757	6227.87
495.126	6291.37
495.496	6395.55
495.866	6451.14
496.235	6605.04
496.605	6681.65
496.974	6753.51
497.344	6805.94
497.713	6991.92
498.082	7047.29
498.452	7104.23
498.821	7239.82
499.19	7273.5
499.559	7409.08
499.928	7451.8
500.298	7571.79
500.667	7646.14
501.036	7699.7
501.405	7842.52
501.774	7880.48
502.143	7966.81
502.512	8020.82
502.88	8170.42
503.249	8190.53
503.618	8270.08
503.987	8340.81
504.356	8422.17
504.724	8525.21
505.093	8542.39
505.462	8615.83
505.83	8731.99
506.199	8811.31
506.567	8868.71
506.936	8952.55
507.304	9095.82
507.672	9102.6
508.041	9190.96
508.409	9317.51
508.777	9362.03
509.145	9513.89
509.514	9523.61
509.882	9583.94
510.25	9556.6
510.618	9676.14
510.986	9724.96
511.354	9852.64
511.722	9944.61
512.09	9900.54
512.458	10063.03
512.826	10116.36
513.193	10230.03
513.561	10262.34
513.929	10301.66
514.297	10483.13
514.664	10486.97
515.032	10575.78
515.4	10609.9
515.767	10680.86
516.135	10789.33
516.502	10732.39
516.869	10879.95
517.237	10908.2
517.604	10993.4
517.972	11121.3
518.339	11079.95
518.706	11152.72
519.073	11232.94
519.44	11293.95
519.808	11401.52
520.175	11401.3
520.542	11553.16
520.909	11654.62
521.276	11561.97
521.643	11739.59
522.009	11843.09
522.376	11900.04
522.743	11997.21
523.11	12063.88
523.477	12183.2
523.843	12272.01
524.21	12377.54
524.577	12456.41
524.943	12512.68
525.31	12454.6
525.676	12658.21
526.043	12680.58
526.409	12861.82
526.776	12937.08
527.142	12952.22
527.508	13001.25
527.874	13069.5
528.241	13211.87
528.607	13232.66
528.973	13374.35
529.339	13328.48
529.705	13513.33
530.071	13532.54
530.437	13593.1
530.803	13711.97
531.169	13800.78
531.535	13823.83
531.901	13917.16
532.267	13853.44
532.632	14099.98
532.998	14184.05
533.364	14223.82
533.73	14184.95
534.095	14375.23
534.461	14396.7
534.826	14487.54
535.192	14485.73
535.557	14632.85
535.923	14588.78
536.288	14667.2
536.653	14756.91
537.019	14776.57
537.384	14845.05
537.749	14878.94
538.114	14947.64
538.479	14977.25
538.845	15073.52
539.21	15062.67
539.575	15103.35
539.94	15149.67
540.305	15258.37
540.67	15313.28
541.034	15393.96
541.399	15441.87
541.764	15446.16
542.129	15651.81
542.494	15551.24
542.858	15628.53
543.223	15671.47
543.587	15825.13
543.952	15791.46
544.316	15836.43
544.681	15869.88
545.045	15981.06
545.41	16118.46
545.774	16158.01
546.138	16139.7
546.503	16203.43
546.867	16333.6
547.231	16366.14
547.595	16520.94
547.959	16455.17
548.324	16462.63
548.688	16527.04
549.052	16646.36
549.416	16587.37
549.779	16701.72
550.143	16705.56
550.507	16855.84
550.871	16929.74
551.235	16918.44
551.599	17076.4
551.962	17051.32
552.326	17040.24
552.689	17296.96
553.053	17173.8
553.417	17252.22
553.78	17445.43
554.143	17328.6
554.507	17453.34
554.87	17552.09
555.234	17622.38
555.597	17530.85
555.96	17728.59
556.323	17761.81
556.686	17732.43
557.05	17909.83
557.413	17961.35
557.776	18014.46
558.139	18106.88
558.502	18195.92
558.865	18186.65
559.228	18223.49
559.59	18309.36
559.953	18457.16
560.316	18518.4
560.679	18616.7
561.041	18725.17
561.404	18774.89
561.767	18819.86
562.129	18776.92
562.492	19022.11
562.854	19042.45
563.217	18999.97
563.579	19063.92
563.941	19268.66
564.304	19232.5
564.666	19385.95
565.028	19404.93
565.39	19437.24
565.753	19569.9
566.115	19518.37
566.477	19718.14
566.839	19725.82
567.201	19870.45
567.563	19897.57
567.925	20091.24
568.287	19994.97
568.648	20087.4
569.01	20219.37
569.372	20343.43
569.734	20313.15
570.095	20528.74
570.457	20560.6
570.819	20580.26
571.18	20694.61
571.542	20821.16
571.903	20813.48
572.265	20872.69
572.626	20968.95
572.987	21065.67
573.349	21219.57
573.71	21267.48
574.071	21367.81
574.432	21444.87
574.794	21658.43
575.155	21699.56
575.516	21692.33
575.877	21797.86
576.238	21975.48
576.599	22071.52
576.96	22211.41
577.32	22274.91
577.681	22452.31
578.042	22538.63
578.403	22723.48
578.763	22815.91
579.124	22918.06
579.485	23123.02
579.845	23389.91
580.206	23333.86
580.566	23438.72
580.927	23538.15
581.287	23855.66
581.648	23891.36
582.008	24302.2
582.368	24288.19
582.728	24378.81
583.089	24598.92
583.449	24692.25
583.809	24807.05
584.169	25182.63
584.529	25209.52
584.889	25477.54
585.249	25508.5
585.609	25706.91
585.969	26082.72
586.329	26175.6
586.688	26470.73
587.048	26608.58
587.408	26694.68
587.768	26987.55
588.127	27185.51
588.487	27287.88
588.846	27766.29
589.206	27712.28
589.565	27985.72
589.925	28324.69
590.284	28406.27
590.643	28624.8
591.003	28899.14
591.362	29116.76
591.721	29361.05
592.08	29528.73
592.44	29716.29
592.799	30060.69
593.158	30126.91
593.517	30270.4
593.876	30761.92
594.235	30754.23
594.593	30950.84
594.952	31264.28
595.311	31422.46
595.67	31633.08
596.029	32062
596.387	32211.6
596.746	32420.18
597.104	32457.47
597.463	32643.45
597.822	33041.86
598.18	33032.37
598.538	33194.4
598.897	33588.51
599.255	33430.32
599.613	34115.05
599.972	34110.08
600.33	34192.11
600.688	34379
601.046	34616.51
601.404	34969.72
601.762	34905.76
602.12	35192.08
602.478	35426.43
602.836	35543.94
603.194	35494.67
603.552	35822.35
603.91	35969.92
604.268	36127.2
604.625	36062.34
604.983	36562.89
605.341	36430.69
605.698	36722.66
606.056	36970.12
606.413	36928.53
606.771	37281.29
607.128	37408.3
607.485	37271.12
607.843	37571.23
608.2	37806.03
608.557	38014.61
608.914	37962.41
609.272	38182.06
609.629	38411.66
609.986	38534.14
610.343	38500.24
610.7	38900.46
611.057	39074.69
611.414	38988.14
611.771	39148.36
612.127	39297.06
612.484	39391.75
612.841	39648.92
613.198	39642.81
613.554	39677.84
613.911	39959.42
614.267	40031.5
614.624	40020.88
614.98	40005.29
615.337	40424.94
615.693	40410.7
616.05	40530.25
616.406	40807.3
616.762	40613.18
617.118	40822.22
617.475	40856.34
617.831	41004.36
618.187	41087.07
618.543	41141.08
618.899	41354.63
619.255	41471.47
619.611	41394.18
619.967	41757.79
620.323	41769.54
620.678	41645.02
621.034	41647.05
621.39	41760.5
621.746	41718.92
622.101	42237.77
622.457	42059.7
622.812	42131.34
623.168	42282.74
623.523	42136.31
623.879	42486.58
624.234	42176.76
624.589	42341.73
624.945	42460.14
625.3	42610.42
625.655	42573.81
626.01	42460.14
626.365	42593.92
626.72	42555.51
627.075	42594.6
627.43	42716.86
627.785	42673.02
628.14	42779.91
628.495	42847.93
628.85	42665.78
629.205	42595.28
629.559	42876.17
629.914	42663.07
630.269	42805.89
630.623	42799.34
630.978	42708.95
631.332	42928.6
631.687	42967.25
632.041	42719.34
632.396	42827.81
632.75	42659.23
633.104	42877.98
633.459	42717.99
633.813	42700.13
634.167	42762.28
634.521	42801.6
634.875	42728.38
635.229	42933.8
635.583	42576.75
635.937	42716.86
636.291	42707.37
636.645	42566.35
636.999	42753.24
637.352	42785.33
637.706	42670.3
638.06	42649.97
638.413	42568.61
638.767	42403.87
639.121	42590.08
639.474	42351.89
639.828	42481.38
640.181	42396.87
640.534	42495.62
640.888	42314.16
641.241	42157.32
641.594	42193.71
641.947	42446.58
642.301	42298.34
642.654	42339.24
643.007	42350.09
643.36	42287.26
643.713	42263.31
644.066	42357.54
644.419	42032.13
644.771	41903.09
645.124	41607.96
645.477	41516.89
645.83	41233.73
646.182	41131.14
646.535	41038.94
646.888	41057.92
647.24	40884.81
647.593	41028.09
647.945	41014.53
648.298	41004.81
648.65	40834.87
649.002	40780.64
649.355	40955.1
649.707	40967.75
650.059	41133.17
650.411	41604.57
650.763	41527.06
651.115	42027.38
651.467	41842.76
651.819	41795.07
652.171	41763.44
652.523	41681.4
652.875	41676.21
653.227	41665.13
653.578	41815.64
653.93	41605.02
654.282	41457
654.633	41319.83
654.985	41406.16
655.337	41506.95
655.688	41476.21
656.039	41671.69
656.391	41335.88
656.742	41485.48
657.094	41347.85
657.445	41552.59
657.796	41509.66
658.147	41481.18
658.498	41445.25
658.849	41419.04
659.2	41309.89
659.551	41274.18
659.902	41426.04
660.253	41473.05
660.604	41419.72
660.955	41305.59
661.306	41318.02
661.656	41093.17
662.007	41318.25
662.358	41248.42
662.708	41201.87
663.059	41169.55
663.409	40898.6
663.76	41448.42
664.11	41293.84
664.461	41221.08
664.811	41315.54
665.161	41095.43
665.511	41162.32
665.862	41101.08
666.212	41107.63
666.562	41192.6
666.912	41097.01
667.262	40971.59
667.612	41089.1
667.962	41083.91
668.312	41063.57
668.662	41306.95
669.011	41148.54
669.361	41056.56
669.711	41156.67
670.06	41054.53
670.41	40935.89
670.76	40899.5
671.109	41190.12
671.459	41005.94
671.808	40964.59
672.157	40900.18
672.507	40741.77
672.856	40809.11
673.205	40710.13
673.554	40834.19
673.904	40853.86
674.253	41073.96
674.602	40838.94
674.951	40222.01
675.3	40087.32
675.649	40717.36
675.998	40772.28
676.346	40588.55
676.695	40803.24
677.044	40398.5
677.393	40738.83
677.741	40682.11
678.09	40617.93
678.438	40381.55
678.787	40678.94
679.135	40636.46
679.484	40334.09
679.832	40556.24
680.181	40080.77
680.529	40446.18
680.877	40200.99
681.225	40243.02
681.573	40492.28
681.922	40011.39
682.27	40075.34
682.618	40039.87
682.966	39853.2
683.314	40073.76
683.661	39942.92
684.009	39699.99
684.357	39628.12
684.705	39496.6
685.053	39681.68
685.4	39613.21
685.748	39459.32
686.095	39506.77
686.443	39262.94
686.79	39238.08
687.138	39374.12
687.485	39436.72
687.832	39324.18
688.18	39393.1
688.527	38856.17
688.874	38915.83
689.221	38869.73
689.568	38885.77
689.915	38842.16
690.262	38749.5
690.609	38618.89
690.956	38526.01
691.303	38389.97
691.65	38176.41
691.997	38247.82
692.344	38071.78
692.69	38013.93
693.037	38060.71
693.383	37818.23
693.73	37901.62
694.077	37648.06
694.423	37720.6
694.769	37391.12
695.116	37508.63
695.462	37374.4
695.808	37272.03
696.155	37434.51
696.501	37060.73
696.847	37147.29
697.193	36792.27
697.539	37001.75
697.885	36643.34
698.231	36685.6
698.577	36606.96
698.923	36515.66
699.269	36384.37
699.614	36174.43
699.96	36205.84
700.306	36195.22
700.651	36100.08
700.997	36002.91
701.342	35948.9
701.688	35854.21
702.033	35621.9
702.379	35589.13
702.724	35566.54
703.069	35724.95
703.415	35284.51
703.76	35346.2
704.105	35286.54
704.45	35244.51
704.795	34990.05
705.14	34966.78
705.485	34896.05
705.83	34724.3
706.175	34734.92
706.52	34752.55
706.865	34547.81
707.209	34592.78
707.554	34555.04
707.899	34517.07
708.243	34240.92
708.588	34227.14
708.932	34174.26
709.277	33990.31
709.621	34084.77
709.966	33832.57
710.31	33937.65
710.654	33584.89
710.998	33636.87
711.342	33579.24
711.687	33430.32
712.031	33369.98
712.375	33388.29
712.719	33418.8
713.063	33262.64
713.407	33329.99
713.75	33189.88
714.094	33096.09
714.438	32937
714.782	32969.54
715.125	32916.44
715.469	32965.25
715.812	32831.69
716.156	32620.17
716.499	32680.74
716.843	32634.64
717.186	32488.43
717.53	32600.51
717.873	32498.14
718.216	32449.56
718.559	32395.77
718.902	32079.4
719.246	32265.61
719.589	32027.19
719.932	31880.76
720.275	31988.33
720.617	31969.79
720.96	31848.44
721.303	31850.48
721.646	31834.21
721.989	31624.49
722.331	31775.45
722.674	31604.61
723.016	31569.81
723.359	31603.93
723.701	31682.34
724.044	31512.86
724.386	31279.87
724.729	31491.16
725.071	31327.55
725.413	31362.58
725.755	31342.24
726.097	31249.59
726.439	31015.7
726.782	30989.71
727.124	31201.91
727.465	30941.57
727.807	30952.42
728.149	30877.17
728.491	30805.08
728.833	30902.93
729.175	30758.75
729.516	30660.9
729.858	30639.43
730.199	30586.1
730.541	30445.09
730.882	30477.4
731.224	30628.59
731.565	30361.48
731.906	30488.48
732.248	30370.52
732.589	30209.16
732.93	30201.93
733.271	30116.74
733.612	30327.35
733.953	30189.5
734.294	30081.71
734.635	30025.44
734.976	30168.03
735.317	29925.55
735.658	29898.89
735.999	29972.79
736.339	29771.43
736.68	29878.78
737.021	29807.82
737.361	29694.37
737.702	29763.98
738.042	29712.68
738.383	29529.18
738.723	29495.06
739.063	29557.43
739.404	29566.24
739.744	29374.83
740.084	29384.78
740.424	29423.2
740.764	29262.97
741.104	29461.39
741.444	29230.88
741.784	29136.88
742.124	29225.23
742.464	29190.21
742.804	29208.74
743.143	28955.86
743.483	28970.33
743.823	28808.97
744.162	28893.27
744.502	28892.59
744.841	28891.91
745.181	28873.15
745.52	28600.84
745.86	28824.11
746.199	28663.44
746.538	28635.65
746.877	28541.41
747.216	28571.69
747.556	28516.1
747.895	28514.07
748.234	28468.87
748.573	28479.72
748.911	28329.21
749.25	28301.42
749.589	28279.5
749.928	28158.14
750.267	28318.59
750.605	28117.92
750.944	28121.76
751.283	27957.25
751.621	27939.62
751.96	27836.8
752.298	27759.74
752.636	27779.62
752.975	27734.43
753.313	27663.24
753.651	27769
753.989	27611.27
754.327	27546.86
754.666	27496.92
755.004	27403.59
755.342	27501.21
755.679	27335.79
756.017	27210.15
756.355	27237.49
756.693	27178.51
757.031	27254.66
757.368	27027.1
757.706	26973.54
758.044	26985.07
758.381	27015.8
758.719	26809.25
759.056	26935.35
759.394	26808.35
759.731	26615.13
760.068	26548.69
760.405	26489.71
760.743	26284.07
761.08	26400.22
761.417	26357.74
761.754	26292.66
762.091	26168.14
762.428	26173.34
762.765	25992.78
763.102	25988.94
763.438	25892.44
763.775	25753.46
764.112	25776.74
764.449	25798.66
764.785	25634.14
765.122	25445.67
765.458	25334.04
765.795	25308.05
766.131	25373.36
766.467	25106.47
766.804	25027.38
767.14	24911
767.476	25002.29
767.812	24811.34
768.148	24866.7
768.485	24606.82
768.821	24586.71
769.157	24504
769.492	24442.31
769.828	24418.13
770.164	24154.86
770.5	24235.31
770.836	24281.86
771.171	23927.97
771.507	24039.16
771.842	23808.65
772.178	23813.4
772.513	23705.15
772.849	23654.76
773.184	23542.45
773.519	23498.38
773.855	23251.38
774.19	23270.59
774.525	23228.1
774.86	23175.45
775.195	23228.56
775.53	23139.07
775.865	22902.69
776.2	22800.09
776.535	22692.75
776.87	22627.44
777.205	22643.26
777.539	22504.28
777.874	22368.01
778.209	22265.19
778.543	22316.94
778.878	22157.4
779.212	22198.07
779.547	22046.44
779.881	22052.54
780.215	21902.26
780.55	21881.02
780.884	21654.59
781.218	21652.78
781.552	21630.63
781.886	21524.65
782.22	21415.27
782.554	21386.8
782.888	21180.7
783.222	20991.1
783.556	21036.98
783.889	20981.61
784.223	20799.69
784.557	20843.53
784.89	20784.78
785.224	20748.62
785.557	20546.82
785.891	20604.67
786.224	20532.13
786.558	20486.26
786.891	20176.21
787.224	20238.8
787.557	20251.23
787.891	20161.07
788.224	20142.76
788.557	20081.97
788.89	20021.41
789.223	19935.31
789.556	19810.11
789.888	19776.22
790.221	19546.84
790.554	19589.1
790.887	19639.5
791.219	19514.53
791.552	19392.5
791.884	19361.99
792.217	19257.36
792.549	19191.15
792.882	19037.25
793.214	19028.21
793.546	19042.45
793.879	18930.82
794.211	18829.12
794.543	18813.76
794.875	18748.67
795.207	18715.91
795.539	18627.32
795.871	18674.33
796.203	18483.82
796.535	18335.13
796.867	18333.09
797.198	18307.78
797.53	18301.45
797.862	18219.42
798.193	18218.74
798.525	18075.92
798.856	18042.7
799.188	17910.28
799.519	17784.18
799.85	17783.05
800.182	17850.39
800.513	17816.27
800.844	17578.53
801.175	17698.08
801.506	17677.29
801.837	17551.87
802.168	17528.37
802.499	17364.08
802.83	17317.52
803.161	17380.35
803.491	17370.86
803.822	17291.31
804.153	17215.61
804.483	17170.18
804.814	16983.97
805.145	17036.85
805.475	16986.01
805.805	16892.9
806.136	16817.88
806.466	16812.23
806.796	16917.99
807.126	16677.54
807.457	16621.95
807.787	16637.09
808.117	16525.68
808.447	16525
808.777	16564.55
809.107	16429.19
809.436	16332.24
809.766	16416.98
810.096	16301.51
810.426	16236.88
810.755	16238.01
811.085	16114.17
811.414	16162.75
811.744	15991.23
812.073	15985.81
812.403	15970.22
812.732	15927.28
813.061	15886.15
813.39	15787.62
813.719	15851.35
814.049	15859.94
814.378	15735.65
814.707	15738.58
815.036	15680.05
815.365	15560.06
815.693	15443.68
816.022	15514.18
816.351	15377.69
816.68	15300.4
817.008	15335.2
817.337	15269.22
817.665	15259.95
817.994	15216.56
818.322	15332.04
818.651	15202.1
818.979	15126.62
819.307	15226.05
819.636	15105.38
819.964	15009.34
820.292	15050.01
820.62	15095.44
820.948	15013.63
821.276	15107.19
821.604	15049.34
821.932	14962.78
822.259	15021.77
822.587	14929.34
822.915	14965.5
823.243	15009.11
823.57	14910.36
823.898	14954.42
824.225	14919.62
824.553	14811.6
824.88	14910.81
825.207	14945.61
825.535	14948.55
825.862	14894.76
826.189	14926.4
826.516	14940.19
826.843	15015.44
827.17	14891.83
827.497	14969.11
827.824	14903.35
828.151	14878.27
828.478	14909.9
828.805	14960.75
829.131	14818.61
829.458	14850.02
829.785	14699.29
830.111	14827.87
830.438	14845.95
830.764	14805.73
831.09	14901.32
831.417	14859.96
831.743	14845.73
832.069	14894.99
832.395	14814.09
832.722	14721.21
833.048	14783.81
833.374	14725.95
833.7	14716.46
834.026	14711.27
834.351	14742.68
834.677	14741.55
835.003	14786.74
835.329	14674.2
835.654	14685.5
835.98	14615
836.306	14648.44
836.631	14582.68
836.956	14585.39
837.282	14619.74
837.607	14503.36
837.932	14438.96
838.258	14461.1
838.583	14489.8
838.908	14366.19
839.233	14451.84
839.558	14295.23
839.883	14350.82
840.208	14349.69
840.533	14243.48
840.858	14359.41
841.182	14272.18
841.507	14238.96
841.832	14117.61
842.156	14144.05
842.481	14156.48
842.805	14022.92
843.13	14078.06
843.454	14050.49
843.778	14030.83
844.103	13978.4
844.427	13888.46
844.751	13975.24
845.075	13903.15
845.399	13833.1
845.723	13717.39
846.047	13806.88
846.371	13681.46
846.695	13657.96
847.019	13493.67
847.343	13415.03
847.666	13445.54
847.99	13410.96
848.313	13406.22
848.637	13315.14
848.96	13311.98
849.284	13221.81
849.607	13102.49
849.931	13045.09
850.254	13000.58
850.577	12967.36
850.9	12907.7
851.223	12923.97
851.546	12803.75
851.869	12668.38
852.192	12795.16
852.515	12635.61
852.838	12649.17
853.161	12631.32
853.483	12596.29
853.806	12501.83
854.129	12461.83
854.451	12410.99
854.774	12394.04
855.096	12336.19
855.419	12326.92
855.741	12215.29
856.063	12215.51
856.385	12175.29
856.708	12129.41
857.03	12079.24
857.352	12060.26
857.674	11992.69
857.996	11957.89
858.318	11898.01
858.64	11937.1
858.961	11854.17
859.283	11834.51
859.605	11752.7
859.926	11693.27
860.248	11720.38
860.57	11655.53
860.891	11712.93
861.212	11661.85
861.534	11574.63
861.855	11579.37
862.176	11505.02
862.498	11575.08
862.819	11606.94
863.14	11487.4
863.461	11474.51
863.782	11404.23
864.103	11445.14
864.424	11370.56
864.745	11391.35
865.065	11377.79
865.386	11289.89
865.707	11378.02
866.027	11275.65
866.348	11306.38
866.668	11293.95
866.989	11246.05
867.309	11202.88
867.63	11147.97
867.95	11162.21
868.27	11125.6
868.59	11161.08
868.91	11149.55
869.23	11052.15
869.55	11110.91
869.87	11133.05
870.19	11069.78
870.51	11075.88
870.83	11097.58
871.15	10970.57
871.469	10957.69
871.789	10995.88
872.109	10970.8
872.428	10903.23
872.748	10946.62
873.067	10921.53
873.386	10933.06
873.706	10819.84
874.025	10819.16
874.344	10859.62
874.663	10870.46
874.982	10795.66
875.301	10757.02
875.62	10795.89
875.939	10797.24
876.258	10784.82
876.577	10702.78
876.896	10649.68
877.214	10606.51
877.533	10659.62
877.852	10638.38
878.17	10623.92
878.489	10609
878.807	10533.3
879.125	10561.09
879.444	10520.87
879.762	10493.52
880.08	10473.19
880.398	10385.05
880.716	10450.81
881.034	10425.05
881.352	10434.54
881.67	10427.08
881.988	10357.93
882.306	10254.43
882.624	10324.49
882.941	10272.29
883.259	10284.49
883.577	10179.86
883.894	10302.57
884.212	10207.66
884.529	10159.75
884.846	10135.11
885.164	10177.37
885.481	10095.34
885.798	10070.71
886.115	10012.63
886.432	10039.3
886.75	10023.93
887.067	10011.95
887.383	10002.01
887.7	9956.36
888.017	9904.39
888.334	9906.65
888.651	9871.84
888.967	9865.07
889.284	9841.56
889.6	9762.24
889.917	9728.12
890.233	9700.55
890.55	9630.27
890.866	9682.7
891.182	9621.23
891.498	9556.37
891.815	9555.92
892.131	9579.2
892.447	9520.22
892.763	9531.97
893.079	9403.16
893.395	9384.4
893.71	9450.16
894.026	9418.52
894.342	9372.88
894.657	9320.9
894.973	9324.29
895.289	9349.6
895.604	9284.97
895.92	9257.4
896.235	9162.94
896.55	9149.6
896.865	9147.12
897.181	9077.52
897.496	9041.81
897.811	9002.72
898.126	8987.8
898.441	8945.32
898.756	8913.23
899.071	8866.9
899.386	8932.43
899.7	8830.74
900.015	8787.58
900.33	8753.68
900.644	8792.33
900.959	8762.95
901.273	8718.88
901.588	8671.2
901.902	8584.65
902.216	8595.04
902.531	8591.88
902.845	8527.93
903.159	8427.59
903.473	8480.7
903.787	8501.26
904.101	8340.36
904.415	8424.2
904.729	8384.88
905.042	8373.13
905.356	8294.49
905.67	8285.67
905.984	8228.05
906.297	8244.32
906.611	8096.98
906.924	8084.32
907.237	8128.61
907.551	8058.33
907.864	8025.57
908.177	8014.94
908.491	8037.99
908.804	7881.39
909.117	7916.87
909.43	7909.41
909.743	7871.9
910.056	7857.89
910.368	7801.16
910.681	7736.99
910.994	7666.48
911.307	7713.48
911.619	7577.67
911.932	7631
912.244	7633.94
912.557	7553.71
912.869	7534.96
913.181	7479.82
913.494	7518.01
913.806	7444.56
914.118	7452.25
914.43	7364.79
914.742	7359.59
915.054	7367.05
915.366	7324.34
915.678	7292.25
915.99	7262.87
916.302	7212.03
916.613	7193.72
916.925	7155.98
917.236	7157.34
917.548	7118.92
917.859	7102.65
918.171	6998.02
918.482	7017.23
918.794	6977.91
919.105	6967.74
919.416	6903.11
919.727	6955.31
920.038	6924.35
920.349	6843
920.66	6837.57
920.971	6845.26
921.282	6788.76
921.593	6758.03
921.903	6736.11
922.214	6658.82
922.525	6619.73
922.835	6610.91
923.146	6548.09
923.456	6556.9
923.767	6529.56
924.077	6525.72
924.387	6474.87
924.697	6422.22
925.008	6461.77
925.318	6364.82
925.628	6352.16
925.938	6293.41
926.248	6296.8
926.558	6298.83
926.867	6289.34
927.177	6266.29
927.487	6155.78
927.796	6097.25
928.106	6153.3
928.416	6117.14
928.725	6075.79
929.034	6072.17
929.344	6148.78
929.653	6060.19
929.962	5987.43
930.271	5931.38
930.581	5944.49
930.89	5893.64
931.199	5875.11
931.508	5856.13
931.817	5845.74
932.125	5773.42
932.434	5789.01
932.743	5732.74
933.051	5689.36
933.36	5705.4
933.669	5657.04
933.977	5635.57
934.286	5598.96
934.594	5626.31
934.902	5583.82
935.21	5490.49
935.519	5537.5
935.827	5492.75
936.135	5496.59
936.443	5434.45
936.751	5406.88
937.059	5428.35
937.367	5380.89
937.674	5408.69
937.982	5375.69
938.29	5340.44
938.597	5361
938.905	5277.84
939.213	5261.8
939.52	5208.24
939.827	5275.58
940.135	5195.58
940.442	5154.23
940.749	5161.69
941.056	5143.83
941.363	5131.4
941.67	5084.63
941.977	5036.04
942.284	5038.07
942.591	5031.75
942.898	5010.05
943.205	4996.72
943.511	4982.26
943.818	4987.23
944.125	4890.73
944.431	4890.51
944.738	4912.43
945.044	4853.22
945.35	4858.19
945.657	4778.19
945.963	4800.57
946.269	4686.22
946.575	4731.42
946.881	4704.98
947.187	4706.78
947.493	4674.47
947.799	4633.56
948.105	4672.43
948.41	4587.92
948.716	4579.78
949.022	4579.78
949.327	4613.9
949.633	4563.96
949.938	4523.74
950.244	4492.1
950.549	4496.62
950.854	4431.08
951.16	4457.07
951.465	4455.04
951.77	4359.9
952.075	4440.12
952.38	4381.14
952.685	4336.62
952.99	4290.52
953.294	4306.34
953.599	4283.74
953.904	4267.47
954.209	4224.31
954.513	4210.75
954.818	4216.63
955.122	4181.6
955.426	4146.57
955.731	4158.77
956.035	4102.96
956.339	4148.38
956.643	4131.66
956.948	4066.35
957.252	4073.81
957.556	4105.89
957.86	4039.23
958.163	4010.53
958.467	3999.01
958.771	3975.5
959.075	3968.27
959.378	3943.87
959.682	3953.13
959.985	3903.19
960.289	3879.91
960.592	3853.7
960.896	3835.39
961.199	3876.97
961.502	3858.44
961.805	3829.52
962.108	3806.69
962.411	3782.29
962.714	3765.11
963.017	3731.67
963.32	3820.25
963.623	3710.88
963.926	3737.54
964.228	3705.91
964.531	3670.65
964.833	3668.39
965.136	3615.29
965.438	3638.56
965.741	3582.74
966.043	3579.81
966.345	3578.68
966.648	3559.47
966.95	3554.72
967.252	3545.01
967.554	3547.27
967.856	3512.69
968.158	3511.79
968.46	3450.54
968.761	3455.29
969.063	3407.38
969.365	3418.23
969.666	3412.13
969.968	3402.64
970.269	3406.7
970.571	3366.03
970.872	3323.99
971.174	3314.5
971.475	3313.6
971.776	3310.21
972.077	3298.23
972.378	3300.72
972.679	3317.44
972.98	3274.96
973.281	3260.95
973.582	3240.15
973.883	3228.4
974.183	3206.48
974.484	3220.04
974.785	3158.8
975.085	3167.16
975.386	3174.85
975.686	3128.29
975.986	3117.67
976.287	3131.68
976.587	3067.05
976.887	3048.07
977.187	3060.5
977.487	3036.09
977.787	3040.61
978.087	3030.22
978.387	2972.59
978.687	2998.58
978.987	2970.78
979.286	2967.85
979.586	2926.49
979.885	2929.88
980.185	2934.85
980.484	2917.68
980.784	2894.85
981.083	2873.61
981.382	2865.7
981.682	2917.68
981.981	2840.84
982.28	2839.26
982.579	2799.94
982.878	2810.79
983.177	2823.89
983.475	2786.61
983.774	2775.99
984.073	2802.2
984.372	2737.57
984.67	2697.57
984.969	2744.8
985.267	2721.07
985.566	2691.02
985.864	2721.75
986.162	2659.38
986.461	2670.68
986.759	2639.27
987.057	2594.3
987.355	2564.47
987.653	2615.54
987.951	2604.92
988.249	2617.8
988.547	2604.69
988.844	2559.04
989.142	2562.21
989.44	2559.49
989.737	2531.25
990.035	2509.78
990.332	2514.98
990.63	2475.66
990.927	2491.25
991.224	2483.11
991.521	2450.35
991.819	2487.63
992.116	2484.92
992.413	2404.24
992.71	2402.21
993.006	2392.95
993.303	2425.26
993.6	2371.25
993.897	2378.93
994.193	2372.38
994.49	2342.55
994.787	2322.89
995.083	2318.82
995.379	2314.08
995.676	2299.39
995.972	2272.72
996.268	2284.7
996.565	2260.97
996.861	2282.44
997.157	2250.58
997.453	2242.89
997.749	2227.75
998.044	2212.61
998.34	2218.03
998.636	2208.09
998.932	2183.23
999.227	2188.21
999.523	2178.49
999.818	2164.93
1000.114	2181.2
1000.409	2157.47
1000.704	2104.14
1001	2127.42
1001.295	2051.71
1001.59	2093.97
1001.885	2080.19
1002.18	2037.7
1002.475	2072.05
1002.77	2072.05
1003.065	2034.99
1003.359	2035.67
1003.654	2046.51
1003.949	1981.66
1004.243	2008.77
1004.538	1978.95
1004.832	1964.48
1005.127	1971.94
1005.421	1954.54
1005.715	1991.15
1006.009	1940.3
1006.304	1897.37
1006.598	1916.35
1006.892	1895.56
1007.186	1866.63
1007.48	1878.16
1007.773	1863.69
1008.067	1820.08
1008.361	1862.11
1008.655	1842.45
1008.948	1795.22
1009.242	1812.62
1009.535	1791.83
1009.829	1818.72
1010.122	1760.42
1010.415	1749.8
1010.708	1729.23
1011.001	1770.82
1011.295	1691.95
1011.588	1747.31
1011.881	1707.31
1012.173	1664.83
1012.466	1679.29
1012.759	1706.64
1013.052	1666.86
1013.344	1667.99
1013.637	1672.06
1013.93	1645.62
1014.222	1636.58
1014.514	1645.39
1014.807	1631.61
1015.099	1606.07
1015.391	1608.33
1015.683	1599.52
1015.976	1564.49
1016.268	1555
1016.56	1564.27
1016.851	1565.4
1017.143	1532.4
1017.435	1521.56
1017.727	1535.12
1018.018	1541.89
1018.31	1508.68
1018.602	1503.48
1018.893	1497.38
1019.185	1493.31
1019.476	1448.11
1019.767	1460.54
1020.058	1445.85
1020.35	1437.94
1020.641	1435.46
1020.932	1437.04
1021.223	1406.76
1021.514	1404.27
1021.804	1397.27
1022.095	1393.2
1022.386	1350.26
1022.677	1360.66
1022.967	1362.01
1023.258	1346.65
1023.548	1330.83
1023.839	1326.08
1024.129	1328.57
1024.419	1298.74
1024.709	1318.4
1025	1289.25
1025.29	1297.16
1025.58	1272.98
1025.87	1294.44
1026.16	1264.16
1026.449	1274.78
1026.739	1245.18
1027.029	1269.59
1027.319	1251.05
1027.608	1240.89
1027.898	1223.26
1028.187	1206.08
1028.477	1194.78
1028.766	1184.62
1029.055	1187.1
1029.344	1172.64
1029.634	1173.99
1029.923	1157.72
1030.212	1175.58
1030.501	1180.32
1030.79	1146.88
1031.078	1133.32
1031.367	1133.32
1031.656	1120.44
1031.945	1145.75
1032.233	1115.92
1032.522	1084.96
1032.81	1091.28
1033.099	1081.79
1033.387	1091.74
1033.675	1082.47
1033.963	1067.1
1034.251	1055.81
1034.54	1049.03
1034.828	1046.99
1035.116	1042.7
1035.403	1028.46
1035.691	1015.35
1035.979	997.05
1036.267	1039.31
1036.554	1001.57
1036.842	990.04
1037.129	988.24
1037.417	1012.42
1037.704	999.99
1037.992	967.22
1038.279	968.12
1038.566	962.7
1038.853	962.7
1039.14	962.7
