Data from hue_280_FLMS001491_00077.txt Node
Date: Tue Feb 07 15:55:45 GMT 2017
User: dcchb
Spectrometer: FLMS00149
Trigger mode: 0
Integration Time (sec): 2.000000E-2
Scans to average: 10
Electric dark correction enabled: true
Nonlinearity correction enabled: false
Boxcar width: 0
XAxis mode: Wavelengths
Number of Pixels in Spectrum: 2048
>>>>>Begin Spectral Data<<<<<
341.393	5.23
341.776	5.23
342.16	5.23
342.543	-54.89
342.927	-64.38
343.31	-70.93
343.693	-84.04
344.077	-58.05
344.46	-49.24
344.843	-44.04
345.226	-45.62
345.61	-27.09
345.993	-3.81
346.376	-5.62
346.759	-10.82
347.142	21.27
347.525	37.77
347.908	52.68
348.291	82.74
348.674	99.91
349.057	104.88
349.44	109.63
349.823	140.14
350.206	156.63
350.588	188.72
350.971	197.99
351.354	226.01
351.737	213.36
352.119	236.18
352.502	280.25
352.884	267.59
353.267	278.21
353.65	289.06
354.032	291.55
354.414	309.17
354.797	290.42
355.179	287.93
355.562	314.37
355.944	311.88
356.326	319.79
356.709	322.73
357.091	323.41
357.473	335.16
357.855	316.18
358.238	330.87
358.62	327.03
359.002	337.65
359.384	335.84
359.766	340.13
360.148	331.54
360.53	341.49
360.912	335.39
361.294	329.96
361.676	302.85
362.057	331.54
362.439	316.86
362.821	296.74
363.203	328.61
363.584	329.51
363.966	325.22
364.348	304.43
364.729	301.72
365.111	319.34
365.493	308.49
365.874	322.73
366.256	300.36
366.637	308.04
367.019	311.43
367.4	317.08
367.781	306.01
368.163	327.25
368.544	318.44
368.925	311.66
369.306	310.75
369.688	285.44
370.069	280.47
370.45	308.49
370.831	296.97
371.212	293.13
371.593	331.54
371.974	305.1
372.355	334.48
372.736	305.78
373.117	313.47
373.498	320.02
373.879	310.08
374.26	319.34
374.641	298.33
375.021	324.09
375.402	319.12
375.783	332.67
376.163	317.53
376.544	284.31
376.925	319.12
377.305	326.57
377.686	331.09
378.066	316.86
378.447	320.02
378.827	358.44
379.208	323.86
379.588	320.47
379.968	324.09
380.349	331.77
380.729	331.54
381.109	340.81
381.489	329.29
381.87	339.91
382.25	347.82
382.63	322.28
383.01	336.29
383.39	335.84
383.77	341.04
384.15	370.19
384.53	345.56
384.91	330.42
385.29	349.4
385.67	336.74
386.049	336.97
386.429	321.38
386.809	360.92
387.189	354.14
387.568	360.02
387.948	359.34
388.328	376.97
388.707	363.18
389.087	360.92
389.466	373.8
389.846	378.1
390.225	363.63
390.605	378.1
390.984	388.94
391.363	360.7
391.743	384.42
392.122	355.05
392.501	379.68
392.881	362.28
393.26	360.02
393.639	379.68
394.018	377.65
394.397	384.88
394.776	373.35
395.155	401.6
395.534	399.57
395.913	397.53
396.292	395.72
396.671	417.87
397.05	383.3
397.429	397.53
397.808	389.17
398.186	377.87
398.565	414.03
398.944	407.93
399.323	399.57
399.701	399.79
400.08	410.41
400.458	390.53
400.837	407.25
401.215	415.84
401.594	398.21
401.972	418.55
402.351	422.16
402.729	435.27
403.107	422.16
403.486	413.12
403.864	419.23
404.242	449.06
404.62	433.46
404.999	454.93
405.377	454.93
405.755	457.42
406.133	454.93
406.511	467.36
406.889	468.04
407.267	496.96
407.645	494.93
408.023	470.3
408.401	492.44
408.779	487.7
409.156	488.38
409.534	469.17
409.912	515.27
410.29	513.46
410.667	505.78
411.045	535.16
411.422	514.82
411.8	523.4
412.178	551.2
412.555	566.12
412.933	556.4
413.31	579
413.687	581.71
414.065	569.5
414.442	595.72
414.819	583.74
415.197	615.83
415.574	616.96
415.951	612.89
416.328	616.51
416.705	633.23
417.082	644.53
417.46	640.46
417.837	630.75
418.214	653.57
418.591	681.37
418.967	659.9
419.344	668.03
419.721	677.52
420.098	683.85
420.475	682.27
420.852	693.57
421.228	696.06
421.605	736.05
421.982	764.98
422.358	731.31
422.735	746.68
423.111	746.45
423.488	763.62
423.864	783.74
424.241	802.94
424.617	788.03
424.994	808.59
425.37	804.98
425.746	812.66
426.123	810.18
426.499	835.26
426.875	855.37
427.251	857.63
427.627	875.49
428.003	908.7
428.379	897.18
428.756	892.89
429.132	902.83
429.507	930.17
429.883	914.35
430.259	914.35
430.635	922.94
431.011	951.19
431.387	969.49
431.763	983.73
432.138	978.53
432.514	1025.54
432.89	1022.83
433.265	1024.18
433.641	1052.88
434.016	1046.1
434.392	1093.56
434.767	1072.09
435.143	1089.49
435.518	1135.37
435.894	1109.6
436.269	1131.75
436.644	1164.07
437.02	1172.2
437.395	1183.27
437.77	1198.64
438.145	1238.19
438.52	1226.89
438.895	1234.35
439.271	1228.24
439.646	1258.75
440.021	1281.12
440.395	1284.74
440.77	1276.38
441.145	1278.41
441.52	1308.47
441.895	1325.87
442.27	1331.74
442.645	1347.11
443.019	1359.77
443.394	1371.29
443.769	1394.57
444.143	1375.81
444.518	1376.49
444.892	1361.12
445.267	1394.57
445.641	1410.16
446.016	1441.57
446.39	1438.63
446.764	1433.44
447.139	1418.3
447.513	1447.22
447.887	1475.92
448.262	1465.07
448.636	1475.24
449.01	1472.08
449.384	1503.72
449.758	1480.89
450.132	1531.97
450.506	1490.61
450.88	1522.02
451.254	1506.43
451.628	1529.71
452.002	1581.46
452.376	1555.47
452.75	1559.99
453.123	1563.83
453.497	1577.16
453.871	1579.87
454.244	1637.95
454.618	1630.95
454.992	1628.23
455.365	1665.3
455.739	1702.58
456.112	1703.94
456.486	1698.74
456.859	1728.34
457.232	1747.1
457.606	1747.1
457.979	1771.06
458.352	1785.07
458.725	1807.89
459.099	1789.36
459.472	1842.01
459.845	1830.26
460.218	1849.7
460.591	1857.83
460.964	1881.11
461.337	1919.07
461.71	1927.66
462.083	1953.42
462.456	1947.55
462.829	1948.9
463.201	1965.63
463.574	1990.71
463.947	1990.26
464.32	2069.35
464.692	2054.21
465.065	2083.59
465.438	2121.78
465.81	2102.57
466.183	2129.46
466.555	2133.76
466.928	2187.32
467.3	2163.36
467.672	2194.77
468.045	2230.7
468.417	2257.37
468.789	2253.08
469.161	2266.86
469.534	2297.14
469.906	2352.73
470.278	2340.76
470.65	2388.21
471.022	2421.21
471.394	2400.42
471.766	2446.29
472.138	2492.84
472.51	2522.22
472.882	2571.94
473.253	2537.14
473.625	2605.61
473.997	2630.92
474.369	2632.95
474.74	2655.55
475.112	2684.48
475.484	2716.79
475.855	2757.02
476.227	2785.49
476.598	2852.38
476.97	2880.4
477.341	2889.9
477.713	2926.96
478.084	2925.38
478.455	2983.68
478.827	2993.62
479.198	3063.68
479.569	3071.59
479.94	3151.81
480.311	3148.19
480.682	3228.64
481.053	3264.12
481.424	3302.99
481.795	3350.22
482.166	3347.51
482.537	3376.21
482.908	3464.12
483.279	3480.84
483.65	3518.35
484.021	3582.53
484.391	3604.23
484.762	3629.31
485.133	3679.93
485.503	3689.87
485.874	3726.94
486.244	3783.21
486.615	3792.24
486.985	3875.41
487.356	3883.32
487.726	3918.34
488.097	3949.3
488.467	4000.83
488.837	4094.61
489.207	4063.42
489.578	4130.77
489.948	4149.98
490.318	4227.04
490.688	4224.55
491.058	4301.38
491.428	4308.16
491.798	4349.52
492.168	4441.04
492.538	4396.75
492.908	4453.92
493.278	4481.94
493.648	4447.14
494.017	4571.21
494.387	4595.39
494.757	4558.33
495.126	4656.4
495.496	4638.32
495.866	4677.87
496.235	4707.93
496.605	4734.82
496.974	4751.09
497.344	4835.38
497.713	4821.37
498.082	4818.66
498.452	4818.43
498.821	4886.45
499.19	4872.67
499.559	4912.67
499.928	4970.97
500.298	4982.95
500.667	4995.6
501.036	5009.16
501.405	5030.18
501.774	5011.2
502.143	5070.86
502.512	5106.33
502.88	5074.25
503.249	5103.4
503.618	5145.2
503.987	5114.7
504.356	5138.88
504.724	5210.06
505.093	5195.82
505.462	5184.52
505.83	5225.88
506.199	5261.13
506.567	5344.75
506.936	5321.02
507.304	5325.31
507.672	5389.04
508.041	5378.42
508.409	5354.46
508.777	5417.51
509.145	5466.78
509.514	5418.42
509.882	5408.47
510.25	5483.95
510.618	5507
510.986	5531.86
511.354	5534.35
511.722	5519.43
512.09	5633.1
512.458	5585.19
512.826	5608.69
513.193	5626.32
513.561	5591.75
513.929	5673.55
514.297	5647.11
514.664	5750.16
515.032	5676.04
515.4	5720.1
515.767	5748.58
516.135	5729.14
516.502	5742.48
516.869	5838.97
517.237	5765.07
517.604	5747
517.972	5819.99
518.339	5914.9
518.706	5794.68
519.073	5855.24
519.44	5906.09
519.808	5881.23
520.175	5892.75
520.542	5981.11
520.909	5980.21
521.276	5978.63
521.643	6032.64
522.009	6042.13
522.376	6073.99
522.743	6083.26
523.11	6124.84
523.477	6151.5
523.843	6161
524.21	6178.62
524.577	6224.27
524.943	6261.11
525.31	6261.78
525.676	6295.91
526.043	6329.81
526.409	6306.98
526.776	6357.6
527.142	6318.96
527.508	6381.1
527.874	6424.49
528.241	6484.38
528.607	6451.84
528.973	6503.36
529.339	6502.46
529.705	6537.71
530.071	6562.57
530.437	6545.39
530.803	6680.08
531.169	6664.71
531.535	6675.78
531.901	6654.32
532.267	6692.73
532.632	6727.53
532.998	6721.89
533.364	6710.81
533.73	6754.88
534.095	6813.86
534.461	6844.14
534.826	6838.49
535.192	6801.66
535.557	6913.29
535.923	6863.12
536.288	6886.63
536.653	6905.84
537.019	6880.53
537.384	6887.53
537.749	6956.68
538.114	6972.5
538.479	6954.87
538.845	7027.19
539.21	6933.63
539.575	6989.9
539.94	6990.13
540.305	7063.35
540.67	7034.65
541.034	7087.53
541.399	7094.53
541.764	7060.86
542.129	7088.88
542.494	7126.17
542.858	7147.41
543.223	7184.02
543.587	7195.32
543.952	7182.89
544.316	7195.77
544.681	7198.26
545.045	7219.5
545.41	7312.38
545.774	7242.55
546.138	7261.53
546.503	7245.94
546.867	7267.63
547.231	7323.23
547.595	7407.97
547.959	7345.82
548.324	7323.23
548.688	7354.41
549.052	7387.18
549.416	7391.47
549.779	7429.44
550.143	7345.82
550.507	7380.17
550.871	7496.1
551.235	7437.35
551.599	7448.42
551.962	7455.88
552.326	7538.81
552.689	7554.41
553.053	7512.15
553.417	7501.3
553.78	7576.78
554.143	7568.19
554.507	7595.31
554.87	7626.27
555.234	7708.98
555.597	7653.39
555.96	7703.33
556.323	7732.71
556.686	7703.1
557.05	7781.29
557.413	7729.99
557.776	7742.2
558.139	7691.35
558.502	7814.51
558.865	7826.94
559.228	7824.68
559.59	7830.33
559.953	7852.48
560.316	7944.9
560.679	7937.22
561.041	7918.69
561.404	7998.46
561.767	8013.6
562.129	7961.85
562.492	8067.61
562.854	8014.51
563.217	8037.11
563.579	8093.15
563.941	8069.19
564.304	8215.18
564.666	8228.06
565.028	8182.19
565.39	8214.5
565.753	8261.73
566.115	8288.62
566.477	8369.53
566.839	8328.17
567.201	8397.1
567.563	8393.48
567.925	8461.5
568.287	8440.03
568.648	8424.44
569.01	8536.53
569.372	8506.7
569.734	8536.3
570.095	8582.63
570.457	8623.08
570.819	8690.42
571.18	8643.19
571.542	8676.64
571.903	8734.26
572.265	8768.61
572.626	8738.1
572.987	8783.98
573.349	8862.85
573.71	8904.88
574.071	8927.03
574.432	8958.89
574.794	8997.76
575.155	9034.37
575.516	9004.54
575.877	9107.13
576.238	9090.41
576.599	9165.21
576.96	9210.18
577.32	9199.11
577.681	9214.02
578.042	9365.66
578.403	9348.26
578.763	9372.44
579.124	9437.52
579.485	9445.43
579.845	9467.35
580.206	9522.26
580.566	9594.8
580.927	9583.96
581.287	9702.15
581.648	9762.03
582.008	9793.44
582.368	9865.31
582.728	9839.09
583.089	9931.29
583.449	9966.32
583.809	10016.94
584.169	10021.91
584.529	10155.02
584.889	10185.07
585.249	10179.87
585.609	10187.33
585.969	10415.57
586.329	10389.81
586.688	10468.23
587.048	10468.45
587.408	10543.93
587.768	10625.29
588.127	10747.09
588.487	10719.97
588.846	10828.67
589.206	10808.33
589.565	10883.36
589.925	11056.23
590.284	11112.5
590.643	11163.35
591.003	11219.62
591.362	11353.63
591.721	11378.03
592.08	11482.44
592.44	11506.84
592.799	11596.56
593.158	11720.17
593.517	11717.01
593.876	11794.52
594.235	11827.29
594.593	11913.61
594.952	12003.33
595.311	12071.58
595.67	12076.77
596.029	12314.96
596.387	12396.31
596.746	12340.95
597.104	12357.44
597.463	12441.06
597.822	12540.49
598.18	12579.13
598.538	12640.83
598.897	12734.38
599.255	12694.61
599.613	12900.48
599.972	12844.21
600.33	12975.51
600.688	13011.44
601.046	13056.86
601.404	13166.69
601.762	13144.09
602.12	13333.01
602.478	13280.13
602.836	13310.41
603.194	13298.44
603.552	13404.87
603.91	13342.73
604.268	13458.88
604.625	13486
604.983	13579.78
605.341	13567.58
605.698	13668.14
606.056	13688.93
606.413	13704.98
606.771	13793.56
607.128	13859.78
607.485	13834.47
607.843	13825.2
608.2	13888.7
608.557	14003.95
608.914	13979.55
609.272	14108.13
609.629	14192.42
609.986	14190.39
610.343	14172.31
610.7	14213.89
611.057	14257.51
611.414	14311.06
611.771	14372.31
612.127	14405.07
612.484	14482.59
612.841	14543.15
613.198	14468.12
613.554	14490.49
613.911	14607.78
614.267	14543.37
614.624	14613.66
614.98	14560.1
615.337	14694.56
615.693	14631.51
616.05	14736.82
616.406	14824.5
616.762	14813.88
617.118	14769.13
617.475	14773.43
617.831	14799.41
618.187	14842.12
618.543	14873.99
618.899	14958.5
619.255	14933.42
619.611	14942.23
619.967	15120.31
620.323	15069.24
620.678	15019.29
621.034	14956.7
621.39	14995.57
621.746	14976.81
622.101	15204.83
622.457	15129.35
622.812	15125.28
623.168	15076.02
623.523	15142
623.879	15320.3
624.234	15057.03
624.589	15156.01
624.945	15203.02
625.3	15232.62
625.655	15148.1
626.01	15137.94
626.365	15249.12
626.72	15110.14
627.075	15258.38
627.43	15196.46
627.785	15193.3
628.14	15184.04
628.495	15272.17
628.85	15246.63
629.205	15146.75
629.559	15245.28
629.914	15195.56
630.269	15195.56
630.623	15158.73
630.978	15093.87
631.332	15291.38
631.687	15123.92
632.041	15136.35
632.396	15179.74
632.75	15104.04
633.104	15136.58
633.459	15178.61
633.813	15089.8
634.167	15146.52
634.521	15051.38
634.875	15138.84
635.229	15029.46
635.583	15045.96
635.937	14952.18
636.291	15041.21
636.645	15036.92
636.999	14963.48
637.352	15052.06
637.706	14949.69
638.06	14965.51
638.413	14936.36
638.767	15019.75
639.121	14930.71
639.474	14912.18
639.828	14897.26
640.181	14955.12
640.534	14931.16
640.888	14833.31
641.241	14859.98
641.594	14888
641.947	14878.73
642.301	14813.88
642.654	14766.87
643.007	14891.39
643.36	14797.83
643.713	14766.19
644.066	14808.68
644.419	14729.13
644.771	14735.01
645.124	14532.08
645.477	14470.61
645.83	14375.92
646.182	14399.2
646.535	14285.75
646.888	14412.3
647.24	14197.85
647.593	14372.08
647.945	14368.01
648.298	14287.56
648.65	14196.04
649.002	14177.06
649.355	14304.06
649.707	14318.07
650.059	14328.69
650.411	14612.53
650.763	14556.03
651.115	14624.95
651.467	14643.03
651.819	14650.94
652.171	14648.68
652.523	14584.05
652.875	14725.06
653.227	14557.39
653.578	14613.2
653.93	14668.12
654.282	14587.22
654.633	14636.25
654.985	14642.13
655.337	14641.9
655.688	14670.83
656.039	14703.14
656.391	14542.7
656.742	14625.41
657.094	14667.89
657.445	14727.32
657.796	14694.56
658.147	14673.31
658.498	14594.22
658.849	14682.81
659.2	14610.04
659.551	14638.29
659.902	14639.87
660.253	14584.28
660.604	14583.15
660.955	14692.07
661.306	14662.02
661.656	14650.94
662.007	14625.63
662.358	14742.24
662.708	14699.98
663.059	14646.87
663.409	14669.7
663.76	14746.31
664.11	14694.56
664.461	14800.32
664.811	14789.24
665.161	14682.35
665.511	14688.91
665.862	14653.2
666.212	14810.26
666.562	14762.13
666.912	14783.37
667.262	14685.07
667.612	14707.89
667.962	14782.01
668.312	14771.62
668.662	14836.93
669.011	14771.62
669.361	14767.1
669.711	14722.35
670.06	14728
670.41	14652.07
670.76	14716.93
671.109	14630.83
671.459	14701.34
671.808	14647.1
672.157	14685.74
672.507	14595.35
672.856	14688
673.205	14621.34
673.554	14594.45
673.904	14688.46
674.253	14726.42
674.602	14613.88
674.951	14424.96
675.3	14363.04
675.649	14539.31
675.998	14486.2
676.346	14473.09
676.695	14615.24
677.044	14523.49
677.393	14446.88
677.741	14488.46
678.09	14558.52
678.438	14443.04
678.787	14354.91
679.135	14381.12
679.484	14289.6
679.832	14335.24
680.181	14282.82
680.529	14324.4
680.877	14292.31
681.225	14279.88
681.573	14368.92
681.922	14244.85
682.27	14214.34
682.618	14177.73
682.966	14175.47
683.314	14147.45
683.661	14191.52
684.009	14054.12
684.357	13994.24
684.705	14014.35
685.053	13980.68
685.4	13988.14
685.748	13876.05
686.095	13918.53
686.443	13880.57
686.79	13884.63
687.138	13838.99
687.485	13798.31
687.832	13749.05
688.18	13753.79
688.527	13672.44
688.874	13693
689.221	13683.51
689.568	13588.82
689.915	13476.74
690.262	13501.14
690.609	13482.84
690.956	13502.95
691.303	13443.97
691.65	13448.04
691.997	13401.71
692.344	13230.41
692.69	13257.76
693.037	13249.62
693.383	13138.67
693.73	13183.64
694.077	13166.69
694.423	13158.55
694.769	13033.81
695.116	13009.4
695.462	13008.05
695.808	12897.99
696.155	12917.43
696.501	12845.34
696.847	12832.91
697.193	12625.68
697.539	12780.03
697.885	12628.17
698.231	12573.93
698.577	12594.5
698.923	12524.22
699.269	12411.45
699.614	12360.83
699.96	12407.16
700.306	12324.22
700.651	12233.15
700.997	12282.19
701.342	12206.26
701.688	12179.37
702.033	12203.55
702.379	12132.82
702.724	12057.56
703.069	12149.31
703.415	11966.49
703.76	11954.29
704.105	12005.14
704.45	11894.86
704.795	11880.17
705.14	11788.42
705.485	11754.3
705.83	11688.53
706.175	11684.47
706.52	11648.08
706.865	11669.55
707.209	11588.88
707.554	11537.8
707.899	11606.95
708.243	11521.31
708.588	11492.38
708.932	11357.02
709.277	11354.76
709.621	11403.12
709.966	11275.89
710.31	11375.32
710.654	11217.36
710.998	11259.39
711.342	11204.03
711.687	11144.14
712.031	11145.27
712.375	11143.24
712.719	11166.06
713.063	11084.93
713.407	11124.71
713.75	11044.71
714.094	10964.71
714.438	11012.62
714.782	11009.23
715.125	10916.35
715.469	10928.33
715.812	10963.58
716.156	10804.94
716.499	10800.2
716.843	10853.3
717.186	10746.64
717.53	10880.87
717.873	10837.94
718.216	10800.65
718.559	10759.29
718.902	10722.91
719.246	10722.46
719.589	10703.7
719.932	10691.95
720.275	10708.67
720.617	10690.14
720.96	10647.43
721.303	10636.81
721.646	10596.81
721.989	10591.39
722.331	10578.96
722.674	10544.38
723.016	10546.87
723.359	10616.7
723.701	10629.13
724.044	10597.49
724.386	10415.57
724.729	10452.63
725.071	10537.38
725.413	10485.63
725.755	10463.26
726.097	10456.7
726.439	10378.29
726.782	10413.77
727.124	10463.03
727.465	10425.74
727.807	10390.49
728.149	10423.26
728.491	10427.1
728.833	10339.64
729.175	10412.18
729.516	10316.59
729.858	10339.19
730.199	10351.85
730.541	10315.46
730.882	10362.92
731.224	10263.04
731.565	10279.08
731.906	10301.23
732.248	10355.24
732.589	10334.67
732.93	10287.67
733.271	10298.29
733.612	10349.36
733.953	10353.88
734.294	10289.7
734.635	10288.57
734.976	10380.32
735.317	10270.27
735.658	10406.53
735.999	10329.25
736.339	10299.64
736.68	10303.71
737.021	10329.47
737.361	10312.98
737.702	10381.45
738.042	10336.25
738.383	10315.46
738.723	10390.94
739.063	10333.54
739.404	10413.09
739.744	10374.44
740.084	10314.79
740.424	10384.84
740.764	10370.38
741.104	10496.7
741.444	10433.43
741.784	10501.45
742.124	10480.43
742.464	10416.7
742.804	10458.06
743.143	10470.71
743.483	10511.84
743.823	10523.14
744.162	10428.91
744.502	10600.65
744.841	10543.71
745.181	10679.97
745.52	10666.87
745.86	10721.33
746.199	10689.46
746.538	10793.87
746.877	10803.36
747.216	10846.07
747.556	10855.11
747.895	10915.67
748.234	10947.54
748.573	11049.46
748.911	11069.34
749.25	11153.63
749.589	11219.62
749.928	11326.28
750.267	11390.46
750.605	11454.87
750.944	11443.57
751.283	11562.21
751.621	11701.64
751.96	11684.01
752.298	11776.67
752.636	11871.58
752.975	11933.5
753.313	12085.59
753.651	12231.57
753.989	12329.2
754.327	12397.67
754.666	12490.32
755.004	12636.31
755.342	12769.64
755.679	12857.32
756.017	12927.15
756.355	13168.95
756.693	13200.59
757.031	13307.02
757.368	13411.88
757.706	13575.72
758.044	13688.03
758.381	13932.09
758.719	13996.95
759.056	14165.53
759.394	14238.3
759.731	14300.44
760.068	14543.83
760.405	14647.33
760.743	14858.17
761.08	15009.58
761.417	14982.46
761.754	15173.19
762.091	15397.36
762.428	15565.49
762.765	15565.27
763.102	15823.34
763.438	15885.03
763.775	16052.71
764.112	16123.22
764.449	16330.22
764.785	16446.83
765.122	16471.91
765.458	16575.41
765.795	16849.3
766.131	16778.34
766.467	17001.39
766.804	17127.49
767.14	17144.66
767.476	17389.85
767.812	17336.52
768.148	17512.79
768.485	17626.01
768.821	17605.22
769.157	17746
769.492	17797.07
769.828	17832.78
770.164	17814.93
770.5	17982.15
770.836	18129.72
771.171	18106.44
771.507	18160.68
771.842	18199.78
772.178	18276.16
772.513	18379.43
772.849	18387.57
773.184	18399.32
773.519	18512.54
773.855	18519.99
774.19	18527.68
774.525	18529.03
774.86	18637.5
775.195	18717.5
775.53	18731.51
775.865	18633.44
776.2	18612.65
776.535	18595.7
776.87	18640.22
777.205	18674.11
777.539	18621.69
777.874	18775.35
778.209	18620.56
778.543	18601.12
778.878	18599.77
779.212	18728.58
779.547	18736.94
779.881	18691.97
780.215	18672.31
780.55	18734.22
780.884	18580.56
781.218	18654.45
781.552	18646.32
781.886	18499.65
782.22	18496.27
782.554	18549.15
782.888	18545.98
783.222	18437.06
783.556	18365.2
783.889	18449.03
784.223	18353.44
784.557	18309.6
784.89	18456.72
785.224	18348.47
785.557	18326.1
785.891	18243.84
786.224	18244.29
786.558	18173.56
786.891	18161.13
787.224	18063.73
787.557	18115.03
787.891	17986.45
788.224	18140.79
788.557	18015.15
788.89	18014.24
789.223	17961.14
789.556	17971.08
789.888	17908.71
790.221	17843.4
790.554	17722.95
790.887	17714.36
791.219	17763.85
791.552	17656.06
791.884	17639.34
792.217	17622.62
792.549	17520.92
792.882	17510.75
793.214	17368.61
793.546	17413.58
793.879	17311.44
794.211	17337.88
794.543	17344.88
794.875	17315.51
795.207	17331.32
795.539	17259.91
795.871	17197.32
796.203	17104.44
796.535	16946.7
796.867	16968.4
797.198	16909.64
797.53	16927.72
797.862	16853.82
798.193	16913.03
798.525	16738.57
798.856	16778.34
799.188	16648.63
799.519	16639.36
799.85	16497.22
800.182	16460.84
800.513	16552.36
800.844	16366.38
801.175	16523.44
801.506	16452.93
801.837	16302.42
802.168	16350.78
802.499	16313.05
802.83	16179.04
803.161	16157.57
803.491	16199.83
803.822	16058.82
804.153	16146.72
804.483	16069.66
804.814	15977.01
805.145	15894.53
805.475	15871.93
805.805	15818.14
806.136	15911.93
806.466	15848.65
806.796	15725.49
807.126	15622.67
807.457	15672.61
807.787	15554.2
808.117	15541.09
808.447	15533.86
808.777	15535.44
809.107	15560.98
809.436	15579.28
809.766	15465.16
810.096	15343.35
810.426	15265.39
810.755	15370.25
811.085	15272.4
811.414	15315.33
811.744	15203.24
812.073	15164.38
812.403	15150.36
812.732	15105.39
813.061	15191.72
813.39	15032.63
813.719	14995.11
814.049	15015.68
814.378	15016.13
814.707	14952.18
815.036	14836.7
815.365	14882.12
815.693	14654.11
816.022	14750.6
816.351	14739.53
816.68	14751.5
817.008	14708.12
817.337	14597.84
817.665	14536.37
817.994	14598.51
818.322	14596.25
818.651	14461.34
818.979	14493.43
819.307	14509.03
819.636	14517.16
819.964	14361.91
820.292	14398.97
820.62	14368.69
820.948	14275.36
821.276	14381.35
821.604	14384.96
821.932	14321.46
822.259	14381.57
822.587	14318.07
822.915	14326.21
823.243	14304.51
823.57	14298.18
823.898	14315.36
824.225	14169.6
824.553	14353.32
824.88	14250.5
825.207	14364.17
825.535	14314
825.862	14358.97
826.189	14261.57
826.516	14330.05
826.843	14461.34
827.17	14415.47
827.497	14282.82
827.824	14381.35
828.151	14331.63
828.478	14396.49
828.805	14355.36
829.131	14297.51
829.458	14308.58
829.785	14146.1
830.111	14263.83
830.438	14309.48
830.764	14365.75
831.09	14335.92
831.417	14276.04
831.743	14238.75
832.069	14255.7
832.395	14306.77
832.722	14318.75
833.048	14117.62
833.374	14177.28
833.7	14169.37
834.026	14253.44
834.351	14181.12
834.677	14138.64
835.003	14181.35
835.329	14142.71
835.654	14135.48
835.98	14115.59
836.306	13989.49
836.631	14083.05
836.956	14136.15
837.282	13988.59
837.607	14081.01
837.932	14014.12
838.258	14012.09
838.583	13916.5
838.908	13908.82
839.233	14007.12
839.558	13847.35
839.883	13775.03
840.208	13793.79
840.533	13830.85
840.858	13843.96
841.182	13846.67
841.507	13777.07
841.832	13789.5
842.156	13662.72
842.481	13676.5
842.805	13670.18
843.13	13603.96
843.454	13605.55
843.778	13553.57
844.103	13525.77
844.427	13463.18
844.751	13496.4
845.075	13488.49
845.399	13367.36
845.723	13343.86
846.047	13346.12
846.371	13232.22
846.695	13222.28
847.019	13089.4
847.343	13074.94
847.666	12982.06
847.99	12959.91
848.313	12926.24
848.637	12831.33
848.96	12773.7
849.284	12803.76
849.607	12684.21
849.931	12611.22
850.254	12542.52
850.577	12532.13
850.9	12401.06
851.223	12400.61
851.546	12415.07
851.869	12303.66
852.192	12389.98
852.515	12239.71
852.838	12291
853.161	12104.57
853.483	12159.71
853.806	12095.53
854.129	12065.7
854.451	12018.24
854.774	11950.67
855.096	11948.41
855.419	11896.21
855.741	11900.96
856.063	11794.07
856.385	11796.33
856.708	11718.82
857.03	11705.26
857.352	11757.01
857.674	11651.47
857.996	11633.62
858.318	11505.71
858.64	11514.3
858.961	11502.32
859.283	11479.27
859.605	11373.29
859.926	11483.57
860.248	11413.74
860.57	11361.99
860.891	11285.38
861.212	11229.11
861.534	11274.76
861.855	11237.92
862.176	11229.34
862.498	11274.31
862.819	11272.05
863.14	11199.51
863.461	11068.21
863.782	11132.84
864.103	11103.69
864.424	11015.33
864.745	11083.58
865.065	11038.61
865.386	11024.37
865.707	11006.52
866.027	11053.97
866.348	10993.86
866.668	10984.6
866.989	10994.77
867.309	10849.91
867.63	10949.34
867.95	10838.39
868.27	10832.51
868.59	10822.34
868.91	10785.73
869.23	10853.75
869.55	10754.55
869.87	10811.72
870.19	10733.76
870.51	10733.76
870.83	10779.41
871.15	10657.38
871.469	10624.83
871.789	10644.72
872.109	10675.91
872.428	10586.87
872.748	10643.14
873.067	10548
873.386	10620.09
873.706	10488.11
874.025	10526.31
874.344	10497.61
874.663	10499.64
874.982	10475.69
875.301	10490.83
875.62	10512.29
875.939	10406.31
876.258	10420.55
876.577	10379.42
876.896	10401.34
877.214	10346.65
877.533	10382.58
877.852	10333.09
878.17	10305.29
878.489	10306.2
878.807	10318.85
879.125	10275.92
879.444	10246.09
879.762	10302.81
880.08	10192.75
880.398	10144.62
880.716	10227.1
881.034	10240.21
881.352	10191.4
881.67	10117.05
881.988	10156.6
882.306	10068.46
882.624	10115.02
882.941	10028.92
883.259	10011.29
883.577	9989.82
883.894	9988.47
884.212	9919.54
884.529	9973.1
884.846	9871.41
885.164	9904.17
885.481	9771.52
885.798	9861.69
886.115	9785.99
886.432	9793.22
886.75	9772.2
887.067	9732.65
887.383	9712.54
887.7	9680.9
888.017	9654.92
888.334	9563.84
888.651	9579.66
888.967	9564.07
889.284	9601.58
889.6	9504.19
889.917	9477.52
890.233	9501.47
890.55	9451.08
890.866	9360.91
891.182	9338.09
891.498	9353.45
891.815	9315.49
892.131	9265.32
892.447	9283.85
892.763	9202.27
893.079	9183.74
893.395	9224.64
893.71	9157.75
894.026	9115.72
894.342	9135.83
894.657	9014.48
894.973	9068.26
895.289	9026.68
895.604	8969.74
895.92	8986.01
896.235	8894.48
896.55	8947.14
896.865	8889.51
897.181	8835.73
897.496	8823.07
897.811	8757.76
898.126	8803.64
898.441	8747.37
898.756	8668.5
899.071	8631.21
899.386	8679.57
899.7	8574.49
900.015	8560.03
900.33	8481.61
900.644	8466.02
900.959	8487.26
901.273	8472.8
901.588	8399.81
901.902	8382.63
902.216	8326.81
902.531	8313.48
902.845	8248.4
903.159	8224.67
903.473	8176.99
903.787	8175.41
904.101	8109.65
904.415	8097.22
904.729	8121.17
905.042	7998.91
905.356	8041.17
905.67	8020.38
905.984	8005.92
906.297	7954.62
906.611	7979.48
906.924	7882.98
907.237	7902.65
907.551	7781.07
907.864	7752.14
908.177	7752.82
908.491	7724.34
908.804	7726.15
909.117	7708.75
909.43	7635.53
909.743	7603.44
910.056	7577.23
910.368	7544.24
910.681	7512.83
910.994	7447.74
911.307	7460.4
911.619	7376.11
911.932	7392.83
912.244	7320.51
912.557	7331.36
912.869	7258.82
913.181	7243.91
913.494	7181.53
913.806	7233.28
914.118	7182.21
914.43	7155.09
914.742	7068.54
915.054	7049.11
915.366	7070.35
915.678	7012.5
915.99	7050.01
916.302	7026.51
916.613	6866.97
916.925	6928.21
917.236	6900.19
917.548	6853.41
917.859	6830.81
918.171	6781.54
918.482	6818.15
918.794	6716.46
919.105	6687.99
919.416	6675.56
919.727	6679.85
920.038	6638.72
920.349	6598.5
920.66	6594.88
920.971	6556.01
921.282	6543.81
921.593	6471.04
921.903	6454.77
922.214	6400.99
922.525	6369.58
922.835	6413.87
923.146	6355.12
923.456	6346.08
923.767	6305.17
924.077	6283.93
924.387	6228.57
924.697	6220.2
925.008	6241.9
925.318	6121
925.628	6169.36
925.938	6198.28
926.248	6073.31
926.558	6080.77
926.867	6087.55
927.177	6074.22
927.487	5985.41
927.796	5953.32
928.106	5935.69
928.416	5897.27
928.725	5913.09
929.034	5862.47
929.344	5885.3
929.653	5849.14
929.962	5824.28
930.271	5749.48
930.581	5748.8
930.89	5723.95
931.199	5644.17
931.508	5702.93
931.817	5697.96
932.125	5678.52
932.434	5635.36
932.743	5544.97
933.051	5518.3
933.36	5543.39
933.669	5477.4
933.977	5490.51
934.286	5436.72
934.594	5459.77
934.902	5378.19
935.21	5394.69
935.519	5357.63
935.827	5367.57
936.135	5323.96
936.443	5314.46
936.751	5297.74
937.059	5260.68
937.367	5253.22
937.674	5250.96
937.982	5205.32
938.29	5218.2
938.597	5188.37
938.905	5212.09
939.213	5129.16
939.52	5096.62
939.827	5091.19
940.135	5073.12
940.442	5041.93
940.749	5022.95
941.056	4989.73
941.363	5015.94
941.67	4942.5
941.977	4950.86
942.284	4907.92
942.591	4874.7
942.898	4859.79
943.205	4853.01
943.511	4816.85
943.818	4826.12
944.125	4795.16
944.431	4759
944.738	4725.1
945.044	4722.39
945.35	4668.61
945.657	4668.38
945.963	4643.52
946.269	4596.97
946.575	4616.18
946.881	4556.74
947.187	4578.44
947.493	4526.46
947.799	4559.23
948.105	4496.41
948.41	4490.76
948.716	4477.65
949.022	4437.88
949.327	4457.76
949.633	4401.49
949.938	4407.37
950.244	4428.84
950.549	4350.42
950.854	4364.21
951.16	4370.08
951.465	4267.26
951.77	4287.37
952.075	4307.26
952.38	4271.33
952.685	4208.05
952.99	4202.18
953.294	4186.36
953.599	4123.76
953.904	4134.61
954.209	4157.43
954.513	4137.55
954.818	4042.63
955.122	4051.9
955.426	4034.05
955.731	4076.53
956.035	4021.17
956.339	4002.41
956.643	4016.87
956.948	3983.65
957.252	4023.43
957.556	3955.4
957.86	3919.47
958.163	3909.98
958.467	3910.43
958.771	3893.26
959.075	3859.81
959.378	3864.11
959.682	3868.63
959.985	3801.06
960.289	3785.92
960.592	3730.78
960.896	3759.03
961.199	3769.65
961.502	3759.7
961.805	3724
962.108	3710.21
962.411	3656.88
962.714	3652.36
963.017	3678.58
963.32	3672.25
963.623	3619.82
963.926	3608.75
964.228	3608.07
964.531	3587.28
964.833	3586.37
965.136	3492.14
965.438	3529.88
965.741	3481.52
966.043	3480.39
966.345	3450.56
966.648	3500.95
966.95	3458.92
967.252	3401.97
967.554	3421.86
967.856	3434.06
968.158	3406.49
968.46	3345.25
968.761	3364.23
969.063	3350.67
969.365	3338.92
969.666	3355.87
969.968	3298.47
970.269	3270
970.571	3324.91
970.872	3245.59
971.174	3241.07
971.475	3234.52
971.776	3189.77
972.077	3203.56
972.378	3193.16
972.679	3180.51
972.98	3215.08
973.281	3132.15
973.582	3113.39
973.883	3112.49
974.183	3100.06
974.484	3073.85
974.785	3087.86
975.085	3046.5
975.386	3065.94
975.686	3020.74
975.986	3038.59
976.287	3007.18
976.587	2990.01
976.887	2980.97
977.187	2938.48
977.487	2984.81
977.787	2913.4
978.087	2927.86
978.387	2926.73
978.687	2931.02
978.987	2864.36
979.286	2858.94
979.586	2860.74
979.885	2823.91
980.185	2826.85
980.484	2860.52
980.784	2827.52
981.083	2766.74
981.382	2788.88
981.682	2776.23
981.981	2784.81
982.28	2764.02
982.579	2758.15
982.878	2751.59
983.177	2747.98
983.475	2715.66
983.774	2680.64
984.073	2662.33
984.372	2645.61
984.67	2655.1
984.969	2636.12
985.267	2686.51
985.566	2618.49
985.864	2585.72
986.162	2630.69
986.461	2597.7
986.759	2586.63
987.057	2568.32
987.355	2559.96
987.653	2504.82
987.951	2536.23
988.249	2519.06
988.547	2492.62
988.844	2499.4
989.142	2461.88
989.44	2429.12
989.737	2453.52
990.035	2418.04
990.332	2434.77
990.63	2404.26
990.927	2427.99
991.224	2376.24
991.521	2391.38
991.819	2398.38
992.116	2397.71
992.413	2381.66
992.71	2366.29
993.006	2347.54
993.303	2336.24
993.6	2315.45
993.897	2312.51
994.193	2328.1
994.49	2304.15
994.787	2275.9
995.083	2269.35
995.379	2276.8
995.676	2250.59
995.972	2247.88
996.268	2236.13
996.565	2229.57
996.861	2199.97
997.157	2177.6
997.453	2178.95
997.749	2168.33
998.044	2183.25
998.34	2143.02
998.636	2129.46
998.932	2135.34
999.227	2093.98
999.523	2082.23
999.818	2087.43
1000.114	2077.94
1000.409	2044.49
1000.704	2042.91
1001	2073.65
1001.295	2005.4
1001.59	2009.92
1001.885	2028.68
1002.18	1997.72
1002.475	1989.35
1002.77	1973.31
1003.065	1959.52
1003.359	1967.89
1003.654	1947.32
1003.949	1917.72
1004.243	1926.76
1004.538	1880.88
1004.832	1904.84
1005.127	1899.19
1005.421	1865.74
1005.715	1856.48
1006.009	1842.92
1006.304	1857.61
1006.598	1836.59
1006.892	1808.12
1007.186	1828
1007.48	1808.57
1007.773	1799.98
1008.067	1802.92
1008.361	1777.83
1008.655	1764.95
1008.948	1754.78
1009.242	1743.49
1009.535	1752.98
1009.829	1732.19
1010.122	1706.88
1010.415	1715.46
1010.708	1703.94
1011.001	1690.38
1011.295	1650.38
1011.588	1658.74
1011.881	1649.48
1012.173	1656.48
1012.466	1663.49
1012.759	1638.4
1013.052	1641.12
1013.344	1619.87
1013.637	1606.99
1013.93	1603.15
1014.222	1582.81
1014.514	1576.71
1014.807	1579.2
1015.099	1552.76
1015.391	1552.3
1015.683	1544.39
1015.976	1527.9
1016.268	1510.5
1016.56	1503.72
1016.851	1501.01
1017.143	1478.63
1017.435	1472.31
1017.727	1495.58
1018.018	1468.46
1018.31	1456.49
1018.602	1453.32
1018.893	1455.58
1019.185	1404.96
1019.476	1425.98
1019.767	1412.19
1020.058	1409.48
1020.35	1365.87
1020.641	1365.87
1020.932	1370.39
1021.223	1362.7
1021.514	1368.35
1021.804	1346.89
1022.095	1353.66
1022.386	1335.59
1022.677	1310.05
1022.967	1320.67
1023.258	1305.98
1023.548	1295.59
1023.839	1273.89
1024.129	1279.99
1024.419	1277.51
1024.709	1254.23
1025	1258.07
1025.29	1248.58
1025.58	1270.96
1025.87	1232.76
1026.16	1230.73
1026.449	1210.39
1026.739	1203.61
1027.029	1191.64
1027.319	1169.04
1027.608	1183.73
1027.898	1176.27
1028.187	1172.88
1028.477	1165.2
1028.766	1155.03
1029.055	1153.22
1029.344	1151.18
1029.634	1150.51
1029.923	1123.16
1030.212	1109.83
1030.501	1131.07
1030.79	1112.77
1031.078	1099.89
1031.367	1074.12
1031.656	1095.59
1031.945	1080.68
1032.233	1069.38
1032.522	1085.42
1032.81	1046.78
1033.099	1016.27
1033.387	1007.69
1033.675	1041.13
1033.963	1034.58
1034.251	1019.21
1034.54	1031.19
1034.828	1011.08
1035.116	1012.88
1035.403	996.84
1035.691	987.57
1035.979	987.57
1036.267	948.93
1036.554	951.19
1036.842	965.43
1037.129	950.51
1037.417	946.44
1037.704	955.03
1037.992	938.76
1038.279	944.41
1038.566	959.33
1038.853	959.33
1039.14	959.33
