Data from hue_260_FLMS001491_00099.txt Node
Date: Tue Feb 07 15:59:54 GMT 2017
User: dcchb
Spectrometer: FLMS00149
Trigger mode: 0
Integration Time (sec): 2.000000E-2
Scans to average: 10
Electric dark correction enabled: true
Nonlinearity correction enabled: false
Boxcar width: 0
XAxis mode: Wavelengths
Number of Pixels in Spectrum: 2048
>>>>>Begin Spectral Data<<<<<
341.393	-5.83
341.776	-5.83
342.16	-5.83
342.543	-69.79
342.927	-72.27
343.31	-85.15
343.693	-86.28
344.077	-50.35
344.46	-55.78
344.843	-58.71
345.226	-39.73
345.61	-46.06
345.993	-23.69
346.376	17.22
346.759	15.41
347.142	44.33
347.525	30.55
347.908	61.74
348.291	78.68
348.674	97.89
349.057	99.93
349.44	133.82
349.823	129.76
350.206	146.25
350.588	178.79
350.971	183.77
351.354	210.43
351.737	223.99
352.119	236.19
352.502	251.56
352.884	245.46
353.267	241.84
353.65	262.86
354.032	299.92
354.414	286.36
354.797	295.63
355.179	316.87
355.562	315.74
355.944	290.43
356.326	340.6
356.709	341.73
357.091	317.77
357.473	322.07
357.855	306.47
358.238	326.14
358.62	325.23
359.002	318.9
359.384	323.88
359.766	332.69
360.148	316.42
360.53	324.1
360.912	332.24
361.294	315.74
361.676	329.75
362.057	310.09
362.439	320.71
362.821	321.62
363.203	315.29
363.584	317.1
363.966	319.58
364.348	308.51
364.729	319.81
365.111	322.52
365.493	315.29
365.874	308.28
366.256	297.44
366.637	307.15
367.019	317.32
367.4	297.66
367.781	300.6
368.163	310.77
368.544	294.05
368.925	302.63
369.306	326.36
369.688	296.76
370.069	281.39
370.45	290.2
370.831	310.99
371.212	305.57
371.593	277.78
371.974	314.61
372.355	284.1
372.736	291.11
373.117	317.77
373.498	301.28
373.879	288.85
374.26	316.64
374.641	321.62
375.021	281.62
375.402	310.54
375.783	322.07
376.163	301.73
376.544	322.97
376.925	313.25
377.305	297.21
377.686	313.93
378.066	310.09
378.447	302.41
378.827	318.68
379.208	308.06
379.588	323.88
379.968	329.75
380.349	313.71
380.729	329.3
381.109	322.07
381.489	318.68
381.87	308.73
382.25	315.97
382.63	352.8
383.01	340.37
383.39	310.99
383.77	343.76
384.15	331.79
384.53	324.33
384.91	331.11
385.29	344.21
385.67	357.55
386.049	333.14
386.429	329.07
386.809	327.94
387.189	326.59
387.568	352.35
387.948	336.53
388.328	362.74
388.707	356.42
389.087	358.45
389.466	340.37
389.846	354.38
390.225	349.19
390.605	361.84
390.984	346.02
391.363	358
391.743	350.32
392.122	353.03
392.501	368.39
392.881	361.84
393.26	384.21
393.639	379.92
394.018	364.55
394.397	355.97
394.776	365.46
395.155	371.33
395.534	379.92
395.913	372.24
396.292	385.57
396.671	371.11
397.05	392.8
397.429	392.12
397.808	378.56
398.186	394.38
398.565	412.01
398.944	395.74
399.323	388.96
399.701	410.65
400.08	400.71
400.458	407.49
400.837	390.09
401.215	385.34
401.594	385.12
401.972	433.7
402.351	416.75
402.729	419.69
403.107	408.62
403.486	418.11
403.864	414.04
404.242	419.92
404.62	418.34
404.999	454.49
405.377	433.25
405.755	438.67
406.133	429.18
406.511	436.87
406.889	460.14
407.267	448.84
407.645	444.78
408.023	472.8
408.401	470.54
408.779	481.84
409.156	467.6
409.534	488.62
409.912	470.76
410.29	493.36
410.667	520.93
411.045	513.7
411.422	509.63
411.8	533.36
412.178	540.37
412.555	549.63
412.933	527.71
413.31	545.79
413.687	541.72
414.065	577.65
414.442	553.7
414.819	576.75
415.197	613.59
415.574	606.81
415.951	609.97
416.328	604.32
416.705	618.78
417.082	589.86
417.46	621.27
417.837	618.78
418.214	640.25
418.591	642.29
418.967	657.43
419.344	668.95
419.721	668.05
420.098	677.31
420.475	664.88
420.852	702.62
421.228	699.01
421.605	711.89
421.982	725.67
422.358	717.09
422.735	729.74
423.111	744.66
423.488	762.73
423.864	756.86
424.241	772.23
424.617	803.86
424.994	803.86
425.37	796.18
425.746	801.15
426.123	826.69
426.499	832.34
426.875	844.54
427.251	862.62
427.627	862.62
428.003	894.48
428.379	886.35
428.756	894.93
429.132	931.32
429.507	936.51
429.883	915.72
430.259	927.02
430.635	964.99
431.011	967.93
431.387	975.38
431.763	1001.15
432.138	998.89
432.514	1025.55
432.89	1025.1
433.265	1042.73
433.641	1051.31
434.016	1107.36
434.392	1099.9
434.767	1127.24
435.143	1132.22
435.518	1150.07
435.894	1169.73
436.269	1180.35
436.644	1201.59
437.02	1226.9
437.395	1209.73
437.77	1237.07
438.145	1282.27
438.52	1288.37
438.895	1322.04
439.271	1310.52
439.646	1343.74
440.021	1368.14
440.395	1373.79
440.77	1358.2
441.145	1371.31
441.52	1390.74
441.895	1431.87
442.27	1438.2
442.645	1457.86
443.019	1463.05
443.394	1450.4
443.769	1459.44
444.143	1453.56
444.518	1489.49
444.892	1493.34
445.267	1529.27
445.641	1539.89
446.016	1538.31
446.39	1574.92
446.764	1559.32
447.139	1577.4
447.513	1573.56
447.887	1612.88
448.262	1600.9
448.636	1634.8
449.01	1628.02
449.384	1634.35
449.758	1638.19
450.132	1670.51
450.506	1693.11
450.88	1715.48
451.254	1727.91
451.628	1708.92
452.002	1712.77
452.376	1749.6
452.75	1812.65
453.123	1777.62
453.497	1802.25
453.871	1802.71
454.244	1823.95
454.618	1863.5
454.992	1882.48
455.365	1871.86
455.739	1926.32
456.112	1975.81
456.486	1976.04
456.859	1988.92
457.232	1989.82
457.606	1991.4
457.979	2025.98
458.352	2083.15
458.725	2075.47
459.099	2078.63
459.472	2108.01
459.845	2182.13
460.218	2182.13
460.591	2177.61
460.964	2195.46
461.337	2265.07
461.71	2256.93
462.083	2275.24
462.456	2293.09
462.829	2327.44
463.201	2341.9
463.574	2375.12
463.947	2386.42
464.32	2435.01
464.692	2449.92
465.065	2439.98
465.438	2486.76
465.81	2545.06
466.183	2540.99
466.555	2599.52
466.928	2601.1
467.3	2599.07
467.672	2636.81
468.045	2684.72
468.417	2729.91
468.789	2742.57
469.161	2770.37
469.534	2805.62
469.906	2875.67
470.278	2857.14
470.65	2883.13
471.022	2944.15
471.394	2979.63
471.766	3018.49
472.138	3059.17
472.51	3055.78
472.882	3097.14
473.253	3145.5
473.625	3196.57
473.997	3227.75
474.369	3261.65
474.74	3265.27
475.112	3352.72
475.484	3417.13
475.855	3471.82
476.227	3437.24
476.598	3588.87
476.97	3584.58
477.341	3637.23
477.713	3712.71
478.084	3729.44
478.455	3797
478.827	3840.17
479.198	3919.26
479.569	3936.66
479.94	4039.94
480.311	4053.5
480.682	4122.65
481.053	4225.02
481.424	4239.48
481.795	4291.68
482.166	4291.45
482.537	4395.86
482.908	4457.78
483.279	4500.04
483.65	4509.3
484.021	4654.38
484.391	4704.55
484.762	4688.28
485.133	4732.8
485.503	4815.51
485.874	4909.74
486.244	4939.35
486.615	4988.16
486.985	5061.6
487.356	5194.48
487.726	5154.71
488.097	5284.88
488.467	5291.65
488.837	5320.81
489.207	5413.91
489.578	5456.85
489.948	5533
490.318	5598.09
490.688	5559.22
491.058	5661.59
491.428	5736.61
491.798	5736.84
492.168	5834.47
492.538	5847.8
492.908	5913.56
493.278	6043.95
493.648	6022.26
494.017	6036.49
494.387	6093.44
494.757	6174.34
495.126	6215.47
495.496	6212.53
495.866	6241.91
496.235	6299.09
496.605	6373.66
496.974	6344.51
497.344	6417.73
497.713	6472.87
498.082	6453.43
498.452	6546.99
498.821	6546.54
499.19	6520.77
499.559	6612.07
499.928	6596.93
500.298	6621.11
500.667	6729.81
501.036	6669.25
501.405	6777.04
501.774	6797.15
502.143	6751.5
502.512	6810.48
502.88	6857.04
503.249	6842.8
503.618	6891.39
503.987	6857.94
504.356	6935.45
504.724	6986.75
505.093	6949.01
505.462	7005.28
505.83	7041.44
506.199	7127.09
506.567	7104.94
506.936	7128.89
507.304	7217.93
507.672	7221.1
508.041	7256.57
508.409	7265.84
508.777	7267.42
509.145	7329.12
509.514	7309.68
509.882	7347.19
510.25	7362.56
510.618	7443.01
510.986	7380.87
511.354	7391.49
511.722	7461.09
512.09	7490.92
512.458	7452.95
512.826	7521.2
513.193	7597.81
513.561	7478.49
513.929	7583.12
514.297	7596.23
514.664	7613.18
515.032	7618.15
515.4	7678.03
515.767	7732.27
516.135	7717.13
516.502	7660.41
516.869	7742.89
517.237	7728.88
517.604	7702.89
517.972	7707.18
518.339	7805.49
518.706	7758.48
519.073	7745.6
519.44	7799.61
519.808	7856.11
520.175	7859.95
520.542	7955.09
520.909	7929.33
521.276	7892.04
521.643	7973.84
522.009	7965.03
522.376	8007.74
522.743	8007.06
523.11	8017.23
523.477	8139.94
523.843	8080.51
524.21	8101.98
524.577	8179.71
524.943	8163.67
525.31	8167.51
525.676	8214.52
526.043	8205.02
526.409	8267.17
526.776	8354.17
527.142	8323.44
527.508	8337.9
527.874	8291.35
528.241	8355.53
528.607	8317.11
528.973	8371.8
529.339	8330.67
529.705	8346.72
530.071	8420.16
530.437	8428.3
530.803	8472.36
531.169	8453.83
531.535	8424.91
531.901	8421.74
532.267	8457.9
532.632	8467.62
532.998	8410.67
533.364	8500.61
533.73	8407.5
534.095	8526.15
534.461	8415.87
534.826	8508.29
535.192	8462.64
535.557	8459.25
535.923	8428.3
536.288	8496.09
536.653	8531.34
537.019	8464.45
537.384	8459.93
537.749	8505.36
538.114	8449.99
538.479	8444.57
538.845	8434.62
539.21	8401.86
539.575	8456.09
539.94	8429.2
540.305	8474.4
540.67	8481.4
541.034	8467.39
541.399	8488.18
541.764	8398.47
542.129	8373.38
542.494	8392.82
542.858	8404.79
543.223	8365.7
543.587	8428.75
543.952	8335.64
544.316	8369.09
544.681	8298.81
545.045	8406.15
545.41	8439.59
545.774	8383.78
546.138	8338.81
546.503	8355.53
546.867	8291.58
547.231	8396.88
547.595	8342.65
547.959	8385.36
548.324	8356.21
548.688	8339.71
549.052	8285.7
549.416	8300.62
549.779	8311.91
550.143	8211.8
550.507	8262.88
550.871	8302.2
551.235	8257.45
551.599	8317.34
551.962	8236.66
552.326	8293.38
552.689	8314.63
553.053	8181.52
553.417	8253.84
553.78	8371.35
554.143	8250.67
554.507	8270.11
554.87	8384.91
555.234	8332.7
555.597	8251.8
555.96	8262.65
556.323	8267.4
556.686	8235.53
557.05	8292.93
557.413	8272.37
557.776	8260.84
558.139	8285.25
558.502	8294.74
558.865	8267.17
559.228	8320.73
559.59	8352.59
559.953	8325.7
560.316	8416.77
560.679	8404.79
561.041	8379.03
561.404	8425.81
561.767	8440.72
562.129	8428.3
562.492	8444.11
562.854	8422.87
563.217	8428.97
563.579	8498.58
563.941	8507.62
564.304	8472.81
564.666	8583.32
565.028	8516.88
565.39	8547.16
565.753	8555.3
566.115	8559.82
566.477	8615.18
566.839	8639.36
567.201	8650.89
567.563	8703.09
567.925	8640.95
568.287	8665.8
568.648	8758
569.01	8763.2
569.372	8821.51
569.734	8779.7
570.095	8827.38
570.457	8858.79
570.819	8795.07
571.18	8838.45
571.542	8851.56
571.903	8868.74
572.265	8894.72
572.626	9003.87
572.987	8932.46
573.349	8930.2
573.71	8972.91
574.071	9011.33
574.432	9059.92
574.794	9056.53
575.155	9100.14
575.516	9026.47
575.877	9139.46
576.238	9118.9
576.599	9188.73
576.96	9195.51
577.32	9196.86
577.681	9243.19
578.042	9209.29
578.403	9245.22
578.763	9304.2
579.124	9233.47
579.485	9290.19
579.845	9326.8
580.206	9256.97
580.566	9291.1
580.927	9358.44
581.287	9423.3
581.648	9381.72
582.008	9448.16
582.368	9459.23
582.728	9496.29
583.089	9496.97
583.449	9437.99
583.809	9439.57
584.169	9549.85
584.529	9505.33
584.889	9603.86
585.249	9543.52
585.609	9513.69
585.969	9607.7
586.329	9593.01
586.688	9611.54
587.048	9609.96
587.408	9562.05
587.768	9629.62
588.127	9657.19
588.487	9619.22
588.846	9684.31
589.206	9644.99
589.565	9706.23
589.925	9730.63
590.284	9720.24
590.643	9765.89
591.003	9737.64
591.362	9812.21
591.721	9818.32
592.08	9848.37
592.44	9821.25
592.799	9862.16
593.158	9849.27
593.517	9820.12
593.876	9855.83
594.235	9811.99
594.593	9892.89
594.952	9850.18
595.311	9851.76
595.67	9979.44
596.029	9955.26
596.387	9953.45
596.746	10019.21
597.104	9976.28
597.463	9982.83
597.822	10065.09
598.18	9950.29
598.538	9988.93
598.897	10056.95
599.255	9941.25
599.613	10145.31
599.972	10058.53
600.33	10045.43
600.688	10017.86
601.046	10088.82
601.404	10135.6
601.762	10102.83
602.12	10099.89
602.478	10084.3
602.836	10074.58
603.194	10020.12
603.552	10058.76
603.91	10062.38
604.268	10074.81
604.625	10100.12
604.983	10104.41
605.341	10049.95
605.698	10112.54
606.056	10121.13
606.413	10143.28
606.771	10140.34
607.128	10091.08
607.485	10114.13
607.843	10108.48
608.2	10193.9
608.557	10210.85
608.914	10176.5
609.272	10287.91
609.629	10201.36
609.986	10263.95
610.343	10180.34
610.7	10359.32
611.057	10349.37
611.414	10331.3
611.771	10321.58
612.127	10322.03
612.484	10278.42
612.841	10429.6
613.198	10299.43
613.554	10306.44
613.911	10366.78
614.267	10348.92
614.624	10333.56
614.98	10386.44
615.337	10432.54
615.693	10494.91
616.05	10341.69
616.406	10423.27
616.762	10398.64
617.118	10452.2
617.475	10415.59
617.831	10479.54
618.187	10499.65
618.543	10548.24
618.899	10482.48
619.255	10510.05
619.611	10438.41
619.967	10524.74
620.323	10568.8
620.678	10524.96
621.034	10498.3
621.39	10474.8
621.746	10416.94
622.101	10612.42
622.457	10464.85
622.812	10489.03
623.168	10542.59
623.523	10524.51
623.879	10543.95
624.234	10503.5
624.589	10464.4
624.945	10503.5
625.3	10545.3
625.655	10482.93
626.01	10538.52
626.365	10527.9
626.72	10505.3
627.075	10491.97
627.43	10522.25
627.785	10445.19
628.14	10479.31
628.495	10544.62
628.85	10515.25
629.205	10407.45
629.559	10458.07
629.914	10424.85
630.269	10495.13
630.623	10395.93
630.978	10421.24
631.332	10459.88
631.687	10412.65
632.041	10369.71
632.396	10439.99
632.75	10405.42
633.104	10367.91
633.459	10293.56
633.813	10365.19
634.167	10320.45
634.521	10282.48
634.875	10296.27
635.229	10273.9
635.583	10267.34
635.937	10204.07
636.291	10219.21
636.645	10203.16
636.999	10227.57
637.352	10168.14
637.706	10182.37
638.06	10159.32
638.413	10158.19
638.767	10161.13
639.121	10169.27
639.474	10103.73
639.828	10078.87
640.181	10105.99
640.534	10085.2
640.888	10073.9
641.241	10007.46
641.594	10033.22
641.947	10037.29
642.301	10066.9
642.654	10094.47
643.007	10017.86
643.36	10102.6
643.713	10037.74
644.066	10029.61
644.419	10035.94
644.771	9952.78
645.124	9939.22
645.477	9816.28
645.83	9820.8
646.182	9736.74
646.535	9715.49
646.888	9706.45
647.24	9656.06
647.593	9720.46
647.945	9684.31
648.298	9689.28
648.65	9663.07
649.002	9592.56
649.355	9625.55
649.707	9650.86
650.059	9734.25
650.411	9830.52
650.763	9864.64
651.115	9988.03
651.467	9863.06
651.819	9926.56
652.171	9911.87
652.523	9857.86
652.875	9833.91
653.227	9848.82
653.578	9879.56
653.93	9913.91
654.282	9812.21
654.633	9791.42
654.985	9836.39
655.337	9879.1
655.688	9834.81
656.039	9855.38
656.391	9763.4
656.742	9826.68
657.094	9859.67
657.445	9889.95
657.796	9882.49
658.147	9800.24
658.498	9845.21
658.849	9829.16
659.2	9882.27
659.551	9804.53
659.902	9844.08
660.253	9836.39
660.604	9894.92
660.955	9804.3
661.306	9939.67
661.656	9908.48
662.007	9878.2
662.358	9867.81
662.708	9904.19
663.059	9893.12
663.409	9796.39
663.76	9868.71
664.11	9851.99
664.461	9879.1
664.811	9877.52
665.161	9847.47
665.511	9903.74
665.862	9923.62
666.212	9913.91
666.562	9884.98
666.912	9824.64
667.262	9870.97
667.612	9856.51
667.962	9918.65
668.312	9804.98
668.662	9962.27
669.011	9841.82
669.361	9846.56
669.711	9890.63
670.06	9833.46
670.41	9827.81
670.76	9882.27
671.109	9811.31
671.459	9906.45
671.808	9820.8
672.157	9837.98
672.507	9773.12
672.856	9800.91
673.205	9785.77
673.554	9809.95
673.904	9803.17
674.253	9804.3
674.602	9792.78
674.951	9556.85
675.3	9579
675.649	9779.22
675.998	9683.4
676.346	9707.36
676.695	9766.57
677.044	9724.53
677.393	9713.01
677.741	9701.71
678.09	9693.12
678.438	9642.5
678.787	9681.14
679.135	9692.44
679.484	9647.7
679.832	9665.32
680.181	9588.04
680.529	9534.25
680.877	9558.44
681.225	9531.32
681.573	9593.01
681.922	9500.81
682.27	9518.44
682.618	9525.67
682.966	9434.14
683.314	9486.35
683.661	9444.77
684.009	9447.48
684.357	9368.38
684.705	9381.49
685.053	9370.42
685.4	9326.58
685.748	9307.14
686.095	9288.39
686.443	9226.69
686.79	9317.09
687.138	9282.28
687.485	9228.27
687.832	9221.04
688.18	9202.51
688.527	9146.69
688.874	9078.45
689.221	9119.8
689.568	9087.04
689.915	9139.01
690.262	9093.59
690.609	9052.23
690.956	9011.33
691.303	8966.13
691.65	8910.32
691.997	8887.94
692.344	8931.78
692.69	8888.62
693.037	8866.93
693.383	8740.83
693.73	8725.91
694.077	8748.29
694.423	8726.14
694.769	8734.95
695.116	8670.32
695.462	8634.62
695.808	8600.27
696.155	8576.77
696.501	8469.65
696.847	8540.83
697.193	8437.79
697.539	8493.83
697.885	8399.37
698.231	8416.09
698.577	8398.24
698.923	8402.99
699.269	8334.29
699.614	8267.85
699.96	8269.66
700.306	8228.07
700.651	8174.06
700.997	8138.81
701.342	8118.25
701.688	8149.21
702.033	8137.46
702.379	8127.29
702.724	8064.69
703.069	8052.03
703.415	7996.67
703.76	7987.63
704.105	7912.6
704.45	7973.84
704.795	7911.92
705.14	7899.72
705.485	7844.36
705.83	7828.99
706.175	7793.96
706.52	7813.17
706.865	7759.39
707.209	7742.44
707.554	7735.88
707.899	7676.68
708.243	7640.29
708.588	7615.44
708.932	7631.93
709.277	7542.44
709.621	7566.4
709.966	7533.4
710.31	7576.79
710.654	7476
710.998	7501.77
711.342	7507.87
711.687	7498.38
712.031	7417.47
712.375	7403.01
712.719	7406.18
713.063	7388.55
713.407	7366.4
713.75	7370.7
714.094	7321.88
714.438	7349
714.782	7270.81
715.125	7265.39
715.469	7301.09
715.812	7363.01
716.156	7252.96
716.499	7256.35
716.843	7218.61
717.186	7194.66
717.53	7262.22
717.873	7248.67
718.216	7183.13
718.559	7165.96
718.902	7149.01
719.246	7098.39
719.589	7116.47
719.932	7092.29
720.275	7079.63
720.617	7086.41
720.96	7116.69
721.303	7047.77
721.646	7093.42
721.989	7037.82
722.331	7099.06
722.674	7066.98
723.016	7034.89
723.359	6972.97
723.701	7027.43
724.044	7030.82
724.386	6950.14
724.729	7054.77
725.071	7019.97
725.413	6970.48
725.755	7012.06
726.097	6955.79
726.439	6914.89
726.782	6943.36
727.124	7022.46
727.465	6871.95
727.807	6950.59
728.149	6917.15
728.491	6894.32
728.833	6894.55
729.175	6922.12
729.516	6929.8
729.858	6907.66
730.199	6916.24
730.541	6891.84
730.882	6885.74
731.224	6944.72
731.565	6911.05
731.906	6905.4
732.248	6847.09
732.589	6845.06
732.93	6849.13
733.271	6871.95
733.612	6886.19
733.953	6851.84
734.294	6830.6
734.635	6838.51
734.976	6883.48
735.317	6847.32
735.658	6883.48
735.999	6874.66
736.339	6830.15
736.68	6865.85
737.021	6859.75
737.361	6821.56
737.702	6928.67
738.042	6850.03
738.383	6877.83
738.723	6898.84
739.063	6936.58
739.404	6954.66
739.744	6881.22
740.084	6912.4
740.424	6909.01
740.764	6910.14
741.104	6953.08
741.444	6923.25
741.784	6951.5
742.124	7055.9
742.464	6964.83
742.804	6939.07
743.143	7004.38
743.483	7026.07
743.823	7020.87
744.162	7024.94
744.502	7060.65
744.841	7076.92
745.181	7113.98
745.52	7083.92
745.86	7129.12
746.199	7201.66
746.538	7219.51
746.877	7232.85
747.216	7262.22
747.556	7280.08
747.895	7316.01
748.234	7385.61
748.573	7344.03
748.911	7436.01
749.25	7511.48
749.589	7494.76
749.928	7568.2
750.267	7620.86
750.605	7643.68
750.944	7799.39
751.283	7734.08
751.621	7863.56
751.96	7888.87
752.298	7979.04
752.636	8014.75
752.975	8102.65
753.313	8134.29
753.651	8295.42
753.989	8335.19
754.327	8321.86
754.666	8471.23
755.004	8612.7
755.342	8630.32
755.679	8733.82
756.017	8840.26
756.355	8948.28
756.693	9070.76
757.031	9218.56
757.368	9322.06
757.706	9402.28
758.044	9506.01
758.381	9664.65
758.719	9737.87
759.056	9911.42
759.394	9926.11
759.731	10021.02
760.068	10242.71
760.405	10275.03
760.743	10418.07
761.08	10526.32
761.417	10652.64
761.754	10825.52
762.091	10918.63
762.428	11030.26
762.765	11130.82
763.102	11310.48
763.438	11375.79
763.775	11494.66
764.112	11670.92
764.449	11807.64
764.785	11911.59
765.122	11980.07
765.458	12092.83
765.795	12290.34
766.131	12367.85
766.467	12379.83
766.804	12517
767.14	12639.48
767.476	12714.28
767.812	12862.53
768.148	12907.5
768.485	12986.59
768.821	13137.1
769.157	13166.02
769.492	13312.69
769.828	13382.52
770.164	13435.4
770.5	13472.23
770.836	13663.19
771.171	13526.01
771.507	13693.92
771.842	13677.2
772.178	13881.03
772.513	13911.54
772.849	13938.66
773.184	13981.6
773.519	14076.51
773.855	14089.16
774.19	14108.82
774.525	14128.48
774.86	14225.66
775.195	14350.17
775.53	14228.82
775.865	14222.27
776.2	14282.83
776.535	14298.42
776.87	14376.84
777.205	14317.86
777.539	14414.13
777.874	14448.48
778.209	14368.48
778.543	14489.83
778.878	14379.55
779.212	14457.52
779.547	14498.42
779.881	14510.62
780.215	14531.41
780.55	14550.85
780.884	14429.95
781.218	14510.85
781.552	14574.8
781.886	14509.49
782.22	14489.6
782.554	14483.28
782.888	14401.02
783.222	14403.05
783.556	14324.64
783.889	14419.55
784.223	14420.91
784.557	14321.25
784.89	14470.62
785.224	14389.04
785.557	14288.93
785.891	14299.1
786.224	14285.99
786.558	14278.99
786.891	14312.43
787.224	14175.94
787.557	14250.74
787.891	14288.93
788.224	14189.73
788.557	14201.02
788.89	14176.39
789.223	14194.02
789.556	14070.18
789.888	14033.35
790.221	14108.6
790.554	13977.75
790.887	13986.12
791.219	14024.08
791.552	13918.55
791.884	13977.75
792.217	13926.46
792.549	13793.35
792.882	13777.53
793.214	13810.07
793.546	13766.91
793.879	13789.06
794.211	13636.07
794.543	13784.76
794.875	13702.96
795.207	13691.43
795.539	13642.4
795.871	13677.87
796.203	13563.53
796.535	13447.15
796.867	13496.86
797.198	13485.56
797.53	13502.06
797.862	13353.59
798.193	13424.1
798.525	13334.38
798.856	13375.51
799.188	13200.83
799.519	13205.57
799.85	13207.38
800.182	13227.72
800.513	13199.02
800.844	13041.73
801.175	13135.74
801.506	13145.46
801.837	13043.54
802.168	13023.65
802.499	13014.16
802.83	12932.58
803.161	12933.71
803.491	12929.87
803.822	12904.11
804.153	12830.67
804.483	12733.94
804.814	12772.36
805.145	12750.89
805.475	12708.86
805.805	12691.23
806.136	12708.18
806.466	12672.25
806.796	12697.11
807.126	12543.89
807.457	12504.35
807.787	12634.51
808.117	12549.09
808.447	12464.12
808.777	12507.06
809.107	12416.44
809.436	12387.97
809.766	12456.44
810.096	12370.11
810.426	12309.32
810.755	12336.22
811.085	12352.26
811.414	12322.43
811.744	12151.81
812.073	12146.39
812.403	12178.48
812.732	12131.02
813.061	12105.26
813.39	12052.83
813.719	12049.44
814.049	12036.79
814.378	11992.27
814.707	11988.65
815.036	11943.01
815.365	11858.94
815.693	11723.58
816.022	11803.12
816.351	11799.28
816.68	11738.72
817.008	11735.33
817.337	11701.66
817.665	11701.88
817.994	11686.06
818.322	11671.83
818.651	11600.19
818.979	11538.72
819.307	11721.09
819.636	11639.28
819.964	11503.02
820.292	11599.74
820.62	11562.22
820.948	11576.46
821.276	11580.53
821.604	11562.22
821.932	11556.57
822.259	11567.87
822.587	11536.01
822.915	11502.79
823.243	11530.81
823.57	11479.06
823.898	11477.93
824.225	11467.76
824.553	11522
824.88	11460.76
825.207	11521.1
825.535	11476.8
825.862	11539.17
826.189	11429.35
826.516	11550.47
826.843	11532.17
827.17	11583.01
827.497	11595.9
827.824	11574.65
828.151	11560.19
828.478	11598.61
828.805	11622.79
829.131	11509.8
829.458	11533.3
829.785	11518.38
830.111	11520.19
830.438	11575.33
830.764	11591.15
831.09	11525.62
831.417	11513.64
831.743	11557.25
832.069	11481.77
832.395	11576.69
832.722	11540.08
833.048	11518.16
833.374	11536.01
833.7	11472.74
834.026	11475.67
834.351	11453.3
834.677	11421.89
835.003	11496.69
835.329	11506.41
835.654	11421.21
835.98	11435
836.306	11379.4
836.631	11371.72
836.956	11409.46
837.282	11418.95
837.607	11303.25
837.932	11283.36
838.258	11329.01
838.583	11214.89
838.908	11227.32
839.233	11323.59
839.558	11208.11
839.883	11149.58
840.208	11141.67
840.533	11202.01
840.858	11157.26
841.182	11154.55
841.507	11096.25
841.832	11030.03
842.156	11104.16
842.481	11000.21
842.805	11041.79
843.13	10983.48
843.454	10998.62
843.778	10921.11
844.103	10906.65
844.427	10895.35
844.751	10861
845.075	10854.45
845.399	10782.13
845.723	10788.23
846.047	10807.44
846.371	10665.52
846.695	10658.29
847.019	10585.53
847.343	10580.33
847.666	10457.39
847.99	10444.51
848.313	10459.2
848.637	10389.83
848.96	10420.33
849.284	10343.05
849.607	10349.83
849.931	10326.55
850.254	10273.67
850.577	10159.1
850.9	10143.96
851.223	10102.83
851.546	10044.75
851.869	9966.33
852.192	10039.78
852.515	9935.37
852.838	9931.98
853.161	9867.81
853.483	9837.98
853.806	9830.07
854.129	9771.99
854.451	9727.92
854.774	9716.17
855.096	9694.7
855.419	9689.73
855.741	9583.29
856.063	9587.81
856.385	9564.99
856.708	9543.07
857.03	9535.84
857.352	9552.11
857.674	9521.6
857.996	9423.07
858.318	9411.77
858.64	9388.27
858.961	9410.87
859.283	9363.64
859.605	9287.48
859.926	9312.79
860.248	9267.82
860.57	9249.29
860.891	9268.27
861.212	9139.24
861.534	9159.8
861.855	9140.14
862.176	9159.12
862.498	9151.67
862.819	9106.7
863.14	9074.83
863.461	9038.9
863.782	9014.49
864.103	9066.47
864.424	8992.12
864.745	9048.17
865.065	8910.32
865.386	8914.84
865.707	8926.36
866.027	8990.99
866.348	8895.85
866.668	8900.15
866.989	8909.19
867.309	8788.51
867.63	8890.88
867.95	8828.06
868.27	8811.34
868.59	8832.35
868.91	8743.99
869.23	8781.28
869.55	8772.69
869.87	8782.64
870.19	8731.34
870.51	8681.17
870.83	8677.33
871.15	8670.77
871.469	8702.41
871.789	8697.89
872.109	8754.39
872.428	8612.25
872.748	8704.67
873.067	8635.97
873.386	8595.52
873.706	8595.52
874.025	8537.67
874.344	8579.93
874.663	8596.65
874.982	8514.39
875.301	8603.43
875.62	8490.89
875.939	8485.69
876.258	8455.64
876.577	8449.54
876.896	8428.07
877.214	8412.7
877.533	8447.5
877.852	8441.4
878.17	8433.72
878.489	8419.71
878.807	8393.27
879.125	8334.29
879.444	8395.08
879.762	8353.27
880.08	8325.25
880.398	8279.15
880.716	8292.48
881.034	8243.22
881.352	8335.87
881.67	8243.67
881.988	8203.44
882.306	8212.71
882.624	8201.86
882.941	8199.83
883.259	8145.36
883.577	8092.26
883.894	8096.33
884.212	8130.45
884.529	8054.75
884.846	8088.19
885.164	8066.04
885.481	8006.39
885.798	8071.47
886.115	7951.02
886.432	8004.13
886.75	7976.56
887.067	7949.21
887.383	7871.25
887.7	7871.25
888.017	7846.39
888.334	7879.38
888.651	7840.74
888.967	7824.02
889.284	7810.68
889.6	7798.93
889.917	7759.84
890.233	7717.35
890.55	7715.77
890.866	7704.7
891.182	7644.14
891.498	7628.32
891.815	7648.65
892.131	7611.82
892.447	7607.07
892.763	7564.14
893.079	7559.39
893.395	7532.05
893.71	7518.04
894.026	7461.99
894.342	7420.41
894.657	7386.51
894.973	7401.66
895.289	7363.92
895.604	7385.38
895.92	7281.88
896.235	7281.21
896.55	7242.11
896.865	7270.36
897.181	7207.76
897.496	7268.1
897.811	7160.53
898.126	7180.42
898.441	7072.17
898.756	7092.29
899.071	7074.43
899.386	7034.43
899.7	6995.11
900.015	6974.32
900.33	6963.93
900.644	6969.35
900.959	6925.28
901.273	6939.52
901.588	6864.49
901.902	6838.51
902.216	6857.72
902.531	6744.95
902.845	6710.83
903.159	6693.2
903.473	6703.14
903.787	6701.56
904.101	6604.39
904.415	6651.84
904.729	6623.15
905.042	6594.9
905.356	6598.96
905.67	6544.05
905.984	6560.1
906.297	6564.16
906.611	6481.68
906.924	6460.21
907.237	6440.55
907.551	6408.46
907.864	6398.74
908.177	6389.93
908.491	6337.95
908.804	6338.41
909.117	6276.94
909.43	6238.75
909.743	6200.33
910.056	6225.42
910.368	6195.81
910.681	6163.72
910.994	6123.5
911.307	6068.36
911.619	6064.74
911.932	6059.54
912.244	6059.54
912.557	6028.36
912.869	5957.4
913.181	5950.62
913.494	5910.85
913.806	5932.09
914.118	5894.8
914.43	5835.37
914.742	5823.62
915.054	5820
915.366	5823.17
915.678	5751.53
915.99	5716.95
916.302	5761.47
916.613	5690.97
916.925	5686.67
917.236	5665.43
917.548	5599.9
917.859	5628.14
918.171	5526.68
918.482	5540.69
918.794	5496.17
919.105	5543.17
919.416	5502.04
919.727	5510.41
920.038	5455.72
920.349	5393.35
920.66	5432.67
920.971	5389.96
921.282	5399.67
921.593	5373.46
921.903	5349.28
922.214	5276.74
922.525	5223.63
922.835	5261.82
923.146	5255.27
923.456	5231.54
923.767	5199.45
924.077	5192.9
924.387	5159.45
924.697	5082.62
925.008	5126.69
925.318	5127.14
925.628	5076.07
925.938	5068.16
926.248	5033.81
926.558	5017.54
926.867	4977.76
927.177	4995.84
927.487	4973.47
927.796	4869.29
928.106	4893.92
928.416	4886.24
928.725	4841.5
929.034	4852.8
929.344	4866.13
929.653	4845.34
929.962	4772.57
930.271	4762.18
930.581	4742.52
930.89	4715.4
931.199	4737.77
931.508	4708.39
931.817	4726.02
932.125	4645.12
932.434	4665.91
932.743	4594.5
933.051	4567.38
933.36	4571.45
933.669	4507.95
933.977	4534.61
934.286	4561.96
934.594	4498
934.902	4492.35
935.21	4448.29
935.519	4468.4
935.827	4455.07
936.135	4404.67
936.443	4352.7
936.751	4391.57
937.059	4309.99
937.367	4348.18
937.674	4377.55
937.982	4356.54
938.29	4320.61
938.597	4275.86
938.905	4260.27
939.213	4234.06
939.52	4235.86
939.827	4216.43
940.135	4199.25
940.442	4168.75
940.749	4168.29
941.056	4122.87
941.363	4088.97
941.67	4132.14
941.977	4098.24
942.284	4063.89
942.591	4030.44
942.898	4010.56
943.205	4042.87
943.511	4006.04
943.818	3945.93
944.125	3990.9
944.431	3974.18
944.738	3948.87
945.044	3898.24
945.35	3884.23
945.657	3858.47
945.963	3898.47
946.269	3857.79
946.575	3845.36
946.881	3814.63
947.187	3780.96
947.493	3799.04
947.799	3764.92
948.105	3704.13
948.41	3765.82
948.716	3751.13
949.022	3683.79
949.327	3670
949.633	3661.87
949.938	3677.91
950.244	3656.9
950.549	3585.48
950.854	3596.78
951.16	3655.31
951.465	3589.78
951.77	3552.04
952.075	3580.51
952.38	3579.16
952.685	3531.47
952.99	3490.8
953.294	3441.31
953.599	3483.11
953.904	3478.37
954.209	3472.27
954.513	3425.04
954.818	3441.31
955.122	3409.44
955.426	3419.39
955.731	3421.42
956.035	3377.58
956.339	3319.96
956.643	3354.08
956.948	3292.16
957.252	3321.54
957.556	3283.8
957.86	3272.95
958.163	3266.62
958.467	3237.47
958.771	3236.34
959.075	3244.02
959.378	3212.39
959.682	3211.03
959.985	3218.94
960.289	3173.74
960.592	3144.14
960.896	3125.16
961.199	3123.35
961.502	3123.12
961.805	3125.38
962.108	3095.33
962.411	3065.27
962.714	3064.14
963.017	3067.53
963.32	3054.88
963.623	3011.94
963.926	3055.1
964.228	3011.26
964.531	2986.86
964.833	2985.05
965.136	2944.82
965.438	2917.48
965.741	2909.8
966.043	2937.59
966.345	2898.5
966.648	2918.61
966.95	2904.15
967.252	2873.19
967.554	2837.71
967.856	2858.95
968.158	2833.64
968.46	2836.35
968.761	2785.96
969.063	2819.4
969.365	2770.82
969.666	2794.77
969.968	2730.37
970.269	2741.44
970.571	2766.75
970.872	2753.19
971.174	2716.58
971.475	2729.46
971.776	2673.42
972.077	2685.4
972.378	2705.73
972.679	2673.42
972.98	2640.42
973.281	2607.21
973.582	2615.57
973.883	2594.78
974.183	2588.9
974.484	2590.71
974.785	2588.67
975.085	2603.36
975.386	2589.58
975.686	2559.3
975.986	2554.1
976.287	2551.16
976.587	2512.07
976.887	2493.54
977.187	2490.82
977.487	2536.7
977.787	2524.27
978.087	2490.15
978.387	2452.63
978.687	2434.78
978.987	2427.32
979.286	2396.36
979.586	2414.22
979.885	2401.34
980.185	2385.97
980.484	2373.31
980.784	2396.59
981.083	2337.16
981.382	2355.01
981.682	2315.46
981.981	2345.52
982.28	2332.18
982.579	2307.78
982.878	2288.34
983.177	2293.99
983.475	2324.95
983.774	2286.31
984.073	2262.36
984.372	2265.75
984.67	2229.36
984.969	2216.48
985.267	2200.21
985.566	2214.22
985.864	2189.59
986.162	2183.26
986.461	2161.57
986.759	2179.42
987.057	2162.47
987.355	2121.79
987.653	2121.57
987.951	2143.04
988.249	2129.93
988.547	2129.48
988.844	2090.61
989.142	2093.55
989.44	2100.55
989.737	2090.61
990.035	2087.22
990.332	2057.62
990.63	2065.98
990.927	1999.54
991.224	2009.48
991.521	2014.23
991.819	2025.75
992.116	1990.27
992.413	2009.26
992.71	1987.11
993.006	1968.13
993.303	1926.55
993.6	1958.41
993.897	1951.18
994.193	1936.26
994.49	1920.9
994.787	1914.57
995.083	1909.82
995.379	1927.22
995.676	1920.22
995.972	1898.3
996.268	1865.3
996.565	1873.44
996.861	1897.39
997.157	1843.84
997.453	1834.12
997.749	1840.22
998.044	1850.16
998.34	1811.52
998.636	1795.02
998.932	1773.56
999.227	1782.82
999.523	1817.85
999.818	1793.89
1000.114	1777.4
1000.409	1748.02
1000.704	1738.08
1001	1741.01
1001.295	1717.51
1001.59	1731.3
1001.885	1712.54
1002.18	1715.03
1002.475	1694.24
1002.77	1688.59
1003.065	1692.43
1003.359	1701.24
1003.654	1670.28
1003.949	1650.62
1004.243	1633.22
1004.538	1639.77
1004.832	1621.24
1005.127	1609.49
1005.421	1621.92
1005.715	1616.05
1006.009	1585.31
1006.304	1576.5
1006.598	1568.36
1006.892	1557.29
1007.186	1548.25
1007.48	1561.36
1007.773	1531.08
1008.067	1520.45
1008.361	1520
1008.655	1520.23
1008.948	1533.11
1009.242	1519.1
1009.535	1477.07
1009.829	1481.81
1010.122	1486.78
1010.415	1488.59
1010.708	1460.12
1011.001	1469.61
1011.295	1437.74
1011.588	1423.51
1011.881	1422.15
1012.173	1378.31
1012.466	1432.55
1012.759	1384.19
1013.052	1401.36
1013.344	1393.9
1013.637	1352.1
1013.93	1352.55
1014.222	1383.51
1014.514	1340.8
1014.807	1360.68
1015.099	1327.01
1015.391	1354.13
1015.683	1315.26
1015.976	1304.64
1016.268	1317.3
1016.56	1312.32
1016.851	1279.33
1017.143	1264.64
1017.435	1273.23
1017.727	1263.96
1018.018	1254.7
1018.31	1256.05
1018.602	1256.73
1018.893	1254.25
1019.185	1225.77
1019.476	1214.93
1019.767	1219.67
1020.058	1252.44
1020.35	1185.55
1020.641	1199.56
1020.932	1188.26
1021.223	1196.4
1021.514	1172.89
1021.804	1182.61
1022.095	1175.38
1022.386	1131.99
1022.677	1125.21
1022.967	1151.42
1023.258	1124.98
1023.548	1126.57
1023.839	1114.82
1024.129	1122.27
1024.419	1101.93
1024.709	1061.26
1025	1099.67
1025.29	1075.72
1025.58	1049.96
1025.87	1062.84
1026.16	1056.51
1026.449	1064.87
1026.739	1067.58
1027.029	1045.66
1027.319	1071.65
1027.608	1014.7
1027.898	1055.83
1028.187	1022.16
1028.477	1014.93
1028.766	1024.87
1029.055	992.56
1029.344	976.74
1029.634	995.04
1029.923	992.11
1030.212	965.89
1030.501	969.96
1030.79	963.41
1031.078	957.98
1031.367	948.72
1031.656	928.83
1031.945	943.75
1032.233	943.97
1032.522	934.48
1032.81	939.68
1033.099	954.37
1033.387	924.31
1033.675	894.93
1033.963	893.58
1034.251	906.01
1034.54	908.27
1034.828	892
1035.116	867.14
1035.403	882.51
1035.691	848.61
1035.979	877.31
1036.267	840.25
1036.554	847.93
1036.842	840.02
1037.129	839.12
1037.417	831.43
1037.704	812.68
1037.992	816.97
1038.279	824.2
1038.566	825.11
1038.853	825.11
1039.14	825.11
