Data from hue_140_FLMS001491_00022.txt Node
Date: Tue Feb 07 16:55:39 GMT 2017
User: dcchb
Spectrometer: FLMS00149
Trigger mode: 0
Integration Time (sec): 2.000000E-2
Scans to average: 10
Electric dark correction enabled: true
Nonlinearity correction enabled: false
Boxcar width: 0
XAxis mode: Wavelengths
Number of Pixels in Spectrum: 2048
>>>>>Begin Spectral Data<<<<<
341.393	-14.03
341.776	-14.03
342.16	-14.03
342.543	-70.07
342.927	-59.45
343.31	-55.38
343.693	-72.33
344.077	-67.36
344.46	-65.1
344.843	-56.28
345.226	-51.76
345.61	-25.55
345.993	-11.09
346.376	-15.38
346.759	21
347.142	10.83
347.525	36.37
347.908	72.3
348.291	70.04
348.674	82.02
349.057	127.67
349.44	132.86
349.823	149.36
350.206	171.28
350.588	198.4
350.971	194.78
351.354	221.67
351.737	252.41
352.119	261.22
352.502	261.9
352.884	272.3
353.267	302.58
353.65	294.44
354.032	318.85
354.414	293.31
354.797	315.68
355.179	308.68
355.562	314.78
355.944	316.14
356.326	342.35
356.709	317.27
357.091	343.03
357.473	336.02
357.855	321.79
358.238	350.71
358.62	331.05
359.002	317.27
359.384	358.62
359.766	319.3
360.148	343.71
360.53	323.59
360.912	337.15
361.294	336.25
361.676	334.21
362.057	328.11
362.439	328.11
362.821	322.01
363.203	317.72
363.584	326.98
363.966	328.34
364.348	339.86
364.729	327.43
365.111	332.86
365.493	340.09
365.874	326.3
366.256	313.2
366.637	321.33
367.019	333.54
367.4	299.64
367.781	308.9
368.163	306.87
368.544	308.9
368.925	312.52
369.306	318.4
369.688	334.21
370.069	322.01
370.45	305.51
370.831	305.51
371.212	291.96
371.593	322.24
371.974	317.94
372.355	309.58
372.736	325.85
373.117	316.36
373.498	339.41
373.879	319.75
374.26	337.83
374.641	312.07
375.021	323.82
375.402	333.99
375.783	301.9
376.163	338.73
376.544	319.07
376.925	327.43
377.305	329.47
377.686	316.59
378.066	323.14
378.447	322.69
378.827	326.98
379.208	329.24
379.588	351.84
379.968	339.41
380.349	330.6
380.729	349.36
381.109	320.43
381.489	348.68
381.87	325.85
382.25	322.01
382.63	344.16
383.01	351.84
383.39	370.6
383.77	347.32
384.15	349.58
384.53	351.62
384.91	369.69
385.29	348.23
385.67	349.58
386.049	359.98
386.429	355.91
386.809	367.43
387.189	339.41
387.568	344.16
387.948	367.21
388.328	348.23
388.707	359.3
389.087	350.49
389.466	371.05
389.846	353.42
390.225	371.95
390.605	362.69
390.984	380.54
391.363	376.25
391.743	371.73
392.122	355.23
392.501	367.43
392.881	392.29
393.26	391.61
393.639	379.18
394.018	394.78
394.397	403.37
394.776	381.44
395.155	365.85
395.534	370.82
395.913	411.73
396.292	377.15
396.671	385.29
397.05	407.43
397.429	402.24
397.808	389.81
398.186	399.07
398.565	383.48
398.944	412.86
399.323	403.59
399.701	414.21
400.08	404.5
400.458	378.73
400.837	400.65
401.215	412.4
401.594	398.85
401.972	424.83
402.351	414.66
402.729	399.52
403.107	407.21
403.486	410.37
403.864	396.81
404.242	419.86
404.62	418.05
404.999	432.52
405.377	425.96
405.755	403.37
406.133	438.84
406.511	444.49
406.889	447.66
407.267	430.71
407.645	436.13
408.023	444.27
408.401	463.93
408.779	446.08
409.156	439.75
409.534	454.44
409.912	447.66
410.29	449.92
410.667	460.99
411.045	468
411.422	474.1
411.8	458.05
412.178	477.26
412.555	478.17
412.933	498.96
413.31	477.26
413.687	477.94
414.065	510.03
414.442	478.17
414.819	486.3
415.197	490.37
415.574	509.8
415.951	502.35
416.328	508.67
416.705	506.41
417.082	505.74
417.46	516.13
417.837	497.6
418.214	501.89
418.591	522.23
418.967	544.38
419.344	547.77
419.721	529.46
420.098	526.75
420.475	561.1
420.852	519.75
421.228	556.13
421.605	559.52
421.982	540.76
422.358	569.24
422.735	559.07
423.111	551.16
423.488	588.22
423.864	556.36
424.241	577.37
424.617	592.29
424.994	560.65
425.37	573.3
425.746	571.95
426.123	571.95
426.499	580.54
426.875	585.51
427.251	610.37
427.627	612.63
428.003	603.81
428.379	601.1
428.756	614.43
429.132	623.02
429.507	623.25
429.883	639.29
430.259	637.03
430.635	635.45
431.011	652.17
431.387	657.6
431.763	672.51
432.138	677.93
432.514	681.1
432.89	684.26
433.265	680.42
433.641	687.43
434.016	667.09
434.392	716.35
434.767	727.65
435.143	716.8
435.518	717.26
435.894	736.69
436.269	749.12
436.644	729.68
437.02	745.28
437.395	740.98
437.77	736.24
438.145	775.56
438.52	751.6
438.895	759.29
439.271	773.07
439.646	779.85
440.021	800.87
440.395	788.21
440.77	784.6
441.145	780.98
441.52	803.35
441.895	817.14
442.27	807.2
442.645	822.34
443.019	845.61
443.394	821.21
443.769	808.55
444.143	845.61
444.518	853.97
444.892	828.21
445.267	822.56
445.641	867.76
446.016	871.6
446.39	844.71
446.764	889.68
447.139	887.19
447.513	878.83
447.887	879.74
448.262	866.86
448.636	897.82
449.01	905.95
449.384	893.07
449.758	921.32
450.132	911.6
450.506	921.09
450.88	931.03
451.254	933.29
451.628	975.33
452.002	953.41
452.376	970.81
452.75	988.21
453.123	964.71
453.497	1009.68
453.871	1009
454.244	1012.84
454.618	1034.53
454.992	1018.94
455.365	1028.89
455.739	1052.84
456.112	1073.86
456.486	1087.41
456.859	1084.7
457.232	1085.16
457.606	1097.36
457.979	1134.42
458.352	1144.59
458.725	1145.72
459.099	1159.05
459.472	1176.9
459.845	1202.21
460.218	1190.69
460.591	1223.91
460.964	1215.55
461.337	1252.38
461.71	1221.65
462.083	1303.91
462.456	1287.41
462.829	1285.83
463.201	1299.84
463.574	1343
463.947	1325.37
464.32	1391.36
464.692	1387.29
465.065	1393.17
465.438	1412.38
465.81	1451.7
466.183	1481.53
466.555	1484.92
466.928	1495.09
467.3	1495.77
467.672	1531.92
468.045	1589.55
468.417	1578.25
468.789	1612.15
469.161	1648.08
469.534	1669.32
469.906	1704.35
470.278	1707.29
470.65	1722.2
471.022	1782.99
471.394	1852.59
471.766	1832.25
472.138	1893.5
472.51	1925.13
472.882	1948.86
473.253	1985.02
473.625	2047.62
473.997	2100.04
474.369	2118.12
474.74	2153.38
475.112	2202.87
475.484	2221.62
475.855	2306.82
476.227	2318.12
476.598	2397.44
476.97	2445.8
477.341	2594.49
477.713	2583.65
478.084	2643.08
478.455	2734.83
478.827	2788.16
479.198	2860.93
479.569	2892.34
479.94	3022.51
480.311	3105.67
480.682	3171.2
481.053	3301.59
481.424	3347.47
481.795	3431.31
482.166	3522.38
482.537	3581.59
482.908	3729.15
483.279	3761.47
483.65	3877.85
484.021	4025.42
484.391	4087.56
484.762	4211.85
485.133	4288.91
485.503	4440.77
485.874	4537.27
486.244	4680.31
486.615	4785.17
486.985	4918.05
487.356	5010.02
487.726	5114.65
488.097	5228.55
488.467	5353.29
488.837	5513.97
489.207	5652.94
489.578	5822.21
489.948	5929.55
490.318	6007.29
490.688	6130.45
491.058	6300.84
491.428	6466.71
491.798	6558.68
492.168	6744.89
492.538	6800.94
492.908	7050.65
493.278	7066.92
493.648	7231.66
494.017	7359.79
494.387	7506.23
494.757	7616.51
495.126	7760.91
495.496	7855.82
495.866	8006.56
496.235	8099.21
496.605	8285.64
496.974	8363.38
497.344	8513.21
497.713	8599.76
498.082	8761.56
498.452	8891.05
498.821	8948.9
499.19	9068.9
499.559	9137.15
499.928	9287.2
500.298	9355.9
500.667	9546.18
501.036	9543.92
501.405	9693.97
501.774	9739.84
502.143	9870.46
502.512	9991.59
502.88	10082.66
503.249	10130.11
503.618	10258.02
503.987	10259.6
504.356	10361.52
504.724	10482.42
505.093	10502.08
505.462	10575.98
505.83	10688.97
506.199	10855.75
506.567	10979.13
506.936	10878.12
507.304	11120.15
507.672	11138.45
508.041	11222.52
508.409	11314.04
508.777	11389.52
509.145	11458.22
509.514	11451.89
509.882	11542.06
510.25	11609.4
510.618	11695.27
510.986	11668.61
511.354	11787.92
511.722	11878.32
512.09	12005.77
512.458	11963.97
512.826	12092.55
513.193	12110.63
513.561	12163.51
513.929	12255.93
514.297	12315.82
514.664	12389.26
515.032	12420.22
515.4	12399.21
515.767	12437.85
516.135	12565.53
516.502	12520.79
516.869	12690.5
517.237	12636.72
517.604	12621.57
517.972	12720.78
518.339	12784.06
518.706	12763.27
519.073	12808.69
519.44	12823.15
519.808	12921.68
520.175	12895.92
520.542	13020.43
520.909	13078.06
521.276	13011.17
521.643	13110.83
522.009	13102.24
522.376	13119.19
522.743	13171.39
523.11	13373.42
523.477	13384.72
523.843	13308.34
524.21	13471.04
524.577	13534.09
524.943	13478.95
525.31	13565.05
525.676	13682.34
526.043	13628.55
526.409	13687.31
526.776	13689.34
527.142	13663.13
527.508	13760.75
527.874	13853.86
528.241	13745.61
528.607	13757.14
528.973	13847.31
529.339	13793.52
529.705	13856.8
530.071	13918.04
530.437	13944.93
530.803	13852.73
531.169	13969.79
531.535	13821.77
531.901	13802.56
532.267	13890.69
532.632	13909.45
532.998	13888.66
533.364	13910.13
533.73	13889.34
534.095	13939.96
534.461	13873.29
534.826	13852.05
535.192	13879.62
535.557	13930.24
535.923	13939.51
536.288	13836.23
536.653	13791.71
537.019	13744.03
537.384	13818.38
537.749	13763.92
538.114	13761.66
538.479	13685.05
538.845	13790.81
539.21	13704.26
539.575	13634.2
539.94	13660.19
540.305	13725.27
540.67	13593.3
541.034	13551.04
541.399	13512.85
541.764	13526.18
542.129	13515.34
542.494	13495
542.858	13471.5
543.223	13491.38
543.587	13480.76
543.952	13345.4
544.316	13367.32
544.681	13344.49
545.045	13292.07
545.41	13278.96
545.774	13231.5
546.138	13292.29
546.503	13176.14
546.867	13134.78
547.231	13164.84
547.595	13126.65
547.959	13074.44
548.324	13108.12
548.688	13021.34
549.052	12976.14
549.416	13057.72
549.779	13000.55
550.143	12886.43
550.507	12966.2
550.871	12933.43
551.235	12906.31
551.599	12989.25
551.962	12868.35
552.326	12763.72
552.689	12886.2
553.053	12652.31
553.417	12777.28
553.78	12951.06
554.143	12708.58
554.507	12797.62
554.87	12755.36
555.234	12824.06
555.597	12667.45
555.96	12638.52
556.323	12656.15
556.686	12676.26
557.05	12619.54
557.413	12580.67
557.776	12581.8
558.139	12665.64
558.502	12678.75
558.865	12613.21
559.228	12706.09
559.59	12777.95
559.953	12618.41
560.316	12720.78
560.679	12652.76
561.041	12696.15
561.404	12724.17
561.767	12697.73
562.129	12753.32
562.492	12766.66
562.854	12651.4
563.217	12670.61
563.579	12757.62
563.941	12727.11
564.304	12710.84
564.666	12848.69
565.028	12723.72
565.39	12762.59
565.753	12813.21
566.115	12825.86
566.477	12812.3
566.839	12797.16
567.201	12868.57
567.563	12809.37
567.925	12960.32
568.287	12866.77
568.648	12968.23
569.01	12908.57
569.372	12980.66
569.734	12947.22
570.095	13007.33
570.457	12949.25
570.819	12999.64
571.18	12992.64
571.542	13053.65
571.903	12992.86
572.265	13084.39
572.626	12999.64
572.987	13114.44
573.349	13038.51
573.71	13088.68
574.071	13056.37
574.432	13106.99
574.794	13122.58
575.155	13183.14
575.516	13115.35
575.877	13220.43
576.238	13193.31
576.599	13176.36
576.96	13248.68
577.32	13238.51
577.681	13185.85
578.042	13281.67
578.403	13206.19
578.763	13229.47
579.124	13141.11
579.485	13160.77
579.845	13279.64
580.206	13198.73
580.566	13164.61
580.927	13239.41
581.287	13323.7
581.648	13217.72
582.008	13261.33
582.368	13152.86
582.728	13210.03
583.089	13233.76
583.449	13182.24
583.809	13178.17
584.169	13220.2
584.529	13084.39
584.889	13220.2
585.249	13114.22
585.609	13133.65
585.969	13176.14
586.329	13137.49
586.688	13150.6
587.048	13087.55
587.408	13069.7
587.768	13041.9
588.127	13055.69
588.487	13034.45
588.846	13121
589.206	13116.7
589.565	13116.7
589.925	13021.79
590.284	13095.69
590.643	13045.97
591.003	13087.55
591.362	13079.42
591.721	13033.54
592.08	13029.25
592.44	13078.29
592.799	13092.07
593.158	13034.45
593.517	13002.13
593.876	13029.02
594.235	13001.45
594.593	13010.94
594.952	13064.5
595.311	12932.53
595.67	13087.33
596.029	12991.51
596.387	13038.74
596.746	13025.63
597.104	12999.42
597.463	13014.33
597.822	12960.32
598.18	12963.03
598.538	12877.61
598.897	13028.57
599.255	12878.74
599.613	13006.42
599.972	12939.31
600.33	12987.89
600.688	12922.36
601.046	12967.55
601.404	13072.41
601.762	12927.78
602.12	13025.63
602.478	12995.12
602.836	13001.45
603.194	13022.24
603.552	13001.68
603.91	12945.41
604.268	12995.35
604.625	12918.74
604.983	13024.05
605.341	12983.6
605.698	12968.01
606.056	13048
606.413	12963.94
606.771	12973.66
607.128	13003.71
607.485	12944.73
607.843	12944.5
608.2	13047.55
608.557	13067.66
608.914	12988.8
609.272	13083.03
609.629	13126.87
609.986	13101.79
610.343	13059.98
610.7	13078.06
611.057	13113.09
611.414	13128
611.771	13144.95
612.127	13249.13
612.484	13193.09
612.841	13174.33
613.198	13213.2
613.554	13237.15
613.911	13281.44
614.267	13278.96
614.624	13142.47
614.98	13237.6
615.337	13288
615.693	13298.85
616.05	13245.74
616.406	13274.21
616.762	13222.69
617.118	13265.4
617.475	13225.85
617.831	13289.58
618.187	13326.64
618.543	13497.48
618.899	13404.38
619.255	13321.44
619.611	13332.06
619.967	13380.88
620.323	13414.77
620.678	13416.58
621.034	13353.53
621.39	13300.65
621.746	13363.25
622.101	13498.61
622.457	13348.56
622.812	13343.82
623.168	13400.76
623.523	13460.42
623.879	13418.84
624.234	13362.57
624.589	13418.16
624.945	13392.4
625.3	13430.14
625.655	13417.94
626.01	13405.51
626.365	13539.52
626.72	13407.99
627.075	13276.7
627.43	13347.88
627.785	13281.44
628.14	13347.66
628.495	13439.18
628.85	13343.59
629.205	13238.73
629.559	13459.52
629.914	13307.66
630.269	13311.73
630.623	13295
630.978	13277.6
631.332	13289.81
631.687	13286.42
632.041	13295.68
632.396	13295.68
632.75	13226.98
633.104	13242.8
633.459	13209.36
633.813	13181.56
634.167	13285.51
634.521	13150.83
634.875	13208.68
635.229	13237.15
635.583	13101.56
635.937	13055.01
636.291	13087.55
636.645	13128
636.999	13012.07
637.352	13077.16
637.706	13047.1
638.06	13037.61
638.413	13034.67
638.767	12933.21
639.121	12961.23
639.474	12907.67
639.828	12966.88
640.181	12925.3
640.534	12897.5
640.888	12947.89
641.241	12804.62
641.594	12851.4
641.947	12906.09
642.301	12897.95
642.654	12938.85
643.007	12798.75
643.36	12862.47
643.713	12831.74
644.066	12808.69
644.419	12808.91
644.771	12767.56
645.124	12591.29
645.477	12606.66
645.83	12525.53
646.182	12510.84
646.535	12359.43
646.888	12450.73
647.24	12309.72
647.593	12411.18
647.945	12380.9
648.298	12292.32
648.65	12300.68
649.002	12337.29
649.355	12321.92
649.707	12329.83
650.059	12370.51
650.411	12627.68
650.763	12554.46
651.115	12731.63
651.467	12753.55
651.819	12664.06
652.171	12725.75
652.523	12643.27
652.875	12605.3
653.227	12587.9
653.578	12661.12
653.93	12654.12
654.282	12629.71
654.633	12540
654.985	12546.55
655.337	12582.93
655.688	12577.06
656.039	12601.46
656.391	12564.4
656.742	12628.58
657.094	12558.98
657.445	12636.72
657.796	12612.31
658.147	12652.53
658.498	12586.77
658.849	12610.73
659.2	12716.26
659.551	12572.54
659.902	12629.71
660.253	12566.89
660.604	12617.06
660.955	12595.81
661.306	12650.73
661.656	12594.91
662.007	12664.29
662.358	12575.02
662.708	12629.26
663.059	12616.38
663.409	12663.16
663.76	12751.97
664.11	12681.23
664.461	12738.18
664.811	12688.01
665.161	12655.02
665.511	12658.64
665.862	12699.76
666.212	12667
666.562	12769.14
666.912	12737.73
667.262	12699.09
667.612	12622.48
667.962	12662.93
668.312	12568.02
668.662	12773.89
669.011	12692.31
669.361	12602.59
669.711	12520.56
670.06	12625.87
670.41	12597.62
670.76	12575.93
671.109	12573.67
671.459	12569.37
671.808	12584.74
672.157	12632.87
672.507	12502.48
672.856	12540.22
673.205	12484.63
673.554	12608.92
673.904	12495.7
674.253	12595.13
674.602	12505.87
674.951	12364.41
675.3	12298.19
675.649	12468.58
675.998	12446.66
676.346	12509.94
676.695	12513.56
677.044	12389.94
677.393	12452.77
677.741	12472.43
678.09	12375.25
678.438	12409.38
678.787	12387.23
679.135	12287.35
679.484	12245.77
679.832	12375.71
680.181	12215.71
680.529	12276.95
680.877	12222.94
681.225	12208.7
681.573	12220.46
681.922	12177.97
682.27	12119.89
682.618	12244.86
682.966	12137.97
683.314	12120.57
683.661	12094.58
684.009	11995.83
684.357	12071.31
684.705	12058.65
685.053	11974.59
685.4	11959.45
685.748	11900.92
686.095	11904.31
686.443	11939.78
686.79	11807.36
687.138	11878.54
687.485	11908.15
687.832	11796.06
688.18	11771.88
688.527	11801.26
688.874	11722.39
689.221	11614.6
689.568	11655.05
689.915	11566.01
690.262	11548.61
690.609	11525.33
690.956	11625.22
691.303	11498.21
691.65	11439.46
691.997	11448.72
692.344	11319.69
692.69	11355.62
693.037	11383.87
693.383	11263.42
693.73	11293.02
694.077	11151.56
694.423	11191.1
694.769	11164.89
695.116	11133.7
695.462	11130.99
695.808	11026.59
696.155	11001.05
696.501	10909.08
696.847	10947.95
697.193	10897.55
697.539	10913.15
697.885	10779.82
698.231	10725.58
698.577	10799.7
698.923	10744.79
699.269	10712.02
699.614	10665.24
699.96	10559.71
700.306	10512.48
700.651	10576.66
700.997	10490.78
701.342	10494.4
701.688	10422.31
702.033	10410.11
702.379	10342.99
702.724	10271.58
703.069	10354.06
703.415	10160.17
703.76	10192.03
704.105	10227.06
704.45	10161.53
704.795	10113.62
705.14	10103.22
705.485	10093.73
705.83	10001.76
706.175	10092.83
706.52	10000.85
706.865	9973.06
707.209	9965.15
707.554	9914.08
707.899	9910.01
708.243	9779.16
708.588	9867.07
708.932	9771.03
709.277	9730.58
709.621	9778.03
709.966	9689.22
710.31	9741.42
710.654	9623.24
710.998	9642.44
711.342	9617.81
711.687	9592.05
712.031	9495.33
712.375	9524.93
712.719	9527.87
713.063	9483.13
713.407	9523.58
713.75	9470.02
714.094	9480.19
714.438	9431.38
714.782	9407.87
715.125	9384.15
715.469	9399.29
715.812	9381.21
716.156	9263.02
716.499	9325.16
716.843	9317.48
717.186	9285.17
717.53	9260.76
717.873	9297.37
718.216	9272.28
718.559	9214.88
718.902	9218.05
719.246	9194.77
719.589	9119.52
719.932	9089.24
720.275	9169.91
720.617	9107.99
720.96	9123.81
721.303	9113.42
721.646	9176.92
721.989	9050.6
722.331	9077.04
722.674	9103.7
723.016	9066.41
723.359	9036.13
723.701	9087.66
724.044	9004.49
724.386	8939.86
724.729	9012.18
725.071	8968.11
725.413	9026.42
725.755	9037.71
726.097	8946.42
726.439	8919.3
726.782	8928.34
727.124	8938.51
727.465	8945.74
727.807	8959.75
728.149	8882.24
728.491	8830.71
728.833	8906.87
729.175	8866.87
729.516	8896.02
729.858	8893.99
730.199	8858.51
730.541	8847.21
730.882	8920.66
731.224	8880.88
731.565	8872.07
731.906	8863.03
732.248	8936.25
732.589	8842.47
732.93	8793.2
733.271	8822.58
733.612	8823.26
733.953	8799.3
734.294	8802.01
734.635	8799.98
734.976	8885.85
735.317	8747.55
735.658	8788.68
735.999	8810.83
736.339	8846.76
736.68	8825.97
737.021	8875.01
737.361	8834.33
737.702	8879.98
738.042	8766.31
738.383	8807.89
738.723	8860.09
739.063	8822.8
739.404	8906.64
739.744	8876.36
740.084	8823.03
740.424	8891.73
740.764	8854.22
741.104	8888.57
741.444	8924.27
741.784	8858.28
742.124	9035.45
742.464	8964.5
742.804	8960.88
743.143	8939.86
743.483	9014.89
743.823	8944.61
744.162	9003.82
744.502	9051.5
744.841	9035.91
745.181	9152.97
745.52	9095.57
745.86	9166.07
746.199	9187.09
746.538	9224.6
746.877	9356.8
747.216	9338.5
747.556	9360.87
747.895	9398.61
748.234	9435.22
748.573	9470.92
748.911	9511.6
749.25	9592.05
749.589	9578.49
749.928	9654.42
750.267	9884.92
750.605	9848.09
750.944	9938.03
751.283	9950.01
751.621	10067.29
751.96	10097.35
752.298	10226.61
752.636	10270.45
752.975	10379.15
753.313	10444.46
753.651	10572.59
753.989	10586.6
754.327	10781.17
754.666	10836.76
755.004	10968.96
755.342	11083.76
755.679	11185.23
756.017	11282.18
756.355	11448.27
756.693	11547.25
757.031	11726.23
757.368	11749.28
757.706	11903.4
758.044	12049.16
758.381	12243.05
758.719	12338.64
759.056	12561.01
759.394	12686.88
759.731	12727.79
760.068	12856.82
760.405	13073.31
760.743	13212.29
761.08	13359.41
761.417	13523.25
761.754	13691.83
762.091	13774.31
762.428	13885.27
762.765	14090.69
763.102	14258.14
763.438	14375.65
763.775	14534.97
764.112	14702.42
764.449	14878.46
764.785	15030.1
765.122	15162.53
765.458	15270.77
765.795	15410.88
766.131	15603.19
766.467	15722.74
766.804	15844.09
767.14	15924.99
767.476	16049.51
767.812	16130.18
768.148	16289.73
768.485	16414.92
768.821	16488.82
769.157	16571.75
769.492	16737.62
769.828	16975.81
770.164	16854.91
770.5	17006.32
770.836	17082.02
771.171	17123.15
771.507	17251.51
771.842	17275.24
772.178	17466.87
772.513	17471.16
772.849	17640.65
773.184	17691.95
773.519	17798.39
773.855	17783.02
774.19	17833.42
774.525	17889.23
774.86	17999.96
775.195	17966.52
775.53	18070.92
775.865	17972.17
776.2	18067.99
776.535	17905.5
776.87	18084.48
777.205	18128.1
777.539	18079.74
777.874	18267.75
778.209	18207.42
778.543	18264.14
778.878	18204.93
779.212	18276.79
779.547	18297.58
779.881	18377.36
780.215	18297.13
780.55	18365.6
780.884	18310.92
781.218	18511.59
781.552	18403.12
781.886	18418.03
782.22	18342.1
782.554	18337.36
782.888	18272.05
783.222	18267.75
783.556	18217.13
783.889	18200.64
784.223	18161.54
784.557	18113.41
784.89	18235.66
785.224	18091.94
785.557	18119.96
785.891	18042
786.224	18084.03
786.558	18073.41
786.891	18059.17
787.224	17939.63
787.557	17963.81
787.891	17993.41
788.224	17990.93
788.557	17951.83
788.89	17939.85
789.223	17987.76
789.556	17813.3
789.888	17904.83
790.221	17787.99
790.554	17602.01
790.887	17745.96
791.219	17582.35
791.552	17601.33
791.884	17668.9
792.217	17681.55
792.549	17545.74
792.882	17412.64
793.214	17467.32
793.546	17414.9
793.879	17317.95
794.211	17339.64
794.543	17381.45
794.875	17282.02
795.207	17380.55
795.539	17241.34
795.871	17272.07
796.203	17134.68
796.535	17136.26
796.867	17138.29
797.198	16958.86
797.53	16991.63
797.862	16905.98
798.193	16914.57
798.525	16907.56
798.856	16926.77
799.188	16673.67
799.519	16651.53
799.85	16628.7
800.182	16627.8
800.513	16704.63
800.844	16581.02
801.175	16614.92
801.506	16517.74
801.837	16447.91
802.168	16442.72
802.499	16427.35
802.83	16324.08
803.161	16226.9
803.491	16380.12
803.822	16402.04
804.153	16150.52
804.483	16114.82
804.814	15962.05
805.145	16057.87
805.475	16169.5
805.805	16005.89
806.136	15976.51
806.466	15985.1
806.796	16016.06
807.126	15862.39
807.457	15822.17
807.787	15729.52
808.117	15706.47
808.447	15702.85
808.777	15689.29
809.107	15602.06
809.436	15573.36
809.766	15629.41
810.096	15573.81
810.426	15516.19
810.755	15518.45
811.085	15469.64
811.414	15483.42
811.744	15397.55
812.073	15340.37
812.403	15214.05
812.732	15257.89
813.061	15255.18
813.39	15211.34
813.719	15122.75
814.049	15253.6
814.378	15155.07
814.707	15132.02
815.036	15096.54
815.365	15037.78
815.693	14846.15
816.022	14971.34
816.351	14889.99
816.68	14813.83
817.008	14911.91
817.337	14746.49
817.665	14647.51
817.994	14797.56
818.322	14726.6
818.651	14707.17
818.979	14671.92
819.307	14671.69
819.636	14612.48
819.964	14547.4
820.292	14671.46
820.62	14665.36
820.948	14610.68
821.276	14580.17
821.604	14613.61
821.932	14638.47
822.259	14621.3
822.587	14577
822.915	14635.76
823.243	14500.85
823.57	14508.08
823.898	14478.93
824.225	14515.08
824.553	14480.74
824.88	14570
825.207	14527.97
825.535	14512.15
825.862	14454.3
826.189	14506.27
826.516	14530
826.843	14567.06
827.17	14549.89
827.497	14642.09
827.824	14579.94
828.151	14579.49
828.478	14570.45
828.805	14598.25
829.131	14555.76
829.458	14578.59
829.785	14462.43
830.111	14562.31
830.438	14615.42
830.764	14532.26
831.09	14605.25
831.417	14478.93
831.743	14494.29
832.069	14576.1
832.395	14508.76
832.722	14591.47
833.048	14455.65
833.374	14474.18
833.7	14378.14
834.026	14410.68
834.351	14472.6
834.677	14523.9
835.003	14461.75
835.329	14359.61
835.654	14489.77
835.98	14336.11
836.306	14418.36
836.631	14327.29
836.956	14350.57
837.282	14374.52
837.607	14260.18
837.932	14295.88
838.258	14261.76
838.583	14329.55
838.908	14099.95
839.233	14159.39
839.558	14201.19
839.883	14113.51
840.208	14022.44
840.533	14048.66
840.858	14098.15
841.182	14085.72
841.507	14043.68
841.832	13897.7
842.156	13953.97
842.481	13931.82
842.805	13893.63
843.13	13807.98
843.454	13835.55
843.778	13839.85
844.103	13723.01
844.427	13750.13
844.751	13749.45
845.075	13675.11
845.399	13613.87
845.723	13525.73
846.047	13601.66
846.371	13486.41
846.695	13507.43
847.019	13280.99
847.343	13308.11
847.666	13179.98
847.99	13210.94
848.313	13241.22
848.637	13100.21
848.96	13040.32
849.284	13029.47
849.607	12991.51
849.931	12937.95
850.254	12779.31
850.577	12758.07
850.9	12647.79
851.223	12730.95
851.546	12623.38
851.869	12509.04
852.192	12599.88
852.515	12465.42
852.838	12409.15
853.161	12410.28
853.483	12343.16
853.806	12361.47
854.129	12286.89
854.451	12257.52
854.774	12163.96
855.096	12181.36
855.419	12166.45
855.741	12103.85
856.063	12074.92
856.385	12024.75
856.708	11914.93
857.03	11967.35
857.352	11961.48
857.674	11838.09
857.996	11870.86
858.318	11769.62
858.64	11811.65
858.961	11710.41
859.283	11700.47
859.605	11613.92
859.926	11700.47
860.248	11596.29
860.57	11557.87
860.891	11587.25
861.212	11487.14
861.534	11517.65
861.855	11489.4
862.176	11426.35
862.498	11488.72
862.819	11425.67
863.14	11338.67
863.461	11355.39
863.782	11422.06
864.103	11312.68
864.424	11256.19
864.745	11292.8
865.065	11215.74
865.386	11185.91
865.707	11106.81
866.027	11187.49
866.348	11183.87
866.668	11133.93
866.989	11108.39
867.309	11138.9
867.63	11037.44
867.95	11096.42
868.27	11063.88
868.59	11063.2
868.91	10949.53
869.23	10948.62
869.55	10963.77
869.87	10958.34
870.19	10938
870.51	10960.6
870.83	10958.34
871.15	10841.06
871.469	10877.67
871.789	10872.47
872.109	10891.22
872.428	10768.29
872.748	10827.05
873.067	10793.15
873.386	10761.51
873.706	10738.23
874.025	10691.23
874.344	10635.41
874.663	10667.05
874.982	10626.37
875.301	10692.59
875.62	10727.39
875.939	10594.06
876.258	10668.63
876.577	10599.03
876.896	10576.2
877.214	10526.49
877.533	10510.9
877.852	10531.23
878.17	10515.19
878.489	10476.32
878.807	10465.25
879.125	10519.94
879.444	10478.81
879.762	10420.28
880.08	10416.44
880.398	10401.52
880.716	10395.87
881.034	10342.99
881.352	10377.11
881.67	10322.2
881.988	10277.91
882.306	10239.04
882.624	10250.79
882.941	10165.82
883.259	10225.71
883.577	10206.27
883.894	10192.94
884.212	10154.07
884.529	10115.88
884.846	10045.15
885.164	10074.75
885.481	9986.84
885.798	9976.67
886.115	9970.57
886.432	10054.64
886.75	9896
887.067	9900.74
887.383	9886.73
887.7	9868.2
888.017	9854.87
888.334	9886.73
888.651	9795.89
888.967	9773.29
889.284	9717.47
889.6	9691.93
889.917	9695.55
890.233	9646.06
890.55	9609
890.866	9641.31
891.182	9539.4
891.498	9536.91
891.815	9499.4
892.131	9518.61
892.447	9497.36
892.763	9381.66
893.079	9332.85
893.395	9386.41
893.71	9353.19
894.026	9291.72
894.342	9274.54
894.657	9255.56
894.973	9184.15
895.289	9220.53
895.604	9164.94
895.92	9144.38
896.235	9111.84
896.55	9052.4
896.865	9042.01
897.181	9055.57
897.496	9050.37
897.811	8924.5
898.126	8924.95
898.441	8842.47
898.756	8934.89
899.071	8849.92
899.386	8789.59
899.7	8693.32
900.015	8717.5
900.33	8657.16
900.644	8603.15
900.959	8660.1
901.273	8636.82
901.588	8576.48
901.902	8513.21
902.216	8565.86
902.531	8479.99
902.845	8412.87
903.159	8458.75
903.473	8402.93
903.787	8315.02
904.101	8329.03
904.415	8307.34
904.729	8290.39
905.042	8230.28
905.356	8191.41
905.67	8200.45
905.984	8199.54
906.297	8145.31
906.611	8043.84
906.924	8083.84
907.237	8034.58
907.551	7957.97
907.864	7903.51
908.177	7941.02
908.491	7865.09
908.804	7899.44
909.117	7821.25
909.43	7776.73
909.743	7701.03
910.056	7722.27
910.368	7731.08
910.681	7633.91
910.994	7663.51
911.307	7624.87
911.619	7539
911.932	7566.11
912.244	7477.53
912.557	7503.97
912.869	7398.21
913.181	7367.02
913.494	7411.54
913.806	7360.7
914.118	7324.09
914.43	7274.82
914.742	7286.57
915.054	7203.41
915.366	7218.1
915.678	7168.61
915.99	7090.42
916.302	7055.85
916.613	7056.07
916.925	7043.87
917.236	7000.93
917.548	6979.46
917.859	7005.9
918.171	6920.48
918.482	6878
918.794	6799.13
919.105	6804.78
919.416	6821.28
919.727	6812.24
920.038	6776.08
920.349	6687.04
920.66	6732.01
920.971	6681.39
921.282	6655.86
921.593	6586.93
921.903	6611.34
922.214	6605.69
922.525	6595.07
922.835	6526.37
923.146	6424.68
923.456	6422.42
923.767	6385.81
924.077	6400.04
924.387	6385.13
924.697	6348.29
925.008	6327.96
925.318	6259.48
925.628	6300.16
925.938	6256.54
926.248	6184.46
926.558	6148.52
926.867	6227.39
927.177	6162.08
927.487	6124.8
927.796	6025.82
928.106	6056.32
928.416	6056.32
928.725	6034.18
929.034	6012.94
929.344	6027.85
929.653	5946.95
929.962	5902.43
930.271	5871.47
930.581	5881.87
930.89	5831.47
931.199	5798.03
931.508	5852.94
931.817	5833.28
932.125	5750.34
932.434	5753.28
932.743	5721.87
933.051	5680.74
933.36	5675.09
933.669	5642.1
933.977	5633.06
934.286	5641.19
934.594	5578.6
934.902	5588.54
935.21	5506.96
935.519	5486.17
935.827	5508.99
936.135	5489.56
936.443	5439.39
936.751	5394.87
937.059	5437.58
937.367	5327.3
937.674	5342.67
937.982	5360.52
938.29	5261.32
938.597	5278.49
938.905	5225.84
939.213	5223.58
939.52	5211.83
939.827	5211.15
940.135	5126.63
940.442	5135.9
940.749	5168.89
941.056	5153.75
941.363	5076.24
941.67	5024.71
941.977	5013.64
942.284	4959.63
942.591	4971.15
942.898	4959.63
943.205	4958.73
943.511	4934.77
943.818	4939.07
944.125	4885.28
944.431	4920.31
944.738	4885.96
945.044	4836.47
945.35	4783.59
945.657	4726.19
945.963	4756.24
946.269	4780.2
946.575	4733.65
946.881	4677.6
947.187	4688.22
947.493	4725.96
947.799	4683.25
948.105	4673.76
948.41	4624.95
948.716	4628.11
949.022	4590.6
949.327	4576.81
949.633	4528
949.938	4511.05
950.244	4533.88
950.549	4485.52
950.854	4496.36
951.16	4436.03
951.465	4431.73
951.77	4413.88
952.075	4375.24
952.38	4347.67
952.685	4364.39
952.99	4297.05
953.294	4364.39
953.599	4280.1
953.904	4228.8
954.209	4251.63
954.513	4207.56
954.818	4194.23
955.122	4193.1
955.426	4149.03
955.731	4176.6
956.035	4135.7
956.339	4173.21
956.643	4111.52
956.948	4070.84
957.252	4046.43
957.556	4010.95
957.86	3968.02
958.163	4037.85
958.467	4034.91
958.771	3951.29
959.075	3970.5
959.378	3933.22
959.682	3932.54
959.985	3913.56
960.289	3884.86
960.592	3833.56
960.896	3857.29
961.199	3889.38
961.502	3829.72
961.805	3807.57
962.108	3815.25
962.411	3796.5
962.714	3777.97
963.017	3780
963.32	3745.88
963.623	3700.91
963.926	3740.23
964.228	3692.77
964.531	3725.31
964.833	3653.22
965.136	3610.29
965.438	3653.22
965.741	3613
966.043	3561.93
966.345	3577.97
966.648	3563.73
966.95	3552.89
967.252	3530.74
967.554	3489.39
967.856	3501.36
968.158	3509.27
968.46	3472.44
968.761	3434.02
969.063	3423.4
969.365	3446.9
969.666	3413.68
969.968	3389.28
970.269	3374.13
970.571	3329.16
970.872	3360.58
971.174	3341.82
971.475	3318.09
971.776	3322.61
972.077	3292.33
972.378	3259.11
972.679	3284.87
972.98	3230.86
973.281	3250.07
973.582	3197.19
973.883	3212.33
974.183	3224.99
974.484	3174.14
974.785	3141.37
975.085	3155.38
975.386	3156.06
975.686	3135.27
975.986	3140.02
976.287	3092.79
976.587	3103.41
976.887	3062.96
977.187	3060.24
977.487	3051.88
977.787	3025.67
978.087	3016.18
978.387	3010.98
978.687	2998.1
978.987	2984.09
979.286	2945.67
979.586	2921.49
979.885	2930.08
980.185	2922.39
980.484	2859.57
980.784	2877.42
981.083	2859.12
981.382	2867.26
981.682	2897.08
981.981	2839.69
982.28	2833.13
982.579	2785.45
982.878	2790.87
983.177	2795.62
983.475	2819.57
983.774	2786.81
984.073	2725.34
984.372	2749.07
984.67	2736.86
984.969	2724.21
985.267	2711.78
985.566	2685.11
985.864	2673.14
986.162	2655.51
986.461	2688.5
986.759	2650.99
987.057	2633.59
987.355	2646.92
987.653	2589.75
987.951	2608.28
988.249	2605.34
988.547	2582.97
988.844	2521.28
989.142	2535.96
989.44	2507.94
989.737	2526.93
990.035	2522.18
990.332	2507.94
990.63	2492.35
990.927	2475.4
991.224	2498.23
991.521	2481.95
991.819	2435.85
992.116	2467.49
992.413	2460.03
992.71	2425.01
993.006	2416.87
993.303	2431.56
993.6	2382.07
993.897	2375.97
994.193	2377.1
994.49	2349.3
994.787	2312.69
995.083	2316.31
995.379	2308.85
995.676	2313.37
995.972	2323.09
996.268	2308.85
996.565	2273.6
996.861	2248.97
997.157	2252.81
997.453	2251.45
997.749	2193.6
998.044	2234.5
998.34	2222.07
998.636	2197.44
998.932	2164.67
999.227	2156.77
999.523	2161.28
999.818	2185.69
1000.114	2131.46
1000.409	2138.91
1000.704	2138.91
1001	2107.73
1001.295	2077.22
1001.59	2066.6
1001.885	2075.19
1002.18	2065.24
1002.475	2006.26
1002.77	2050.1
1003.065	2021.18
1003.359	2022.08
1003.654	1987.28
1003.949	2003.1
1004.243	1960.39
1004.538	1946.38
1004.832	1971.91
1005.127	1936.43
1005.421	1940.5
1005.715	1937.79
1006.009	1964.68
1006.304	1888.98
1006.598	1877
1006.892	1912.48
1007.186	1879.94
1007.48	1878.13
1007.773	1842.88
1008.067	1836.77
1008.361	1820.05
1008.655	1795.42
1008.948	1799.94
1009.242	1814.85
1009.535	1810.33
1009.829	1779.83
1010.122	1800.16
1010.415	1779.83
1010.708	1750.22
1011.001	1731.69
1011.295	1750
1011.588	1731.47
1011.881	1733.27
1012.173	1722.65
1012.466	1711.35
1012.759	1685.37
1013.052	1674.29
1013.344	1672.94
1013.637	1666.83
1013.93	1644.91
1014.222	1629.77
1014.514	1622.77
1014.807	1599.27
1015.099	1594.52
1015.391	1615.08
1015.683	1596.55
1015.976	1593.62
1016.268	1549.55
1016.56	1547.29
1016.851	1552.26
1017.143	1537.8
1017.435	1532.83
1017.727	1533.5
1018.018	1494.86
1018.31	1485.37
1018.602	1492.15
1018.893	1476.78
1019.185	1458.03
1019.476	1454.41
1019.767	1448.99
1020.058	1480.62
1020.35	1456.22
1020.641	1427.07
1020.932	1404.47
1021.223	1434.52
1021.514	1413.73
1021.804	1409.67
1022.095	1397.92
1022.386	1387.07
1022.677	1351.36
1022.967	1335.09
1023.258	1328.54
1023.548	1342.78
1023.839	1335.09
1024.129	1336.22
1024.419	1324.7
1024.709	1280.4
1025	1299.61
1025.29	1296.67
1025.58	1267.52
1025.87	1242.67
1026.16	1277.47
1026.449	1272.27
1026.739	1257.35
1027.029	1224.13
1027.319	1222.33
1027.608	1218.03
1027.898	1190.24
1028.187	1209.22
1028.477	1187.75
1028.766	1198.6
1029.055	1175.55
1029.344	1170.12
1029.634	1168.99
1029.923	1145.27
1030.212	1158.83
1030.501	1128.09
1030.79	1128.09
1031.078	1126.28
1031.367	1142.1
1031.656	1133.52
1031.945	1125.61
1032.233	1120.41
1032.522	1099.39
1032.81	1095.78
1033.099	1080.41
1033.387	1075.21
1033.675	1038.83
1033.963	1043.12
1034.251	1060.75
1034.54	1024.59
1034.828	1025.95
1035.116	1030.24
1035.403	1011.71
1035.691	1014.65
1035.979	1018.49
1036.267	998.38
1036.554	1003.8
1036.842	1003.12
1037.129	978.04
1037.417	985.27
1037.704	986.63
1037.992	982.56
1038.279	970.58
1038.566	965.84
1038.853	965.84
1039.14	965.84
