Data from hue_36_FLMS001491_00064.txt Node
Date: Tue Feb 07 17:30:08 GMT 2017
User: dcchb
Spectrometer: FLMS00149
Trigger mode: 0
Integration Time (sec): 2.000000E-2
Scans to average: 10
Electric dark correction enabled: true
Nonlinearity correction enabled: false
Boxcar width: 0
XAxis mode: Wavelengths
Number of Pixels in Spectrum: 2048
>>>>>Begin Spectral Data<<<<<
341.393	-15.2
341.776	-15.2
342.16	-15.2
342.543	-55.2
342.927	-61.3
343.31	-70.79
343.693	-73.27
344.077	-57
344.46	-75.08
344.843	-72.37
345.226	-62.43
345.61	-26.5
345.993	-4.58
346.376	-29.89
346.759	38.13
347.142	37.91
347.525	53.95
347.908	60.96
348.291	74.29
348.674	93.95
349.057	112.71
349.44	122.2
349.823	152.26
350.206	183.89
350.588	181.86
350.971	213.72
351.354	243.78
351.737	246.49
352.119	251.01
352.502	289.65
352.884	269.77
353.267	273.16
353.65	280.39
354.032	286.04
354.414	319.26
354.797	306.15
355.179	299.82
355.562	328.3
355.944	326.71
356.326	331.23
356.709	343.89
357.091	357.9
357.473	334.85
357.855	345.02
358.238	332.36
358.62	342.99
359.002	342.31
359.384	331.91
359.766	333.49
360.148	317.45
360.53	356.09
360.912	328.97
361.294	326.71
361.676	337.79
362.057	345.7
362.439	361.29
362.821	327.39
363.203	335.08
363.584	341.63
363.966	339.14
364.348	319.94
364.729	315.87
365.111	317.68
365.493	325.13
365.874	320.61
366.256	316.77
366.637	324.45
367.019	302.53
367.4	328.75
367.781	323.32
368.163	322.42
368.544	309.31
368.925	317.68
369.306	331.01
369.688	301.86
370.069	307.73
370.45	317.9
370.831	327.62
371.212	298.92
371.593	319.94
371.974	325.81
372.355	332.36
372.736	306.38
373.117	318.81
373.498	320.84
373.879	308.18
374.26	330.33
374.641	307.51
375.021	327.62
375.402	330.1
375.783	322.65
376.163	338.92
376.544	320.16
376.925	303.89
377.305	318.58
377.686	348.63
378.066	321.74
378.447	324.23
378.827	321.97
379.208	337.34
379.588	325.81
379.968	324.45
380.349	352.25
380.729	318.35
381.109	347.28
381.489	354.74
381.87	331.23
382.25	322.87
382.63	328.97
383.01	338.92
383.39	341.4
383.77	327.17
384.15	360.16
384.53	342.76
384.91	361.74
385.29	357.9
385.67	340.5
386.049	340.5
386.429	342.08
386.809	338.01
387.189	362.65
387.568	348.86
387.948	356.09
388.328	375.53
388.707	348.63
389.087	345.25
389.466	375.53
389.846	354.28
390.225	342.99
390.605	335.53
390.984	370.33
391.363	373.04
391.743	370.78
392.122	364.91
392.501	354.96
392.881	381.18
393.26	373.72
393.639	362.65
394.018	362.19
394.397	363.1
394.776	381.18
395.155	368.75
395.534	368.52
395.913	391.12
396.292	376.2
396.671	362.87
397.05	378.24
397.429	378.46
397.808	362.65
398.186	390.44
398.565	399.71
398.944	377.79
399.323	366.04
399.701	370.56
400.08	383.89
400.458	393.83
400.837	380.72
401.215	400.61
401.594	381.85
401.972	382.08
402.351	415.98
402.729	376.88
403.107	403.32
403.486	403.1
403.864	375.75
404.242	404.23
404.62	396.32
404.999	426.15
405.377	412.59
405.755	428.63
406.133	413.94
406.511	423.21
406.889	426.37
407.267	415.75
407.645	427.28
408.023	429.31
408.401	448.29
408.779	426.6
409.156	431.57
409.534	431.8
409.912	432.02
410.29	423.66
410.667	420.95
411.045	457.11
411.422	441.29
411.8	458.69
412.178	443.77
412.555	445.81
412.933	461.63
413.31	444.23
413.687	464.11
414.065	438.8
414.442	464.79
414.819	466.37
415.197	477.9
415.574	468.86
415.951	456.65
416.328	468.18
416.705	484.68
417.082	484
417.46	472.47
417.837	480.83
418.214	491
418.591	489.42
418.967	492.36
419.344	486.71
419.721	495.52
420.098	490.33
420.475	527.84
420.852	512.25
421.228	486.26
421.605	510.89
421.982	506.6
422.358	530.55
422.735	491.68
423.111	526.26
423.488	526.48
423.864	528.97
424.241	534.17
424.617	534.62
424.994	539.36
425.37	545.01
425.746	535.07
426.123	547.27
426.499	554.96
426.875	547.73
427.251	578.91
427.627	556.31
428.003	561.28
428.379	556.31
428.756	574.17
429.132	585.46
429.507	566.03
429.883	572.58
430.259	594.73
430.635	594.05
431.011	587.05
431.387	585.24
431.763	581.85
432.138	628.18
432.514	613.71
432.89	618.46
433.265	626.59
433.641	620.27
434.016	613.94
434.392	611.9
434.767	637.89
435.143	632.47
435.518	648.74
435.894	646.48
436.269	648.74
436.644	665.01
437.02	676.08
437.395	639.47
437.77	685.12
438.145	661.62
438.52	693.26
438.895	676.31
439.271	699.36
439.646	705.24
440.021	702.07
440.395	685.35
440.77	714.28
441.145	721.96
441.52	705.01
441.895	705.91
442.27	714.73
442.645	691.9
443.019	741.39
443.394	734.61
443.769	741.62
444.143	733.71
444.518	727.83
444.892	743.65
445.267	736.2
445.641	743.88
446.016	746.14
446.39	754.95
446.764	770.32
447.139	763.77
447.513	779.13
447.887	780.04
448.262	759.92
448.636	772.58
449.01	779.36
449.384	793.82
449.758	799.92
450.132	802.18
450.506	803.31
450.88	815.52
451.254	817.55
451.628	816.42
452.002	822.29
452.376	840.37
452.75	836.31
453.123	829.3
453.497	811.22
453.871	875.4
454.244	887.15
454.618	866.81
454.992	874.95
455.365	893.71
455.739	913.82
456.112	926.02
456.486	888.96
456.859	922.86
457.232	923.76
457.606	949.75
457.979	949.07
458.352	947.72
458.725	956.98
459.099	1006.02
459.472	975.51
459.845	969.18
460.218	984.55
460.591	1023.19
460.964	990.88
461.337	1034.94
461.71	1044.44
462.083	1062.06
462.456	1053.25
462.829	1042.4
463.201	1071.33
463.574	1094.6
463.947	1128.73
464.32	1107.49
464.692	1105.9
465.065	1143.64
465.438	1164.88
465.81	1162.85
466.183	1197.43
466.555	1213.24
466.928	1224.54
467.3	1229.97
467.672	1217.99
468.045	1274.71
468.417	1299.34
468.789	1288.05
469.161	1325.33
469.534	1348.16
469.906	1340.7
470.278	1407.36
470.65	1387.93
471.022	1392
471.394	1439.91
471.766	1458.44
472.138	1487.59
472.51	1528.26
472.882	1548.6
473.253	1565.33
473.625	1606
473.997	1624.08
474.369	1642.61
474.74	1681.03
475.112	1716.06
475.484	1789.5
475.855	1780.24
476.227	1842.83
476.598	1866.56
476.97	1917.86
477.341	1968.48
477.713	2027.69
478.084	2032.88
478.455	2093
478.827	2150.62
479.198	2217.29
479.569	2253.67
479.94	2303.39
480.311	2350.62
480.682	2428.81
481.053	2542.7
481.424	2555.13
481.795	2587.22
482.166	2670.38
482.537	2725.97
482.908	2846.2
483.279	2897.49
483.65	2932.97
484.021	3071.5
484.391	3139.3
484.762	3171.39
485.133	3187.66
485.503	3318.95
485.874	3400.98
486.244	3509
486.615	3603.46
486.985	3613.63
487.356	3795.78
487.726	3846.62
488.097	3956.68
488.467	4032.15
488.837	4088.88
489.207	4203.22
489.578	4313.95
489.948	4337.91
490.318	4480.73
490.688	4562.31
491.058	4645.47
491.428	4753.26
491.798	4867.39
492.168	4991.45
492.538	4993.48
492.908	5151.45
493.278	5225.79
493.648	5319.13
494.017	5361.84
494.387	5506.47
494.757	5602.96
495.126	5686.12
495.496	5716.86
495.866	5790.3
496.235	5886.57
496.605	6068.26
496.974	6070.52
497.344	6208.59
497.713	6264.19
498.082	6327.23
498.452	6439.77
498.821	6506.89
499.19	6512.77
499.559	6705.08
499.928	6720.9
500.298	6826.88
500.667	6885.19
501.036	6925.86
501.405	7060.1
501.774	7045.18
502.143	7187.55
502.512	7228.45
502.88	7320.65
503.249	7389.58
503.618	7496.24
503.987	7486.3
504.356	7580.31
504.724	7611.49
505.093	7751.83
505.462	7758.38
505.83	7799.51
506.199	7905.05
506.567	8054.42
506.936	8046.96
507.304	8141.2
507.672	8263.46
508.041	8280.86
508.409	8350.23
508.777	8470.23
509.145	8500.51
509.514	8550.45
509.882	8619.6
510.25	8648.08
510.618	8680.39
510.986	8756.32
511.354	8888.52
511.722	8990.44
512.09	8972.81
512.458	8991.57
512.826	9072.93
513.193	9179.36
513.561	9177.78
513.929	9239.7
514.297	9354.05
514.664	9392.92
515.032	9502.52
515.4	9573.93
515.767	9618.22
516.135	9662.06
516.502	9587.04
516.869	9828.39
517.237	9749.07
517.604	9795.17
517.972	9862.28
518.339	9935.95
518.706	9938.21
519.073	9992
519.44	10152.67
519.808	10169.85
520.175	10157.19
520.542	10323.51
520.909	10340.01
521.276	10370.97
521.643	10466.79
522.009	10524.64
522.376	10551.98
522.743	10595.6
523.11	10753.56
523.477	10829.94
523.843	10843.5
524.21	10997.39
524.577	11112.65
524.943	11123.49
525.31	11152.19
525.676	11273.32
526.043	11251.4
526.409	11396.25
526.776	11471.73
527.142	11540.66
527.508	11587.44
527.874	11586.53
528.241	11815.23
528.607	11766.64
528.973	11845.96
529.339	11896.81
529.705	12010.7
530.071	12085.95
530.437	12092.73
530.803	12208.21
531.169	12276.23
531.535	12287.76
531.901	12289.34
532.267	12311.94
532.632	12439.39
532.998	12544.25
533.364	12656.79
533.73	12707.41
534.095	12749.21
534.461	12744.69
534.826	12824.24
535.192	12875.31
535.557	12999.15
535.923	13003.67
536.288	13008.87
536.653	13111.01
537.019	13024.46
537.384	13165.25
537.749	13246.37
538.114	13215.19
538.479	13297.67
538.845	13411.34
539.21	13355.3
539.575	13357.33
539.94	13386.26
540.305	13526.14
540.67	13617.66
541.034	13675.29
541.399	13722.75
541.764	13675.29
542.129	13773.59
542.494	13830.09
542.858	13847.26
543.223	13962.29
543.587	14090.65
543.952	14025.11
544.316	14111.66
544.681	14104.43
545.045	14185.11
545.41	14254.71
545.774	14352.11
546.138	14341.49
546.503	14426
546.867	14451.31
547.231	14556.62
547.595	14606.79
547.959	14654.02
548.324	14599.11
548.688	14731.99
549.052	14805.43
549.416	14723.4
549.779	14931.53
550.143	14891.3
550.507	14969.49
550.871	15036.84
551.235	15101.47
551.599	15092.43
551.962	15282.25
552.326	15257.85
552.689	15237.96
553.053	15244.97
553.417	15369.03
553.78	15541
554.143	15384.62
554.507	15510.72
554.87	15543.94
555.234	15737.61
555.597	15602.02
555.96	15657.38
556.323	15789.58
556.686	15790.94
557.05	16013.31
557.413	15903.03
557.776	15907.32
558.139	16090.14
558.502	16171.27
558.865	16173.3
559.228	16220.31
559.59	16320.19
559.953	16283.13
560.316	16493.3
560.679	16508.21
561.041	16576.68
561.404	16696.23
561.767	16704.59
562.129	16681.31
562.492	16856
562.854	16744.36
563.217	16825.04
563.579	16937.13
563.941	17043.79
564.304	17068.65
564.666	17201.07
565.028	17272.71
565.39	17279.72
565.753	17392.03
566.115	17445.13
566.477	17546.15
566.839	17529.88
567.201	17620.05
567.563	17648.74
567.925	17784.56
568.287	17811.23
568.648	17887.16
569.01	17929.87
569.372	18126.7
569.734	18056.87
570.095	18189.3
570.457	18291.44
570.819	18269.52
571.18	18252.8
571.542	18478.1
571.903	18509.74
572.265	18617.08
572.626	18668.61
572.987	18731.65
573.349	18776.62
573.71	18914.7
574.071	19085.09
574.432	18995.15
574.794	19256.61
575.155	19272.43
575.516	19253
575.877	19462.48
576.238	19533.22
576.599	19749.93
576.96	19672.65
577.32	19791.29
577.681	19888.69
578.042	20107.66
578.403	20195.12
578.763	20358.73
579.124	20464.49
579.485	20697.93
579.845	20770.92
580.206	20841.2
580.566	21043.01
580.927	21065.83
581.287	21403
581.648	21362.55
582.008	21619.94
582.368	21759.37
582.728	21932.47
583.089	22027.39
583.449	22254.73
583.809	22371.33
584.169	22636.41
584.529	22748.72
584.889	23130.86
585.249	23118.21
585.609	23280.46
585.969	23693.78
586.329	23545.09
586.688	23952.53
587.048	24256.48
587.408	24309.36
587.768	24575.34
588.127	24770.37
588.487	24914.99
588.846	25370.12
589.206	25398.37
589.565	25573.28
589.925	25913.16
590.284	26049.43
590.643	26178.46
591.003	26599.47
591.362	26896.19
591.721	27005.56
592.08	27153.58
592.44	27478.32
592.799	27631.31
593.158	27883.28
593.517	28147.9
593.876	28358.52
594.235	28503.6
594.593	28765.51
594.952	28971.61
595.311	29103.59
595.67	29420.41
596.029	29862.44
596.387	30112.82
596.746	30189.43
597.104	30369.31
597.463	30428.97
597.822	30969.52
598.18	30907.15
598.538	31139.24
598.897	31512.34
599.255	31381.27
599.613	31969.05
599.972	32018.31
600.33	32312.99
600.688	32376.49
601.046	32596.15
601.404	32962.69
601.762	33119.75
602.12	33341.89
602.478	33495.56
602.836	33736.46
603.194	33743.69
603.552	33993.4
603.91	33994.3
604.268	34287.63
604.625	34272.04
604.983	34554.52
605.341	34621.86
605.698	34904.11
606.056	34955.63
606.413	35187.27
606.771	35431.1
607.128	35565.79
607.485	35574.83
607.843	35833.13
608.2	36026.11
608.557	36260.23
608.914	36206.45
609.272	36421.58
609.629	36671.07
609.986	36957.39
610.343	36826.77
610.7	37238.74
611.057	37199.19
611.414	37316.02
611.771	37486.87
612.127	37835.78
612.484	37716.47
612.841	37967.76
613.198	37913.52
613.554	38211.37
613.911	38387.63
614.267	38200.75
614.624	38458.37
614.98	38564.58
615.337	38760.51
615.693	38775.87
616.05	38801.18
616.406	39051.12
616.762	39111.46
617.118	39228.52
617.475	39232.13
617.831	39419.47
618.187	39515.74
618.543	39673.25
618.899	39856.75
619.255	39810.87
619.611	39924.09
619.967	40003.86
620.323	40078.66
620.678	40126.12
621.034	40117.53
621.39	40028.95
621.746	40158.66
622.101	40604.07
622.457	40296.74
622.812	40505.09
623.168	40603.17
623.523	40666.9
623.879	40882.94
624.234	40604.75
624.589	40769.04
624.945	40811.07
625.3	41024.85
625.655	40976.95
626.01	40943.05
626.365	40975.36
626.72	41051.52
627.075	41050.84
627.43	41090.16
627.785	41051.07
628.14	41191.63
628.495	41167.45
628.85	41230.5
629.205	41152.53
629.559	41360.44
629.914	41129.26
630.269	41093.55
630.623	41213.78
630.978	41196.83
631.332	41416.93
631.687	41478.4
632.041	41280.67
632.396	41379.42
632.75	41173.78
633.104	41282.02
633.459	41303.49
633.813	41117.28
634.167	41193.44
634.521	41141.69
634.875	41301
635.229	41312.98
635.583	41052.65
635.937	41162.7
636.291	41029.6
636.645	41061.24
636.999	41059.2
637.352	41119.09
637.706	40966.32
638.06	41122.03
638.413	41101.69
638.767	40975.14
639.121	40972.88
639.474	40774.46
639.828	40946.66
640.181	40869.6
640.534	40874.12
640.888	40955.48
641.241	40805.88
641.594	40837.97
641.947	40878.64
642.301	40840.68
642.654	40987.79
643.007	40919.09
643.36	40808.14
643.713	40818.08
644.066	40811.75
644.419	40680.68
644.771	40440.69
645.124	40138.32
645.477	40014.48
645.83	39807.48
646.182	39737.2
646.535	39548.73
646.888	39756.41
647.24	39513.71
647.593	39746.92
647.945	39599.81
648.298	39520.71
648.65	39348.97
649.002	39305.8
649.355	39354.16
649.707	39440.04
650.059	39623.08
650.411	40009.74
650.763	40050.42
651.115	40401.37
651.467	40309.39
651.819	40313.01
652.171	40119.34
652.523	40053.35
652.875	40124.31
653.227	39894.26
653.578	40381.03
653.93	40131.77
654.282	40007.48
654.633	39874.38
654.985	39953.7
655.337	40007.03
655.688	39923.41
656.039	40142.16
656.391	39887.26
656.742	40001.15
657.094	39956.86
657.445	39975.84
657.796	39937.2
658.147	39891.32
658.498	39820.37
658.849	39913.24
659.2	39822.85
659.551	39841.38
659.902	40009.51
660.253	39624.21
660.604	39909.85
660.955	39629.41
661.306	39838.22
661.656	39720.48
662.007	39789.18
662.358	39866.69
662.708	39898.33
663.059	39902.4
663.409	39501.73
663.76	39942.17
664.11	39775.39
664.461	39830.53
664.811	39883.41
665.161	39761.84
665.511	39743.53
665.862	39741.95
666.212	39817.43
666.562	39739.69
666.912	39781.95
667.262	39676.19
667.612	39619.92
667.962	39697.43
668.312	39727.26
668.662	39741.5
669.011	39726.36
669.361	39741.05
669.711	39637.32
670.06	39525.01
670.41	39539.24
670.76	39404.11
671.109	39619.69
671.459	39458.12
671.808	39491.11
672.157	39482.3
672.507	39248.86
672.856	39371.34
673.205	39466.48
673.554	39432.8
673.904	39424.67
674.253	39603.42
674.602	39428.96
674.951	38885.7
675.3	38689.77
675.649	39334.73
675.998	39166.6
676.346	39432.35
676.695	39451.34
677.044	39206.14
677.393	39156.88
677.741	39362.98
678.09	39194.39
678.438	39086.6
678.787	39154.62
679.135	39120.72
679.484	38929.54
679.832	38994.4
680.181	38826.27
680.529	38971.8
680.877	38884.12
681.225	38906.27
681.573	39010.67
681.922	38812.26
682.27	38515.09
682.618	38701.75
682.966	38502.89
683.314	38628.98
683.661	38508.76
684.009	38205.27
684.357	38305.6
684.705	38173.86
685.053	38255.66
685.4	38134.53
685.748	38194.42
686.095	37937.03
686.443	37846.41
686.79	37857.71
687.138	37838.5
687.485	37871.49
687.832	37723.7
688.18	37820.87
688.527	37625.85
688.874	37539.07
689.221	37583.36
689.568	37482.12
689.915	37430.82
690.262	37374.33
690.609	37243.71
690.956	37073.54
691.303	37194.22
691.65	36959.88
691.997	36937.73
692.344	36787.45
692.69	36690.5
693.037	36684.63
693.383	36436.5
693.73	36589.94
694.077	36443.28
694.423	36342.26
694.769	36259.56
695.116	36090.29
695.462	36172.55
695.808	35996.06
696.155	35886.46
696.501	35846.23
696.847	35713.81
697.193	35430.65
697.539	35585.9
697.885	35401.95
698.231	35323.31
698.577	35231.11
698.923	35344.1
699.269	35065.01
699.614	34874.05
699.96	34874.28
700.306	35072.69
700.651	34771.23
700.997	34663.44
701.342	34699.6
701.688	34522.65
702.033	34438.81
702.379	34453.95
702.724	34325.14
703.069	34389.55
703.415	34073.85
703.76	33983.46
704.105	33973.51
704.45	34040.63
704.795	33735.1
705.14	33650.81
705.485	33636.35
705.83	33496.01
706.175	33527.88
706.52	33568.55
706.865	33332.4
707.209	33347.54
707.554	33122.69
707.899	33381.89
708.243	33173.31
708.588	33001.11
708.932	32768.35
709.277	32952.98
709.621	32912.75
709.966	32597.5
710.31	32740.55
710.654	32440.9
710.998	32405.19
711.342	32461.24
711.687	32398.19
712.031	32333.1
712.375	32188.02
712.719	32197.74
713.063	32183.5
713.407	32142.15
713.75	32023.28
714.094	31899.44
714.438	31898.54
714.782	32000.23
715.125	31830.52
715.469	31797.53
715.812	31600.92
716.156	31353.47
716.499	31355.96
716.843	31543.07
717.186	31144.44
717.53	31408.61
717.873	31425.78
718.216	31312.34
718.559	31054.04
718.902	31020.37
719.246	31008.39
719.589	30962.29
719.932	30821.73
720.275	30814.05
720.617	30760.49
720.96	30681.17
721.303	30670.55
721.646	30625.58
721.989	30559.82
722.331	30647.05
722.674	30513.04
723.016	30479.59
723.359	30463.78
723.701	30542.87
724.044	30227.17
724.386	30121.86
724.729	30209.32
725.071	30194.4
725.413	30203.44
725.755	30063.79
726.097	30082.77
726.439	29984.92
726.782	29922.32
727.124	30165.25
727.465	29801.19
727.807	29958.25
728.149	29769.1
728.491	29807.3
728.833	29756.45
729.175	29670.58
729.516	29593.74
729.858	29627.87
730.199	29419.96
730.541	29428.77
730.882	29518.26
731.224	29593.06
731.565	29247.99
731.906	29259.29
732.248	29272.17
732.589	28966.41
732.93	29056.81
733.271	29100.87
733.612	29124.83
733.953	29162.11
734.294	29050.71
734.635	28962.35
734.976	28953.76
735.317	28925.74
735.658	28827.21
735.999	28766.19
736.339	28750.37
736.68	28861.78
737.021	28770.71
737.361	28613.43
737.702	28740.43
738.042	28634.9
738.383	28547.89
738.723	28530.04
739.063	28501.12
739.404	28486.65
739.744	28441
740.084	28279.65
740.424	28298.63
740.764	28233.55
741.104	28292.53
741.444	28162.14
741.784	28089.83
742.124	28074.23
742.464	28033.33
742.804	28043.05
743.143	28037.4
743.483	27908.59
743.823	27867.46
744.162	27848.25
744.502	27847.12
744.841	27688.03
745.181	27865.43
745.52	27771.87
745.86	27680.35
746.199	27711.31
746.538	27606.22
746.877	27593.79
747.216	27628.37
747.556	27481.03
747.895	27514.02
748.234	27282.16
748.573	27374.59
748.911	27410.52
749.25	27295.27
749.589	27320.13
749.928	27215.27
750.267	27171.21
750.605	27093.92
750.944	27067.93
751.283	26992.23
751.621	27063.64
751.96	26977.54
752.298	26925.11
752.636	26874.49
752.975	26810.99
753.313	26672.46
753.651	26782.74
753.989	26606.25
754.327	26573.71
754.666	26476.99
755.004	26464.56
755.342	26491.9
755.679	26469.53
756.017	26307.5
756.355	26389.98
756.693	26182.08
757.031	26182.76
757.368	26050.11
757.706	26093.72
758.044	25955.87
758.381	26002.2
758.719	25913.16
759.056	25828.64
759.394	25640.17
759.731	25477.24
760.068	25572.15
760.405	25396.34
760.743	25337.81
761.08	25628.87
761.417	25251.93
761.754	25126.51
762.091	25183.01
762.428	25125.16
762.765	24964.03
763.102	24990.02
763.438	24871.61
763.775	24785.73
764.112	24780.08
764.449	24912.06
764.785	24704.6
765.122	24586.42
765.458	24442.46
765.795	24463.71
766.131	24358.63
766.467	24283.6
766.804	24157.73
767.14	24134.45
767.476	24101.46
767.812	24034.11
768.148	24033.66
768.485	23802.71
768.821	23721.81
769.157	23671.64
769.492	23611.53
769.828	23506.67
770.164	23296.05
770.5	23369.95
770.836	23408.37
771.171	23252.21
771.507	23067.81
771.842	22859
772.178	23037.53
772.513	22943.52
772.849	22824.43
773.184	22733.13
773.519	22729.06
773.855	22502.4
774.19	22560.48
774.525	22395.96
774.86	22377.89
775.195	22298.11
775.53	22217.44
775.865	22191.68
776.2	21976.09
776.535	21882.98
776.87	21915.53
777.205	21687.73
777.539	21522.77
777.874	21700.62
778.209	21455.2
778.543	21383.11
778.878	21291.14
779.212	21332.72
779.547	21233.06
779.881	21329.78
780.215	21038.03
780.55	21099.95
780.884	20920.52
781.218	20983.8
781.552	20910.35
781.886	20734.54
782.22	20534.54
782.554	20551.27
782.888	20384.72
783.222	20343.59
783.556	20296.81
783.889	20176.81
784.223	20138.4
784.557	19993.32
784.89	20053.88
785.224	19924.84
785.557	19902.7
785.891	19822.02
786.224	19786.77
786.558	19790.38
786.891	19634
787.224	19490.05
787.557	19484.4
787.891	19464.29
788.224	19360.34
788.557	19307.68
788.89	19245.99
789.223	19200.34
789.556	19025.21
789.888	19084.19
790.221	18923.97
790.554	18850.97
790.887	18773.91
791.219	18734.14
791.552	18655.95
791.884	18587.48
792.217	18597.65
792.549	18432.45
792.882	18307.71
793.214	18317.88
793.546	18403.98
793.879	18213.25
794.211	18043.54
794.543	18211.44
794.875	18115.85
795.207	18098.45
795.539	18034.95
795.871	17925.57
796.203	17719.48
796.535	17774.17
796.867	17626.37
797.198	17777.78
797.53	17631.12
797.862	17608.07
798.193	17533.04
798.525	17365.14
798.856	17461.63
799.188	17199.04
799.519	17251.24
799.85	17175.54
800.182	17172.15
800.513	17080.4
800.844	16961.98
801.175	16997.69
801.506	17018.03
801.837	16943
802.168	16896.22
802.499	16847.86
802.83	16776.45
803.161	16685.83
803.491	16670.24
803.822	16757.24
804.153	16518.61
804.483	16397.48
804.814	16365.61
805.145	16359.74
805.475	16278.84
805.805	16277.48
806.136	16196.81
806.466	16267.76
806.796	16175.11
807.126	16056.24
807.457	15995.46
807.787	16002.01
808.117	15948
808.447	15904.84
808.777	15862.8
809.107	15844.27
809.436	15810.6
809.766	15796.59
810.096	15682.69
810.426	15665.07
810.755	15693.32
811.085	15597.27
811.414	15585.75
811.744	15407.9
812.073	15386.21
812.403	15363.61
812.732	15381.69
813.061	15336.26
813.39	15266.43
813.719	15161.13
814.049	15298.52
814.378	15214.68
814.707	15130.85
815.036	15162.71
815.365	15035.03
815.693	14930.62
816.022	14915.48
816.351	14857.41
816.68	14804.98
817.008	14864.19
817.337	14723.62
817.665	14730.18
817.994	14721.36
818.322	14626.68
818.651	14638.2
818.979	14623.74
819.307	14597.75
819.636	14550.52
819.964	14425.55
820.292	14454.7
820.62	14416.97
820.948	14467.13
821.276	14508.49
821.604	14481.37
821.932	14487.47
822.259	14501.71
822.587	14412.22
822.915	14364.99
823.243	14449.06
823.57	14357.31
823.898	14425.1
824.225	14274.82
824.553	14247.93
824.88	14254.48
825.207	14336.97
825.535	14278.89
825.862	14430.75
826.189	14332.9
826.516	14407.02
826.843	14333.35
827.17	14346.68
827.497	14371.09
827.824	14329.51
828.151	14390.75
828.478	14317.99
828.805	14395.95
829.131	14389.85
829.458	14253.81
829.785	14249.29
830.111	14262.39
830.438	14286.12
830.764	14324.99
831.09	14362.28
831.417	14252.22
831.743	14313.47
832.069	14387.36
832.395	14226.46
832.722	14332.22
833.048	14252.9
833.374	14266.46
833.7	14196.63
834.026	14226.91
834.351	14262.17
834.677	14147.82
835.003	14137.42
835.329	14139.23
835.654	14040.25
835.98	14036.41
836.306	14102.85
836.631	14044.09
836.956	14073.25
837.282	14120.02
837.607	13952.12
837.932	13944.44
838.258	13974.49
838.583	13952.8
838.908	13808.85
839.233	13874.38
839.558	13885.45
839.883	13886.58
840.208	13753.25
840.533	13808.85
840.858	13723.2
841.182	13751.45
841.507	13665.57
841.832	13659.02
842.156	13556.88
842.481	13669.87
842.805	13563.2
843.13	13567.95
843.454	13520.04
843.778	13450.89
844.103	13472.13
844.427	13412.7
844.751	13383.55
845.075	13296.09
845.399	13373.38
845.723	13230.33
846.047	13311.01
846.371	13092.48
846.695	13147.39
847.019	13059.71
847.343	12938.13
847.666	12936.55
847.99	12882.77
848.313	12794.41
848.637	12759.16
848.96	12708.54
849.284	12748.99
849.607	12628.31
849.931	12617.24
850.254	12480.97
850.577	12455.66
850.9	12369.34
851.223	12347.87
851.546	12329.11
851.869	12245.27
852.192	12337.7
852.515	12256.57
852.838	12137.7
853.161	12145.84
853.483	12036.24
853.806	12005.05
854.129	11894.55
854.451	11969.8
854.774	11866.3
855.096	11811.16
855.419	11810.93
855.741	11783.59
856.063	11735.23
856.385	11730.71
856.708	11686.42
857.03	11612.52
857.352	11618.4
857.674	11539.3
857.996	11464.5
858.318	11446.87
858.64	11559.64
858.961	11413.43
859.283	11384.05
859.605	11330.72
859.926	11360.77
860.248	11392.19
860.57	11234.45
860.891	11225.86
861.212	11184.96
861.534	11184.06
861.855	11157.84
862.176	11199.65
862.498	11168.92
862.819	11158.75
863.14	11099.99
863.461	11056.83
863.782	11114
864.103	11008.92
864.424	10979.54
864.745	10977.28
865.065	10970.5
865.386	10912.65
865.707	10937.28
866.027	10943.16
866.348	10844.63
866.668	10902.71
866.989	10798.3
867.309	10806.67
867.63	10798.08
867.95	10800.56
868.27	10738.64
868.59	10796.95
868.91	10724.63
869.23	10654.58
869.55	10639.21
869.87	10720.79
870.19	10708.81
870.51	10662.94
870.83	10619.1
871.15	10564.19
871.469	10632.66
871.789	10630.17
872.109	10560.8
872.428	10507.92
872.748	10514.02
873.067	10504.53
873.386	10527.12
873.706	10431.31
874.025	10452.1
874.344	10377.75
874.663	10442.61
874.982	10363.29
875.301	10368.94
875.62	10378.88
875.939	10300.01
876.258	10387.69
876.577	10256.62
876.896	10324.64
877.214	10335.26
877.533	10231.99
877.852	10281.48
878.17	10267.02
878.489	10198.77
878.807	10151.09
879.125	10142.5
879.444	10094.82
879.762	10088.94
880.08	10161.94
880.398	10115.38
880.716	10098.89
881.034	9970.98
881.352	10124.42
881.67	10017.53
881.988	9992.45
882.306	9944.99
882.624	9926.69
882.941	9837.65
883.259	9912
883.577	9810.76
883.894	9786.35
884.212	9765.34
884.529	9787.71
884.846	9749.29
885.164	9799.23
885.481	9771.44
885.798	9691.89
886.115	9598.34
886.432	9629.29
886.75	9560.37
887.067	9612.57
887.383	9598.79
887.7	9541.61
888.017	9581.16
888.334	9566.02
888.651	9472.91
888.967	9510.2
889.284	9502.74
889.6	9472.46
889.917	9328.51
890.233	9319.7
890.55	9276.99
890.866	9361.05
891.182	9288.29
891.498	9239.25
891.815	9287.61
892.131	9234.73
892.447	9244.22
892.763	9166.93
893.079	9034.28
893.395	9100.72
893.71	9082.87
894.026	9108.86
894.342	8987.73
894.657	8926.71
894.973	8996.77
895.289	8925.36
895.604	8973.94
895.92	8842.87
896.235	8785.93
896.55	8786.38
896.865	8784.12
897.181	8687.4
897.496	8838.13
897.811	8702.77
898.126	8598.59
898.441	8649.21
898.756	8633.39
899.071	8572.83
899.386	8593.39
899.7	8541.87
900.015	8513.17
900.33	8387.52
900.644	8408.54
900.959	8390.01
901.273	8307.75
901.588	8303
901.902	8294.19
902.216	8283.34
902.531	8240.63
902.845	8279.95
903.159	8166.51
903.473	8166.73
903.787	8141.42
904.101	8148.2
904.415	8125.38
904.729	8066.4
905.042	8025.95
905.356	8043.35
905.67	7916.57
905.984	7969.68
906.297	7945.05
906.611	7844.71
906.924	7876.57
907.237	7892.62
907.551	7791.6
907.864	7764.26
908.177	7706.41
908.491	7695.56
908.804	7689.91
909.117	7597.26
909.43	7550.71
909.743	7566.3
910.056	7537.37
910.368	7439.75
910.681	7534.66
910.994	7416.25
911.307	7452.85
911.619	7308.45
911.932	7358.85
912.244	7315.46
912.557	7322.69
912.869	7255.8
913.181	7277.49
913.494	7249.24
913.806	7129.02
914.118	7133.54
914.43	7075.92
914.742	7062.81
915.054	7021
915.366	7016.26
915.678	7018.06
915.99	6893.77
916.302	6924.06
916.613	6916.82
916.925	6895.58
917.236	6899.2
917.548	6804.06
917.859	6859.2
918.171	6799.09
918.482	6745.08
918.794	6701.91
919.105	6683.38
919.416	6619.43
919.727	6634.12
920.038	6644.97
920.349	6533.11
920.66	6579.66
920.971	6517.29
921.282	6470.73
921.593	6440.9
921.903	6412.66
922.214	6387.35
922.525	6385.09
922.835	6346.9
923.146	6282.04
923.456	6324.07
923.767	6262.15
924.077	6226.45
924.387	6292.21
924.697	6197.29
925.008	6209.05
925.318	6162.49
925.628	6149.61
925.938	6110.74
926.248	6035.27
926.558	6031.2
926.867	6037.07
927.177	5976.51
927.487	5988.49
927.796	5906.23
928.106	5945.78
928.416	5941.26
928.725	5839.79
929.034	5867.81
929.344	5807.7
929.653	5769.74
929.962	5786.68
930.271	5741.04
930.581	5755.72
930.89	5675.95
931.199	5639.57
931.508	5645.44
931.817	5626.91
932.125	5618.1
932.434	5555.96
932.743	5568.61
933.051	5538.78
933.36	5502.4
933.669	5464.88
933.977	5453.59
934.286	5458.78
934.594	5423.98
934.902	5388.5
935.21	5414.49
935.519	5346.02
935.827	5294.72
936.135	5315.06
936.443	5209.07
936.751	5224.66
937.059	5249.07
937.367	5166.14
937.674	5211.78
937.982	5214.27
938.29	5144.89
938.597	5128.4
938.905	5067.38
939.213	5076.65
939.52	5011.11
939.827	5053.37
940.135	5035.74
940.442	5011.34
940.749	4943.99
941.056	4977.89
941.363	4947.16
941.67	4930.66
941.977	4876.43
942.284	4867.61
942.591	4845.92
942.898	4817.22
943.205	4807.73
943.511	4807.27
943.818	4770.21
944.125	4741.74
944.431	4769.08
944.738	4690.67
945.044	4653.15
945.35	4645.25
945.657	4615.19
945.963	4606.15
946.269	4577.45
946.575	4551.46
946.881	4602.76
947.187	4560.73
947.493	4530.67
947.799	4475.98
948.105	4458.81
948.41	4462.65
948.716	4460.39
949.022	4439.83
949.327	4415.65
949.633	4364.8
949.938	4377.68
950.244	4347.85
950.549	4298.81
950.854	4315.99
951.16	4255.65
951.465	4278.93
951.77	4242.32
952.075	4242.77
952.38	4182.66
952.685	4193.05
952.99	4153.73
953.294	4150.12
953.599	4118.71
953.904	4117.58
954.209	4103.11
954.513	4109.21
954.818	4055.88
955.122	4018.37
955.426	4027.86
955.731	3981.08
956.035	3984.7
956.339	3968.2
956.643	3972.72
956.948	3952.16
957.252	3905.15
957.556	3907.19
957.86	3890.24
958.163	3881.65
958.467	3878.94
958.771	3870.58
959.075	3829.22
959.378	3776.34
959.682	3771.37
959.985	3808.43
960.289	3803.23
960.592	3738.83
960.896	3707.64
961.199	3731.6
961.502	3665.38
961.805	3656.8
962.108	3658.83
962.411	3632.84
962.714	3662.67
963.017	3592.84
963.32	3633.75
963.623	3586.06
963.926	3581.77
964.228	3542.22
964.531	3553.97
964.833	3551.26
965.136	3539.74
965.438	3497.7
965.741	3507.42
966.043	3468.55
966.345	3469.68
966.648	3398.95
966.95	3418.16
967.252	3426.07
967.554	3406.63
967.856	3367.09
968.158	3319.18
968.46	3380.19
968.761	3326.64
969.063	3311.27
969.365	3271.5
969.666	3310.36
969.968	3248.45
970.269	3272.63
970.571	3231.5
970.872	3231.04
971.174	3192.85
971.475	3206.64
971.776	3216.58
972.077	3200.76
972.378	3172.06
972.679	3174.55
972.98	3132.74
973.281	3135
973.582	3105.85
973.883	3078.28
974.183	3128.67
974.484	3083.93
974.785	3062.91
975.085	3014.55
975.386	3047.55
975.686	3007.77
975.986	3005.97
976.287	3012.07
976.587	2994.89
976.887	2968
977.187	2948.57
977.487	2940.88
977.787	2918.28
978.087	2904.05
978.387	2913.99
978.687	2902.01
978.987	2883.48
979.286	2874.22
979.586	2849.59
979.885	2818.17
980.185	2856.14
980.484	2797.16
980.784	2780.66
981.083	2784.05
981.382	2772.53
981.682	2775.46
981.981	2767.78
982.28	2749.93
982.579	2724.62
982.878	2742.02
983.177	2752.87
983.475	2724.62
983.774	2687.33
984.073	2669.25
984.372	2599.42
984.67	2644.85
984.969	2655.24
985.267	2641.46
985.566	2610.5
985.864	2622.93
986.162	2587.67
986.461	2561.23
986.759	2547.45
987.057	2549.26
987.355	2517.17
987.653	2544.51
987.951	2514.68
988.249	2519.2
988.547	2518.07
988.844	2491.86
989.142	2470.84
989.44	2461.57
989.737	2423.38
990.035	2425.42
990.332	2425.42
990.63	2447.11
990.927	2386.55
991.224	2377.96
991.521	2343.61
991.819	2358.98
992.116	2358.53
992.413	2333.89
992.71	2311.52
993.006	2313.33
993.303	2313.78
993.6	2287.12
993.897	2326.21
994.193	2281.92
994.49	2290.96
994.787	2242.14
995.083	2280.11
995.379	2229.94
995.676	2229.72
995.972	2240.11
996.268	2226.78
996.565	2190.62
996.861	2173.67
997.157	2159.89
997.453	2151.53
997.749	2153.33
998.044	2165.54
998.34	2134.35
998.636	2131.19
998.932	2093.9
999.227	2085.54
999.523	2076.95
999.818	2088.93
1000.114	2083.73
1000.409	2045.99
1000.704	2061.36
1001	2044.64
1001.295	2035.82
1001.59	2010.96
1001.885	2007.8
1002.18	2000.79
1002.475	2045.99
1002.77	1977.07
1003.065	1962.83
1003.359	1963.51
1003.654	1922.38
1003.949	1907.69
1004.243	1950.85
1004.538	1910.85
1004.832	1909.72
1005.127	1922.38
1005.421	1865.66
1005.715	1873.57
1006.009	1857.3
1006.304	1867.69
1006.598	1847.35
1006.892	1832.21
1007.186	1817.07
1007.48	1805.55
1007.773	1796.05
1008.067	1783.85
1008.361	1744.53
1008.655	1763.06
1008.948	1747.69
1009.242	1746.11
1009.535	1756.51
1009.829	1739.11
1010.122	1703.63
1010.415	1728.49
1010.708	1702.72
1011.001	1730.97
1011.295	1695.27
1011.588	1686.45
1011.881	1678.32
1012.173	1660.69
1012.466	1643.97
1012.759	1645.55
1013.052	1643.97
1013.344	1612.56
1013.637	1598.32
1013.93	1608.04
1014.222	1593.8
1014.514	1583.63
1014.807	1572.11
1015.099	1583.86
1015.391	1555.38
1015.683	1543.41
1015.976	1535.72
1016.268	1519.68
1016.56	1510.64
1016.851	1502.95
1017.143	1514.48
1017.435	1498.66
1017.727	1481.94
1018.018	1458.21
1018.31	1478.32
1018.602	1455.72
1018.893	1450.98
1019.185	1429.96
1019.476	1443.75
1019.767	1417.31
1020.058	1394.26
1020.35	1400.58
1020.641	1378.89
1020.932	1401.49
1021.223	1373.47
1021.514	1353.35
1021.804	1349.96
1022.095	1355.39
1022.386	1316.07
1022.677	1325.78
1022.967	1305.22
1023.258	1299.34
1023.548	1299.34
1023.839	1283.07
1024.129	1300.25
1024.419	1288.5
1024.709	1292.79
1025	1265.67
1025.29	1256.18
1025.58	1249.4
1025.87	1264.09
1026.16	1233.81
1026.449	1226.35
1026.739	1227.03
1027.029	1229.52
1027.319	1204.66
1027.608	1203.75
1027.898	1159.69
1028.187	1182.06
1028.477	1173.02
1028.766	1169.18
1029.055	1162.85
1029.344	1136.86
1029.634	1133.25
1029.923	1132.57
1030.212	1116.52
1030.501	1129.63
1030.79	1107.03
1031.078	1129.41
1031.367	1084.66
1031.656	1057.54
1031.945	1091.21
1032.233	1067.49
1032.522	1077.88
1032.81	1039.69
1033.099	1048.28
1033.387	1040.82
1033.675	1038.33
1033.963	1023.19
1034.251	1027.71
1034.54	1035.62
1034.828	1010.31
1035.116	992.69
1035.403	994.72
1035.691	1006.7
1035.979	993.36
1036.267	974.61
1036.554	948.85
1036.842	987.71
1037.129	952.23
1037.417	946.36
1037.704	952.23
1037.992	941.84
1038.279	932.35
1038.566	933.03
1038.853	933.03
1039.14	933.03
