Data from hue_10_FLMS001491_72.txt Node
Date: Mon Feb 06 15:32:31 GMT 2017
User: dcchb
Spectrometer: FLMS00149
Trigger mode: 0
Integration Time (sec): 2.000000E-2
Scans to average: 10
Electric dark correction enabled: true
Nonlinearity correction enabled: false
Boxcar width: 0
XAxis mode: Wavelengths
Number of Pixels in Spectrum: 2048
>>>>>Begin Spectral Data<<<<<
341.393	-5.99
341.776	-5.99
342.16	-5.99
342.543	-64.29
342.927	-70.39
343.31	-64.97
343.693	-68.59
344.077	-52.09
344.46	-54.8
344.843	-51.64
345.226	-34.24
345.61	-34.01
345.993	-5.76
346.376	-18.64
346.759	15.93
347.142	27.68
347.525	48.47
347.908	55.25
348.291	56.38
348.674	73.78
349.057	107.23
349.44	118.98
349.823	137.74
350.206	175.48
350.588	186.32
350.971	212.31
351.354	238.07
351.737	229.03
352.119	246.43
352.502	260.45
352.884	266.32
353.267	283.95
353.65	272.2
354.032	302.25
354.414	315.58
354.797	325.08
355.179	318.75
355.562	321.69
355.944	325.08
356.326	333.89
356.709	342.25
357.091	334.79
357.473	325.3
357.855	358.97
358.238	327.79
358.62	348.8
359.002	336.15
359.384	317.17
359.766	348.58
360.148	340.44
360.53	337.28
360.912	332.76
361.294	348.13
361.676	337.51
362.057	332.53
362.439	329.14
362.821	326.21
363.203	332.08
363.584	332.76
363.966	323.27
364.348	331.63
364.729	312.42
365.111	307.45
365.493	319.65
365.874	312.2
366.256	328.01
366.637	302.03
367.019	295.92
367.4	313.78
367.781	311.07
368.163	307
368.544	299.31
368.925	321.91
369.306	314
369.688	306.77
370.069	300.67
370.45	319.65
370.831	313.55
371.212	326.66
371.593	327.11
371.974	311.74
372.355	320.1
372.736	318.52
373.117	314.91
373.498	301.8
373.879	309.71
374.26	311.52
374.641	325.53
375.021	315.81
375.402	298.18
375.783	319.2
376.163	306.32
376.544	318.75
376.925	307.22
377.305	313.1
377.686	330.05
378.066	324.62
378.447	308.13
378.827	334.57
379.208	337.51
379.588	324.62
379.968	344.06
380.349	322.59
380.729	316.94
381.109	336.15
381.489	344.74
381.87	345.87
382.25	335.47
382.63	339.09
383.01	344.06
383.39	339.54
383.77	329.6
384.15	337.51
384.53	340.22
384.91	324.17
385.29	334.57
385.67	318.97
386.049	350.16
386.429	331.86
386.809	345.19
387.189	328.47
387.568	345.41
387.948	343.61
388.328	332.53
388.707	363.72
389.087	336.15
389.466	366.66
389.846	355.13
390.225	350.16
390.605	344.06
390.984	350.84
391.363	337.51
391.743	341.12
392.122	337.96
392.501	358.52
392.881	352.65
393.26	372.31
393.639	358.07
394.018	371.4
394.397	365.75
394.776	359.2
395.155	373.66
395.534	351.52
395.913	363.27
396.292	359.88
396.671	349.71
397.05	360.33
397.429	355.36
397.808	363.49
398.186	347.9
398.565	342.48
398.944	361.01
399.323	378.86
399.701	376.37
400.08	383.38
400.458	368.01
400.837	385.64
401.215	371.18
401.594	369.59
401.972	358.75
402.351	389.71
402.729	363.95
403.107	401.46
403.486	379.99
403.864	396.49
404.242	386.32
404.62	375.7
404.999	386.32
405.377	369.82
405.755	384.51
406.133	392.42
406.511	370.27
406.889	392.42
407.267	395.13
407.645	400.55
408.023	402.59
408.401	397.84
408.779	386.32
409.156	401.01
409.534	406.2
409.912	392.42
410.29	391.52
410.667	396.71
411.045	396.03
411.422	412.31
411.8	417.28
412.178	445.98
412.555	424.51
412.933	448.46
413.31	430.84
413.687	421.34
414.065	416.83
414.442	437.62
414.819	419.76
415.197	448.46
415.574	446.43
415.951	427.45
416.328	431.74
416.705	434.68
417.082	416.37
417.46	455.24
417.837	447.56
418.214	465.19
418.591	453.66
418.967	429.71
419.344	436.49
419.721	450.95
420.098	475.13
420.475	458.41
420.852	462.7
421.228	449.59
421.605	462.47
421.982	474.9
422.358	486.65
422.735	476.71
423.111	470.16
423.488	461.34
423.864	487.78
424.241	490.27
424.617	469.48
424.994	483.94
425.37	488.24
425.746	481.23
426.123	490.95
426.499	501.57
426.875	502.25
427.251	495.02
427.627	497.28
428.003	505.18
428.379	528.01
428.756	518.52
429.132	504.73
429.507	523.04
429.883	530.95
430.259	532.3
430.635	542.25
431.011	545.18
431.387	523.49
431.763	516.94
432.138	545.64
432.514	546.09
432.89	549.93
433.265	527.1
433.641	565.07
434.016	564.39
434.392	564.62
434.767	567.78
435.143	579.98
435.518	554.45
435.894	586.76
436.269	588.57
436.644	561.23
437.02	575.69
437.395	576.14
437.77	591.51
438.145	594.9
438.52	589.7
438.895	621.11
439.271	618.4
439.646	637.38
440.021	614.56
440.395	601.91
440.77	617.27
441.145	614.11
441.52	635.35
441.895	631.73
442.27	634.9
442.645	653.43
443.019	636.25
443.394	639.64
443.769	644.62
444.143	624.5
444.518	660.21
444.892	642.58
445.267	645.07
445.641	638.74
446.016	654.79
446.39	659.53
446.764	661.56
447.139	678.97
447.513	662.02
447.887	659.98
448.262	687.1
448.636	680.77
449.01	677.16
449.384	676.93
449.758	673.32
450.132	672.86
450.506	681.45
450.88	704.05
451.254	695.46
451.628	679.42
452.002	690.72
452.376	712.18
452.75	729.59
453.123	729.13
453.497	719.64
453.871	755.35
454.244	729.81
454.618	735.23
454.992	735.91
455.365	737.72
455.739	752.18
456.112	762.58
456.486	770.49
456.859	781.11
457.232	757.38
457.606	777.04
457.979	779.75
458.352	802.35
458.725	801.67
459.099	788.57
459.472	839.64
459.845	831.28
460.218	821.33
460.591	846.42
460.964	818.85
461.337	852.29
461.71	867.43
462.083	858.62
462.456	863.37
462.829	868.34
463.201	875.8
463.574	882.8
463.947	907.66
464.32	920.99
464.692	925.74
465.065	928.68
465.438	951.5
465.81	937.94
466.183	961.22
466.555	963.25
466.928	960.09
467.3	989.92
467.672	1001.22
468.045	989.92
468.417	1034.21
468.789	1030.82
469.161	1040.09
469.534	1045.06
469.906	1086.19
470.278	1068.33
470.65	1075.34
471.022	1132.96
471.394	1103.59
471.766	1159.63
472.138	1158.27
472.51	1175.45
472.882	1173.19
473.253	1205.05
473.625	1208.67
473.997	1231.04
474.369	1245.96
474.74	1242.34
475.112	1269.91
475.484	1294.99
475.855	1333.19
476.227	1369.79
476.598	1376.57
476.97	1377.25
477.341	1419.96
477.713	1464.71
478.084	1452.28
478.455	1496.12
478.827	1520.3
479.198	1580.18
479.569	1550.58
479.94	1620.86
480.311	1653.63
480.682	1670.35
481.053	1720.07
481.424	1762.33
481.795	1786.28
482.166	1806.85
482.537	1816.11
482.908	1895.2
483.279	1913.51
483.65	1947.18
484.021	1997.12
484.391	1998.93
484.762	2054.3
485.133	2066.5
485.503	2097.91
485.874	2177.91
486.244	2172.03
486.615	2212.48
486.985	2255.19
487.356	2295.87
487.726	2359.82
488.097	2391.91
488.467	2372.93
488.837	2484.34
489.207	2526.6
489.578	2558.24
489.948	2576.32
490.318	2624
490.688	2659.25
491.058	2677.78
491.428	2761.4
491.798	2760.49
492.168	2804.11
492.538	2812.47
492.908	2876.65
493.278	2930.21
493.648	2911.45
494.017	2969.98
494.387	3016.53
494.757	3011.11
495.126	3075.51
495.496	3078.68
495.866	3139.69
496.235	3188.73
496.605	3204.55
496.974	3223.53
497.344	3273.93
497.713	3199.8
498.082	3291.78
498.452	3361.38
498.821	3364.09
499.19	3358.67
499.559	3393.24
499.928	3418.55
500.298	3419.23
500.667	3478.67
501.036	3527.48
501.405	3507.14
501.774	3527.93
502.143	3562.51
502.512	3587.14
502.88	3613.58
503.249	3608.15
503.618	3623.97
503.987	3653.35
504.356	3670.52
504.724	3707.59
505.093	3709.39
505.462	3699.45
505.83	3772.67
506.199	3812.67
506.567	3826
506.936	3792.56
507.304	3857.86
507.672	3866.23
508.041	3852.22
508.409	3927.92
508.777	3946
509.145	3915.26
509.514	3907.81
509.882	3942.38
510.25	3968.37
510.618	3981.7
510.986	3987.35
511.354	4036.84
511.722	4047.92
512.09	4069.38
512.458	4046.79
512.826	4083.4
513.193	4046.79
513.561	4041.36
513.929	4075.26
514.297	4148.7
514.664	4102.83
515.032	4179.66
515.4	4167.91
515.767	4204.97
516.135	4183.28
516.502	4165.2
516.869	4235.93
517.237	4255.37
517.604	4240.45
517.972	4279.1
518.339	4293.33
518.706	4276.61
519.073	4282.94
519.44	4315.03
519.808	4321.36
520.175	4282.94
520.542	4378.98
520.909	4341.69
521.276	4334.69
521.643	4360.9
522.009	4411.07
522.376	4372.43
522.743	4429.15
523.11	4453.56
523.477	4452.88
523.843	4463.5
524.21	4499.2
524.577	4518.19
524.943	4544.17
525.31	4566.77
525.676	4545.08
526.043	4585.3
526.409	4636.6
526.776	4669.59
527.142	4616.49
527.508	4685.87
527.874	4686.77
528.241	4715.24
528.607	4713.66
528.973	4763.15
529.339	4795.92
529.705	4818.74
530.071	4838.4
530.437	4826.2
530.803	4908.68
531.169	4873.43
531.535	4871.17
531.901	4879.76
532.267	4913.66
532.632	4930.6
532.998	4941.9
533.364	4958.17
533.73	5008.34
534.095	5081.34
534.461	5042.69
534.826	5056.7
535.192	5089.47
535.557	5121.11
535.923	5117.04
536.288	5142.12
536.653	5138.51
537.019	5183.03
537.384	5215.8
537.749	5229.81
538.114	5251.05
538.479	5240.88
538.845	5252.18
539.21	5311.61
539.575	5284.04
539.94	5310.03
540.305	5357.49
540.67	5374.43
541.034	5373.08
541.399	5430.03
541.764	5446.52
542.129	5477.48
542.494	5452.85
542.858	5505.73
543.223	5536.92
543.587	5560.19
543.952	5582.34
544.316	5557.93
544.681	5601.32
545.045	5675.22
545.41	5678.83
545.774	5670.7
546.138	5699.4
546.503	5723.35
546.867	5718.38
547.231	5769.23
547.595	5793.86
547.959	5809.9
548.324	5857.59
548.688	5870.47
549.052	5908.21
549.416	5867.08
549.779	5897.81
550.143	5924.25
550.507	5973.74
550.871	5955.44
551.235	5957.92
551.599	6036.11
551.962	5995.44
552.326	6018.49
552.689	6084.25
553.053	6067.3
553.417	6047.86
553.78	6130.12
554.143	6103
554.507	6132.83
554.87	6176.22
555.234	6198.37
555.597	6200.85
555.96	6219.16
556.323	6215.99
556.686	6243.56
557.05	6301.87
557.413	6286.73
557.776	6294.18
558.139	6346.16
558.502	6351.36
558.865	6318.59
559.228	6402.2
559.59	6353.17
559.953	6394.07
560.316	6423.67
560.679	6488.08
561.041	6474.29
561.404	6501.86
561.767	6526.95
562.129	6485.59
562.492	6530.79
562.854	6580.05
563.217	6566.95
563.579	6591.58
563.941	6644.68
564.304	6646.49
564.666	6682.42
565.028	6745.47
565.39	6723.1
565.753	6739.6
566.115	6781.18
566.477	6807.39
566.839	6730.11
567.201	6881.06
567.563	6870.21
567.925	6898.24
568.287	6913.83
568.648	6946.82
569.01	6951.79
569.372	6957.44
569.734	6965.13
570.095	7069.08
570.457	7061.4
570.819	7113.15
571.18	7111.11
571.542	7209.87
571.903	7200.15
572.265	7216.87
572.626	7243.54
572.987	7365.12
573.349	7399.69
573.71	7401.95
574.071	7505.23
574.432	7523.08
574.794	7614.15
575.155	7667.03
575.516	7631.32
575.877	7742.51
576.238	7821.38
576.599	7928.04
576.96	7956.51
577.32	8010.75
577.681	8157.64
578.042	8232.66
578.403	8290.29
578.763	8364.64
579.124	8539.78
579.485	8609.6
579.845	8708.13
580.206	8806.89
580.566	8954
580.927	9130.04
581.287	9261.79
581.648	9362.13
582.008	9477.15
582.368	9633.08
582.728	9841.66
583.089	10003.69
583.449	10183.8
583.809	10408.2
584.169	10634.41
584.529	10722.54
584.889	11052.03
585.249	11209.99
585.609	11422.41
585.969	11656.08
586.329	11895.85
586.688	12173.58
587.048	12412.44
587.408	12644.75
587.768	12937.85
588.127	13219.88
588.487	13451.74
588.846	13823.03
589.206	13966.75
589.565	14339.4
589.925	14636.79
590.284	14985.48
590.643	15320.16
591.003	15653.26
591.362	16038.11
591.721	16381.6
592.08	16681.26
592.44	17114.47
592.799	17376.83
593.158	17685.98
593.517	18148.34
593.876	18425.39
594.235	18819.96
594.593	19203.9
594.952	19604.57
595.311	19883.21
595.67	20247.49
596.029	20666.69
596.387	21172.89
596.746	21514.58
597.104	21756.83
597.463	22065.75
597.822	22539.18
598.18	22813.75
598.538	23195.66
598.897	23785.48
599.255	23861.41
599.613	24691.89
599.972	24839.23
600.33	25182.28
600.688	25521.48
601.046	25970.73
601.404	26416.14
601.762	26689.35
602.12	27210.92
602.478	27498.6
602.836	27821.98
603.194	28038.7
603.552	28431.68
603.91	28583.09
604.268	29193.92
604.625	29314.14
604.983	29724.3
605.341	29956.84
605.698	30403.61
606.056	30851.73
606.413	31182.34
606.771	31508.44
607.128	31698.49
607.485	32003.79
607.843	32327.4
608.2	32765.35
608.557	33033.37
608.914	33125.57
609.272	33721.03
609.629	34001.7
609.986	34376.38
610.343	34494.35
610.7	34942.7
611.057	35114.22
611.414	35393.98
611.771	35670.81
612.127	35989.9
612.484	36231.48
612.841	36473.96
613.198	36574.74
613.554	36818.58
613.911	37247.5
614.267	37399.36
614.624	37578.33
614.98	37829.17
615.337	38167.25
615.693	38196.4
616.05	38341.7
616.406	38700.79
616.762	38825.98
617.118	39017.39
617.475	39188.24
617.831	39469.36
618.187	39702.35
618.543	39799.97
618.899	40253.52
619.255	40272.5
619.611	40403.34
619.967	40697.35
620.323	40815.09
620.678	40969.21
621.034	40981.41
621.39	41089.88
621.746	41065.7
622.101	41718.34
622.457	41481.28
622.812	41669.3
623.168	41891.21
623.523	41997.65
623.879	42245.1
624.234	41964.21
624.589	42161.49
624.945	42454.82
625.3	42574.81
625.655	42626.79
626.01	42640.35
626.365	42794.47
626.72	42833.56
627.075	42932.77
627.43	42982.71
627.785	43038.76
628.14	43274
628.495	43290.05
628.85	43317.84
629.205	43277.85
629.559	43679.42
629.914	43495.92
630.269	43616.82
630.623	43555.58
630.978	43536.6
631.332	43882.8
631.687	43836.02
632.041	43654.11
632.396	43808.23
632.75	43807.1
633.104	43849.13
633.459	43689.36
633.813	43796.48
634.167	43711.28
634.521	43912.63
634.875	44035.34
635.229	43848.9
635.583	43756.02
635.937	43798.96
636.291	43767.78
636.645	43869.24
636.999	43870.6
637.352	44003.48
637.706	43797.61
638.06	43965.28
638.413	43939.52
638.767	43908.79
639.121	43901.78
639.474	43875.57
639.828	43928.22
640.181	43843.25
640.534	43942.23
640.888	43913.99
641.241	43701.34
641.594	43797.38
641.947	43919.18
642.301	43794.44
642.654	43939.75
643.007	43852.07
643.36	43855.68
643.713	43902.46
644.066	44021.1
644.419	43515.8
644.771	43568.23
645.124	43117.17
645.477	43128.47
645.83	42830.63
646.182	42653.45
646.535	42693
646.888	42823.39
647.24	42520.58
647.593	42701.59
647.945	42629.05
648.298	42442.84
648.65	42405.33
649.002	42420.01
649.355	42585.21
649.707	42505.66
650.059	42668.14
650.411	43108.81
650.763	43163.72
651.115	43642.81
651.467	43501.34
651.819	43459.08
652.171	43438.74
652.523	43321.46
652.875	43417.95
653.227	43165.76
653.578	43631.28
653.93	43367.33
654.282	43276.26
654.633	43149.94
654.985	43255.25
655.337	43281.01
655.688	43292.31
656.039	43471.74
656.391	43062.48
656.742	43115.82
657.094	43118.3
657.445	43275.13
657.796	43074.46
658.147	43052.99
658.498	43054.57
658.849	43125.76
659.2	43068.36
659.551	43029.04
659.902	43151.97
660.253	43155.36
660.604	43216.83
660.955	42914.92
661.306	42898.87
661.656	43003.05
662.007	43055.25
662.358	42878.76
662.708	43000.79
663.059	42944.52
663.409	42700.23
663.76	43058.64
664.11	43069.71
664.461	43043.5
664.811	42900.45
665.161	42926.44
665.511	42786.78
665.862	42816.61
666.212	43140.45
666.562	42984.29
666.912	42902.71
667.262	42802.6
667.612	42975.48
667.962	42947.68
668.312	42883.51
668.662	43002.82
669.011	42832.89
669.361	42799.67
669.711	42866.33
670.06	42743.85
670.41	42649.16
670.76	42733.23
671.109	42893.22
671.459	42733.23
671.808	42706.56
672.157	42716.73
672.507	42564.64
672.856	42627.92
673.205	42652.78
673.554	42730.29
673.904	42541.37
674.253	42717.86
674.602	42575.26
674.951	42021.15
675.3	41862.52
675.649	42506.57
675.998	42483.74
676.346	42402.16
676.695	42624.75
677.044	42328.49
677.393	42458.88
677.741	42523.51
678.09	42363.97
678.438	42238.1
678.787	42419.79
679.135	42398.77
679.484	42115.39
679.832	42138.21
680.181	41980.25
680.529	42098.22
680.877	42009.4
681.225	41782.52
681.573	42213.24
681.922	41796.75
682.27	41865
682.618	41622.75
682.966	41574.61
683.314	41662.07
683.661	41678.11
684.009	41373.71
684.357	41450.32
684.705	41333.72
685.053	41396.99
685.4	41283.32
685.748	41015.98
686.095	41186.83
686.443	41064.8
686.79	41026.15
687.138	41061.18
687.485	41085.36
687.832	40822.32
688.18	40917.68
688.527	40627.52
688.874	40697.35
689.221	40495.32
689.568	40443.8
689.915	40458.26
690.262	40459.61
690.609	40375.55
690.956	40173.29
691.303	40181.66
691.65	40082.22
691.997	40004.03
692.344	39729.01
692.69	39702.57
693.037	39835.45
693.383	39467.32
693.73	39657.15
694.077	39415.57
694.423	39378.51
694.769	39297.38
695.116	39147.56
695.462	39002.25
695.808	39001.57
696.155	39113.89
696.501	38762.03
696.847	38797.74
697.193	38460.12
697.539	38596.84
697.885	38378.54
698.231	38312.55
698.577	38365.21
698.923	38186
699.269	38067.59
699.614	37835.5
699.96	37772.68
700.306	37908.95
700.651	37635.51
700.997	37483.2
701.342	37427.38
701.688	37461.5
702.033	37180.6
702.379	37302.86
702.724	37134.28
703.069	37252.92
703.415	36758.02
703.76	36960.5
704.105	36697
704.45	36702.2
704.795	36488.19
705.14	36441.19
705.485	36467.4
705.83	36297.92
706.175	36341.76
706.52	36150.35
706.865	36101.08
707.209	35960.07
707.554	35949.45
707.899	36075.32
708.243	35873.97
708.588	35747.87
708.932	35616.8
709.277	35527.99
709.621	35497.94
709.966	35393.98
710.31	35455.23
710.654	35146.99
710.998	35152.64
711.342	35190.15
711.687	35045.75
712.031	35057.27
712.375	34836.94
712.719	34911.06
713.063	34778.86
713.407	34931.4
713.75	34684.17
714.094	34616.6
714.438	34661.35
714.782	34519.88
715.125	34302.94
715.469	34491.18
715.812	34242.83
716.156	34078.99
716.499	34062.49
716.843	34150.18
717.186	33862.05
717.53	34015.72
717.873	34095.71
718.216	33931.42
718.559	33866.12
718.902	33476.75
719.246	33669.51
719.589	33665.44
719.932	33432.91
720.275	33541.6
720.617	33374.83
720.96	33304.32
721.303	33282.63
721.646	33279.01
721.989	33111.56
722.331	33134.16
722.674	32966.25
723.016	33201.95
723.359	33024.56
723.701	33060.03
724.044	32936.2
724.386	32713.6
724.729	32735.3
725.071	32804.22
725.413	32764
725.755	32656.88
726.097	32612.36
726.439	32354.06
726.782	32429.54
727.124	32482.65
727.465	32244.91
727.807	32422.54
728.149	32290.11
728.491	32186.84
728.833	32316.33
729.175	32099.83
729.516	32037.24
729.858	32080.63
730.199	32066.84
730.541	31867.98
730.882	31907.97
731.224	31907.07
731.565	31744.14
731.906	31633.86
732.248	31720.86
732.589	31494.65
732.93	31437.93
733.271	31436.12
733.612	31512.5
733.953	31605.38
734.294	31436.8
734.635	31334.66
734.976	31408.1
735.317	31289.69
735.658	31242.46
735.999	31174.89
736.339	31316.13
736.68	31224.83
737.021	30958.17
737.361	30893.31
737.702	31091.5
738.042	30996.81
738.383	30817.16
738.723	30816.93
739.063	30814.44
739.404	30849.47
739.744	30750.26
740.084	30563.6
740.424	30594.56
740.764	30610.16
741.104	30678.18
741.444	30389.37
741.784	30391.18
742.124	30544.85
742.464	30343.27
742.804	30391.18
743.143	30340.33
743.483	30213.78
743.823	30123.16
744.162	30174.91
744.502	30281.35
744.841	30051.3
745.181	30025.76
745.52	29962.71
745.86	29962.71
746.199	29908.03
746.538	29776.96
746.877	29963.17
747.216	29859.67
747.556	29667.36
747.895	29731.53
748.234	29637.53
748.573	29610.63
748.911	29513.69
749.25	29549.62
749.589	29421.49
749.928	29357.76
750.267	29507.81
750.605	29348.95
750.944	29180.81
751.283	29287.25
751.621	29251.55
751.96	29100.36
752.298	29041.84
752.636	29146.69
752.975	28965.91
753.313	28796.87
753.651	28896.53
753.989	28724.1
754.327	28663.54
754.666	28574.95
755.004	28616.31
755.342	28553.03
755.679	28569.31
756.017	28430.1
756.355	28436.2
756.693	28307.62
757.031	28325.24
757.368	28213.83
757.706	28174.74
758.044	28017.91
758.381	28123.22
758.719	28045.7
759.056	27943.79
759.394	27918.7
759.731	27814.3
760.068	27680.06
760.405	27562.33
760.743	27559.39
761.08	27681.19
761.417	27396.23
761.754	27270.13
762.091	27288.44
762.428	27153.75
762.765	27097.25
763.102	27090.47
763.438	26979.06
763.775	26812.52
764.112	26803.25
764.449	26846.64
764.785	26664.04
765.122	26613.42
765.458	26464.73
765.795	26502.47
766.131	26302.25
766.467	26310.61
766.804	26189.25
767.14	26040.78
767.476	25989.03
767.812	25913.56
768.148	25956.72
768.485	25735.03
768.821	25714.69
769.157	25623.17
769.492	25543.17
769.828	25499.1
770.164	25321.03
770.5	25248.04
770.836	25235.61
771.171	25050.08
771.507	24985.22
771.842	24793.81
772.178	24822.96
772.513	24806.01
772.849	24668.16
773.184	24575.29
773.519	24558.11
773.855	24460.26
774.19	24290.77
774.525	24306.37
774.86	24333.94
775.195	24142.08
775.53	24165.13
775.865	24000.61
776.2	23811.69
776.535	23645.37
776.87	23684.91
777.205	23619.6
777.539	23439.95
777.874	23522.88
778.209	23371.02
778.543	23337.8
778.878	23100.52
779.212	23129
779.547	22885.39
779.881	22978.49
780.215	22849.91
780.55	22752.28
780.884	22715.9
781.218	22640.2
781.552	22606.07
781.886	22469.35
782.22	22405.85
782.554	22267.32
782.888	22143.71
783.222	22066.88
783.556	22015.58
783.889	21848.8
784.223	21775.81
784.557	21752.08
784.89	21772.2
785.224	21596.38
785.557	21447.91
785.891	21391.87
786.224	21475.25
786.558	21415.14
786.891	21263.51
787.224	21102.16
787.557	21032.78
787.891	21126.34
788.224	21042.95
788.557	20940.35
788.89	20808.61
789.223	20770.64
789.556	20654.03
789.888	20727.25
790.221	20546.01
790.554	20431.44
790.887	20325.23
791.219	20367.49
791.552	20308.96
791.884	20107.83
792.217	20099.47
792.549	20105.12
792.882	19918.01
793.214	19881.62
793.546	19814.51
793.879	19781.74
794.211	19638.24
794.543	19605.47
794.875	19595.76
795.207	19595.98
795.539	19533.38
795.871	19366.84
796.203	19273.05
796.535	19242.54
796.867	19188.31
797.198	19071.02
797.53	19114.86
797.862	18936.56
798.193	19096.11
798.525	18888.88
798.856	18905.15
799.188	18691.37
799.519	18614.54
799.85	18497.03
800.182	18497.48
800.513	18521.43
800.844	18365.05
801.175	18485.05
801.506	18505.84
801.837	18262.68
802.168	18216.58
802.499	18164.61
802.83	18065.63
803.161	17940.43
803.491	18022.24
803.822	18043.03
804.153	17966.87
804.483	17841.23
804.814	17661.12
805.145	17689.82
805.475	17729.36
805.805	17676.26
806.136	17608.24
806.466	17592.87
806.796	17628.35
807.126	17382.48
807.457	17319.21
807.787	17360.33
808.117	17313.78
808.447	17150.4
808.777	17285.53
809.107	17177.06
809.436	17101.36
809.766	17111.75
810.096	17005.09
810.426	16972.1
810.755	17085.99
811.085	16982.94
811.414	16860.23
811.744	16751.31
812.073	16653.46
812.403	16695.04
812.732	16472.45
813.061	16656.4
813.39	16556.97
813.719	16432.9
814.049	16504.31
814.378	16453.01
814.707	16406.91
815.036	16314.03
815.365	16291.44
815.693	16142.06
816.022	16152.91
816.351	16145.23
816.68	16063.42
817.008	16108.62
817.337	15881.28
817.665	15913.59
817.994	15966.02
818.322	15872.46
818.651	15804.9
818.979	15761.96
819.307	15742.3
819.636	15774.16
819.964	15679.47
820.292	15714.95
820.62	15708.63
820.948	15670.66
821.276	15598.8
821.604	15647.84
821.932	15679.25
822.259	15646.48
822.587	15614.17
822.915	15608.97
823.243	15676.99
823.57	15477.22
823.898	15632.47
824.225	15510.89
824.553	15526.71
824.88	15478.58
825.207	15515.19
825.535	15477.22
825.862	15534.17
826.189	15487.62
826.516	15546.14
826.843	15622.53
827.17	15497.11
827.497	15620.04
827.824	15543.43
828.151	15552.25
828.478	15524
828.805	15560.38
829.131	15468.41
829.458	15447.39
829.785	15394.96
830.111	15412.14
830.438	15590.66
830.764	15495.52
831.09	15471.57
831.417	15479.03
831.743	15433.83
832.069	15431.12
832.395	15339.37
832.722	15418.46
833.048	15397
833.374	15325.59
833.7	15387.73
834.026	15298.69
834.351	15370.33
834.677	15335.3
835.003	15387.05
835.329	15278.13
835.654	15338.47
835.98	15217.79
836.306	15261.18
836.631	15223.67
836.956	15171.47
837.282	15164.91
837.607	15059.83
837.932	15118.36
838.258	15128.3
838.583	15039.04
838.908	14947.52
839.233	15005.37
839.558	14999.72
839.883	14940.51
840.208	14858.48
840.533	14912.26
840.858	14835.2
841.182	14886.95
841.507	14761.08
841.832	14800.4
842.156	14649.67
842.481	14708.65
842.805	14663.91
843.13	14581.88
843.454	14608.54
843.778	14517.47
844.103	14555.21
844.427	14489.9
844.751	14513.18
845.075	14416.46
845.399	14491.71
845.723	14362.9
846.047	14394.08
846.371	14257.59
846.695	14203.81
847.019	14102.79
847.343	14023.47
847.666	14086.07
847.99	13933.08
848.313	13853.53
848.637	13856.92
848.96	13882.01
849.284	13772.63
849.607	13644.73
849.931	13584.61
850.254	13551.17
850.577	13517.95
850.9	13410.61
851.223	13447.67
851.546	13317.28
851.869	13276.6
852.192	13272.76
852.515	13197.28
852.838	13071.86
853.161	13133.78
853.483	13035.93
853.806	12993.44
854.129	12989.6
854.451	12932.88
854.774	12869.38
855.096	12806.56
855.419	12803.17
855.741	12714.58
856.063	12674.36
856.385	12715.48
856.708	12686.79
857.03	12685.66
857.352	12533.34
857.674	12487.92
857.996	12431.65
858.318	12433.01
858.64	12418.09
858.961	12391.2
859.283	12307.81
859.605	12208.15
859.926	12255.84
860.248	12213.13
860.57	12194.37
860.891	12233.01
861.212	12138.32
861.534	12122.51
861.855	12077.99
862.176	12075.05
862.498	12027.14
862.819	12125.44
863.14	11923.87
863.461	11939.01
863.782	11884.09
864.103	11974.71
864.424	11814.72
864.745	11883.87
865.065	11850.42
865.386	11758.67
865.707	11711.44
866.027	11742.18
866.348	11802.51
866.668	11763.87
866.989	11722.74
867.309	11609.75
867.63	11641.84
867.95	11615.63
868.27	11606.59
868.59	11599.58
868.91	11562.52
869.23	11552.58
869.55	11494.73
869.87	11532.69
870.19	11510.32
870.51	11474.39
870.83	11521.39
871.15	11396.88
871.469	11392.58
871.789	11413.15
872.109	11389.87
872.428	11365.01
872.748	11390.55
873.067	11456.53
873.386	11308.52
873.706	11282.75
874.025	11291.34
874.344	11204.79
874.663	11237.11
874.982	11184.68
875.301	11183.32
875.62	11202.08
875.939	11118.92
876.258	11196.65
876.577	11016.55
876.896	11088.41
877.214	10994.63
877.533	11041.86
877.852	10970.9
878.17	10988.52
878.489	10922.54
878.807	11010.9
879.125	10989.65
879.444	11018.81
879.762	10896.78
880.08	10906.04
880.398	10846.16
880.716	10840.51
881.034	10789.89
881.352	10858.58
881.67	10764.35
881.988	10758.93
882.306	10727.51
882.624	10752.82
882.941	10660.62
883.259	10732.94
883.577	10608.65
883.894	10636.67
884.212	10645.03
884.529	10606.16
884.846	10568.2
885.164	10527.75
885.481	10506.73
885.798	10524.58
886.115	10369.56
886.432	10526.62
886.75	10376.79
887.067	10383.34
887.383	10367.52
887.7	10355.09
888.017	10222.9
888.334	10300.86
888.651	10170.69
888.967	10186.96
889.284	10184.93
889.6	10144.93
889.917	10107.42
890.233	10094.99
890.55	10043.01
890.866	10025.84
891.182	10017.93
891.498	10000.3
891.815	9897.71
892.131	9902.68
892.447	9925.5
892.763	9887.31
893.079	9829.69
893.395	9813.41
893.71	9765.96
894.026	9796.47
894.342	9763.25
894.657	9672.4
894.973	9629.46
895.289	9632.4
895.604	9651.16
895.92	9567.77
896.235	9609.8
896.55	9558.96
896.865	9503.82
897.181	9431.5
897.496	9425.4
897.811	9402.35
898.126	9342.24
898.441	9306.99
898.756	9255.46
899.071	9255.69
899.386	9219.76
899.7	9203.71
900.015	9161.45
900.33	9116.03
900.644	9043.49
900.959	9103.15
901.273	9034.68
901.588	8967.79
901.902	8947.67
902.216	8911.52
902.531	8901.35
902.845	8885.76
903.159	8833.1
903.473	8758.07
903.787	8821.12
904.101	8655.25
904.415	8677.4
904.729	8662.48
905.042	8622.26
905.356	8597.63
905.67	8552.88
905.984	8579.77
906.297	8512.21
906.611	8435.15
906.924	8454.58
907.237	8469.04
907.551	8423.85
907.864	8392.43
908.177	8368.03
908.491	8288.26
908.804	8236.96
909.117	8231.76
909.43	8220.24
909.743	8201.25
910.056	8115.61
910.368	8107.24
910.681	8076.96
910.994	8029.73
911.307	8003.97
911.619	7832
911.932	7976.63
912.244	7882.84
912.557	7823.18
912.869	7850.08
913.181	7874.48
913.494	7791.55
913.806	7678.78
914.118	7657.31
914.43	7667.48
914.742	7674.04
915.054	7603.98
915.366	7564.89
915.678	7502.06
915.99	7464.32
916.302	7523.98
916.613	7472.23
916.925	7405.79
917.236	7436.08
917.548	7355.63
917.859	7330.77
918.171	7269.98
918.482	7229.53
918.794	7244.22
919.105	7239.92
919.416	7120.38
919.727	7126.93
920.038	7129.42
920.349	7051.9
920.66	7126.48
920.971	7055.29
921.282	6957.22
921.593	6882.64
921.903	6887.84
922.214	6909.08
922.525	6859.14
922.835	6810.56
923.146	6827.05
923.456	6768.52
923.767	6731.24
924.077	6771.91
924.387	6700.28
924.697	6674.06
925.008	6648.98
925.318	6668.64
925.628	6698.69
925.938	6598.36
926.248	6497.12
926.558	6495.31
926.867	6474.97
927.177	6463.22
927.487	6405.14
927.796	6431.81
928.106	6311.81
928.416	6384.58
928.725	6306.39
929.034	6301.87
929.344	6234.75
929.653	6250.12
929.962	6209.67
930.271	6201.53
930.581	6138.26
930.89	6107.75
931.199	6104.13
931.508	6057.35
931.817	6066.62
932.125	6031.82
932.434	6007.19
932.743	5939.17
933.051	5917.25
933.36	5910.69
933.669	5804.93
933.977	5840.64
934.286	5853.07
934.594	5773.97
934.902	5759.28
935.21	5777.14
935.519	5701.66
935.827	5704.14
936.135	5700.75
936.443	5618.04
936.751	5570.36
937.059	5596.8
937.367	5561.55
937.674	5562.45
937.982	5559.74
938.29	5490.36
938.597	5521.55
938.905	5414.43
939.213	5403.13
939.52	5431.61
939.827	5411.95
940.135	5331.5
940.442	5372.4
940.749	5326.98
941.056	5316.13
941.363	5291.73
941.67	5239.98
941.977	5267.09
942.284	5163.59
942.591	5176.25
942.898	5157.72
943.205	5198.39
943.511	5152.29
943.818	5084.05
944.125	5034.33
944.431	5080.21
944.738	5066.42
945.044	4993.43
945.35	4970.83
945.657	4972.19
945.963	4920.44
946.269	4912.3
946.575	4894.9
946.881	4853.32
947.187	4848.12
947.493	4884.28
947.799	4861.68
948.105	4809.03
948.41	4763.38
948.716	4740.33
949.022	4769.25
949.327	4726.99
949.633	4689.93
949.938	4688.58
950.244	4627.56
950.549	4609.94
950.854	4632.08
951.16	4654.91
951.465	4579.2
951.77	4568.13
952.075	4495.59
952.38	4522.03
952.685	4480.45
952.99	4462.82
953.294	4431.41
953.599	4407.68
953.904	4377.17
954.209	4379.66
954.513	4376.04
954.818	4409.04
955.122	4298.31
955.426	4298.76
955.731	4293.11
956.035	4259.89
956.339	4251.3
956.643	4233.67
956.948	4181.02
957.252	4246.56
957.556	4207.69
957.86	4170.85
958.163	4163.39
958.467	4102.6
958.771	4106.22
959.075	4100.34
959.378	4083.4
959.682	4111.19
959.985	3981.93
960.289	3992.1
960.592	3969.73
960.896	4004.53
961.199	3996.17
961.502	3964.75
961.805	3972.21
962.108	3891.76
962.411	3930.41
962.714	3874.14
963.017	3876.4
963.32	3850.86
963.623	3825.55
963.926	3829.16
964.228	3781.71
964.531	3788.49
964.833	3745.78
965.136	3748.71
965.438	3749.39
965.741	3700.35
966.043	3709.85
966.345	3663.52
966.648	3644.08
966.95	3669.4
967.252	3661.71
967.554	3619.68
967.856	3590.3
968.158	3599.79
968.46	3600.47
968.761	3559.12
969.063	3538.78
969.365	3551.43
969.666	3508.04
969.968	3487.7
970.269	3464.43
970.571	3465.78
970.872	3479.57
971.174	3416.75
971.475	3437.31
971.776	3420.36
972.077	3385.33
972.378	3367.26
972.679	3354.38
972.98	3358.89
973.281	3329.74
973.582	3342.4
973.883	3316.41
974.183	3301.5
974.484	3254.94
974.785	3270.76
975.085	3247.03
975.386	3276.19
975.686	3235.06
975.986	3204.55
976.287	3150.99
976.587	3157.32
976.887	3115.51
977.187	3164.32
977.487	3139.24
977.787	3075.74
978.087	3065.12
978.387	3089.07
978.687	3072.12
978.987	3055.63
979.286	3032.58
979.586	3054.04
979.885	2988.28
980.185	3009.75
980.484	2941.28
980.784	3007.04
981.083	2963.2
981.382	2958.91
981.682	2938.79
981.981	2925.01
982.28	2927.27
982.579	2874.84
982.878	2920.94
983.177	2858.57
983.475	2872.13
983.774	2848.4
984.073	2849.08
984.372	2809.76
984.67	2808.63
984.969	2816.54
985.267	2790.77
985.566	2779.02
985.864	2757.78
986.162	2765.46
986.461	2746.48
986.759	2693.38
987.057	2682.53
987.355	2688.4
987.653	2717.56
987.951	2692.25
988.249	2696.77
988.547	2652.25
988.844	2669.65
989.142	2613.83
989.44	2640.27
989.737	2580.61
990.035	2614.06
990.332	2574.51
990.63	2562.08
990.927	2553.94
991.224	2532.25
991.521	2569.76
991.819	2516.43
992.116	2497.67
992.413	2476.66
992.71	2485.7
993.006	2475.75
993.303	2427.62
993.6	2434.4
993.897	2405.93
994.193	2430.33
994.49	2428.98
994.787	2422.2
995.083	2391.91
995.379	2357.79
995.676	2368.41
995.972	2377
996.268	2332.03
996.565	2349.43
996.861	2334.51
997.157	2313.5
997.453	2295.87
997.749	2296.1
998.044	2281.41
998.34	2273.73
998.636	2284.8
998.932	2286.83
999.227	2221.3
999.523	2211.13
999.818	2211.13
1000.114	2198.93
1000.409	2196.67
1000.704	2160.73
1001	2176.1
1001.295	2179.26
1001.59	2122.77
1001.885	2118.02
1002.18	2114.63
1002.475	2102.88
1002.77	2074.86
1003.065	2093.84
1003.359	2087.52
1003.654	2032.83
1003.949	2041.19
1004.243	2050.45
1004.538	1994.41
1004.832	2016.11
1005.127	1995.77
1005.421	1987.18
1005.715	1969.1
1006.009	1974.52
1006.304	1956.22
1006.598	1937.24
1006.892	1916.67
1007.186	1919.61
1007.48	1916.9
1007.773	1911.93
1008.067	1893.17
1008.361	1852.27
1008.655	1854.3
1008.948	1874.64
1009.242	1863.11
1009.535	1856.11
1009.829	1832.16
1010.122	1814.53
1010.415	1818.37
1010.708	1774.3
1011.001	1798.26
1011.295	1785.83
1011.588	1785.6
1011.881	1736.34
1012.173	1760.74
1012.466	1758.94
1012.759	1741.99
1013.052	1729.79
1013.344	1724.59
1013.637	1694.31
1013.93	1701.99
1014.222	1701.76
1014.514	1670.13
1014.807	1663.12
1015.099	1637.58
1015.391	1649.56
1015.683	1616.12
1015.976	1600.3
1016.268	1580.41
1016.56	1602.33
1016.851	1578.83
1017.143	1589.9
1017.435	1593.07
1017.727	1560.07
1018.018	1531.15
1018.31	1541.54
1018.602	1518.72
1018.893	1517.59
1019.185	1512.39
1019.476	1493.86
1019.767	1503.58
1020.058	1485.27
1020.35	1461.77
1020.641	1476.68
1020.932	1478.94
1021.223	1449.34
1021.514	1443.92
1021.804	1427.42
1022.095	1429
1022.386	1410.7
1022.677	1405.5
1022.967	1412.05
1023.258	1378.61
1023.548	1372.51
1023.839	1375.44
1024.129	1341.09
1024.419	1359.85
1024.709	1350.36
1025	1347.42
1025.29	1337.25
1025.58	1316.69
1025.87	1306.97
1026.16	1294.77
1026.449	1276.24
1026.739	1292.51
1027.029	1281.44
1027.319	1270.81
1027.608	1279.63
1027.898	1246.18
1028.187	1250.48
1028.477	1222.45
1028.766	1222.68
1029.055	1193.3
1029.344	1225.39
1029.634	1217.93
1029.923	1181.32
1030.212	1183.58
1030.501	1194.43
1030.79	1153.75
1031.078	1175.68
1031.367	1139.29
1031.656	1159.18
1031.945	1116.02
1032.233	1092.51
1032.522	1133.42
1032.81	1118.73
1033.099	1096.81
1033.387	1092.97
1033.675	1096.81
1033.963	1040.99
1034.251	1085.96
1034.54	1057.49
1034.828	1060.88
1035.116	1017.26
1035.403	1021.56
1035.691	1060.42
1035.979	1027.43
1036.267	1015.23
1036.554	1042.8
1036.842	1013.19
1037.129	1015.45
1037.417	1012.97
1037.704	1008.67
1037.992	1002.35
1038.279	999.18
1038.566	986.3
1038.853	986.3
1039.14	986.3
