Data from hue_170_FLMS001491_00044.txt Node
Date: Tue Feb 07 16:48:44 GMT 2017
User: dcchb
Spectrometer: FLMS00149
Trigger mode: 0
Integration Time (sec): 2.000000E-2
Scans to average: 10
Electric dark correction enabled: true
Nonlinearity correction enabled: false
Boxcar width: 0
XAxis mode: Wavelengths
Number of Pixels in Spectrum: 2048
>>>>>Begin Spectral Data<<<<<
341.393	-14.29
341.776	-14.29
342.16	-14.29
342.543	-62.88
342.927	-91.81
343.31	-68.3
343.693	-84.35
344.077	-55.2
344.46	-58.13
344.843	-61.98
345.226	-32.6
345.61	-33.73
345.993	-18.81
346.376	-8.64
346.759	29.77
347.142	12.82
347.525	45.82
347.908	57.8
348.291	75.65
348.674	88.53
349.057	111.35
349.44	128.75
349.823	150
350.206	163.56
350.588	202.88
350.971	217.34
351.354	213.05
351.737	246.26
352.119	243.55
352.502	259.15
352.884	283.78
353.267	297.34
353.65	281.29
354.032	321.52
354.414	328.07
354.797	304.79
355.179	324
355.562	307.96
355.944	324.91
356.326	359.03
356.709	337.79
357.091	339.37
357.473	331.69
357.855	336.66
358.238	359.93
358.62	364.68
359.002	358.58
359.384	341.86
359.766	348.41
360.148	331.91
360.53	339.14
360.912	324.68
361.294	345.92
361.676	334.17
362.057	324.68
362.439	366.04
362.821	323.32
363.203	327.39
363.584	322.19
363.966	325.81
364.348	321.74
364.729	330.33
365.111	328.75
365.493	320.16
365.874	323.55
366.256	315.42
366.637	336.66
367.019	278.13
367.4	301.86
367.781	316.09
368.163	305.7
368.544	344.57
368.925	317.9
369.306	328.52
369.688	308.41
370.069	303.44
370.45	315.19
370.831	312.7
371.212	289.88
371.593	302.53
371.974	312.48
372.355	304.57
372.736	324.91
373.117	339.6
373.498	330.33
373.879	320.84
374.26	315.64
374.641	319.03
375.021	312.7
375.402	309.54
375.783	334.62
376.163	338.47
376.544	335.53
376.925	345.7
377.305	357.22
377.686	327.62
378.066	337.34
378.447	321.07
378.827	341.63
379.208	328.97
379.588	326.94
379.968	325.13
380.349	338.92
380.729	349.31
381.109	349.31
381.489	354.06
381.87	321.52
382.25	337.34
382.63	354.51
383.01	346.38
383.39	343.66
383.77	346.6
384.15	342.99
384.53	362.65
384.91	363.32
385.29	345.25
385.67	352.93
386.049	364.68
386.429	351.57
386.809	348.63
387.189	344.57
387.568	378.69
387.948	380.72
388.328	372.82
388.707	358.13
389.087	380.05
389.466	358.35
389.846	371.01
390.225	380.95
390.605	383.21
390.984	366.26
391.363	393.83
391.743	361.74
392.122	375.07
392.501	371.91
392.881	376.2
393.26	383.89
393.639	378.92
394.018	375.53
394.397	387.05
394.776	378.01
395.155	394.51
395.534	417.56
395.913	379.82
396.292	399.71
396.671	389.54
397.05	383.66
397.429	416.66
397.808	406.49
398.186	408.07
398.565	386.15
398.944	395.19
399.323	396.32
399.701	401.74
400.08	415.3
400.458	417.11
400.837	393.15
401.215	426.37
401.594	432.93
401.972	422.98
402.351	424.34
402.729	432.7
403.107	438.58
403.486	446.71
403.864	441.06
404.242	434.96
404.62	446.94
404.999	430.44
405.377	436.54
405.755	452.36
406.133	429.31
406.511	457.11
406.889	475.41
407.267	456.2
407.645	436.77
408.023	449.2
408.401	490.78
408.779	485.58
409.156	495.98
409.534	492.59
409.912	487.39
410.29	486.48
410.667	521.06
411.045	503.89
411.422	490.78
411.8	499.82
412.178	493.49
412.555	552.02
412.933	545.47
413.31	525.58
413.687	540.95
414.065	549.31
414.442	550.89
414.819	559.93
415.197	552.02
415.574	581.62
415.951	586.82
416.328	567.39
416.705	581.17
417.082	590.89
417.46	612.36
417.837	591.79
418.214	607.61
418.591	602.19
418.967	608.52
419.344	617.33
419.721	635.41
420.098	638.34
420.475	634.73
420.852	639.93
421.228	656.88
421.605	650.55
421.982	643.09
422.358	669.76
422.735	680.38
423.111	671.79
423.488	683.09
423.864	688.96
424.241	696.87
424.617	701.17
424.994	697.1
425.37	718.34
425.746	708.63
426.123	735.29
426.499	724.67
426.875	744.78
427.251	764.44
427.627	763.31
428.003	778.23
428.379	773.03
428.756	751.56
429.132	792.01
429.507	793.37
429.883	800.6
430.259	807.38
430.635	818
431.011	813.71
431.387	844.67
431.763	836.08
432.138	859.36
432.514	867.27
432.89	868.85
433.265	872.91
433.641	912.01
434.016	923.76
434.392	912.91
434.767	942.52
435.143	928.05
435.518	945
435.894	945.46
436.269	978.22
436.644	997.21
437.02	993.59
437.395	984.32
437.77	1011.67
438.145	1035.85
438.52	1044.66
438.895	1036.3
439.271	1048.28
439.646	1082.4
440.021	1080.37
440.395	1083.98
440.77	1097.09
441.145	1099.12
441.52	1126.92
441.895	1140.48
442.27	1138.44
442.645	1170.08
443.019	1180.03
443.394	1176.41
443.769	1171.21
444.143	1193.13
444.518	1219.12
444.892	1178.67
445.267	1208.95
445.641	1254.6
446.016	1237.65
446.39	1250.08
446.764	1253.7
447.139	1245.11
447.513	1297.99
447.887	1274.49
448.262	1277.65
448.636	1302.73
449.01	1320.59
449.384	1330.98
449.758	1332.56
450.132	1359.23
450.506	1337.54
450.88	1396.97
451.254	1345.9
451.628	1387.7
452.002	1411.88
452.376	1436.97
452.75	1459.34
453.123	1434.93
453.497	1474.48
453.871	1490.98
454.244	1503.18
454.618	1511.09
454.992	1538.66
455.365	1542.95
455.739	1590.64
456.112	1595.16
456.486	1625.44
456.859	1613.46
457.232	1627.7
457.606	1639.9
457.979	1660.69
458.352	1731.42
458.725	1712.44
459.099	1765.77
459.472	1774.36
459.845	1789.95
460.218	1814.81
460.591	1831.31
460.964	1849.39
461.337	1859.56
461.71	1921.93
462.083	1942.72
462.456	1932.32
462.829	1960.8
463.201	2013.45
463.574	2032.21
463.947	2024.52
464.32	2095.48
464.692	2082.6
465.065	2144.97
465.438	2166.44
465.81	2209.38
466.183	2207.34
466.555	2268.81
466.928	2248.02
467.3	2324.85
467.672	2360.33
468.045	2405.3
468.417	2410.28
468.789	2491.4
469.161	2516.49
469.534	2571.85
469.906	2636.26
470.278	2647.11
470.65	2660.89
471.022	2701.12
471.394	2789.02
471.766	2819.53
472.138	2884.61
472.51	2940.88
472.882	3027.66
473.253	3030.82
473.625	3139.97
473.997	3191.27
474.369	3193.76
474.74	3266.3
475.112	3367.54
475.484	3427.42
475.855	3505.39
476.227	3531.38
476.598	3623.58
476.97	3705.83
477.341	3766.4
477.713	3881.42
478.084	3941.53
478.455	4061.08
478.827	4139.27
479.198	4283.67
479.569	4270.34
479.94	4408.19
480.311	4471.01
480.682	4625.58
481.053	4726.6
481.424	4850.44
481.795	4933.15
482.166	5035.52
482.537	5174.04
482.908	5261.73
483.279	5348.28
483.65	5512.79
484.021	5624.88
484.391	5727.7
484.762	5820.58
485.133	5914.36
485.503	6057.86
485.874	6216.73
486.244	6347.8
486.615	6420.79
486.985	6585.08
487.356	6683.38
487.726	6805.87
488.097	6983.04
488.467	7042.02
488.837	7244.27
489.207	7385.06
489.578	7521.55
489.948	7635.9
490.318	7745.28
490.688	7789.8
491.058	8046.06
491.428	8198.82
491.798	8277.24
492.168	8448.08
492.538	8511.81
492.908	8667.06
493.278	8819.6
493.648	8840.39
494.017	8996.77
494.387	9164.22
494.757	9275.86
495.126	9354.5
495.496	9416.65
495.866	9623.87
496.235	9639.01
496.605	9703.19
496.974	9841.72
497.344	9959.46
497.713	9995.84
498.082	10192.67
498.452	10242.16
498.821	10316.96
499.19	10372.1
499.559	10477.86
499.928	10658.19
500.298	10678.98
500.667	10730.96
501.036	10741.36
501.405	10899.32
501.774	10937.74
502.143	11025.19
502.512	11111.52
502.88	11185.64
503.249	11180.67
503.618	11318.06
503.987	11279.87
504.356	11361.9
504.724	11458.4
505.093	11536.59
505.462	11550.15
505.83	11571.16
506.199	11756.92
506.567	11863.13
506.936	11837.37
507.304	11889.12
507.672	11877.6
508.041	11989.91
508.409	12051.83
508.777	12197.36
509.145	12259.73
509.514	12271.71
509.882	12269.9
510.25	12276.91
510.618	12403.23
510.986	12364.82
511.354	12543.12
511.722	12555.77
512.09	12631.02
512.458	12603.23
512.826	12688.88
513.193	12712.15
513.561	12739.95
513.929	12880.06
514.297	12864.69
514.664	12945.14
515.032	12931.35
515.4	13027.4
515.767	13019.94
516.135	13002.09
516.502	12940.85
516.869	13217.68
517.237	13142.42
517.604	13028.3
517.972	13209.54
518.339	13240.05
518.706	13183.1
519.073	13253.61
519.44	13363.89
519.808	13360.04
520.175	13330.89
520.542	13398.69
520.909	13520.94
521.276	13441.85
521.643	13500.61
522.009	13565.46
522.376	13571.56
522.743	13636.42
523.11	13677.32
523.477	13753.03
523.843	13767.72
524.21	13788.96
524.577	13845
524.943	13789.86
525.31	13864.89
525.676	13994.6
526.043	13936.98
526.409	13897.66
526.776	14083.19
527.142	13940.82
527.508	14013.81
527.874	14085.9
528.241	14034.15
528.607	14087.48
528.973	14132.68
529.339	14030.31
529.705	14219.68
530.071	14250.42
530.437	14150.76
530.803	14173.58
531.169	14117.54
531.535	14095.39
531.901	14124.32
532.267	14095.62
532.632	14071.44
532.998	14112.34
533.364	14087.93
533.73	14111.44
534.095	14202.96
534.461	14047.48
534.826	14072.12
535.192	14049.29
535.557	14095.62
535.923	13985.79
536.288	13956.19
536.653	13951.89
537.019	13927.71
537.384	13873.48
537.749	13863.99
538.114	13870.31
538.479	13760.03
538.845	13884.1
539.21	13729.07
539.575	13812.46
539.94	13577.67
540.305	13706.7
540.67	13699.24
541.034	13671.45
541.399	13660.83
541.764	13524.11
542.129	13614.95
542.494	13458.57
542.858	13399.14
543.223	13472.36
543.587	13444.56
543.952	13392.36
544.316	13338.12
544.681	13285.24
545.045	13325.69
545.41	13268.52
545.774	13244.34
546.138	13193.95
546.503	13195.75
546.867	13070.79
547.231	13235.75
547.595	13128.41
547.959	13049.32
548.324	12997.57
548.688	12984.91
549.052	12998.02
549.416	12928.42
549.779	12801.41
550.143	12805.71
550.507	12901.75
550.871	12760.74
551.235	12751.25
551.599	12786.73
551.962	12689.55
552.326	12676.45
552.689	12684.81
553.053	12637.8
553.417	12612.27
553.78	12689.33
554.143	12510.8
554.507	12563
554.87	12543.57
555.234	12593.06
555.597	12483.46
555.96	12495.89
556.323	12487.98
556.686	12495.43
557.05	12481.88
557.413	12500.63
557.776	12450.92
558.139	12421.31
558.502	12354.19
558.865	12401.65
559.228	12443.46
559.59	12422.22
559.953	12389.67
560.316	12464.25
560.679	12409.56
561.041	12449.33
561.404	12441.88
561.767	12517.81
562.129	12378.15
562.492	12389
562.854	12416.34
563.217	12338.83
563.579	12402.1
563.941	12444.81
564.304	12465.6
564.666	12464.25
565.028	12534.08
565.39	12534.53
565.753	12538.37
566.115	12534.08
566.477	12516.9
566.839	12455.89
567.201	12553.06
567.563	12551.48
567.925	12549.22
568.287	12619.95
568.648	12553.51
569.01	12586.05
569.372	12609.78
569.734	12558.71
570.095	12636.45
570.457	12682.32
570.819	12674.86
571.18	12646.62
571.542	12713.96
571.903	12674.19
572.265	12716.9
572.626	12678.48
572.987	12719.16
573.349	12751.25
573.71	12753.73
574.071	12753.28
574.432	12716.22
574.794	12809.1
575.155	12787.63
575.516	12723.68
575.877	12797.35
576.238	12782.66
576.599	12785.14
576.96	12790.12
577.32	12777.91
577.681	12836.22
578.042	12885.03
578.403	12775.65
578.763	12842.77
579.124	12822.66
579.485	12882.09
579.845	12799.15
580.206	12793.73
580.566	12778.82
580.927	12778.82
581.287	12880.73
581.648	12802.32
582.008	12815.88
582.368	12760.29
582.728	12809.1
583.089	12765.94
583.449	12823.11
583.809	12747.86
584.169	12796.67
584.529	12818.82
584.889	12850
585.249	12739.5
585.609	12661.53
585.969	12721.19
586.329	12719.84
586.688	12700.63
587.048	12680.97
587.408	12621.53
587.768	12633.28
588.127	12638.93
588.487	12642.77
588.846	12731.59
589.206	12621.98
589.565	12678.71
589.925	12586.05
590.284	12622.44
590.643	12582.89
591.003	12635.09
591.362	12695.88
591.721	12576.34
592.08	12564.81
592.44	12562.33
592.799	12582.89
593.158	12576.79
593.517	12584.25
593.876	12591.93
594.235	12547.86
594.593	12548.77
594.952	12519.61
595.311	12506.28
595.67	12505.15
596.029	12602.78
596.387	12600.97
596.746	12575.88
597.104	12524.36
597.463	12455.21
597.822	12488.88
598.18	12436.45
598.538	12481.65
598.897	12550.57
599.255	12398.71
599.613	12579.5
599.972	12551.03
600.33	12526.17
600.688	12496.79
601.046	12524.36
601.404	12512.16
601.762	12456.79
602.12	12543.57
602.478	12475.55
602.836	12506.06
603.194	12437.36
603.552	12471.03
603.91	12395.78
604.268	12523.91
604.625	12410.46
604.983	12454.76
605.341	12460.63
605.698	12465.15
606.056	12414.53
606.413	12533.4
606.771	12503.57
607.128	12553.29
607.485	12485.94
607.843	12436
608.2	12554.42
608.557	12586.51
608.914	12586.05
609.272	12574.75
609.629	12632.38
609.986	12602.55
610.343	12540.4
610.7	12625.37
611.057	12660.18
611.414	12597.8
611.771	12575.21
612.127	12609.78
612.484	12599.16
612.841	12709.21
613.198	12614.53
613.554	12570.23
613.911	12711.25
614.267	12710.8
614.624	12732.94
614.98	12664.7
615.337	12730.68
615.693	12756.67
616.05	12733.62
616.406	12790.12
616.762	12764.58
617.118	12772.26
617.475	12706.95
617.831	12753.05
618.187	12772.72
618.543	12828.98
618.899	12874.63
619.255	12749.66
619.611	12717.12
619.967	12826.72
620.323	12783.56
620.678	12804.13
621.034	12744.02
621.39	12875.31
621.746	12839.83
622.101	12846.39
622.457	12783.56
622.812	12823.34
623.168	12917.8
623.523	12728.2
623.879	12914.86
624.234	12766.61
624.589	12830.34
624.945	12858.36
625.3	12854.97
625.655	12830.34
626.01	12864.46
626.365	12862.66
626.72	12806.16
627.075	12882.09
627.43	12782.88
627.785	12821.08
628.14	12808.87
628.495	12812.71
628.85	12788.08
629.205	12685.49
629.559	12794.41
629.914	12752.6
630.269	12704.92
630.623	12713.73
630.978	12575.21
631.332	12790.57
631.687	12771.59
632.041	12651.36
632.396	12712.15
632.75	12534.98
633.104	12705.6
633.459	12611.82
633.813	12618.82
634.167	12548.09
634.521	12612.49
634.875	12632.15
635.229	12534.3
635.583	12500.63
635.937	12519.61
636.291	12443.68
636.645	12472.61
636.999	12436
637.352	12471.03
637.706	12403.23
638.06	12436.9
638.413	12435.32
638.767	12310.58
639.121	12439.39
639.474	12357.36
639.828	12280.75
640.181	12310.58
640.534	12366.17
640.888	12294.54
641.241	12253.41
641.594	12310.58
641.947	12391.48
642.301	12291.15
642.654	12285.27
643.007	12271.71
643.36	12263.58
643.713	12231.26
644.066	12285.27
644.419	12180.64
644.771	12195.1
645.124	12112.62
645.477	12023.13
645.83	11927.99
646.182	11859.74
646.535	11869.24
646.888	11852.29
647.24	11809.35
647.593	11846.19
647.945	11898.16
648.298	11859.97
648.65	11800.31
649.002	11772.74
649.355	11814.55
649.707	11836.02
650.059	11842.34
650.411	12055.9
650.763	12022.45
651.115	12177.02
651.467	12116.69
651.819	12092.05
652.171	12121.21
652.523	12097.48
652.875	12058.61
653.227	11989.68
653.578	12121.88
653.93	12021.32
654.282	12007.76
654.633	11993.75
654.985	12019.51
655.337	12029.68
655.688	12047.99
656.039	12088.44
656.391	12052.51
656.742	12047.99
657.094	12061.1
657.445	12087.08
657.796	12069
658.147	12064.94
658.498	11972.06
658.849	12125.27
659.2	12072.39
659.551	12034.2
659.902	12056.58
660.253	12038.05
660.604	12049.57
660.955	12031.04
661.306	12108.33
661.656	12090.93
662.007	12054.09
662.358	12015.45
662.708	12123.69
663.059	12068.33
663.409	12024.71
663.76	12109.46
664.11	12097.7
664.461	12106.07
664.811	12069.68
665.161	12129.34
665.511	12085.05
665.862	12063.36
666.212	12110.36
666.562	12132.96
666.912	12126.63
667.262	12021.77
667.612	12137.7
667.962	12139.51
668.312	12120.53
668.662	12152.39
669.011	12002.34
669.361	12164.14
669.711	12026.07
670.06	12032.62
670.41	12009.57
670.76	12096.8
671.109	12087.76
671.459	12117.59
671.808	12023.81
672.157	12109.68
672.507	11983.58
672.856	12067.65
673.205	12047.08
673.554	12070.36
673.904	12038.27
674.253	12020.19
674.602	12022.9
674.951	11818.16
675.3	11741.1
675.649	11984.26
675.998	11835.56
676.346	11913.3
676.695	11965.28
677.044	11836.92
677.393	11932.74
677.741	11894.09
678.09	11866.52
678.438	11864.04
678.787	11877.82
679.135	11892.29
679.484	11758.73
679.832	11840.99
680.181	11809.8
680.529	11798.73
680.877	11759.18
681.225	11727.32
681.573	11828.56
681.922	11680.54
682.27	11596.7
682.618	11645.51
682.966	11585.63
683.314	11629.47
683.661	11591.5
684.009	11588.57
684.357	11527.1
684.705	11506.31
685.053	11550.15
685.4	11481.68
685.748	11472.18
686.095	11386.54
686.443	11348.12
686.79	11316.03
687.138	11334.56
687.485	11292.3
687.832	11319.42
688.18	11259.76
688.527	11215.69
688.874	11183.38
689.221	11165.53
689.568	11130.72
689.915	11096.83
690.262	11000.56
690.609	10994.68
690.956	10994
691.303	10876.49
691.65	10891.41
691.997	10909.94
692.344	10811.86
692.69	10878.53
693.037	10740
693.383	10715.14
693.73	10704.97
694.077	10705.2
694.423	10650.51
694.769	10598.31
695.116	10575.94
695.462	10563.73
695.808	10542.94
696.155	10558.31
696.501	10469.5
696.847	10508.14
697.193	10370.97
697.539	10429.5
697.885	10359.22
698.231	10279.67
698.577	10294.81
698.923	10217.08
699.269	10179.56
699.614	10102.05
699.96	10086.68
700.306	10120.81
700.651	10006.69
700.997	9969.62
701.342	10012.56
701.688	9947.48
702.033	9890.98
702.379	9918.55
702.724	9803.75
703.069	9909.51
703.415	9665.68
703.76	9758.11
704.105	9764.21
704.45	9704.32
704.795	9634.04
705.14	9605.11
705.485	9513.37
705.83	9561.95
706.175	9598.56
706.52	9541.84
706.865	9469.98
707.209	9455.51
707.554	9402.63
707.899	9434.5
708.243	9356.31
708.588	9326.48
708.932	9316.76
709.277	9260.49
709.621	9233.83
709.966	9198.57
710.31	9255.07
710.654	9136.2
710.998	9225.46
711.342	9157.89
711.687	9098.01
712.031	9068.18
712.375	9043.32
712.719	9002.42
713.063	9073.6
713.407	9061.85
713.75	8999.03
714.094	8982.53
714.438	8927.17
714.782	9015.75
715.125	8943.21
715.469	8939.82
715.812	8854.85
716.156	8852.59
716.499	8897.79
716.843	8921.97
717.186	8811.24
717.53	8835.87
717.873	8798.13
718.216	8812.59
718.559	8701.18
718.902	8717.68
719.246	8725.14
719.589	8679.26
719.932	8674.97
720.275	8672.71
720.617	8681.98
720.96	8644.46
721.303	8703.44
721.646	8662.77
721.989	8609.66
722.331	8650.79
722.674	8631.81
723.016	8648.53
723.359	8562.2
723.701	8613.05
724.044	8531.47
724.386	8525.82
724.729	8591.36
725.071	8566.72
725.413	8560.85
725.755	8554.97
726.097	8567.18
726.439	8468.65
726.782	8487.4
727.124	8530.79
727.465	8530.34
727.807	8488.99
728.149	8508.42
728.491	8427.74
728.833	8514.3
729.175	8435.88
729.516	8473.62
729.858	8486.05
730.199	8487.86
730.541	8465.03
730.882	8471.36
731.224	8500.51
731.565	8440.63
731.906	8438.14
732.248	8431.13
732.589	8412.6
732.93	8412.38
733.271	8477.91
733.612	8470.91
733.953	8472.26
734.294	8393.4
734.635	8405.15
734.976	8477.46
735.317	8420.51
735.658	8424.13
735.999	8402.21
736.339	8402.66
736.68	8504.58
737.021	8413.73
737.361	8452.15
737.702	8468.2
738.042	8464.58
738.383	8466.16
738.723	8521.08
739.063	8501.19
739.404	8542.54
739.744	8471.13
740.084	8470.91
740.424	8451.02
740.764	8479.72
741.104	8568.08
741.444	8605.82
741.784	8544.13
742.124	8562.43
742.464	8564.24
742.804	8536.89
743.143	8597.46
743.483	8635.65
743.823	8599.04
744.162	8615.99
744.502	8680.85
744.841	8775.76
745.181	8821.86
745.52	8765.36
745.86	8781.86
746.199	8869.09
746.538	8853.72
746.877	8969.88
747.216	8952.48
747.556	9059.82
747.895	9068.18
748.234	9085.58
748.573	9127.61
748.911	9227.27
749.25	9283.77
749.589	9309.08
749.928	9439.92
750.267	9442.63
750.605	9558.56
750.944	9596.75
751.283	9588.39
751.621	9709.74
751.96	9819.12
752.298	9895.95
752.636	10001.49
752.975	10095.72
753.313	10119.9
753.651	10308.37
753.989	10394.7
754.327	10410.74
754.666	10523.06
755.004	10677.4
755.342	10826.78
755.679	11012.08
756.017	10994.23
756.355	11220.67
756.693	11379.98
757.031	11442.81
757.368	11575.68
757.706	11733.87
758.044	11815.45
758.381	11991.27
758.719	12158.72
759.056	12351.71
759.394	12511.03
759.731	12558.26
760.068	12779.27
760.405	12856.78
760.743	13029.66
761.08	13248.18
761.417	13379.48
761.754	13545.35
762.091	13722.29
762.428	13929.52
762.765	13934.94
763.102	14166.12
763.438	14257.87
763.775	14434.37
764.112	14686.79
764.449	14833.45
764.785	14991.64
765.122	15092.2
765.458	15251.07
765.795	15315.7
766.131	15505.3
766.467	15680.44
766.804	15709.13
767.14	15974.89
767.476	16129.01
767.812	16174.21
768.148	16319.29
768.485	16394.09
768.821	16546.85
769.157	16633.86
769.492	16757.69
769.828	16995.88
770.164	16982.32
770.5	17062.32
770.836	17206.72
771.171	17349.77
771.507	17394.51
771.842	17435.42
772.178	17525.58
772.513	17708.63
772.849	17781.85
773.184	17732.58
773.519	17931.45
773.855	17980.71
774.19	18065.91
774.525	18113.14
774.86	18168.05
775.195	18276.3
775.53	18204.44
775.865	18202.85
776.2	18299.58
776.535	18227.49
776.87	18308.16
777.205	18487.14
777.539	18439.91
777.874	18493.24
778.209	18479.46
778.543	18477.42
778.878	18480.14
779.212	18594.93
779.547	18592.22
779.881	18693.92
780.215	18466.35
780.55	18750.41
780.884	18666.35
781.218	18739.56
781.552	18647.59
781.886	18666.35
782.22	18561.26
782.554	18728.49
782.888	18584.54
783.222	18484.2
783.556	18574.82
783.889	18588.16
784.223	18559.23
784.557	18555.16
784.89	18507.25
785.224	18459.12
785.557	18429.97
785.891	18458.44
786.224	18445.79
786.558	18474.49
786.891	18397.88
787.224	18445.33
787.557	18333.92
787.891	18366.69
788.224	18448.95
788.557	18324.43
788.89	18317.2
789.223	18389.29
789.556	18274.72
789.888	18297.09
790.221	18206.7
790.554	18089.86
790.887	18150.2
791.219	18048.51
791.552	17977.1
791.884	18024.78
792.217	17988.4
792.549	17927.16
792.882	17799.02
793.214	17807.61
793.546	17938.45
793.879	17781.17
794.211	17730.78
794.543	17759.25
794.875	17702.3
795.207	17739.82
795.539	17672.93
795.871	17682.42
796.203	17525.81
796.535	17539.6
796.867	17434.74
797.198	17480.61
797.53	17472.25
797.862	17336.66
798.193	17419.82
798.525	17259.83
798.856	17335.53
799.188	17138.93
799.519	17077.69
799.85	17026.84
800.182	17027.29
800.513	17056.44
800.844	16924.47
801.175	17128.08
801.506	16971.02
801.837	16823.91
802.168	16840.63
802.499	16813.74
802.83	16718.83
803.161	16691.71
803.491	16748.43
803.822	16722.44
804.153	16626.62
804.483	16484.26
804.814	16446.74
805.145	16398.38
805.475	16421.21
805.805	16353.19
806.136	16429.79
806.466	16456.46
806.796	16343.24
807.126	16293.53
807.457	16224.38
807.787	16191.83
808.117	16163.59
808.447	16137.6
808.777	16178.73
809.107	16049.69
809.436	15960.88
809.766	16018.73
810.096	15967.43
810.426	15919.07
810.755	16031.61
811.085	15815.8
811.414	15909.36
811.744	15800.21
812.073	15675.24
812.403	15740.77
812.732	15744.61
813.061	15594.79
813.39	15635.69
813.719	15544.17
814.049	15725.86
814.378	15557.95
814.707	15646.99
815.036	15507.56
815.365	15450.38
815.693	15384.62
816.022	15461.46
816.351	15369.71
816.68	15243.61
817.008	15304.17
817.337	15122.03
817.665	15098.76
817.994	15205.42
818.322	15170.17
818.651	15120
818.979	14983.73
819.307	15161.8
819.636	15119.32
819.964	14995.93
820.292	15013.56
820.62	15024.63
820.948	14931.98
821.276	15020.34
821.604	14978.76
821.932	14993
822.259	15006.78
822.587	14980.11
822.915	14943.28
823.243	15023.05
823.57	14894.47
823.898	15031.64
824.225	14895.6
824.553	14934.47
824.88	14916.16
825.207	14999.78
825.535	14957.74
825.862	14963.39
826.189	14921.13
826.516	15043.62
826.843	15017.85
827.17	14967.01
827.497	15044.29
827.824	15006.55
828.151	14973.56
828.478	15038.42
828.805	15081.13
829.131	14890.17
829.458	15003.62
829.785	14904.64
830.111	14931.3
830.438	15075.48
830.764	14913.9
831.09	14993.45
831.417	14999.55
831.743	14988.93
832.069	15004.29
832.395	14841.59
832.722	14890.4
833.048	14922.04
833.374	14943.96
833.7	14841.36
834.026	14861.02
834.351	14815.37
834.677	14836.16
835.003	14921.81
835.329	14901.7
835.654	14876.16
835.98	14811.53
836.306	14834.36
836.631	14701.25
836.956	14754.81
837.282	14820.12
837.607	14818.76
837.932	14725.43
838.258	14767.92
838.583	14620.8
838.908	14690.4
839.233	14631.2
839.558	14556.4
839.883	14516.85
840.208	14424.2
840.533	14435.27
840.858	14460.58
841.182	14542.61
841.507	14429.39
841.832	14397.31
842.156	14325.89
842.481	14374.03
842.805	14319.12
843.13	14297.65
843.454	14229.85
843.778	14186.01
844.103	14240.92
844.427	14135.62
844.751	14125
845.075	14107.82
845.399	14024.43
845.723	14008.84
846.047	13947.15
846.371	13906.92
846.695	13862.18
847.019	13800.94
847.343	13785.12
847.666	13569.53
847.99	13553.49
848.313	13560.94
848.637	13543.77
848.96	13414.51
849.284	13409.76
849.607	13322.98
849.931	13262.19
850.254	13172.03
850.577	13250.89
850.9	13078.92
851.223	13079.83
851.546	13016.1
851.869	12954.41
852.192	13049.09
852.515	12893.84
852.838	12798.93
853.161	12813.62
853.483	12686.39
853.806	12626.05
854.129	12709.21
854.451	12663.57
854.774	12552.38
855.096	12517.58
855.419	12515.55
855.741	12492.04
856.063	12462.44
856.385	12406.4
856.708	12320.98
857.03	12287.76
857.352	12293.18
857.674	12206.63
857.996	12275.78
858.318	12124.6
858.64	12095.44
858.961	12122.56
859.283	12036.46
859.605	11972.51
859.926	12024.71
860.248	11986.75
860.57	11879.63
860.891	11920.99
861.212	11905.39
861.534	11812.06
861.855	11768
862.176	11821.78
862.498	11878.5
862.819	11754.66
863.14	11710.14
863.461	11673.76
863.782	11648.9
864.103	11709.01
864.424	11685.96
864.745	11622.01
865.065	11549.47
865.386	11575.46
865.707	11539.75
866.027	11490.49
866.348	11462.92
866.668	11488.23
866.989	11469.92
867.309	11418.17
867.63	11425.18
867.95	11384.95
868.27	11338.63
868.59	11398.51
868.91	11337.95
869.23	11367.55
869.55	11283.04
869.87	11335.24
870.19	11245.52
870.51	11226.09
870.83	11250.95
871.15	11186.09
871.469	11263.15
871.789	11222.7
872.109	11240.55
872.428	11134.11
872.748	11206.65
873.067	11205.07
873.386	11178.63
873.706	11089.14
874.025	11066.32
874.344	10959.43
874.663	11049.14
874.982	11006.43
875.301	11019.54
875.62	11007.34
875.939	10971.18
876.258	10958.98
876.577	10876.95
876.896	10964.85
877.214	10886.66
877.533	10827.46
877.852	10884.18
878.17	10878.3
878.489	10863.16
878.807	10846.66
879.125	10750.85
879.444	10769.83
879.762	10776.16
880.08	10808.7
880.398	10684.86
880.716	10702.26
881.034	10648.93
881.352	10701.36
881.67	10648.7
881.988	10677.18
882.306	10581.13
882.624	10522.6
882.941	10540.46
883.259	10525.54
883.577	10513.57
883.894	10426.56
884.212	10477.63
884.529	10431.76
884.846	10397.41
885.164	10379.33
885.481	10364.64
885.798	10300.92
886.115	10245.32
886.432	10298.43
886.75	10220.92
887.067	10212.78
887.383	10119.23
887.7	10197.64
888.017	10156.51
888.334	10139.79
888.651	10091.88
888.967	10046.23
889.284	10015.73
889.6	9994.03
889.917	9913.36
890.233	9957.87
890.55	9914.03
890.866	9872
891.182	9824.54
891.498	9756.75
891.815	9784.54
892.131	9810.31
892.447	9715.85
892.763	9688.73
893.079	9703.19
893.395	9696.41
893.71	9646.47
894.026	9544.78
894.342	9493.03
894.657	9462.75
894.973	9519.69
895.289	9517.43
895.604	9454.38
895.92	9315.18
896.235	9337.55
896.55	9468.62
896.865	9356.76
897.181	9271.34
897.496	9334.61
897.811	9271.56
898.126	9210.32
898.441	9191.34
898.756	9159.93
899.071	9050.55
899.386	9088.97
899.7	8990.22
900.015	8968.07
900.33	8934.62
900.644	8928.52
900.959	8887.39
901.273	8851.46
901.588	8825.93
901.902	8751.35
902.216	8748.87
902.531	8774.4
902.845	8759.49
903.159	8710.45
903.473	8634.29
903.787	8598.36
904.101	8514.07
904.415	8551.58
904.729	8478.82
905.042	8437.91
905.356	8427.52
905.67	8397.69
905.984	8353.17
906.297	8391.14
906.611	8279.95
906.924	8304.81
907.237	8285.83
907.551	8290.8
907.864	8157.02
908.177	8206.06
908.491	8164.93
908.804	8054.65
909.117	8023.91
909.43	7990.02
909.743	7928.55
910.056	7945.72
910.368	7916.35
910.681	7918.38
910.994	7828.89
911.307	7806.52
911.619	7775.56
911.932	7753.86
912.244	7763.81
912.557	7743.92
912.869	7633.19
913.181	7638.61
913.494	7620.08
913.806	7613.08
914.118	7537.15
914.43	7477.04
914.742	7516.81
915.054	7404.95
915.366	7457.83
915.678	7380.54
915.99	7394.33
916.302	7339.64
916.613	7341.45
916.925	7282.24
917.236	7226.19
917.548	7173.54
917.859	7251.73
918.171	7118.17
918.482	7120.43
918.794	7114.56
919.105	7076.82
919.416	6996.14
919.727	6966.77
920.038	7030.49
920.349	6931.96
920.66	6938.07
920.971	6941.23
921.282	6884.73
921.593	6838.86
921.903	6798.41
922.214	6801.12
922.525	6710.73
922.835	6751.86
923.146	6735.13
923.456	6682.71
923.767	6685.19
924.077	6637.74
924.387	6581.01
924.697	6578.3
925.008	6592.99
925.318	6520
925.628	6487.91
925.938	6498.3
926.248	6376.95
926.558	6397.74
926.867	6416.95
927.177	6336.73
927.487	6305.31
927.796	6271.87
928.106	6268.25
928.416	6256.5
928.725	6192.55
929.034	6155.94
929.344	6250.17
929.653	6140.12
929.962	6161.36
930.271	6035.72
930.581	6071.2
930.89	6079.78
931.199	6013.12
931.508	5948.71
931.817	5984.64
932.125	5974.25
932.434	5967.92
932.743	5893.57
933.051	5876.4
933.36	5859.22
933.669	5820.58
933.977	5783.97
934.286	5767.48
934.594	5789.85
934.902	5730.41
935.21	5651.09
935.519	5704.65
935.827	5632.79
936.135	5624.88
936.443	5556.63
936.751	5568.84
937.059	5579.46
937.367	5541.94
937.674	5549.18
937.982	5496.07
938.29	5453.59
938.597	5480.93
938.905	5440.93
939.213	5364.32
939.52	5391.44
939.827	5348.05
940.135	5339.46
940.442	5313.7
940.749	5266.25
941.056	5289.07
941.363	5256.08
941.67	5246.81
941.977	5219.24
942.284	5151.9
942.591	5135.4
942.898	5146.7
943.205	5106.25
943.511	5121.62
943.818	5042.97
944.125	5014.05
944.431	5027.16
944.738	4997.33
945.044	4944.9
945.35	4931.57
945.657	4934.73
945.963	4895.18
946.269	4889.08
946.575	4872.13
946.881	4846.14
947.187	4858.8
947.493	4747.62
947.799	4792.59
948.105	4772.7
948.41	4705.13
948.716	4702.64
949.022	4711.68
949.327	4692.7
949.633	4642.53
949.938	4700.61
950.244	4669.65
950.549	4586.94
950.854	4573.61
951.16	4570.44
951.465	4515.76
951.77	4519.82
952.075	4519.6
952.38	4487.51
952.685	4452.48
952.99	4449.77
953.294	4458.58
953.599	4371.35
953.904	4380.17
954.209	4377.68
954.513	4356.44
954.818	4318.02
955.122	4316.44
955.426	4315.54
955.731	4308.76
956.035	4284.58
956.339	4227.4
956.643	4231.7
956.948	4145.15
957.252	4214.3
957.556	4174.97
957.86	4142.66
958.163	4152.15
958.467	4102.66
958.771	4120.51
959.075	4054.07
959.378	4062.89
959.682	4034.64
959.985	4042.55
960.289	4005.26
960.592	4006.84
960.896	4009.56
961.199	3955.32
961.502	3929.33
961.805	3912.16
962.108	3880.97
962.411	3935.66
962.714	3915.32
963.017	3857.7
963.32	3862.44
963.623	3808.66
963.926	3819.28
964.228	3787.87
964.531	3807.75
964.833	3731.82
965.136	3742.44
965.438	3734.76
965.741	3713.97
966.043	3645.72
966.345	3700.86
966.648	3678.04
966.95	3644.59
967.252	3620.64
967.554	3607.76
967.856	3566.4
968.158	3576.8
968.46	3583.58
968.761	3549.23
969.063	3572.5
969.365	3527.31
969.666	3544.26
969.968	3488.89
970.269	3443.69
970.571	3471.26
970.872	3464.94
971.174	3455.9
971.475	3446.18
971.776	3399.63
972.077	3402.79
972.378	3400.08
972.679	3351.49
972.98	3334.77
973.281	3338.16
973.582	3348.1
973.883	3289.8
974.183	3278.05
974.484	3273.76
974.785	3253.87
975.085	3265.85
975.386	3256.58
975.686	3217.94
975.986	3225.62
976.287	3196.02
976.587	3151.73
976.887	3169.8
977.187	3165.06
977.487	3143.59
977.787	3113.31
978.087	3093.65
978.387	3099.97
978.687	3109.47
978.987	3020.2
979.286	3043.03
979.586	3077.38
979.885	3022.46
980.185	3010.03
980.484	3005.06
980.784	3010.26
981.083	2981.11
981.382	2982.92
981.682	2938.4
981.981	2971.39
982.28	2906.53
982.579	2872.86
982.878	2880.55
983.177	2921
983.475	2880.32
983.774	2860.89
984.073	2848
984.372	2815.01
984.67	2819.53
984.969	2840.09
985.267	2778.18
985.566	2778.18
985.864	2763.49
986.162	2739.53
986.461	2729.14
986.759	2690.27
987.057	2713.32
987.355	2680.33
987.653	2686.65
987.951	2671.29
988.249	2684.39
988.547	2671.51
988.844	2633.32
989.142	2620.21
989.44	2625.64
989.737	2628.35
990.035	2595.13
990.332	2568.01
990.63	2599.2
990.927	2542.7
991.224	2550.84
991.521	2539.09
991.819	2530.5
992.116	2486.21
992.413	2499.31
992.71	2469.48
993.006	2469.48
993.303	2466.55
993.6	2478.3
993.897	2454.79
994.193	2416.38
994.49	2444.4
994.787	2424.51
995.083	2389.49
995.379	2370.28
995.676	2396.49
995.972	2398.07
996.268	2350.39
996.565	2347
996.861	2365.98
997.157	2314.01
997.453	2283.05
997.749	2261.8
998.044	2266.78
998.34	2264.52
998.636	2234.69
998.932	2228.36
999.227	2258.64
999.523	2204.86
999.818	2197.85
1000.114	2196.04
1000.409	2174.8
1000.704	2193.11
1001	2168.25
1001.295	2153.79
1001.59	2106.1
1001.885	2132.54
1002.18	2150.17
1002.475	2107.68
1002.77	2065.65
1003.065	2082.6
1003.359	2055.71
1003.654	2077.63
1003.949	2040.57
1004.243	2071.3
1004.538	2022.94
1004.832	2024.07
1005.127	1991.08
1005.421	1981.59
1005.715	1964.86
1006.009	1965.32
1006.304	1942.49
1006.598	1945.66
1006.892	1925.77
1007.186	1909.5
1007.48	1892.78
1007.773	1921.25
1008.067	1905.43
1008.361	1860.01
1008.655	1851.87
1008.948	1862.95
1009.242	1874.47
1009.535	1832.21
1009.829	1822.04
1010.122	1815.94
1010.415	1820.69
1010.708	1787.92
1011.001	1765.55
1011.295	1760.35
1011.588	1749.95
1011.881	1749.95
1012.173	1730.75
1012.466	1751.54
1012.759	1706.57
1013.052	1715.15
1013.344	1703.85
1013.637	1707.7
1013.93	1683.74
1014.222	1663.85
1014.514	1672.89
1014.807	1664.08
1015.099	1629.28
1015.391	1644.87
1015.683	1630.41
1015.976	1613.01
1016.268	1612.56
1016.56	1609.84
1016.851	1543.86
1017.143	1628.83
1017.435	1539.34
1017.727	1525.33
1018.018	1531.88
1018.31	1541.15
1018.602	1533.91
1018.893	1528.94
1019.185	1497.53
1019.476	1514.48
1019.767	1506.34
1020.058	1462.5
1020.35	1488.72
1020.641	1460.24
1020.932	1453.69
1021.223	1458.44
1021.514	1450.3
1021.804	1416.63
1022.095	1407.36
1022.386	1421.6
1022.677	1408.72
1022.967	1390.64
1023.258	1386.8
1023.548	1392.22
1023.839	1375.95
1024.129	1362.39
1024.419	1307.48
1024.709	1314.03
1025	1335.28
1025.29	1340.02
1025.58	1327.37
1025.87	1311.77
1026.16	1288.27
1026.449	1274.03
1026.739	1293.69
1027.029	1279.68
1027.319	1255.05
1027.608	1237.2
1027.898	1228.16
1028.187	1228.61
1028.477	1201.04
1028.766	1224.77
1029.055	1213.47
1029.344	1196.97
1029.634	1173.02
1029.923	1174.15
1030.212	1183.19
1030.501	1180.25
1030.79	1176.86
1031.078	1155.39
1031.367	1166.24
1031.656	1138.67
1031.945	1156.52
1032.233	1157.2
1032.522	1109.52
1032.81	1115.62
1033.099	1085.79
1033.387	1101.61
1033.675	1080.37
1033.963	1073.14
1034.251	1085.34
1034.54	1048.96
1034.828	1077.66
1035.116	1048.5
1035.403	1057.99
1035.691	1023.87
1035.979	1043.53
1036.267	1022.52
1036.554	1015.96
1036.842	1038.79
1037.129	1017.54
1037.417	1032.23
1037.704	989.97
1037.992	993.36
1038.279	1010.99
1038.566	981.39
1038.853	981.39
1039.14	981.39
