Data from hue_120_FLMS001491_00034.txt Node
Date: Tue Feb 07 16:59:16 GMT 2017
User: dcchb
Spectrometer: FLMS00149
Trigger mode: 0
Integration Time (sec): 2.000000E-2
Scans to average: 10
Electric dark correction enabled: true
Nonlinearity correction enabled: false
Boxcar width: 0
XAxis mode: Wavelengths
Number of Pixels in Spectrum: 2048
>>>>>Begin Spectral Data<<<<<
341.393	-28.93
341.776	-28.93
342.16	-28.93
342.543	-56.27
342.927	-64.63
343.31	-49.49
343.693	-60.34
344.077	-73.67
344.46	-56.95
344.843	-50.85
345.226	-54.46
345.61	-30.73
345.993	-24.41
346.376	-27.12
346.759	2.26
347.142	28.25
347.525	41.58
347.908	78.64
348.291	61.92
348.674	96.27
349.057	119.09
349.44	115.7
349.823	133.78
350.206	160.9
350.588	191.63
350.971	221.69
351.354	230.73
351.737	234.34
352.119	239.09
352.502	255.81
352.884	266.89
353.267	304.17
353.65	287.22
354.032	296.49
354.414	305.75
354.797	328.8
355.179	311.4
355.562	304.4
355.944	297.39
356.326	319.99
356.709	337.84
357.091	345.75
357.473	352.76
357.855	337.17
358.238	343.49
358.62	351.4
359.002	348.01
359.384	346.43
359.766	352.76
360.148	378.52
360.53	341.91
360.912	308.92
361.294	338.52
361.676	329.48
362.057	339.2
362.439	339.2
362.821	336.04
363.203	318.64
363.584	326.32
363.966	343.04
364.348	338.75
364.729	333.1
365.111	319.54
365.493	329.48
365.874	339.2
366.256	318.41
366.637	292.87
367.019	311.4
367.4	325.87
367.781	320.22
368.163	311.86
368.544	323.83
368.925	332.19
369.306	316.38
369.688	299.88
370.069	308.01
370.45	313.21
370.831	314.79
371.212	336.94
371.593	310.73
371.974	302.14
372.355	308.01
372.736	354.57
373.117	316.83
373.498	323.61
373.879	324.29
374.26	319.77
374.641	324.74
375.021	316.83
375.402	332.42
375.783	316.6
376.163	343.27
376.544	334.45
376.925	345.98
377.305	323.83
377.686	340.78
378.066	329.93
378.447	319.31
378.827	332.65
379.208	326.32
379.588	343.49
379.968	338.3
380.349	333.55
380.729	360.22
381.109	324.06
381.489	331.52
381.87	329.26
382.25	348.92
382.63	343.27
383.01	328.8
383.39	337.84
383.77	358.86
384.15	338.52
384.53	336.49
384.91	356.37
385.29	361.57
385.67	348.47
386.049	368.8
386.429	366.32
386.809	370.61
387.189	379.65
387.568	356.6
387.948	377.62
388.328	383.94
388.707	371.06
389.087	370.61
389.466	378.52
389.846	354.57
390.225	372.19
390.605	383.27
390.984	375.58
391.363	400.44
391.743	369.48
392.122	380.33
392.501	376.26
392.881	392.31
393.26	370.84
393.639	393.66
394.018	402.02
394.397	380.78
394.776	386.66
395.155	407.22
395.534	419.42
395.913	399.76
396.292	417.39
396.671	417.39
397.05	398.63
397.429	388.46
397.808	404.06
398.186	402.02
398.565	419.65
398.944	411.06
399.323	408.8
399.701	392.08
400.08	399.31
400.458	418.75
400.837	425.53
401.215	412.42
401.594	402.7
401.972	426.88
402.351	450.84
402.729	424.85
403.107	450.84
403.486	420.55
403.864	427.33
404.242	449.25
404.62	450.84
404.999	436.82
405.377	460.33
405.755	448.8
406.133	435.92
406.511	444.51
406.889	468.24
407.267	473.89
407.645	456.49
408.023	456.03
408.401	468.69
408.779	460.55
409.156	478.63
409.534	456.94
409.912	485.64
410.29	478.18
410.667	464.62
411.045	487.22
411.422	475.92
411.8	470.5
412.178	492.87
412.555	493.32
412.933	506.65
413.31	512.53
413.687	508.69
414.065	505.07
414.442	531.96
414.819	497.16
415.197	511.17
415.574	535.58
415.951	541.68
416.328	512.53
416.705	543.49
417.082	532.42
417.46	555.47
417.837	548.69
418.214	551.62
418.591	550.04
418.967	541.45
419.344	558.4
419.721	571.74
420.098	555.47
420.475	554.34
420.852	554.34
421.228	581.68
421.605	571.06
421.982	571.74
422.358	594.56
422.735	586.2
423.111	589.14
423.488	582.36
423.864	584.84
424.241	612.19
424.617	628.68
424.994	602.7
425.37	615.35
425.746	597.95
426.123	636.59
426.499	641.11
426.875	629.59
427.251	625.52
427.627	673.88
428.003	631.85
428.379	646.31
428.756	663.03
429.132	662.81
429.507	657.16
429.883	655.35
430.259	662.36
430.635	700.32
431.011	715.24
431.387	726.53
431.763	698.74
432.138	704.61
432.514	724.95
432.89	723.37
433.265	747.32
433.641	731.73
434.016	750.26
434.392	754.33
434.767	773.31
435.143	744.39
435.518	786.19
435.894	778.51
436.269	781.45
436.644	795.91
437.02	823.93
437.395	803.37
437.77	804.05
438.145	830.71
438.52	806.76
438.895	839.07
439.271	838.62
439.646	877.72
440.021	857.15
440.395	863.48
440.77	867.55
441.145	871.62
441.52	873.42
441.895	887.21
442.27	887.43
442.645	869.81
443.019	908.45
443.394	887.66
443.769	896.47
444.143	902.35
444.518	898.51
444.892	925.85
445.267	940.31
445.641	940.31
446.016	949.13
446.39	953.65
446.764	939.41
447.139	940.77
447.513	964.72
447.887	974.44
448.262	963.14
448.636	1002.01
449.01	994.55
449.384	1002.01
449.758	1017.83
450.132	1044.27
450.506	996.13
450.88	1020.09
451.254	1025.06
451.628	1057.83
452.002	1056.7
452.376	1085.85
452.75	1078.84
453.123	1076.58
453.497	1073.87
453.871	1102.12
454.244	1117.03
454.618	1129.24
454.992	1137.6
455.365	1149.57
455.739	1173.98
456.112	1188.44
456.486	1144.15
456.859	1203.81
457.232	1223.24
457.606	1196.8
457.979	1246.07
458.352	1237.48
458.725	1256.01
459.099	1266.41
459.472	1318.16
459.845	1311.83
460.218	1317.03
460.591	1372.85
460.964	1348.44
461.337	1386.18
461.71	1410.36
462.083	1421.21
462.456	1430.24
462.829	1444.26
463.201	1477.7
463.574	1464.82
463.947	1487.87
464.32	1535.1
464.692	1519.96
465.065	1516.34
465.438	1578.26
465.81	1595.21
466.183	1633.18
466.555	1638.15
466.928	1667.75
467.3	1677.7
467.672	1692.84
468.045	1736.68
468.417	1738.71
468.789	1801.08
469.161	1819.16
469.534	1829.1
469.906	1879.27
470.278	1913.17
470.65	1959.04
471.022	1955.65
471.394	2020.29
471.766	2033.17
472.138	2095.09
472.51	2126.95
472.882	2193.39
473.253	2201.07
473.625	2265.48
473.997	2302.09
474.369	2374.85
474.74	2411.46
475.112	2426.38
475.484	2505.02
475.855	2545.47
476.227	2570.1
476.598	2676.54
476.97	2690.78
477.341	2824.56
477.713	2878.57
478.084	2944.1
478.455	3039.47
478.827	3123.31
479.198	3218.45
479.569	3212.57
479.94	3348.61
480.311	3403.07
480.682	3492.79
481.053	3651.2
481.424	3725.33
481.795	3789.05
482.166	3887.58
482.537	4024.07
482.908	4145.88
483.279	4192.88
483.65	4293.22
484.021	4469.26
484.391	4580.67
484.762	4639.65
485.133	4753.55
485.503	4893.43
485.874	5006.87
486.244	5095.23
486.615	5260.2
486.985	5399.41
487.356	5517.14
487.726	5676.69
488.097	5805.27
488.467	5856.8
488.837	6115.55
489.207	6215.66
489.578	6398.02
489.948	6479.6
490.318	6658.81
490.688	6783.1
491.058	6903.1
491.428	7092.47
491.798	7171.11
492.168	7430.09
492.538	7480.48
492.908	7642.51
493.278	7833.01
493.648	7869.17
494.017	8051.09
494.387	8217.64
494.757	8383.73
495.126	8514.35
495.496	8559.55
495.866	8763.39
496.235	8846.32
496.605	9021.91
496.974	9084.51
497.344	9300.55
497.713	9406.53
498.082	9473.88
498.452	9651.5
498.821	9745.73
499.19	9877.25
499.559	9971.94
499.928	10062.79
500.298	10169.68
500.667	10329.45
501.036	10336
501.405	10476.79
501.774	10603.11
502.143	10697.12
502.512	10728.31
502.88	10940.5
503.249	10901.86
503.618	11072.48
503.987	11171.68
504.356	11199.93
504.724	11327.61
505.093	11445.35
505.462	11442.41
505.83	11549.53
506.199	11668.62
506.567	11823.19
506.936	11782.97
507.304	11941.15
507.672	12027.71
508.041	12051.89
508.409	12122.62
508.777	12302.5
509.145	12327.13
509.514	12365.55
509.882	12446.45
510.25	12562.38
510.618	12468.15
510.986	12673.79
511.354	12690.29
511.722	12868.59
512.09	12919.66
512.458	12903.39
512.826	13048.92
513.193	12994.69
513.561	13028.13
513.929	13201.01
514.297	13275.13
514.664	13360.78
515.032	13331.85
515.4	13408.91
515.767	13429.93
516.135	13538.63
516.502	13384.73
516.869	13653.43
517.237	13663.82
517.604	13583.15
517.972	13725.97
518.339	13789.69
518.706	13765.51
519.073	13795.8
519.44	13884.83
519.808	13930.93
520.175	13892.06
520.542	14052.74
520.909	14052.96
521.276	14070.14
521.643	14130.25
522.009	14124.15
522.376	14222.68
522.743	14303.8
523.11	14349.68
523.477	14547.87
523.843	14477.36
524.21	14586.51
524.577	14617.69
524.943	14594.64
525.31	14597.58
525.676	14727.3
526.043	14777.24
526.409	14845.03
526.776	14795.32
527.142	14880.74
527.508	14798.93
527.874	14861.08
528.241	14916.22
528.607	14936.33
528.973	14966.39
529.339	14987.63
529.705	14959.38
530.071	15104.91
530.437	14995.54
530.803	15141.3
531.169	15089.77
531.535	15047.51
531.901	15112.82
532.267	15170.67
532.632	15180.39
532.998	15155.53
533.364	15098.13
533.73	15129.32
534.095	15162.99
534.461	15056.55
534.826	15173.61
535.192	15110.11
535.557	15117.34
535.923	15047.97
536.288	15062.43
536.653	15094.29
537.019	14984.01
537.384	14971.81
537.749	14990.34
538.114	14989.21
538.479	14966.16
538.845	15059.72
539.21	14852.72
539.575	14899.04
539.94	14918.48
540.305	14917.57
540.67	14778.82
541.034	14787.63
541.399	14801.64
541.764	14781.53
542.129	14756.45
542.494	14610.69
542.858	14713.29
543.223	14652.72
543.587	14723.91
543.952	14639.16
544.316	14603.68
544.681	14489.11
545.045	14519.62
545.41	14515.1
545.774	14580.86
546.138	14483.46
546.503	14481.65
546.867	14445.04
547.231	14394.65
547.595	14394.42
547.959	14393.07
548.324	14321.66
548.688	14364.82
549.052	14295.44
549.416	14294.09
549.779	14269.91
550.143	14151.94
550.507	14232.62
550.871	14249.57
551.235	14101.1
551.599	14181.55
551.962	14129.8
552.326	14031.5
552.689	13956.47
553.053	14025.17
553.417	13960.76
553.78	14119.4
554.143	13920.09
554.507	14024.04
554.87	14017.48
555.234	14028.78
555.597	13886.64
555.96	13917.83
556.323	13979.97
556.686	13951.95
557.05	13987.43
557.413	13918.28
557.776	13872.63
558.139	13909.01
558.502	13867.21
558.865	13846.87
559.228	13936.13
559.59	13906.53
559.953	13946.3
560.316	13988.78
560.679	13974.32
561.041	13951.95
561.404	13952.85
561.767	13987.2
562.129	13909.46
562.492	14043.92
562.854	13980.42
563.217	14000.31
563.579	14006.41
563.941	14031.95
564.304	14070.59
564.666	14084.83
565.028	14099.52
565.39	14060.87
565.753	14142.23
566.115	14133.19
566.477	14150.59
566.839	14159.63
567.201	14273.07
567.563	14207.54
567.925	14221.55
568.287	14230.36
568.648	14210.7
569.01	14308.55
569.372	14388.55
569.734	14182
570.095	14370.7
570.457	14346.97
570.819	14334.99
571.18	14343.13
571.542	14437.59
571.903	14511.71
572.265	14387.19
572.626	14522.78
572.987	14447.3
573.349	14445.95
573.71	14469.68
574.071	14532.27
574.432	14518.26
574.794	14619.05
575.155	14581.54
575.516	14522.56
575.877	14514.42
576.238	14527.75
576.599	14576.34
576.96	14549
577.32	14570.92
577.681	14559.39
578.042	14635.32
578.403	14626.96
578.763	14534.53
579.124	14569.56
579.485	14666.06
579.845	14643.68
580.206	14591.48
580.566	14608.2
580.927	14622.21
581.287	14733.62
581.648	14574.76
582.008	14682.55
582.368	14548.32
582.728	14608.2
583.089	14673.06
583.449	14586.51
583.809	14621.76
584.169	14645.04
584.529	14616.56
584.889	14687.3
585.249	14567.98
585.609	14562.55
585.969	14593.06
586.329	14539.73
586.688	14574.98
587.048	14578.83
587.408	14429.23
587.768	14545.83
588.127	14463.57
588.487	14499.51
588.846	14590.58
589.206	14490.24
589.565	14512.16
589.925	14478.49
590.284	14518.04
590.643	14539.28
591.003	14541.99
591.362	14516.91
591.721	14443.46
592.08	14480.07
592.44	14464.03
592.799	14539.28
593.158	14429.68
593.517	14390.81
593.876	14383.12
594.235	14419.73
594.593	14390.36
594.952	14474.87
595.311	14363.69
595.67	14389.9
596.029	14346.74
596.387	14370.92
596.746	14452.95
597.104	14325.5
597.463	14322.34
597.822	14344.93
598.18	14324.82
598.538	14316.01
598.897	14454.99
599.255	14281.88
599.613	14422.67
599.972	14325.5
600.33	14435.78
600.688	14414.99
601.046	14379.96
601.404	14471.03
601.762	14403.01
602.12	14446.17
602.478	14396.91
602.836	14435.78
603.194	14344.93
603.552	14391.03
603.91	14331.15
604.268	14391.03
604.625	14382.67
604.983	14336.35
605.341	14335.22
605.698	14409.11
606.056	14433.29
606.413	14445.72
606.771	14365.5
607.128	14424.03
607.485	14351.26
607.843	14347.42
608.2	14341.54
608.557	14381.99
608.914	14445.04
609.272	14472.39
609.629	14440.52
609.986	14564.36
610.343	14388.77
610.7	14584.7
611.057	14462.44
611.414	14515.32
611.771	14519.62
612.127	14600.29
612.484	14563.46
612.841	14631.71
613.198	14577.02
613.554	14591.03
613.911	14662.44
614.267	14705.83
614.624	14690.91
614.98	14651.14
615.337	14710.57
615.693	14746.28
616.05	14687.3
616.406	14825.82
616.762	14765.71
617.118	14714.42
617.475	14721.19
617.831	14708.77
618.187	14750.8
618.543	14787.86
618.899	14843.68
619.255	14741.76
619.611	14715.09
619.967	14932.94
620.323	14851.81
620.678	14857.01
621.034	14835.54
621.39	14746.28
621.746	14818.14
622.101	14986.72
622.457	14755.77
622.812	14810.46
623.168	14805.26
623.523	14926.84
623.879	14859.27
624.234	14767.07
624.589	14761.19
624.945	14823.57
625.3	14897.91
625.655	14804.58
626.01	14858.59
626.365	14862.66
626.72	14773.62
627.075	14783.34
627.43	14890.46
627.785	14723.91
628.14	14867.63
628.495	14802.32
628.85	14716.22
629.205	14711.7
629.559	14773.4
629.914	14663.34
630.269	14754.41
630.623	14685.26
630.978	14712.16
631.332	14746.5
631.687	14718.26
632.041	14730.23
632.396	14794.87
632.75	14550.13
633.104	14628.09
633.459	14635.55
633.813	14633.06
634.167	14591.71
634.521	14581.09
634.875	14575.21
635.229	14541.76
635.583	14482.78
635.937	14544.02
636.291	14400.07
636.645	14436.23
636.999	14470.58
637.352	14462.44
637.706	14430.36
638.06	14468.55
638.413	14459.73
638.767	14457.02
639.121	14454.99
639.474	14282.56
639.828	14334.54
640.181	14332.28
640.534	14296.12
640.888	14266.29
641.241	14246.18
641.594	14318.49
641.947	14284.6
642.301	14271.49
642.654	14217.48
643.007	14259.29
643.36	14287.76
643.713	14185.84
644.066	14259.74
644.419	14174.99
644.771	14053.19
645.124	13910.14
645.477	13884.83
645.83	13867.43
646.182	13796.25
646.535	13766.87
646.888	13801.67
647.24	13688.23
647.593	13829.24
647.945	13744.95
648.298	13723.48
648.65	13632.18
649.002	13598.06
649.355	13668.57
649.707	13655.01
650.059	13705.4
650.411	13930.71
650.763	13894.32
651.115	14039.4
651.467	14062.91
651.819	14003.25
652.171	14050.03
652.523	13926.19
652.875	14018.84
653.227	13879.86
653.578	13944.04
653.93	14025.39
654.282	13965.73
654.633	13880.54
654.985	13885.74
655.337	13928.67
655.688	13942.01
656.039	13985.17
656.391	13939.52
656.742	13953.08
657.094	13895.45
657.445	14014.77
657.796	13986.3
658.147	13943.14
658.498	13975
658.849	13985.62
659.2	13981.78
659.551	14032.63
659.902	14030.59
660.253	14002.57
660.604	13955.57
660.955	13950.59
661.306	13923.48
661.656	13963.7
662.007	13921.89
662.358	13962.34
662.708	13933.19
663.059	14000.54
663.409	13851.84
663.76	13982.01
664.11	14019.07
664.461	14054.55
664.811	14010.71
665.161	13960.08
665.511	14003.47
665.862	14030.14
666.212	14052.06
666.562	14021.55
666.912	13976.81
667.262	13979.97
667.612	13992.17
667.962	13967.99
668.312	13957.83
668.662	14087.77
669.011	14023.13
669.361	13972.51
669.711	13966.86
670.06	13949.46
670.41	14014.32
670.76	13930.48
671.109	13962.34
671.459	13987.88
671.808	13918.73
672.157	14042.79
672.507	13942.01
672.856	13881.44
673.205	13908.33
673.554	13924.61
673.904	13864.27
674.253	13918.28
674.602	13892.97
674.951	13663.6
675.3	13697.27
675.649	13846.19
675.998	13743.37
676.346	13753.99
676.695	13841.44
677.044	13757.15
677.393	13696.14
677.741	13795.34
678.09	13708.34
678.438	13674.89
678.787	13701.56
679.135	13687.55
679.484	13585.18
679.832	13569.81
680.181	13598.06
680.529	13541.11
680.877	13572.3
681.225	13525.75
681.573	13541.34
681.922	13500.21
682.27	13424.28
682.618	13390.38
682.966	13441
683.314	13454.34
683.661	13382.92
684.009	13302.48
684.357	13330.95
684.705	13323.72
685.053	13347.9
685.4	13237.62
685.748	13195.13
686.095	13111.97
686.443	13186.77
686.79	13051.86
687.138	13109.03
687.485	13121.24
687.832	13114.68
688.18	13070.16
688.527	12986.55
688.874	13001.24
689.221	12911.98
689.568	12914.69
689.915	12916.04
690.262	12836.72
690.609	12809.15
690.956	12734.81
691.303	12701.36
691.65	12600.12
691.997	12668.59
692.344	12562.38
692.69	12542.72
693.037	12582.95
693.383	12446
693.73	12453.01
694.077	12425.21
694.423	12355.83
694.769	12368.71
695.116	12322.84
695.462	12231.09
695.808	12232.45
696.155	12220.7
696.501	12104.09
696.847	12177.76
697.193	11983.41
697.539	11983.19
697.885	11879.24
698.231	11911.33
698.577	11906.13
698.923	11914.04
699.269	11825
699.614	11756.75
699.96	11722.4
700.306	11676.98
700.651	11633.82
700.997	11545.69
701.342	11622.07
701.688	11567.15
702.033	11475.63
702.379	11471.56
702.724	11456.2
703.069	11433.37
703.415	11250.1
703.76	11309.08
704.105	11258.46
704.45	11233.15
704.795	11227.73
705.14	11150.67
705.485	11186.37
705.83	11080.61
706.175	11077.45
706.52	11108.86
706.865	11001.29
707.209	10983.89
707.554	10962.42
707.899	10969.43
708.243	10838.13
708.588	10883.33
708.932	10793.16
709.277	10776.89
709.621	10758.59
709.966	10681.3
710.31	10805.82
710.654	10578.03
710.998	10689.89
711.342	10646.73
711.687	10576.9
712.031	10560.85
712.375	10549.33
712.719	10539.61
713.063	10554.07
713.407	10517.01
713.75	10495.54
714.094	10458.26
714.438	10371.48
714.782	10509.1
715.125	10399.27
715.469	10365.6
715.812	10317.69
716.156	10299.84
716.499	10323.8
716.843	10275.66
717.186	10275.44
717.53	10296.45
717.873	10250.13
718.216	10208.77
718.559	10211.26
718.902	10130.36
719.246	10161.77
719.589	10114.76
719.932	10055.55
720.275	10129.23
720.617	10077.48
720.96	10113.86
721.303	10074.99
721.646	10089.23
721.989	10037.25
722.331	10046.29
722.674	9974.65
723.016	10067.08
723.359	10027.08
723.701	9985.27
724.044	9955.67
724.386	9930.13
724.729	9952.28
725.071	9903.69
725.413	9931.72
725.755	9894.66
726.097	9896.01
726.439	9786.86
726.782	9884.49
727.124	9861.66
727.465	9815.11
727.807	9832.51
728.149	9769.01
728.491	9825.73
728.833	9863.7
729.175	9803.58
729.516	9740.99
729.858	9830.93
730.199	9829.12
730.541	9763.36
730.882	9790.7
731.224	9759.97
731.565	9774.43
731.906	9813.75
732.248	9734.43
732.589	9688.78
732.93	9702.57
733.271	9697.15
733.612	9753.87
733.953	9780.76
734.294	9732.4
734.635	9701.44
734.976	9773.08
735.317	9766.07
735.658	9700.99
735.999	9719.74
736.339	9765.62
736.68	9773.08
737.021	9772.62
737.361	9637.03
737.702	9808.33
738.042	9683.14
738.383	9708.22
738.723	9800.42
739.063	9671.84
739.404	9753.42
739.744	9721.1
740.084	9711.16
740.424	9798.61
740.764	9764.49
741.104	9766.52
741.444	9797.71
741.784	9779.18
742.124	9831.61
742.464	9844.26
742.804	9925.84
743.143	9855.56
743.483	9841.55
743.823	9912.06
744.162	9947.54
744.502	9986.63
744.841	9958.38
745.181	9960.87
745.52	10054.42
745.86	10058.72
746.199	10098.94
746.538	10159.28
746.877	10191.82
747.216	10259.39
747.556	10260.97
747.895	10354.53
748.234	10350.91
748.573	10407.64
748.911	10510.46
749.25	10508.88
749.589	10544.36
749.928	10715.65
750.267	10720.4
750.605	10797.46
750.944	10786.16
751.283	10960.84
751.621	10990.67
751.96	11058.69
752.298	11063.44
752.636	11285.8
752.975	11282.87
753.313	11407.16
753.651	11536.65
753.989	11557.66
754.327	11703.87
754.666	11758.33
755.004	11936.86
755.342	12036.29
755.679	12239.9
756.017	12279.68
756.355	12416.4
756.693	12491.2
757.031	12645.77
757.368	12787.01
757.706	12942.94
758.044	13006.21
758.381	13229.93
758.719	13344.73
759.056	13524.39
759.394	13692.75
759.731	13702.69
760.068	13920.54
760.405	14076.01
760.743	14176.58
761.08	14368.44
761.417	14529.79
761.754	14714.87
762.091	14856.33
762.428	15008.87
762.765	15155.99
763.102	15398.24
763.438	15421.29
763.775	15611.34
764.112	15743.77
764.449	15998.22
764.785	16030.76
765.122	16238.9
765.458	16292.68
765.795	16538.77
766.131	16650.86
766.467	16767.24
766.804	16898.54
767.14	17014.24
767.476	17174.92
767.812	17355.93
768.148	17412.2
768.485	17478.86
768.821	17532.65
769.157	17735.58
769.492	17863.71
769.828	17938.06
770.164	17928.57
770.5	18079.07
770.836	18077.49
771.171	18322.46
771.507	18334.66
771.842	18362.68
772.178	18485.39
772.513	18542.11
772.849	18698.04
773.184	18679.73
773.519	18787.53
773.855	18841.99
774.19	18963.12
774.525	18992.49
774.86	19043.57
775.195	19114.53
775.53	19126.05
775.865	19054.19
776.2	19154.75
776.535	19115.2
776.87	19248.99
777.205	19192.26
777.539	19208.53
777.874	19299.61
778.209	19240.85
778.543	19302.77
778.878	19176.67
779.212	19356.78
779.547	19382.32
779.881	19439.04
780.215	19307.51
780.55	19558.36
780.884	19342.77
781.218	19361.07
781.552	19446.72
781.886	19440.17
782.22	19407.85
782.554	19331.47
782.888	19227.29
783.222	19317.68
783.556	19212.6
783.889	19208.08
784.223	19157.46
784.557	19119.05
784.89	19288.76
785.224	19148.88
785.557	19051.93
785.891	19179.38
786.224	19194.98
786.558	19092.61
786.891	19023.23
787.224	18910.01
787.557	18968.54
787.891	19008.09
788.224	18974.87
788.557	18916.79
788.89	18873.18
789.223	18925.83
789.556	18905.94
789.888	18780.52
790.221	18823.46
790.554	18746.4
790.887	18719.96
791.219	18623.47
791.552	18575.1
791.884	18655.33
792.217	18545.28
792.549	18484.94
792.882	18447.65
793.214	18362.91
793.546	18366.07
793.879	18418.95
794.211	18260.54
794.543	18314.32
794.875	18290.37
795.207	18306.64
795.539	18226.19
795.871	18283.59
796.203	18105.06
796.535	17930.15
796.867	17966.99
797.198	17984.16
797.53	17909.36
797.862	17856.25
798.193	17860.77
798.525	17784.17
798.856	17838.63
799.188	17646.99
799.519	17676.37
799.85	17549.6
800.182	17575.36
800.513	17540.1
800.844	17433.21
801.175	17529.71
801.506	17520.67
801.837	17352.99
802.168	17403.16
802.499	17239.77
802.83	17213.11
803.161	17312.09
803.491	17163.84
803.822	17204.52
804.153	17097.18
804.483	17025.32
804.814	17030.96
805.145	16952.32
805.475	16985.32
805.805	16986.67
806.136	16880.91
806.466	16813.57
806.796	16855.38
807.126	16745.1
807.457	16687.24
807.787	16681.37
808.117	16665.55
808.447	16592.56
808.777	16610.64
809.107	16508.72
809.436	16426.69
809.766	16537.19
810.096	16526.8
810.426	16310.76
810.755	16455.61
811.085	16280.7
811.414	16399.34
811.744	16202.74
812.073	16159.12
812.403	16168.39
812.732	16072.12
813.061	16068.73
813.39	16082.74
813.719	15969.3
814.049	16050.88
814.378	15969.07
814.707	15939.69
815.036	15880.26
815.365	15784.9
815.693	15675.75
816.022	15707.84
816.351	15635.75
816.68	15648.4
817.008	15574.51
817.337	15472.14
817.665	15515.75
817.994	15552.81
818.322	15478.24
818.651	15435.53
818.979	15362.99
819.307	15482.08
819.636	15410.67
819.964	15388.97
820.292	15463.1
820.62	15379.71
820.948	15395.08
821.276	15363.44
821.604	15355.3
821.932	15301.52
822.259	15340.39
822.587	15400.5
822.915	15332.03
823.243	15282.54
823.57	15303.55
823.898	15320.5
824.225	15314.4
824.553	15290.45
824.88	15324.12
825.207	15388.07
825.535	15405.47
825.862	15377.9
826.189	15289.09
826.516	15368.86
826.843	15366.83
827.17	15372.48
827.497	15354.17
827.824	15259.49
828.151	15409.09
828.478	15359.37
828.805	15440.95
829.131	15339.71
829.458	15392.59
829.785	15252.93
830.111	15301.07
830.438	15421.52
830.764	15396.43
831.09	15432.59
831.417	15256.32
831.743	15369.09
832.069	15326.15
832.395	15253.84
832.722	15324.57
833.048	15271.91
833.374	15324.34
833.7	15191.46
834.026	15223.33
834.351	15214.29
834.677	15183.1
835.003	15224.68
835.329	15103.78
835.654	15228.75
835.98	15147.85
836.306	15130.68
836.631	15112.6
836.956	15254.29
837.282	15186.27
837.607	15018.81
837.932	15042.09
838.258	14971.36
838.583	15060.62
838.908	14983.33
839.233	14967.06
839.558	14826.95
839.883	14811.14
840.208	14813.62
840.533	14800.97
840.858	14762.78
841.182	14882.09
841.507	14730.23
841.832	14713.51
842.156	14647.3
842.481	14668.31
842.805	14616.11
843.13	14533.86
843.454	14504.7
843.778	14488.21
844.103	14562.1
844.427	14440.3
844.751	14464.48
845.075	14425.16
845.399	14397.59
845.723	14277.36
846.047	14208.89
846.371	14211.83
846.695	14211.15
847.019	14141.55
847.343	13997.6
847.666	13970.93
847.99	13935
848.313	13883.25
848.637	13823.59
848.96	13734.78
849.284	13765.29
849.607	13664.73
849.931	13676.7
850.254	13589.25
850.577	13460.44
850.9	13400.33
851.223	13349.03
851.546	13275.81
851.869	13319.65
852.192	13273.32
852.515	13187.22
852.838	13227.67
853.161	13065.19
853.483	13069.94
853.806	12965.76
854.129	13013.9
854.451	12903.16
854.774	12850.06
855.096	12763.96
855.419	12730.51
855.741	12715.6
856.063	12723.28
856.385	12613.91
856.708	12593.34
857.03	12536.39
857.352	12665.2
857.674	12518.99
857.996	12498.43
858.318	12363.29
858.64	12473.12
858.961	12362.84
859.283	12319.9
859.605	12246.91
859.926	12268.38
860.248	12137.31
860.57	12210.98
860.891	12243.97
861.212	12063.19
861.534	12126.23
861.855	12083.3
862.176	12086.91
862.498	12063.86
862.819	12010.76
863.14	11999.68
863.461	11959.01
863.782	11949.29
864.103	11908.61
864.424	11898.22
864.745	11937.09
865.065	11857.32
865.386	11780.03
865.707	11782.52
866.027	11703.65
866.348	11709.97
866.668	11789.29
866.989	11778.22
867.309	11672.46
867.63	11683.08
867.95	11806.24
868.27	11597.44
868.59	11642.41
868.91	11590.43
869.23	11533.48
869.55	11561.73
869.87	11633.37
870.19	11491.22
870.51	11537.78
870.83	11488.06
871.15	11460.26
871.469	11516.31
871.789	11462.75
872.109	11482.86
872.428	11399.25
872.748	11385.92
873.067	11349.31
873.386	11378.68
873.706	11317.67
874.025	11247.16
874.344	11272.92
874.663	11241.29
874.982	11226.37
875.301	11159.03
875.62	11181.63
875.939	11148.41
876.258	11146.6
876.577	11138.92
876.896	11137.33
877.214	11113.15
877.533	11074.96
877.852	11020.5
878.17	11062.08
878.489	11047.17
878.807	11062.76
879.125	11041.97
879.444	10984.12
879.762	10935.76
880.08	10926.04
880.398	10953.16
880.716	10961.97
881.034	10931.24
881.352	10907.28
881.67	10865.25
881.988	10858.47
882.306	10796.55
882.624	10814.63
882.941	10740.28
883.259	10763.33
883.577	10715.42
883.894	10672.94
884.212	10666.39
884.529	10630.45
884.846	10643.56
885.164	10556.11
885.481	10605.6
885.798	10533.73
886.115	10456
886.432	10519.72
886.75	10447.63
887.067	10470.91
887.383	10381.42
887.7	10461.65
888.017	10338.49
888.334	10354.76
888.651	10322.44
888.967	10316.11
889.284	10300.29
889.6	10218.94
889.917	10190.24
890.233	10197.47
890.55	10172.61
890.866	10129.9
891.182	10095.33
891.498	10072.5
891.815	10036.35
892.131	10015.1
892.447	9961.77
892.763	10038.15
893.079	9910.47
893.395	9823.47
893.71	9811.04
894.026	9788.22
894.342	9755.22
894.657	9670.25
894.973	9674.32
895.289	9688.78
895.604	9634.55
895.92	9599.52
896.235	9477.49
896.55	9516.13
896.865	9497.38
897.181	9486.08
897.496	9449.92
897.811	9333.31
898.126	9353.43
898.441	9331.05
898.756	9314.56
899.071	9242.92
899.386	9270.26
899.7	9141
900.015	9138.06
900.33	9077.73
900.644	9091.06
900.959	9129.93
901.273	9048.35
901.588	9072.53
901.902	9014
902.216	8935.81
902.531	8828.24
902.845	8804.97
903.159	8835.7
903.473	8807.45
903.787	8769.49
904.101	8680
904.415	8721.8
904.729	8661.47
905.042	8707.79
905.356	8655.59
905.67	8594.35
905.984	8531.08
906.297	8581.24
906.611	8489.72
906.924	8486.1
907.237	8450.85
907.551	8391.87
907.864	8357.75
908.177	8362.72
908.491	8364.98
908.804	8285.66
909.117	8201.37
909.43	8183.97
909.743	8099.9
910.056	8114.36
910.368	8097.87
910.681	7998.21
910.994	8036.17
911.307	8012.22
911.619	7960.02
911.932	7892.9
912.244	7902.84
912.557	7868.95
912.869	7816.29
913.181	7759.57
913.494	7746.91
913.806	7723.41
914.118	7713.02
914.43	7729.74
914.742	7680.7
915.054	7623.75
915.366	7611.33
915.678	7560.25
915.99	7485.9
916.302	7426.92
916.613	7389.64
916.925	7461.27
917.236	7381.27
917.548	7395.96
917.859	7367.04
918.171	7283.2
918.482	7267.38
918.794	7247.27
919.105	7238.23
919.416	7161.17
919.727	7155.29
920.038	7122.52
920.349	7051.57
920.66	7011.57
920.971	7046.59
921.282	6994.62
921.593	6938.8
921.903	6933.38
922.214	6889.31
922.525	6894.51
922.835	6832.36
923.146	6800.27
923.456	6781.97
923.767	6777.45
924.077	6783.55
924.387	6706.26
924.697	6694.29
925.008	6629.43
925.318	6623.33
925.628	6606.83
925.938	6598.02
926.248	6538.13
926.558	6508.53
926.867	6497.91
927.177	6467.4
927.487	6435.09
927.796	6377.69
928.106	6391.7
928.416	6389.89
928.725	6339.95
929.034	6318.03
929.344	6319.38
929.653	6268.54
929.962	6208.2
930.271	6196.9
930.581	6209.33
930.89	6128.2
931.199	6106.28
931.508	6104.25
931.817	6101.99
932.125	6038.03
932.434	6040.29
932.743	5962.56
933.051	5984.25
933.36	5964.36
933.669	5895.66
933.977	5897.92
934.286	5906.06
934.594	5874.2
934.902	5797.14
935.21	5796.91
935.519	5799.4
935.827	5729.57
936.135	5771.15
936.443	5683.01
936.751	5662.68
937.059	5677.14
937.367	5589.01
937.674	5618.38
937.982	5574.32
938.29	5581.55
938.597	5617.03
938.905	5537.93
939.213	5474.88
939.52	5460.87
939.827	5453.87
940.135	5429.01
940.442	5401.44
940.749	5405.51
941.056	5415.9
941.363	5315.79
941.67	5315.57
941.977	5285.06
942.284	5226.3
942.591	5252.07
942.898	5234.66
943.205	5180.65
943.511	5161.45
943.818	5151.05
944.125	5097.72
944.431	5097.27
944.738	5075.35
945.044	5033.31
945.35	5043.94
945.657	4979.08
945.963	5021.34
946.269	4965.07
946.575	4953.54
946.881	4925.75
947.187	4899.53
947.493	4904.28
947.799	4916.93
948.105	4860.66
948.41	4803.94
948.716	4831.29
949.022	4830.16
949.327	4816.82
949.633	4757.62
949.938	4749.25
950.244	4740.44
950.549	4735.24
950.854	4614.79
951.16	4679.65
951.465	4584.51
951.77	4602.14
952.075	4570.28
952.38	4539.54
952.685	4547.9
952.99	4535.25
953.294	4474.68
953.599	4444.85
953.904	4446.44
954.209	4445.53
954.513	4461.13
954.818	4398.08
955.122	4404.4
955.426	4375.25
955.731	4326.44
956.035	4358.08
956.339	4332.99
956.643	4298.19
956.948	4260.68
957.252	4270.4
957.556	4250.96
957.86	4254.13
958.163	4198.53
958.467	4204.64
958.771	4192.88
959.075	4153.79
959.378	4112.43
959.682	4136.61
959.985	4119.44
960.289	4033.34
960.592	4040.35
960.896	4088.71
961.199	4047.35
961.502	4020.23
961.805	4008.93
962.108	3967.35
962.411	3997.41
962.714	3941.82
963.017	3953.12
963.32	3907.92
963.623	3874.47
963.926	3891.2
964.228	3817.98
964.531	3874.02
964.833	3847.58
965.136	3778.66
965.438	3823.4
965.741	3733.69
966.043	3761.71
966.345	3762.39
966.648	3774.82
966.95	3703.86
967.252	3711.09
967.554	3702.95
967.856	3651.43
968.158	3643.97
968.46	3615.5
968.761	3613.46
969.063	3600.58
969.365	3590.19
969.666	3566.23
969.968	3557.87
970.269	3559.23
970.571	3540.7
970.872	3556.97
971.174	3505.44
971.475	3464.99
971.776	3493.69
972.077	3427.71
972.378	3466.58
972.679	3393.58
972.98	3390.19
973.281	3397.88
973.582	3405.56
973.883	3361.04
974.183	3366.24
974.484	3288.95
974.785	3307.71
975.085	3284.21
975.386	3320.59
975.686	3281.72
975.986	3279.01
976.287	3242.17
976.587	3214.15
976.887	3236.3
977.187	3220.93
977.487	3179.13
977.787	3162.85
978.087	3152.23
978.387	3175.06
978.687	3166.47
978.987	3135.06
979.286	3079.92
979.586	3103.65
979.885	3100.94
980.185	3063.65
980.484	3057.32
980.784	3041.73
981.083	2995.18
981.382	2987.04
981.682	3005.34
981.981	3005.57
982.28	2981.84
982.579	2961.5
982.878	2923.09
983.177	2942.07
983.475	2905.91
983.774	2921.96
984.073	2889.19
984.372	2837.21
984.67	2868.17
984.969	2832.47
985.267	2850.09
985.566	2830.21
985.864	2834.95
986.162	2805.35
986.461	2758.57
986.759	2762.41
987.057	2759.02
987.355	2764.67
987.653	2683.55
987.951	2758.57
988.249	2690.78
988.547	2702.3
988.844	2700.72
989.142	2698.69
989.44	2637.9
989.737	2631.34
990.035	2617.78
990.332	2604
990.63	2572.14
990.927	2630.44
991.224	2600.16
991.521	2554.74
991.819	2555.19
992.116	2523.78
992.413	2534.4
992.71	2538.69
993.006	2507.73
993.303	2471.57
993.6	2496.43
993.897	2444.91
994.193	2445.81
994.49	2435.64
994.787	2441.29
995.083	2432.7
995.379	2413.5
995.676	2425.02
995.972	2373.5
996.268	2383.89
996.565	2348.41
996.861	2375.98
997.157	2368.3
997.453	2328.07
997.749	2340.5
998.044	2322.88
998.34	2316.55
998.636	2262.09
998.932	2256.66
999.227	2265.48
999.523	2272.71
999.818	2275.65
1000.114	2230.22
1000.409	2222.31
1000.704	2220.51
1001	2202.2
1001.295	2182.54
1001.59	2140.06
1001.885	2177.57
1002.18	2134.18
1002.475	2121.07
1002.77	2111.36
1003.065	2147.97
1003.359	2100.51
1003.654	2092.83
1003.949	2080.4
1004.243	2098.7
1004.538	2060.74
1004.832	2045.82
1005.127	2035.88
1005.421	2010.12
1005.715	2002.21
1006.009	2015.09
1006.304	1997.69
1006.598	1977.8
1006.892	1960.4
1007.186	1973.73
1007.48	1960.17
1007.773	1924.02
1008.067	1928.99
1008.361	1917.46
1008.655	1896
1008.948	1887.86
1009.242	1887.18
1009.535	1852.38
1009.829	1834.3
1010.122	1836.34
1010.415	1834.75
1010.708	1820.97
1011.001	1797.01
1011.295	1808.09
1011.588	1807.41
1011.881	1807.86
1012.173	1760.63
1012.466	1756.34
1012.759	1764.7
1013.052	1731.93
1013.344	1738.26
1013.637	1717.92
1013.93	1737.36
1014.222	1672.05
1014.514	1694.42
1014.807	1681.09
1015.099	1669.56
1015.391	1671.37
1015.683	1665.94
1015.976	1676.57
1016.268	1638.15
1016.56	1622.78
1016.851	1577.36
1017.143	1619.62
1017.435	1576.46
1017.727	1588.21
1018.018	1562.9
1018.31	1574.2
1018.602	1556.12
1018.893	1547.53
1019.185	1519.73
1019.476	1524.25
1019.767	1515.44
1020.058	1487.19
1020.35	1492.39
1020.641	1497.59
1020.932	1476.12
1021.223	1475.89
1021.514	1453.75
1021.804	1434.99
1022.095	1450.13
1022.386	1418.95
1022.677	1432.5
1022.967	1420.3
1023.258	1395.9
1023.548	1387.08
1023.839	1377.36
1024.129	1384.82
1024.419	1364.26
1024.709	1342.79
1025	1344.6
1025.29	1333.75
1025.58	1309.57
1025.87	1321.32
1026.16	1320.64
1026.449	1299.85
1026.739	1283.81
1027.029	1312.28
1027.319	1269.8
1027.608	1267.09
1027.898	1276.8
1028.187	1236.13
1028.477	1227.54
1028.766	1241.1
1029.055	1239.52
1029.344	1232.96
1029.634	1227.54
1029.923	1180.76
1030.212	1195.9
1030.501	1198.84
1030.79	1159.07
1031.078	1187.09
1031.367	1142.57
1031.656	1168.56
1031.945	1155.9
1032.233	1135.11
1032.522	1137.15
1032.81	1138.73
1033.099	1112.74
1033.387	1108.9
1033.675	1093.08
1033.963	1120.42
1034.251	1098.95
1034.54	1072.74
1034.828	1076.36
1035.116	1057.15
1035.403	1067.77
1035.691	1045.85
1035.979	1063.93
1036.267	1060.31
1036.554	1041.33
1036.842	1039.75
1037.129	1040.88
1037.417	996.36
1037.704	1017.15
1037.992	994.32
1038.279	978.51
1038.566	991.39
1038.853	991.39
1039.14	991.39
