Data from hue_130_FLMS001491_00023.txt Node
Date: Tue Feb 07 16:57:23 GMT 2017
User: dcchb
Spectrometer: FLMS00149
Trigger mode: 0
Integration Time (sec): 2.000000E-2
Scans to average: 10
Electric dark correction enabled: true
Nonlinearity correction enabled: false
Boxcar width: 0
XAxis mode: Wavelengths
Number of Pixels in Spectrum: 2048
>>>>>Begin Spectral Data<<<<<
341.393	-10.35
341.776	-10.35
342.16	-10.35
342.543	-60.07
342.927	-64.81
343.31	-64.59
343.693	-83.35
344.077	-67.53
344.46	-70.01
344.843	-63.68
345.226	-48.54
345.61	-20.97
345.993	-29.56
346.376	-16
346.759	0.04
347.142	41.85
347.525	52.02
347.908	75.97
348.291	86.82
348.674	88.4
349.057	119.14
349.44	128.17
349.823	145.35
350.206	160.94
350.588	184.44
350.971	214.73
351.354	220.6
351.737	219.02
352.119	248.4
352.502	274.84
352.884	278.91
353.267	288.62
353.65	287.94
354.032	305.8
354.414	313.03
354.797	329.98
355.179	326.59
355.562	311.9
355.944	318.9
356.326	320.49
356.709	340.6
357.091	326.59
357.473	340.6
357.855	327.94
358.238	344.89
358.62	332.91
359.002	320.71
359.384	339.69
359.766	328.62
360.148	343.31
360.53	339.69
360.912	334.5
361.294	350.09
361.676	343.99
362.057	324.55
362.439	346.47
362.821	323.65
363.203	331.79
363.584	317.77
363.966	320.26
364.348	336.98
364.729	308.06
365.111	336.98
365.493	318.68
365.874	324.78
366.256	323.65
366.637	320.71
367.019	319.13
367.4	328.62
367.781	316.19
368.163	327.94
368.544	308.73
368.925	287.04
369.306	320.03
369.688	311.45
370.069	316.19
370.45	309.19
370.831	312.8
371.212	307.83
371.593	346.7
371.974	313.48
372.355	322.07
372.736	342.41
373.117	325.68
373.498	314.16
373.879	322.52
374.26	306.02
374.641	324.33
375.021	301.28
375.402	320.71
375.783	331.33
376.163	334.04
376.544	326.14
376.925	320.03
377.305	346.93
377.686	334.72
378.066	326.81
378.447	318.45
378.827	330.88
379.208	301.5
379.588	341.95
379.968	339.02
380.349	345.57
380.729	353.25
381.109	327.49
381.489	348.96
381.87	342.41
382.25	332.24
382.63	354.61
383.01	349.19
383.39	344.89
383.77	346.02
384.15	359.58
384.53	355.51
384.91	345.8
385.29	342.63
385.67	344.21
386.049	341.28
386.429	365.68
386.809	367.04
387.189	359.58
387.568	350.77
387.948	335.85
388.328	368.85
388.707	369.07
389.087	361.16
389.466	360.03
389.846	376.76
390.225	386.92
390.605	359.58
390.984	374.5
391.363	363.42
391.743	379.24
392.122	372.91
392.501	372.46
392.881	399.35
393.26	416.53
393.639	384.89
394.018	401.84
394.397	382.41
394.776	383.31
395.155	388.51
395.534	388.51
395.913	387.38
396.292	401.84
396.671	396.19
397.05	392.57
397.429	400.48
397.808	391.67
398.186	382.41
398.565	394.16
398.944	389.64
399.323	407.72
399.701	418.56
400.08	395.74
400.458	422.86
400.837	409.07
401.215	420.14
401.594	416.98
401.972	408.85
402.351	420.6
402.729	421.05
403.107	419.69
403.486	442.29
403.864	416.08
404.242	425.79
404.62	414.27
404.999	442.97
405.377	454.49
405.755	445.68
406.133	443.87
406.511	427.83
406.889	433.48
407.267	464.89
407.645	463.31
408.023	462.86
408.401	468.96
408.779	467.15
409.156	452.91
409.534	473.25
409.912	457.88
410.29	475.28
410.667	475.51
411.045	475.06
411.422	477.77
411.8	492.23
412.178	478.67
412.555	527.26
412.933	509.41
413.31	483.42
413.687	473.02
414.065	510.54
414.442	507.15
414.819	499.46
415.197	522.97
415.574	487.04
415.951	528.16
416.328	532.91
416.705	554.6
417.082	529.07
417.46	546.47
417.837	524.1
418.214	536.75
418.591	550.76
418.967	538.79
419.344	538.33
419.721	534.49
420.098	549.18
420.475	556.41
420.852	553.02
421.228	566.36
421.605	575.62
421.982	557.32
422.358	564.32
422.735	575.17
423.111	573.36
423.488	601.38
423.864	583.3
424.241	605
424.617	589.86
424.994	598.22
425.37	615.62
425.746	622.4
426.123	630.31
426.499	600.7
426.875	612.23
427.251	641.61
427.627	658.33
428.003	617.43
428.379	642.29
428.756	655.39
429.132	659.91
429.507	650.87
429.883	684.54
430.259	689.06
430.635	687.71
431.011	683.87
431.387	688.16
431.763	699.68
432.138	716.41
432.514	727.25
432.89	717.99
433.265	699.68
433.641	738.78
434.016	729.51
434.392	747.59
434.767	751.21
435.143	763.19
435.518	787.37
435.894	771.32
436.269	769.51
436.644	787.14
437.02	831.43
437.395	795.5
437.77	798.67
438.145	829.17
438.52	812.45
438.895	840.47
439.271	847.7
439.646	863.75
440.021	839.57
440.395	860.13
440.77	824.65
441.145	865.78
441.52	857.87
441.895	891.54
442.27	857.19
442.645	896.29
443.019	887.93
443.394	872.11
443.769	903.52
444.143	892
444.518	923.41
444.892	882.96
445.267	897.19
445.641	948.49
446.016	933.58
446.39	943.75
446.764	942.62
447.139	944.42
447.513	964.99
447.887	968.38
448.262	946.91
448.636	960.24
449.01	984.2
449.384	984.88
449.758	999.79
450.132	996.63
450.506	1003.41
450.88	1024.2
451.254	1015.16
451.628	1029.62
452.002	1035.5
452.376	1052.67
452.75	1075.04
453.123	1047.47
453.497	1079.11
453.871	1070.97
454.244	1119.11
454.618	1122.72
454.992	1119.11
455.365	1143.52
455.739	1180.12
456.112	1161.59
456.486	1183.97
456.859	1176.28
457.232	1181.93
457.606	1215.38
457.979	1237.75
458.352	1252.66
458.725	1274.59
459.099	1288.6
459.472	1276.84
459.845	1297.18
460.218	1330.63
460.591	1341.02
460.964	1330.85
461.337	1378.76
461.71	1368.82
462.083	1425.54
462.456	1393.68
462.829	1440.68
463.201	1494.92
463.574	1447.69
463.947	1466.67
464.32	1489.72
464.692	1520.23
465.065	1557.74
465.438	1590.96
465.81	1606.1
466.183	1618.08
466.555	1658.98
466.928	1646.55
467.3	1679.77
467.672	1696.04
468.045	1756.38
468.417	1774.01
468.789	1769.49
469.161	1795.48
469.534	1846.55
469.906	1907.56
470.278	1920.67
470.65	1934
471.022	1966.09
471.394	2023.27
471.766	2026.43
472.138	2086.54
472.51	2136.71
472.882	2134
473.253	2192.75
473.625	2242.24
473.997	2298.29
474.369	2357.27
474.74	2368.12
475.112	2449.02
475.484	2505.06
475.855	2605.17
476.227	2589.8
476.598	2701.21
476.97	2725.17
477.341	2802
477.713	2877.93
478.084	2924.94
478.455	3006.52
478.827	3055.1
479.198	3201.09
479.569	3246.96
479.94	3394.98
480.311	3410.8
480.682	3545.26
481.053	3674.52
481.424	3704.8
481.795	3853.73
482.166	3940.96
482.537	3991.8
482.908	4133.49
483.279	4225.24
483.65	4357.44
484.021	4495.97
484.391	4552.01
484.762	4710.43
485.133	4790.65
485.503	4901.83
485.874	5108.61
486.244	5190.87
486.615	5361.94
486.985	5465.66
487.356	5552.89
487.726	5705.66
488.097	5889.61
488.467	5962.82
488.837	6145.87
489.207	6219.77
489.578	6421.79
489.948	6533.88
490.318	6724.61
490.688	6832.41
491.058	6955.34
491.428	7161.44
491.798	7330.92
492.168	7532.5
492.538	7556.91
492.908	7740.86
493.278	7916.22
493.648	7992.6
494.017	8202.76
494.387	8292.03
494.757	8445.02
495.126	8584.22
495.496	8656.54
495.866	8777.89
496.235	8929.98
496.605	9148.73
496.974	9220.59
497.344	9366.8
497.713	9440.02
498.082	9558.89
498.452	9750.75
498.821	9850.86
499.19	9981.02
499.559	10156.39
499.928	10258.3
500.298	10266.44
500.667	10416.49
501.036	10485.19
501.405	10666.43
501.774	10717.5
502.143	10725.64
502.512	10959.08
502.88	11030.26
503.249	11142.8
503.618	11152.97
503.987	11304.38
504.356	11361.1
504.724	11524.71
505.093	11556.57
505.462	11652.39
505.83	11731.94
506.199	11916.79
506.567	12057.35
506.936	11936
507.304	12117.24
507.672	12276.56
508.041	12341.64
508.409	12322.2
508.777	12549.54
509.145	12571.01
509.514	12573.27
509.882	12655.53
510.25	12747.73
510.618	12810.78
510.986	12849.42
511.354	12993.15
511.722	13113.82
512.09	13204.89
512.458	13126.02
512.826	13362.18
513.193	13266.13
513.561	13310.2
513.929	13424.55
514.297	13470.87
514.664	13616.86
515.032	13580.93
515.4	13636.07
515.767	13681.49
516.135	13839.9
516.502	13695.28
516.869	13936.4
517.237	13971.43
517.604	13882.84
517.972	14048.26
518.339	14080.12
518.706	14083.51
519.073	14116.28
519.44	14175.49
519.808	14247.13
520.175	14207.35
520.542	14382.04
520.909	14425.65
521.276	14391.75
521.643	14496.61
522.009	14465.65
522.376	14601.24
522.743	14654.35
523.11	14624.29
523.477	14765.53
523.843	14853.89
524.21	15039.19
524.577	14946.99
524.943	14962.81
525.31	14969.14
525.676	15119.64
526.043	15076.93
526.409	15111.74
526.776	15257.95
527.142	15301.11
527.508	15240.32
527.874	15240.32
528.241	15344.5
528.607	15360.54
528.973	15473.08
529.339	15277.38
529.705	15504.04
530.071	15492.29
530.437	15523.02
530.803	15579.75
531.169	15481.67
531.535	15488.67
531.901	15527.09
532.267	15496.13
532.632	15457.49
532.998	15486.64
533.364	15568.45
533.73	15515.57
534.095	15604.83
534.461	15619.74
534.826	15488
535.192	15544.04
535.557	15590.82
535.923	15475.79
536.288	15528.67
536.653	15563.02
537.019	15495.68
537.384	15474.66
537.749	15382.91
538.114	15424.04
538.479	15383.82
538.845	15415
539.21	15294.78
539.575	15358.28
539.94	15311.5
540.305	15344.72
540.67	15262.47
541.034	15281.22
541.399	15229.92
541.764	15221.11
542.129	15194.45
542.494	15103.6
542.858	15161.23
543.223	15048.91
543.587	15130.04
543.952	15102.92
544.316	15011.17
544.681	14928.69
545.045	15000.78
545.41	15041.68
545.774	14980.21
546.138	14947.22
546.503	14857.05
546.867	14897.28
547.231	14894.57
547.595	14803.95
547.959	14854.34
548.324	14724.4
548.688	14736.38
549.052	14796.94
549.416	14674.01
549.779	14685.08
550.143	14615.7
550.507	14656.15
550.871	14647.57
551.235	14610.73
551.599	14654.8
551.962	14550.62
552.326	14448.25
552.689	14608.7
553.053	14501.36
553.417	14489.83
553.78	14541.13
554.143	14440.57
554.507	14423.84
554.87	14482.15
555.234	14550.39
555.597	14369.61
555.96	14354.02
556.323	14375.03
556.686	14334.35
557.05	14448.48
557.413	14343.85
557.776	14421.58
558.139	14354.92
558.502	14305.43
558.865	14256.84
559.228	14280.34
559.59	14359.44
559.953	14324.41
560.316	14440.57
560.679	14456.16
561.041	14427.69
561.404	14439.89
561.767	14389.04
562.129	14334.35
562.492	14526.67
562.854	14466.78
563.217	14425.88
563.579	14355.37
563.941	14484.41
564.304	14553.78
564.666	14548.36
565.028	14581.81
565.39	14545.2
565.753	14589.04
566.115	14613.9
566.477	14692.09
566.839	14624.06
567.201	14648.24
567.563	14615.03
567.925	14635.36
568.287	14775.02
568.648	14811.86
569.01	14739.32
569.372	14798.07
569.734	14792.2
570.095	14825.19
570.457	14839.43
570.819	14844.85
571.18	14775.02
571.542	14854.79
571.903	14790.61
572.265	14912.19
572.626	14889.14
572.987	14948.58
573.349	14943.38
573.71	14976.37
574.071	14890.05
574.432	15072.19
574.794	15142.92
575.155	15025.18
575.516	14957.62
575.877	14928.46
576.238	15029.03
576.599	15062.02
576.96	15087.56
577.32	15044.17
577.681	15010.04
578.042	15135.92
578.403	15042.13
578.763	15022.7
579.124	15078.06
579.485	15101.57
579.845	15049.14
580.206	15138.4
580.566	15139.08
580.927	15066.54
581.287	15120.55
581.648	15073.54
582.008	15074.22
582.368	15058.63
582.728	15082.36
583.089	15079.87
583.449	15046.65
583.809	15091.85
584.169	15152.86
584.529	15068.57
584.889	15162.13
585.249	15035.35
585.609	14996.26
585.969	15047.78
586.329	15073.77
586.688	15111.06
587.048	14938.86
587.408	15010.5
587.768	14925.98
588.127	14981.12
588.487	14915.81
588.846	14979.31
589.206	14897.96
589.565	14850.27
589.925	14899.54
590.284	14911.29
590.643	14880.78
591.003	14927.79
591.362	14975.69
591.721	14800.56
592.08	14884.85
592.44	14890.27
592.799	14910.61
593.158	14907.67
593.517	14885.53
593.876	14982.7
594.235	14852.08
594.593	14822.7
594.952	14909.48
595.311	14803.27
595.67	14926.88
596.029	14966.65
596.387	14855.47
596.746	14831.29
597.104	14849.37
597.463	14764.85
597.822	14946.77
598.18	14851.86
598.538	14820.22
598.897	14917.39
599.255	14791.74
599.613	14920.55
599.972	14868.8
600.33	14863.83
600.688	14772.31
601.046	14842.82
601.404	14949.48
601.762	14826.09
602.12	14890.95
602.478	14878.3
602.836	14910.84
603.194	14786.09
603.552	14841.01
603.91	14785.42
604.268	14845.98
604.625	14786.32
604.983	14861.8
605.341	14823.38
605.698	14964.39
606.056	14863.61
606.413	14838.3
606.771	14759.88
607.128	14887.79
607.485	14778.41
607.843	14797.62
608.2	14882.14
608.557	14906.77
608.914	14791.74
609.272	14961.68
609.629	14887.79
609.986	14978.41
610.343	14936.82
610.7	14968.01
611.057	14961.46
611.414	14944.06
611.771	14919.65
612.127	14991.06
612.484	14950.61
612.841	15051.85
613.198	15004.85
613.554	14976.37
613.911	15111.51
614.267	15165.75
614.624	15058.86
614.98	15099.98
615.337	15209.36
615.693	15179.08
616.05	15091.4
616.406	15193.77
616.762	15156.71
617.118	15144.05
617.475	15186.99
617.831	15150.83
618.187	15266.53
618.543	15147.89
618.899	15280.32
619.255	15215.46
619.611	15158.97
619.967	15296.59
620.323	15290.26
620.678	15125.75
621.034	15221.56
621.39	15233.09
621.746	15188.34
622.101	15366.42
622.457	15238.29
622.812	15292.07
623.168	15279.87
623.523	15289.58
623.879	15293.2
624.234	15195.8
624.589	15310.6
624.945	15277.61
625.3	15318.06
625.655	15208.68
626.01	15367.32
626.365	15309.24
626.72	15305.18
627.075	15267.44
627.43	15245.07
627.785	15285.52
628.14	15238.29
628.495	15302.46
628.85	15292.3
629.205	15235.57
629.559	15302.92
629.914	15130.72
630.269	15262.24
630.623	15115.35
630.978	15143.37
631.332	15196.25
631.687	15271.73
632.041	15150.38
632.396	15182.24
632.75	15094.56
633.104	15190.38
633.459	15033.55
633.813	15113.09
634.167	15023.6
634.521	15026.31
634.875	15057.27
635.229	14961.91
635.583	14952.19
635.937	14910.16
636.291	14901.8
636.645	14887.79
636.999	14939.76
637.352	14885.07
637.706	14794
638.06	14820.9
638.413	14805.98
638.767	14774.34
639.121	14863.83
639.474	14747.68
639.828	14846.88
640.181	14740.9
640.534	14801.46
640.888	14671.52
641.241	14712.42
641.594	14704.74
641.947	14732.76
642.301	14701.12
642.654	14734.8
643.007	14734.34
643.36	14744.97
643.713	14669.26
644.066	14729.6
644.419	14619.54
644.771	14627.23
645.124	14420.91
645.477	14351.98
645.83	14310.17
646.182	14236.05
646.535	14200.57
646.888	14187.69
647.24	14044.87
647.593	14222.27
647.945	14188.6
648.298	14015.49
648.65	14006
649.002	13977.08
649.355	14148.37
649.707	14117.41
650.059	14236.05
650.411	14368.25
650.763	14345.2
651.115	14515.37
651.467	14448.93
651.819	14463.62
652.171	14445.09
652.523	14457.52
652.875	14374.81
653.227	14391.08
653.578	14491.19
653.93	14479.66
654.282	14384.75
654.633	14368.03
654.985	14446.67
655.337	14499.1
655.688	14405.09
656.039	14456.61
656.391	14454.13
656.742	14386.1
657.094	14566.44
657.445	14512.43
657.796	14424.52
658.147	14468.14
658.498	14420.45
658.849	14413.22
659.2	14469.04
659.551	14425.88
659.902	14462.71
660.253	14472.43
660.604	14540.45
660.955	14374.58
661.306	14548.59
661.656	14476.05
662.007	14404.64
662.358	14521.47
662.708	14518.98
663.059	14444.41
663.409	14496.38
663.76	14590.39
664.11	14538.64
664.461	14626.55
664.811	14523.05
665.161	14453
665.511	14456.16
665.862	14469.04
666.212	14496.16
666.562	14531.19
666.912	14520.34
667.262	14443.96
667.612	14521.92
667.962	14515.59
668.312	14432.43
668.662	14511.75
669.011	14505.65
669.361	14479.44
669.711	14450.96
670.06	14438.53
670.41	14363.05
670.76	14406.9
671.109	14474.46
671.459	14479.21
671.808	14393.56
672.157	14505.88
672.507	14420
672.856	14387.23
673.205	14469.27
673.554	14439.66
673.904	14411.19
674.253	14445.76
674.602	14379.1
674.951	14161.25
675.3	14064.98
675.649	14325.77
675.998	14340.68
676.346	14318.54
676.695	14358.53
677.044	14269.95
677.393	14309.04
677.741	14264.3
678.09	14316.28
678.438	14199.67
678.787	14239.44
679.135	14231.53
679.484	14100.69
679.832	14100.24
680.181	14056.17
680.529	14100.01
680.877	13967.58
681.225	14027.47
681.573	14067.47
681.922	13971.65
682.27	13944.99
682.618	13966.68
682.966	13858.44
683.314	13923.74
683.661	13855.05
684.009	13794.03
684.357	13813.24
684.705	13799.68
685.053	13790.41
685.4	13818.21
685.748	13723.75
686.095	13674.71
686.443	13614.6
686.79	13664.99
687.138	13650.76
687.485	13542.74
687.832	13496.64
688.18	13535.28
688.527	13483.76
688.874	13449.41
689.221	13447.37
689.568	13406.7
689.915	13321.05
690.262	13333.48
690.609	13207.6
690.956	13151.79
691.303	13116.99
691.65	13097.33
691.997	13054.39
692.344	13048.06
692.69	13022.52
693.037	13029.3
693.383	12849.42
693.73	12921.28
694.077	12802.19
694.423	12792.93
694.769	12798.35
695.116	12708.41
695.462	12643.1
695.808	12595.19
696.155	12621.41
696.501	12555.87
696.847	12572.59
697.193	12471.35
697.539	12528.98
697.885	12404.24
698.231	12359.72
698.577	12380.96
698.923	12318.36
699.269	12311.13
699.614	12173.06
699.96	12120.63
700.306	12106.16
700.651	12093.51
700.997	11993.17
701.342	11897.13
701.688	11971.03
702.033	11884.02
702.379	11879.5
702.724	11811.48
703.069	11914.98
703.415	11789.34
703.76	11693.52
704.105	11678.38
704.45	11683.35
704.795	11592.96
705.14	11503.69
705.485	11523.13
705.83	11496.24
706.175	11475.67
706.52	11436.58
706.865	11378.95
707.209	11464.6
707.554	11387.09
707.899	11333.3
708.243	11307.77
708.588	11211.95
708.932	11138.51
709.277	11184.38
709.621	11192.29
709.966	11034.33
710.31	11126.08
710.654	11033.65
710.998	11055.8
711.342	11022.13
711.687	11016.93
712.031	10941.9
712.375	10916.14
712.719	10863.26
713.063	10833.88
713.407	10926.31
713.75	10759.99
714.094	10801.34
714.438	10783.71
714.782	10692.42
715.125	10744.39
715.469	10719.31
715.812	10630.72
716.156	10643.15
716.499	10620.33
716.843	10584.62
717.186	10593.44
717.53	10639.54
717.873	10548.47
718.216	10529.93
718.559	10447.45
718.902	10435.02
719.246	10479.77
719.589	10462.59
719.932	10409.94
720.275	10428.69
720.617	10367.68
720.96	10351.18
721.303	10353.44
721.646	10405.64
721.989	10435.7
722.331	10343.5
722.674	10367.68
723.016	10301.01
723.359	10299.66
723.701	10339.21
724.044	10301.24
724.386	10259.21
724.729	10243.39
725.071	10342.6
725.413	10280
725.755	10167.68
726.097	10203.16
726.439	10123.62
726.782	10207.68
727.124	10197.51
727.465	10242.71
727.807	10261.47
728.149	10105.54
728.491	10143.96
728.833	10114.8
729.175	10135.82
729.516	10111.87
729.858	10150.28
730.199	10147.12
730.541	10172.88
730.882	10098.76
731.224	10166.55
731.565	10088.59
731.906	10110.29
732.248	10056.73
732.589	10028.03
732.93	10064.41
733.271	9969.27
733.612	10061.02
733.953	10113.67
734.294	10115.71
734.635	10000.91
734.976	10070.96
735.317	10020.12
735.658	10004.53
735.999	10072.77
736.339	10068.7
736.68	10107.35
737.021	10091.08
737.361	10069.61
737.702	10137.63
738.042	10079.33
738.383	10037.74
738.723	10158.42
739.063	10081.81
739.404	10142.37
739.744	10121.36
740.084	10148.48
740.424	10185.31
740.764	10112.09
741.104	10190.96
741.444	10137.18
741.784	10176.95
742.124	10185.54
742.464	10235.48
742.804	10166.33
743.143	10241.58
743.483	10286.78
743.823	10246.33
744.162	10295.59
744.502	10357.51
744.841	10345.53
745.181	10407.9
745.52	10423.72
745.86	10442.93
746.199	10397.96
746.538	10470.95
746.877	10641.8
747.216	10644.73
747.556	10638.18
747.895	10720.66
748.234	10780.1
748.573	10747.33
748.911	10835.69
749.25	10870.04
749.589	11001.79
749.928	11021
750.267	11137.15
750.605	11174.89
750.944	11252.85
751.283	11276.13
751.621	11470.7
751.96	11403.81
752.298	11511.38
752.636	11633.41
752.975	11726.97
753.313	11773.07
753.651	11945.49
753.989	12037.92
754.327	12099.16
754.666	12218.03
755.004	12359.49
755.342	12523.33
755.679	12556.32
756.017	12648.98
756.355	12855.52
756.693	13021.62
757.031	13152.69
757.368	13283.76
757.706	13401.27
758.044	13585.22
758.381	13728.95
758.719	13799.23
759.056	14047.36
759.394	14195.38
759.731	14257.97
760.068	14481.02
760.405	14600.79
760.743	14752.2
761.08	14867.67
761.417	14965.98
761.754	15159.64
762.091	15408
762.428	15497.71
762.765	15567.32
763.102	15856.12
763.438	15951.49
763.775	16024.93
764.112	16272.38
764.449	16513.73
764.785	16598.7
765.122	16669.89
765.458	16749.43
765.795	16952.82
766.131	17200.27
766.467	17241.85
766.804	17389.42
767.14	17552.12
767.476	17660.37
767.812	17755.06
768.148	17859.23
768.485	17966.35
768.821	18010.87
769.157	18123.18
769.492	18336.51
769.828	18449.5
770.164	18401.37
770.5	18463.06
770.836	18645.88
771.171	18597.29
771.507	18825.76
771.842	18667.12
772.178	18922.71
772.513	19039.77
772.849	19068.69
773.184	19163.15
773.519	19196.6
773.855	19145.08
774.19	19310.27
774.525	19249.48
774.86	19431.4
775.195	19477.5
775.53	19520.21
775.865	19497.83
776.2	19485.18
776.535	19463.49
776.87	19595.46
777.205	19545.07
777.539	19592.97
777.874	19753.65
778.209	19578.51
778.543	19668
778.878	19628.68
779.212	19684.5
779.547	19686.76
779.881	19742.12
780.215	19688.34
780.55	19760.88
780.884	19710.26
781.218	19765.4
781.552	19746.19
781.886	19764.49
782.22	19663.48
782.554	19695.8
782.888	19549.81
783.222	19501.45
783.556	19489.7
783.889	19565.4
784.223	19440.44
784.557	19471.39
784.89	19618.28
785.224	19449.02
785.557	19415.13
785.891	19484.28
786.224	19446.54
786.558	19446.54
786.891	19298.74
787.224	19276.82
787.557	19286.54
787.891	19281.34
788.224	19234.56
788.557	19317.73
788.89	19274.79
789.223	19323.83
789.556	19155.02
789.888	19096.26
790.221	18994.35
790.554	19009.03
790.887	18932.88
791.219	18898.75
791.552	18838.42
791.884	18809.27
792.217	18857.85
792.549	18772.43
792.882	18662.83
793.214	18610.4
793.546	18651.08
793.879	18660.57
794.211	18391.65
794.543	18507.8
794.875	18560.91
795.207	18520.01
795.539	18506
795.871	18350.29
796.203	18230.75
796.535	18220.81
796.867	18197.08
797.198	18229.62
797.53	18232.78
797.862	18142.39
798.193	18107.81
798.525	17945.11
798.856	18071.21
799.188	17805.45
799.519	17795.96
799.85	17725.68
800.182	17768.16
800.513	17789.63
800.844	17661.72
801.175	17705.34
801.506	17671.89
801.837	17572.01
802.168	17509.41
802.499	17539.92
802.83	17411.56
803.161	17283.66
803.491	17380.38
803.822	17402.07
804.153	17350.09
804.483	17179.93
804.814	17140.16
805.145	17146.26
805.475	17170.89
805.805	17061.06
806.136	17046.15
806.466	17022.87
806.796	17009.31
807.126	16909.2
807.457	16835.08
807.787	16866.94
808.117	16783.56
808.447	16817.23
808.777	16811.58
809.107	16759.15
809.436	16613.62
809.766	16694.29
810.096	16607.97
810.426	16484.81
810.755	16554.64
811.085	16524.81
811.414	16448.42
811.744	16432.83
812.073	16404.81
812.403	16344.92
812.732	16296.11
813.061	16292.04
813.39	16230.35
813.719	16147.19
814.049	16268.77
814.378	16196.23
814.707	16169.79
815.036	16068.77
815.365	16010.47
815.693	15970.02
816.022	15909.91
816.351	15851.83
816.68	15833.98
817.008	15844.37
817.337	15834.43
817.665	15708.56
817.994	15732.96
818.322	15696.35
818.651	15593.53
818.979	15594.43
819.307	15548.33
819.636	15572.06
819.964	15504.49
820.292	15624.26
820.62	15600.76
820.948	15519.41
821.276	15626.52
821.604	15487.77
821.932	15568.45
822.259	15499.07
822.587	15487.09
822.915	15471.73
823.243	15393.31
823.57	15466.75
823.898	15445.96
824.225	15400.32
824.553	15442.12
824.88	15424.04
825.207	15533.87
825.535	15451.61
825.862	15499.07
826.189	15440.77
826.516	15529.8
826.843	15487.77
827.17	15444.16
827.497	15492.52
827.824	15495.91
828.151	15528.67
828.478	15533.19
828.805	15583.36
829.131	15493.19
829.458	15497.94
829.785	15471.05
830.111	15510.59
830.438	15530.03
830.764	15472.18
831.09	15564.83
831.417	15469.24
831.743	15434.89
832.069	15386.98
832.395	15413.2
832.722	15372.75
833.048	15377.27
833.374	15502.01
833.7	15269.7
834.026	15351.5
834.351	15339.07
834.677	15329.58
835.003	15323.03
835.329	15336.14
835.654	15305.4
835.98	15230.15
836.306	15288
836.631	15249.81
836.956	15289.81
837.282	15258.17
837.607	15182.92
837.932	15192.19
838.258	15140.44
838.583	15099.53
838.908	15102.24
839.233	15090.95
839.558	15110.61
839.883	14954.45
840.208	14896.15
840.533	14973.89
840.858	14868.35
841.182	14976.37
841.507	14942.7
841.832	14860.89
842.156	14860.22
842.481	14782.25
842.805	14802.59
843.13	14784.51
843.454	14761.91
843.778	14685.31
844.103	14745.87
844.427	14612.09
844.751	14681.24
845.075	14531.19
845.399	14517.4
845.723	14413.45
846.047	14429.04
846.371	14323.06
846.695	14333
847.019	14237.86
847.343	14219.78
847.666	14093.91
847.99	14040.58
848.313	14041.48
848.637	13876.29
848.96	13914.03
849.284	13827.93
849.607	13792.22
849.931	13725.78
850.254	13716.52
850.577	13606.46
850.9	13552.45
851.223	13490.54
851.546	13454.38
851.869	13327.6
852.192	13446.02
852.515	13291.22
852.838	13226.59
853.161	13250.32
853.483	13163.99
853.806	13140.94
854.129	13046.48
854.451	13062.98
854.774	12879.7
855.096	12874.51
855.419	12862.3
855.741	12913.38
856.063	12766.26
856.385	12813.94
856.708	12786.15
857.03	12719.93
857.352	12704.12
857.674	12623.89
857.996	12576.66
858.318	12450.34
858.64	12501.63
858.961	12442.88
859.283	12457.34
859.605	12274.07
859.926	12422.09
860.248	12269.55
860.57	12263
860.891	12342.54
861.212	12265.03
861.534	12208.76
861.855	12196.78
862.176	12145.49
862.498	12201.76
862.819	12059.16
863.14	12062.78
863.461	12026.84
863.782	11970.12
864.103	12064.13
864.424	12037.24
864.745	12007.86
865.065	11946.39
865.386	11902.33
865.707	11882.44
866.027	11931.93
866.348	11864.82
866.668	11869.33
866.989	11799.51
867.309	11732.39
867.63	11751.82
867.95	11813.97
868.27	11723.12
868.59	11673.41
868.91	11729.23
869.23	11697.59
869.55	11615.33
869.87	11626.63
870.19	11651.71
870.51	11655.78
870.83	11649
871.15	11591.15
871.469	11571.72
871.789	11605.39
872.109	11547.54
872.428	11497.82
872.748	11521.77
873.067	11447.88
873.386	11428.89
873.706	11464.6
874.025	11390.03
874.344	11428.44
874.663	11437.93
874.982	11382.79
875.301	11354.55
875.62	11310.71
875.939	11285.85
876.258	11313.42
876.577	11252.4
876.896	11160.43
877.214	11142.57
877.533	11117.26
877.852	11161.1
878.17	11206.08
878.489	11152.29
878.807	11119.07
879.125	11081.11
879.444	11090.6
879.762	11039.3
880.08	11010.15
880.398	11052.63
880.716	10988.45
881.034	10981
881.352	10999.98
881.67	10981.45
881.988	10950.71
882.306	10857.38
882.624	10831.17
882.941	10817.16
883.259	10751.4
883.577	10801.57
883.894	10794.11
884.212	10761.34
884.529	10738.74
884.846	10684.73
885.164	10724.05
885.481	10698.74
885.798	10590.5
886.115	10567.67
886.432	10596.15
886.75	10498.07
887.067	10592.31
887.383	10480.22
887.7	10484.51
888.017	10480.9
888.334	10459.2
888.651	10390.96
888.967	10374.01
889.284	10296.95
889.6	10322.26
889.917	10288.81
890.233	10272.09
890.55	10182.6
890.866	10275.48
891.182	10142.15
891.498	10178.76
891.815	10182.83
892.131	10123.39
892.447	10054.24
892.763	9993.68
893.079	9943.74
893.395	9890.4
893.71	9957.52
894.026	9864.87
894.342	9882.04
894.657	9786.9
894.973	9795.72
895.289	9741.93
895.604	9741.26
895.92	9731.54
896.235	9667.58
896.55	9600.24
896.865	9656.51
897.181	9566.34
897.496	9593.01
897.811	9520.02
898.126	9493.8
898.441	9405.67
898.756	9404.54
899.071	9373.13
899.386	9354.6
899.7	9261.04
900.015	9214.04
900.33	9161.16
900.644	9161.84
900.959	9284.54
901.273	9129.07
901.588	9088.39
901.902	9069.63
902.216	9030.31
902.531	8983.76
902.845	8910.09
903.159	8894.05
903.473	8934.95
903.787	8867.15
904.101	8792.58
904.415	8816.08
904.729	8681.4
905.042	8708.74
905.356	8750.32
905.67	8680.27
905.984	8726.59
906.297	8673.71
906.611	8605.69
906.924	8601.85
907.237	8580.61
907.551	8526.15
907.864	8432.36
908.177	8422.87
908.491	8380.16
908.804	8373.38
909.117	8367.05
909.43	8300.62
909.743	8196.89
910.056	8154.18
910.368	8200.96
910.681	8142.2
910.994	8123.44
911.307	8120.05
911.619	7981.75
911.932	8098.13
912.244	7955.77
912.557	8020.85
912.869	7915.54
913.181	7922.77
913.494	7830.8
913.806	7802.32
914.118	7756.22
914.43	7744.47
914.742	7828.54
915.054	7635.55
915.366	7631.93
915.678	7606.85
915.99	7565.27
916.302	7523.91
916.613	7474.87
916.925	7501.77
917.236	7470.81
917.548	7442.11
917.859	7414.08
918.171	7386.06
918.482	7359.4
918.794	7278.95
919.105	7260.19
919.416	7214.09
919.727	7209.8
920.038	7201.21
920.349	7144.49
920.66	7117.37
920.971	7110.14
921.282	7054.77
921.593	7031.72
921.903	6982.46
922.214	6960.31
922.525	6954.21
922.835	6929.35
923.146	6874.44
923.456	6857.72
923.767	6843.03
924.077	6837.6
924.387	6774.33
924.697	6731.16
925.008	6739.98
925.318	6721.67
925.628	6676.93
925.938	6620.21
926.248	6557.38
926.558	6581.11
926.867	6584.5
927.177	6520.55
927.487	6573.65
927.796	6386.54
928.106	6445.3
928.416	6420.44
928.725	6461.57
929.034	6383.15
929.344	6371.63
929.653	6326.88
929.962	6268.8
930.271	6267.67
930.581	6248.47
930.89	6211.18
931.199	6159.65
931.508	6122.14
931.817	6149.49
932.125	6129.82
932.434	6100.22
932.743	6045.99
933.051	6052.99
933.36	5982.26
933.669	5944.74
933.977	5965.31
934.286	5930.51
934.594	5954.69
934.902	5885.76
935.21	5829.95
935.519	5803.28
935.827	5788.14
936.135	5781.59
936.443	5691.19
936.751	5735.03
937.059	5688.48
937.367	5680.57
937.674	5653
937.982	5678.09
938.29	5643.06
938.597	5561.25
938.905	5587.69
939.213	5559.9
939.52	5534.81
939.827	5534.81
940.135	5470.63
940.442	5432.22
940.749	5418.66
941.056	5446.45
941.363	5357.64
941.67	5331.88
941.977	5290.07
942.284	5282.62
942.591	5270.86
942.898	5302.5
943.205	5234.71
943.511	5229.96
943.818	5194.03
944.125	5151.77
944.431	5144.09
944.738	5142.05
945.044	5090.53
945.35	5068.38
945.657	5041.72
945.963	5030.42
946.269	5035.16
946.575	4993.36
946.881	5019.8
947.187	4941.38
947.493	4915.62
947.799	4914.04
948.105	4895.28
948.41	4852.8
948.716	4856.86
949.022	4858.22
949.327	4785
949.633	4782.06
949.938	4771.89
950.244	4757.66
950.549	4713.14
950.854	4696.64
951.16	4678.79
951.465	4644.44
951.77	4602.18
952.075	4668.62
952.38	4646.25
952.685	4600.15
952.99	4568.28
953.294	4559.47
953.599	4535.74
953.904	4511.34
954.209	4464.11
954.513	4446.48
954.818	4424.33
955.122	4447.38
955.426	4372.13
955.731	4406.25
956.035	4411.68
956.339	4353.15
956.643	4398.12
956.948	4324.22
957.252	4327.39
957.556	4300.72
957.86	4249.2
958.163	4223.66
958.467	4233.6
958.771	4193.6
959.075	4168.07
959.378	4160.16
959.682	4147.73
959.985	4125.58
960.289	4092.82
960.592	4098.47
960.896	4088.52
961.199	4108.18
961.502	4029.54
961.805	4036.09
962.108	4024.12
962.411	3998.58
962.714	3959.71
963.017	3954.74
963.32	3980.5
963.623	3942.31
963.926	3931.69
964.228	3905.25
964.531	3886.95
964.833	3874.97
965.136	3865.93
965.438	3849.88
965.741	3830
966.043	3775.99
966.345	3793.16
966.648	3782.09
966.95	3750.9
967.252	3750
967.554	3685.82
967.856	3696.67
968.158	3701.87
968.46	3670.91
968.761	3627.52
969.063	3629.55
969.365	3581.87
969.666	3605.15
969.968	3583.68
970.269	3584.35
970.571	3565.15
970.872	3572.15
971.174	3537.35
971.475	3536.9
971.776	3499.61
972.077	3478.82
972.378	3460.97
972.679	3466.17
972.98	3457.8
973.281	3417.81
973.582	3427.52
973.883	3409.44
974.183	3357.24
974.484	3369.45
974.785	3355.21
975.085	3306.17
975.386	3307.53
975.686	3314.31
975.986	3286.28
976.287	3283.8
976.587	3259.84
976.887	3263.46
977.187	3244.93
977.487	3215.1
977.787	3171.48
978.087	3199.28
978.387	3180.75
978.687	3165.38
978.987	3171.94
979.286	3115.44
979.586	3136.91
979.885	3110.24
980.185	3102.11
980.484	3069.34
980.784	3046.29
981.083	3060.98
981.382	3018.72
981.682	3021.88
981.981	3003.81
982.28	3034.76
982.579	3001.55
982.878	2970.59
983.177	2924.94
983.475	2955.22
983.774	2951.83
984.073	2920.64
984.372	2882
984.67	2856.01
984.969	2840.65
985.267	2863.92
985.566	2846.75
985.864	2797.93
986.162	2807.65
986.461	2790.25
986.759	2777.14
987.057	2782.57
987.355	2778.05
987.653	2768.78
987.951	2738.05
988.249	2724.94
988.547	2706.19
988.844	2659.63
989.142	2686.98
989.44	2666.41
989.737	2651.27
990.035	2659.18
990.332	2644.27
990.63	2623.93
990.927	2604.72
991.224	2601.56
991.521	2625.06
991.819	2569.92
992.116	2585.06
992.413	2565.17
992.71	2538.05
993.006	2516.13
993.303	2547.32
993.6	2536.7
993.897	2502.58
994.193	2476.14
994.49	2500.54
994.787	2469.81
995.083	2464.84
995.379	2459.41
995.676	2430.71
995.972	2415.8
996.268	2421
996.565	2406.98
996.861	2379.19
997.157	2374.44
997.453	2372.18
997.749	2377.16
998.044	2342.81
998.34	2335.35
998.636	2286.31
998.932	2305.29
999.227	2273.65
999.523	2308.46
999.818	2261.9
1000.114	2242.24
1000.409	2272.98
1000.704	2211.28
1001	2207.44
1001.295	2228.01
1001.59	2208.8
1001.885	2176.26
1002.18	2169.7
1002.475	2160.21
1002.77	2130.16
1003.065	2125.41
1003.359	2130.16
1003.654	2133.77
1003.949	2108.01
1004.243	2083.38
1004.538	2064.17
1004.832	2055.81
1005.127	2044.73
1005.421	2016.71
1005.715	2021.46
1006.009	2039.76
1006.304	1984.17
1006.598	1969.03
1006.892	1995.7
1007.186	1971.06
1007.48	1960.22
1007.773	1944.62
1008.067	1928.81
1008.361	1925.42
1008.655	1903.72
1008.948	1929.26
1009.242	1893.33
1009.535	1854.91
1009.829	1886.32
1010.122	1872.54
1010.415	1863.72
1010.708	1837.51
1011.001	1828.24
1011.295	1829.82
1011.588	1818.53
1011.881	1810.62
1012.173	1774.91
1012.466	1780.33
1012.759	1779.43
1013.052	1740.11
1013.344	1742.6
1013.637	1764.52
1013.93	1715.03
1014.222	1717.96
1014.514	1715.48
1014.807	1685.42
1015.099	1665.31
1015.391	1655.14
1015.683	1652.88
1015.976	1689.94
1016.268	1632.99
1016.56	1619.43
1016.851	1590.74
1017.143	1647
1017.435	1610.85
1017.727	1590.06
1018.018	1590.96
1018.31	1576.5
1018.602	1576.72
1018.893	1562.71
1019.185	1528.59
1019.476	1546.22
1019.767	1543.28
1020.058	1482.49
1020.35	1489.49
1020.641	1483.17
1020.932	1482.72
1021.223	1478.65
1021.514	1447.46
1021.804	1458.76
1022.095	1440.46
1022.386	1452.43
1022.677	1409.27
1022.967	1402.49
1023.258	1416.28
1023.548	1382.6
1023.839	1407.46
1024.129	1380.57
1024.419	1369.5
1024.709	1378.99
1025	1369.72
1025.29	1367.92
1025.58	1325.66
1025.87	1315.49
1026.16	1308.93
1026.449	1317.97
1026.739	1305.09
1027.029	1322.95
1027.319	1277.07
1027.608	1281.36
1027.898	1275.04
1028.187	1256.51
1028.477	1278.43
1028.766	1251.99
1029.055	1219.67
1029.344	1243.85
1029.634	1228.03
1029.923	1214.47
1030.212	1211.31
1030.501	1221.71
1030.79	1177.41
1031.078	1172.44
1031.367	1179.67
1031.656	1202.5
1031.945	1177.41
1032.233	1147.13
1032.522	1155.04
1032.81	1139
1033.099	1125.89
1033.387	1127.24
1033.675	1106.68
1033.963	1100.35
1034.251	1097.87
1034.54	1085.89
1034.828	1088.6
1035.116	1081.6
1035.403	1079.56
1035.691	1065.1
1035.979	1042.73
1036.267	1054.7
1036.554	1042.73
1036.842	1034.59
1037.129	1025.55
1037.417	1046.34
1037.704	1010.64
1037.992	997.76
1038.279	996.63
1038.566	992.56
1038.853	992.56
1039.14	992.56
