Data from hue_210_FLMS001491_00081.txt Node
Date: Tue Feb 07 16:41:51 GMT 2017
User: dcchb
Spectrometer: FLMS00149
Trigger mode: 0
Integration Time (sec): 2.000000E-2
Scans to average: 10
Electric dark correction enabled: true
Nonlinearity correction enabled: false
Boxcar width: 0
XAxis mode: Wavelengths
Number of Pixels in Spectrum: 2048
>>>>>Begin Spectral Data<<<<<
341.393	-16.85
341.776	-16.85
342.16	-16.85
342.543	-60.92
342.927	-63.18
343.31	-59.11
343.693	-81.93
344.077	-51.2
344.46	-42.84
344.843	-52.33
345.226	-39.22
345.61	-33.8
345.993	-24.99
346.376	-9.39
346.759	12.98
347.142	20.66
347.525	17.05
347.908	55.24
348.291	76.93
348.674	86.88
349.057	125.07
349.44	125.29
349.823	164.39
350.206	169.36
350.588	190.6
350.971	211.17
351.354	226.08
351.737	237.38
352.119	254.1
352.502	247.78
352.884	275.12
353.267	277.61
353.65	303.37
354.032	314.44
354.414	306.53
354.797	318.06
355.179	328.68
355.562	323.03
355.944	315.57
356.326	339.98
356.709	318.73
357.091	335.91
357.473	335.91
357.855	336.59
358.238	337.27
358.62	350.15
359.002	321.9
359.384	326.87
359.766	325.06
360.148	315.57
360.53	334.33
360.912	318.51
361.294	337.27
361.676	336.59
362.057	329.36
362.439	331.16
362.821	311.28
363.203	331.39
363.584	311.5
363.966	317.38
364.348	326.42
364.729	313.54
365.111	320.54
365.493	313.99
365.874	342.01
366.256	315.57
366.637	311.73
367.019	313.31
367.4	316.93
367.781	322.12
368.163	300.2
368.544	313.54
368.925	314.67
369.306	303.37
369.688	298.17
370.069	318.06
370.45	334.78
370.831	301.11
371.212	326.19
371.593	321.45
371.974	333.2
372.355	324.16
372.736	316.7
373.117	314.21
373.498	324.84
373.879	316.93
374.26	295.91
374.641	307.66
375.021	290.49
375.402	307.44
375.783	326.19
376.163	339.75
376.544	337.94
376.925	328.68
377.305	319.64
377.686	324.84
378.066	303.14
378.447	322.8
378.827	329.58
379.208	335.46
379.588	332.97
379.968	326.42
380.349	333.88
380.729	329.13
381.109	324.16
381.489	346.98
381.87	337.27
382.25	349.47
382.63	320.99
383.01	346.08
383.39	339.07
383.77	355.8
384.15	352.86
384.53	343.82
384.91	344.04
385.29	331.84
385.67	357.6
386.049	353.76
386.429	364.38
386.809	346.98
387.189	369.81
387.568	347.66
387.948	370.71
388.328	361.9
388.707	363.03
389.087	370.26
389.466	357.38
389.846	366.42
390.225	385.85
390.605	366.42
390.984	368.45
391.363	381.56
391.743	375
392.122	374.55
392.501	372.74
392.881	396.02
393.26	375
393.639	386.53
394.018	383.37
394.397	391.5
394.776	384.95
395.155	393.76
395.534	398.28
395.913	389.02
396.292	395.57
396.671	426.75
397.05	401.67
397.429	406.64
397.808	390.82
398.186	410.94
398.565	415.91
398.944	396.25
399.323	405.96
399.701	410.03
400.08	417.49
400.458	406.87
400.837	413.65
401.215	411.84
401.594	417.04
401.972	433.53
402.351	427.88
402.729	434.89
403.107	443.48
403.486	420.65
403.864	434.66
404.242	455.91
404.62	455
404.999	460.43
405.377	452.74
405.755	483.25
406.133	487.77
406.511	452.06
406.889	475.57
407.267	478.05
407.645	476.7
408.023	503.81
408.401	504.72
408.779	520.09
409.156	502.46
409.534	509.01
409.912	533.42
410.29	541.33
410.667	525.28
411.045	547.88
411.422	554.43
411.8	573.42
412.178	567.77
412.555	589.91
412.933	571.61
413.31	586.98
413.687	633.53
414.065	612.51
414.442	633.75
414.819	636.92
415.197	626.3
415.574	646.86
415.951	646.41
416.328	663.13
416.705	660.19
417.082	647.99
417.46	691.83
417.837	715.56
418.214	694.32
418.591	711.27
418.967	713.98
419.344	731.15
419.721	766.41
420.098	737.71
420.475	770.93
420.852	768.44
421.228	787.65
421.605	800.08
421.982	817.7
422.358	835.33
422.735	821.77
423.111	870.58
423.488	885.95
423.864	887.53
424.241	899.74
424.617	907.19
424.994	904.48
425.37	942.9
425.746	928.44
426.123	944.25
426.499	943.35
426.875	967.08
427.251	1007.53
427.627	1012.5
428.003	1019.51
428.379	1030.58
428.756	1040.3
429.132	1072.61
429.507	1073.97
429.883	1089.34
430.259	1074.65
430.635	1087.08
431.011	1131.59
431.387	1158.26
431.763	1172.27
432.138	1167.53
432.514	1194.19
432.89	1195.32
433.265	1238.48
433.641	1251.59
434.016	1291.59
434.392	1285.71
434.767	1323.68
435.143	1328.43
435.518	1353.06
435.894	1388.31
436.269	1405.94
436.644	1421.76
437.02	1444.13
437.395	1478.48
437.77	1499.04
438.145	1540.4
438.52	1538.14
438.895	1570.45
439.271	1600.51
439.646	1641.86
440.021	1641.19
440.395	1675.08
440.77	1667.85
441.145	1685.25
441.52	1741.75
441.895	1730
442.27	1732.71
442.645	1764.12
443.019	1789.43
443.394	1783.55
443.769	1861.07
444.143	1834.85
444.518	1838.69
444.892	1874.63
445.267	1911.46
445.641	1900.61
446.016	1925.25
446.39	1881.86
446.764	1950.56
447.139	1955.53
447.513	1993.04
447.887	1983.32
448.262	1981.97
448.636	2006.15
449.01	2051.12
449.384	2055.19
449.758	2075.52
450.132	2062.87
450.506	2098.8
450.88	2119.82
451.254	2122.53
451.628	2161.4
452.002	2191.23
452.376	2170.44
452.75	2200.04
453.123	2265.58
453.497	2284.33
453.871	2233.49
454.244	2310.77
454.618	2340.38
454.992	2367.04
455.365	2362.75
455.739	2412.92
456.112	2459.24
456.486	2456.53
456.859	2451.33
457.232	2506.02
457.606	2534.5
457.979	2558.22
458.352	2610.43
458.725	2592.12
459.099	2638.9
459.472	2665.57
459.845	2705.11
460.218	2720.25
460.591	2756.86
460.964	2786.92
461.337	2827.6
461.71	2852.68
462.083	2876.63
462.456	2910.53
462.829	2946.24
463.201	2983.07
463.574	2998.66
463.947	3041.83
464.32	3141.49
464.692	3123.63
465.065	3176.29
465.438	3176.06
465.81	3250.18
466.183	3291.31
466.555	3328.15
466.928	3331.08
467.3	3348.71
467.672	3368.37
468.045	3499.44
468.417	3462.83
468.789	3484.53
469.161	3528.82
469.534	3609.04
469.906	3621.47
470.278	3717.52
470.65	3723.84
471.022	3764.29
471.394	3852.65
471.766	3853.78
472.138	3925.42
472.51	4029.37
472.882	4036.15
473.253	4055.13
473.625	4138.75
473.997	4184.62
474.369	4199.76
474.74	4263.94
475.112	4307.56
475.484	4374.45
475.855	4445.86
476.227	4536.48
476.598	4652.18
476.97	4654.21
477.341	4778.96
477.713	4776.02
478.084	4804.27
478.455	4931.49
478.827	4971.04
479.198	5150.47
479.569	5116.12
479.94	5205.84
480.311	5267.31
480.682	5364.7
481.053	5454.42
481.424	5534.19
481.795	5638.14
482.166	5662.77
482.537	5695.99
482.908	5838.82
483.279	5882.2
483.65	6005.82
484.021	6085.81
484.391	6149.09
484.762	6180.28
485.133	6221.18
485.503	6346.6
485.874	6381.17
486.244	6521.28
486.615	6609.19
486.985	6689.64
487.356	6762.18
487.726	6793.14
488.097	6866.36
488.467	6893.48
488.837	7024.32
489.207	7056.86
489.578	7222.51
489.948	7199.23
490.318	7351.09
490.688	7354.71
491.058	7469.51
491.428	7581.37
491.798	7575.04
492.168	7737.75
492.538	7691.65
492.908	7873.56
493.278	7954.69
493.648	7973.9
494.017	7985.43
494.387	8085.54
494.757	8048.93
495.126	8200.56
495.496	8225.65
495.866	8200.34
496.235	8344.06
496.605	8365.53
496.974	8391.29
497.344	8495.69
497.713	8511.74
498.082	8551.06
498.452	8613.43
498.821	8595.13
499.19	8681.23
499.559	8736.14
499.928	8780.88
500.298	8787.66
500.667	8879.19
501.036	8855.01
501.405	8899.53
501.774	8922.35
502.143	8977.04
502.512	9017.26
502.88	9081.67
503.249	9031.95
503.618	9107.43
503.987	9097.94
504.356	9111.27
504.724	9151.5
505.093	9215.22
505.462	9171.84
505.83	9242.79
506.199	9302.45
506.567	9385.61
506.936	9317.82
507.304	9400.3
507.672	9442.56
508.041	9477.14
508.409	9473.75
508.777	9518.49
509.145	9628.55
509.514	9589
509.882	9556.46
510.25	9597.81
510.618	9653.18
510.986	9659.96
511.354	9746.28
511.722	9792.84
512.09	9824.25
512.458	9740.41
512.826	9791.48
513.193	9848.43
513.561	9833.74
513.929	9874.42
514.297	9927.3
514.664	9986.05
515.032	9932.72
515.4	10009.78
515.767	9972.49
516.135	10020.17
516.502	9969.1
516.869	10041.64
517.237	10002.77
517.604	10044.35
517.972	10022.21
518.339	10085.48
518.706	9992.38
519.073	10136.56
519.44	10105.6
519.808	10100.85
520.175	10167.06
520.542	10224.24
520.909	10239.6
521.276	10258.36
521.643	10291.35
522.009	10241.19
522.376	10305.36
522.743	10271.24
523.11	10245.93
523.477	10385.36
523.843	10384.68
524.21	10443.21
524.577	10374.29
524.943	10445.7
525.31	10501.52
525.676	10462.65
526.043	10476.89
526.409	10451.58
526.776	10551.91
527.142	10508.52
527.508	10556.21
527.874	10536.09
528.241	10614.06
528.607	10537.67
528.973	10606.6
529.339	10539.26
529.705	10595.07
530.071	10620.38
530.437	10624.68
530.803	10578.8
531.169	10668.29
531.535	10552.82
531.901	10583.1
532.267	10632.59
532.632	10589.2
532.998	10590.78
533.364	10527.51
533.73	10569.76
534.095	10544.68
534.461	10554.85
534.826	10548.97
535.192	10525.7
535.557	10582.42
535.923	10439.82
536.288	10482.99
536.653	10530.22
537.019	10406.38
537.384	10389.88
537.749	10409.54
538.114	10440.05
538.479	10385.14
538.845	10367.51
539.21	10307.85
539.575	10282.09
539.94	10304.01
540.305	10279.38
540.67	10231.24
541.034	10228.3
541.399	10257.91
541.764	10242.32
542.129	10175.88
542.494	10141.75
542.858	10202.99
543.223	10084.13
543.587	10113.05
543.952	10058.59
544.316	10017.91
544.681	9968.2
545.045	9979.72
545.41	9989.67
545.774	9951.7
546.138	9998.03
546.503	9924.36
546.867	9858.6
547.231	9894.98
547.595	9831.48
547.959	9874.64
548.324	9838.71
548.688	9722.33
549.052	9757.13
549.416	9739.05
549.779	9673.06
550.143	9670.58
550.507	9690.47
550.871	9678.26
551.235	9574.31
551.599	9645.95
551.962	9566.4
552.326	9615.21
552.689	9627.87
553.053	9520.75
553.417	9541.54
553.78	9581.32
554.143	9541.09
554.507	9473.3
554.87	9516.01
555.234	9513.3
555.597	9439.4
555.96	9387.42
556.323	9423.58
556.686	9384.26
557.05	9389
557.413	9365.28
557.776	9425.61
558.139	9398.27
558.502	9394.65
558.865	9353.53
559.228	9384.94
559.59	9410.92
559.953	9390.13
560.316	9413.18
560.679	9440.08
561.041	9442.79
561.404	9484.37
561.767	9396.24
562.129	9378.16
562.492	9448.66
562.854	9485.05
563.217	9397.37
563.579	9423.35
563.941	9413.18
564.304	9432.17
564.666	9428.78
565.028	9372.06
565.39	9435.56
565.753	9520.3
566.115	9509.91
566.477	9539.96
566.839	9446.63
567.201	9530.24
567.563	9547.19
567.925	9586.97
568.287	9461.09
568.648	9574.08
569.01	9578.15
569.372	9620.18
569.734	9565.72
570.095	9672.84
570.457	9644.82
570.819	9609.79
571.18	9659.05
571.542	9665.16
571.903	9711.71
572.265	9726.62
572.626	9647.08
572.987	9726.17
573.349	9708.77
573.71	9771.14
574.071	9786.28
574.432	9755.1
574.794	9885.26
575.155	9830.57
575.516	9770.92
575.877	9823.12
576.238	9840.52
576.599	9876.45
576.96	9838.94
577.32	9873.96
577.681	9893.62
578.042	9858.82
578.403	9922.55
578.763	9946.5
579.124	9871.03
579.485	9982.89
579.845	9945.6
580.206	9987.18
580.566	9926.84
580.927	9968.42
581.287	10004.36
581.648	9914.87
582.008	10024.92
582.368	10013.39
582.728	10058.14
583.089	10019.04
583.449	10042.55
583.809	10021.53
584.169	10034.86
584.529	9975.88
584.889	10080.06
585.249	10035.77
585.609	10113.51
585.969	10146.5
586.329	10031.47
586.688	10093.17
587.048	10095.88
587.408	10087.52
587.768	10132.04
588.127	10090.91
588.487	10103.11
588.846	10182.43
589.206	10123.45
589.565	10137.23
589.925	10168.65
590.284	10180.4
590.643	10126.16
591.003	10154.18
591.362	10207.29
591.721	10179.94
592.08	10161.41
592.44	10263.78
592.799	10197.34
593.158	10184.92
593.517	10174.29
593.876	10308.75
594.235	10225.37
594.593	10262.65
594.952	10278.47
595.311	10212.03
595.67	10205.25
596.029	10259.94
596.387	10212.26
596.746	10276.89
597.104	10203.9
597.463	10162.54
597.822	10252.48
598.18	10268.08
598.538	10258.36
598.897	10234.18
599.255	10196.44
599.613	10273.95
599.972	10253.16
600.33	10326.38
600.688	10257
601.046	10291.13
601.404	10354.4
601.762	10282.77
602.12	10289.55
602.478	10408.41
602.836	10370.22
603.194	10299.49
603.552	10346.27
603.91	10283.9
604.268	10310.79
604.625	10274.63
604.983	10354.4
605.341	10242.32
605.698	10300.17
606.056	10288.42
606.413	10287.06
606.771	10402.54
607.128	10385.36
607.485	10360.05
607.843	10354.85
608.2	10337.45
608.557	10429.66
608.914	10344.91
609.272	10419.03
609.629	10423.1
609.986	10487.05
610.343	10433.27
610.7	10508.3
611.057	10438.02
611.414	10479.82
611.771	10476.89
612.127	10490.44
612.484	10509.2
612.841	10572.25
613.198	10480.28
613.554	10512.36
613.911	10522.08
614.267	10524.79
614.624	10558.01
614.98	10562.53
615.337	10660.16
615.693	10576.09
616.05	10575.87
616.406	10610.67
616.762	10568.18
617.118	10555.75
617.475	10553.49
617.831	10582.42
618.187	10605.92
618.543	10581.97
618.899	10639.37
619.255	10620.61
619.611	10631.23
619.967	10741.74
620.323	10672.59
620.678	10641.85
621.034	10601.85
621.39	10552.82
621.746	10610.22
622.101	10784.45
622.457	10662.19
622.812	10615.86
623.168	10717.11
623.523	10690.21
623.879	10649.31
624.234	10637.56
624.589	10651.12
624.945	10716.2
625.3	10775.41
625.655	10632.59
626.01	10667.61
626.365	10626.49
626.72	10623.32
627.075	10581.52
627.43	10633.72
627.785	10623.55
628.14	10563.21
628.495	10606.83
628.85	10673.72
629.205	10556.43
629.559	10645.92
629.914	10562.76
630.269	10628.75
630.623	10537.22
630.978	10547.39
631.332	10549.65
631.687	10575.87
632.041	10584
632.396	10572.48
632.75	10551.46
633.104	10463.33
633.459	10500.84
633.813	10463.55
634.167	10408.86
634.521	10436.89
634.875	10429.66
635.229	10487.28
635.583	10373.16
635.937	10373.16
636.291	10379.04
636.645	10395.98
636.999	10358.92
637.352	10333.84
637.706	10332.93
638.06	10324.12
638.413	10318.47
638.767	10287.96
639.121	10272.6
639.474	10288.64
639.828	10231.92
640.181	10241.64
640.534	10254.52
640.888	10191.7
641.241	10169.32
641.594	10197.8
641.947	10220.85
642.301	10212.26
642.654	10192.15
643.007	10270.11
643.36	10184.92
643.713	10136.1
644.066	10201.41
644.419	10139.95
644.771	10043.68
645.124	9999.61
645.477	10018.37
645.83	9874.87
646.182	9843.68
646.535	9815.89
646.888	9813.85
647.24	9769.11
647.593	9830.57
647.945	9773.4
648.298	9701.54
648.65	9754.19
649.002	9723.91
649.355	9805.04
649.707	9767.07
650.059	9841.42
650.411	9950.12
650.763	9974.75
651.115	10049.55
651.467	9963
651.819	9986.05
652.171	9979.05
652.523	9970.01
652.875	10038.7
653.227	9951.7
653.578	9986.28
653.93	9991.02
654.282	9965.71
654.633	9968.88
654.985	9979.27
655.337	9948.31
655.688	9938.37
656.039	10042.77
656.391	9995.54
656.742	9981.76
657.094	9931.36
657.445	10030.57
657.796	9961.64
658.147	9872.61
658.498	9964.58
658.849	9946.5
659.2	10012.49
659.551	9930.01
659.902	9970.68
660.253	9984.47
660.604	9988.99
660.955	9966.39
661.306	10053.39
661.656	9937.92
662.007	10041.64
662.358	10040.06
662.708	10048.87
663.059	9983.11
663.409	10024.69
663.76	10016.11
664.11	10010.68
664.461	10094.07
664.811	10028.76
665.161	9968.65
665.511	9943.34
665.862	10024.02
666.212	10023.56
666.562	10006.16
666.912	10008.42
667.262	10022.89
667.612	9997.12
667.962	10012.72
668.312	9977.24
668.662	10011.59
669.011	10007.52
669.361	9984.24
669.711	9983.11
670.06	9929.33
670.41	9970.01
670.76	9936.11
671.109	10015.88
671.459	9940.63
671.808	9963.45
672.157	9940.63
672.507	9887.97
672.856	9857.24
673.205	9950.12
673.554	9990.34
673.904	9862.44
674.253	9957.58
674.602	9861.53
674.951	9748.09
675.3	9671.93
675.649	9786.51
675.998	9857.69
676.346	9884.81
676.695	9890.91
677.044	9815.43
677.393	9859.5
677.741	9768.2
678.09	9741.76
678.438	9776.34
678.787	9850.24
679.135	9798.03
679.484	9749.9
679.832	9743.12
680.181	9725.94
680.529	9694.99
680.877	9717.13
681.225	9662.22
681.573	9749
681.922	9591.71
682.27	9652.5
682.618	9552.62
682.966	9643.91
683.314	9564.82
683.661	9556.01
684.009	9535.89
684.357	9494.76
684.705	9445.27
685.053	9517.36
685.4	9382
685.748	9436.46
686.095	9380.87
686.443	9344.94
686.79	9321.89
687.138	9357.14
687.485	9388.1
687.832	9339.06
688.18	9330.93
688.527	9227.43
688.874	9273.3
689.221	9226.07
689.568	9178.61
689.915	9139.29
690.262	9152.85
690.609	9121.67
690.956	9082.57
691.303	9087.77
691.65	9042.8
691.997	8976.36
692.344	8974.55
692.69	8956.93
693.037	8911.05
693.383	8853.2
693.73	8893.65
694.077	8827.66
694.423	8806.2
694.769	8767.33
695.116	8764.16
695.462	8735.91
695.808	8740.89
696.155	8718.51
696.501	8675.13
696.847	8661.34
697.193	8612.53
697.539	8590.16
697.885	8524.85
698.231	8479.65
698.577	8480.78
698.923	8434
699.269	8419.76
699.614	8318.75
699.96	8271.97
700.306	8344.96
700.651	8300.9
700.997	8248.92
701.342	8240.11
701.688	8216.83
702.033	8156.95
702.379	8172.09
702.724	8155.82
703.069	8168.02
703.415	8065.88
703.76	8042.15
704.105	8032.43
704.45	8046.21
704.795	7893.22
705.14	7945.88
705.485	7968.48
705.83	7826.11
706.175	7851.42
706.52	7845.99
706.865	7881.47
707.209	7811.42
707.554	7712.44
707.899	7790.63
708.243	7667.69
708.588	7719.44
708.932	7662.95
709.277	7626.79
709.621	7639.67
709.966	7575.04
710.31	7569.84
710.654	7513.57
710.998	7556.74
711.342	7575.04
711.687	7578.88
712.031	7485.55
712.375	7438.1
712.719	7469.28
713.063	7451.88
713.407	7502.27
713.75	7454.59
714.094	7452.78
714.438	7379.34
714.782	7421.37
715.125	7346.35
715.469	7372.79
715.812	7323.52
716.156	7258.21
716.499	7292.11
716.843	7365.78
717.186	7270.87
717.53	7309.74
717.873	7247.14
718.216	7169.85
718.559	7219.8
718.902	7216.18
719.246	7192.23
719.589	7189.97
719.932	7181.15
720.275	7176.41
720.617	7104.09
720.96	7152.68
721.303	7104.09
721.646	7205.11
721.989	7120.14
722.331	7119.01
722.674	7148.84
723.016	7108.16
723.359	7124.43
723.701	7088.95
724.044	7074.26
724.386	6971.67
724.729	6997.65
725.071	7038.78
725.413	7063.42
725.755	7043.53
726.097	7064.55
726.439	6924.66
726.782	6982.97
727.124	6997.65
727.465	7004.21
727.807	6971.89
728.149	6992.23
728.491	6910.88
728.833	7015.73
729.175	6914.72
729.516	6999.91
729.858	6973.25
730.199	6950.42
730.541	6915.17
730.882	6939.8
731.224	6924.21
731.565	6952.91
731.906	6956.07
732.248	6980.48
732.589	6899.8
732.93	6939.8
733.271	6938.22
733.612	6963.31
733.953	6938
734.294	6913.59
734.635	6863.42
734.976	6905.91
735.317	6917.88
735.658	6870.2
735.999	6951.33
736.339	6979.58
736.68	6964.44
737.021	6970.54
737.361	6923.53
737.702	6976.41
738.042	6908.84
738.383	6893.7
738.723	6956.53
739.063	6957.66
739.404	6936.19
739.744	6967.15
740.084	6959.46
740.424	6994.49
740.764	7023.19
741.104	7034.94
741.444	7060.48
741.784	7022.29
742.124	7063.64
742.464	7012.57
742.804	7066.58
743.143	7085.34
743.483	7143.41
743.823	7107.26
744.162	7123.53
744.502	7113.58
744.841	7142.74
745.181	7227.48
745.52	7206.69
745.86	7238.1
746.199	7321.71
746.538	7323.97
746.877	7340.7
747.216	7461.15
747.556	7431.54
747.895	7457.3
748.234	7454.14
748.573	7570.75
748.911	7560.35
749.25	7723.06
749.589	7737.75
749.928	7758.76
750.267	7864.07
750.605	7893
750.944	7977.29
751.283	8017.74
751.621	8117.4
751.96	8170.96
752.298	8198.75
752.636	8382.03
752.975	8387.45
753.313	8490.5
753.651	8638.97
753.989	8759.19
754.327	8717.38
754.666	8825.18
755.004	9010.71
755.342	9190.59
755.679	9276.24
756.017	9331.6
756.355	9539.06
756.693	9618.6
757.031	9815.43
757.368	9829.67
757.706	10068.76
758.044	10158.02
758.381	10278.25
758.719	10359.83
759.056	10612.25
759.394	10788.52
759.731	10869.87
760.068	11034.39
760.405	11108.28
760.743	11318.22
761.08	11553.24
761.417	11593.92
761.754	11812.44
762.091	11936.28
762.428	12118.2
762.765	12183.96
763.102	12473.22
763.438	12623.27
763.775	12722.25
764.112	12950.72
764.449	13053.31
764.785	13235.68
765.122	13312.52
765.458	13506.86
765.795	13644.03
766.131	13897.36
766.467	13914.99
766.804	14145.94
767.14	14178.26
767.476	14432.04
767.812	14499.6
768.148	14756.1
768.485	14795.87
768.821	14849.88
769.157	15088.52
769.492	15161.73
769.828	15364.44
770.164	15335.97
770.5	15351.33
770.836	15582.51
771.171	15686.69
771.507	15794.49
771.842	15897.99
772.178	15878.78
772.513	16095.49
772.849	16147.92
773.184	16212.1
773.519	16352.44
773.855	16380.01
774.19	16428.14
774.525	16595.37
774.86	16596.95
775.195	16730.96
775.53	16824.97
775.865	16892.08
776.2	16784.52
776.535	16777.51
776.87	16933.89
777.205	17001.69
777.539	16923.95
777.874	17125.07
778.209	17092.98
778.543	17038.97
778.878	17106.54
779.212	17173.66
779.547	17253.2
779.881	17243.26
780.215	17282.58
780.55	17362.81
780.884	17261.57
781.218	17351.06
781.552	17356.25
781.886	17402.13
782.22	17353.99
782.554	17364.84
782.888	17159.65
783.222	17348.57
783.556	17303.15
783.889	17325.97
784.223	17259.76
784.557	17238.97
784.89	17339.08
785.224	17251.85
785.557	17254.56
785.891	17259.31
786.224	17213.43
786.558	17235.8
786.891	17217.95
787.224	17262.47
787.557	17135.24
787.891	17219.99
788.224	17190.16
788.557	17174.79
788.89	17177.95
789.223	17212.98
789.556	17132.76
789.888	17142.47
790.221	17108.8
790.554	17001.46
790.887	17071.29
791.219	17026.77
791.552	16934.34
791.884	16935.92
792.217	16854.12
792.549	16843.5
792.882	16637.85
793.214	16765.31
793.546	16879.88
793.879	16757.17
794.211	16702.48
794.543	16730.51
794.875	16741.81
795.207	16814.57
795.539	16599.21
795.871	16636.95
796.203	16525.09
796.535	16517.63
796.867	16543.17
797.198	16441.7
797.53	16379.33
797.862	16427.69
798.193	16393.79
798.525	16334.58
798.856	16330.97
799.188	16112.67
799.519	16141.82
799.85	16055.04
800.182	16072.44
800.513	16178.2
800.844	16007.36
801.175	16070.86
801.506	16079
801.837	15968.49
802.168	15964.2
802.499	15949.74
802.83	15857.76
803.161	15816.41
803.491	15797.2
803.822	15849.17
804.153	15680.14
804.483	15604.66
804.814	15608.95
805.145	15536.41
805.475	15580.48
805.805	15475.17
806.136	15538.9
806.466	15557.88
806.796	15499.35
807.126	15478.11
807.457	15354.95
807.787	15373.25
808.117	15188.4
808.447	15291
808.777	15275.18
809.107	15292.13
809.436	15175.52
809.766	15120.38
810.096	15124.45
810.426	15101.85
810.755	15061.85
811.085	14998.8
811.414	15041.06
811.744	14944.11
812.073	14887.84
812.403	14964.45
812.732	14841.29
813.061	14850.56
813.39	14774.4
813.719	14786.83
814.049	14826.38
814.378	14736.43
814.707	14754.29
815.036	14716.32
815.365	14622.31
815.693	14514.52
816.022	14559.94
816.351	14524.91
816.68	14555.2
817.008	14528.53
817.337	14445.59
817.665	14413.96
817.994	14419.61
818.322	14300.97
818.651	14296.67
818.979	14313.85
819.307	14380.29
819.636	14219.39
819.964	14270.91
820.292	14244.24
820.62	14232.94
820.948	14150.69
821.276	14159.73
821.604	14282.89
821.932	14207.41
822.259	14252.83
822.587	14290.34
822.915	14146.17
823.243	14205.15
823.57	14213.51
823.898	14214.19
824.225	14198.14
824.553	14176
824.88	14227.07
825.207	14336.67
825.535	14179.84
825.862	14302.1
826.189	14255.32
826.516	14312.49
826.843	14357.01
827.17	14191.14
827.497	14295.09
827.824	14326.73
828.151	14310.91
828.478	14297.35
828.805	14345.03
829.131	14252.38
829.458	14299.61
829.785	14239.72
830.111	14260.97
830.438	14315.65
830.764	14212.38
831.09	14271.36
831.417	14176.45
831.743	14248.09
832.069	14266.39
832.395	14114.08
832.722	14264.58
833.048	14147.3
833.374	14189.78
833.7	14159.27
834.026	14214.87
834.351	14174.87
834.677	14125.38
835.003	14190.23
835.329	14154.53
835.654	14122.44
835.98	14034.98
836.306	14064.36
836.631	14023.01
836.956	14042.44
837.282	14014.87
837.607	13986.62
837.932	14058.49
838.258	13990.47
838.583	14019.84
838.908	13893.29
839.233	13897.81
839.558	13949.34
839.883	13787.31
840.208	13781.88
840.533	13815.33
840.858	13781.66
841.182	13814.42
841.507	13770.81
841.832	13723.35
842.156	13591.61
842.481	13611.72
842.805	13608.33
843.13	13648.1
843.454	13621.44
843.778	13515.45
844.103	13500.31
844.427	13521.55
844.751	13463.7
845.075	13478.16
845.399	13386.64
845.723	13341.67
846.047	13353.42
846.371	13189.13
846.695	13255.57
847.019	13095.35
847.343	13002.24
847.666	12983.26
847.99	12950.27
848.313	12924.73
848.637	12899.19
848.96	12847.44
849.284	12916.6
849.607	12649.94
849.931	12698.07
850.254	12541.46
850.577	12495.59
850.9	12460.79
851.223	12405.87
851.546	12354.35
851.869	12348.7
852.192	12362.94
852.515	12260.12
852.838	12208.82
853.161	12228.25
853.483	12095.37
853.806	12083.85
854.129	12062.38
854.451	11992.1
854.774	11998.43
855.096	11854.48
855.419	11964.53
855.741	11891.99
856.063	11828.04
856.385	11809.73
856.708	11727.7
857.03	11678.89
857.352	11705.33
857.674	11661.71
857.996	11576.07
858.318	11633.01
858.64	11570.87
858.961	11547.14
859.283	11483.41
859.605	11430.31
859.926	11487.71
860.248	11458.1
860.57	11370.65
860.891	11393.7
861.212	11270.99
861.534	11220.14
861.855	11232.12
862.176	11206.81
862.498	11238.45
862.819	11183.53
863.14	11131.56
863.461	11122.97
863.782	11135.17
864.103	11116.42
864.424	11135.85
864.745	10979.47
865.065	11015.85
865.386	10967.27
865.707	10999.81
866.027	11072.58
866.348	10913.48
866.668	10912.58
866.989	10891.56
867.309	10860.6
867.63	10915.29
867.95	10899.02
868.27	10809.08
868.59	10810.44
868.91	10755.97
869.23	10785.13
869.55	10822.41
869.87	10769.99
870.19	10795.75
870.51	10778.57
870.83	10765.24
871.15	10685.92
871.469	10698.12
871.789	10687.73
872.109	10696.77
872.428	10625.13
872.748	10587.17
873.067	10614.51
873.386	10612.93
873.706	10578.58
874.025	10568.86
874.344	10532.48
874.663	10556.43
874.982	10488.41
875.301	10464.23
875.62	10430.33
875.939	10443.21
876.258	10480.95
876.577	10461.74
876.896	10385.59
877.214	10352.37
877.533	10374.29
877.852	10333.84
878.17	10311.92
878.489	10344.46
878.807	10324.35
879.125	10311.92
879.444	10252.03
879.762	10259.26
880.08	10215.65
880.398	10170.9
880.716	10196.21
881.034	10075.99
881.352	10124.8
881.67	10118.93
881.988	10082.32
882.306	10130.68
882.624	10018.59
882.941	10037.12
883.259	9912.38
883.577	9986.28
883.894	9941.08
884.212	9982.66
884.529	9921.19
884.846	9853.85
885.164	9839.84
885.481	9837.35
885.798	9900.63
886.115	9787.19
886.432	9825.83
886.75	9794.42
887.067	9793.06
887.383	9701.99
887.7	9741.31
888.017	9694.99
888.334	9690.01
888.651	9687.3
888.967	9651.14
889.284	9567.98
889.6	9538.15
889.917	9491.6
890.233	9537.7
890.55	9475.1
890.866	9419.96
891.182	9387.87
891.498	9374.09
891.815	9327.99
892.131	9287.31
892.447	9285.73
892.763	9244.6
893.079	9264.49
893.395	9195.34
893.71	9207.77
894.026	9116.47
894.342	9165.73
894.657	9105.4
894.973	9042.35
895.289	9038.96
895.604	9018.62
895.92	8983.59
896.235	8896.81
896.55	8977.72
896.865	8911.73
897.181	8868.79
897.496	8888
897.811	8786.31
898.126	8798.96
898.441	8790.38
898.756	8666.54
899.071	8630.38
899.386	8606.43
899.7	8541.34
900.015	8464.96
900.33	8440.78
900.644	8438.75
900.959	8488.01
901.273	8440.1
901.588	8365.98
901.902	8391.97
902.216	8371.86
902.531	8316.94
902.845	8282.59
903.159	8256.6
903.473	8209.6
903.787	8157.4
904.101	8185.87
904.415	8119.21
904.729	8118.76
905.042	8042.83
905.356	8037.63
905.67	8016.39
905.984	7977.06
906.297	7976.16
906.611	7904.3
906.924	7933.22
907.237	7846.22
907.551	7814.81
907.864	7784.53
908.177	7748.6
908.491	7713.12
908.804	7680.8
909.117	7704.08
909.43	7655.94
909.743	7602.38
910.056	7559.45
910.368	7534.36
910.681	7475.83
910.994	7462.5
911.307	7447.81
911.619	7373.01
911.932	7414.59
912.244	7327.82
912.557	7363.97
912.869	7289.85
913.181	7270.64
913.494	7250.76
913.806	7187.48
914.118	7180.93
914.43	7133.7
914.742	7145.45
915.054	7099.35
915.366	7046.02
915.678	7049.86
915.99	7029.07
916.302	6940.93
916.613	6935.51
916.925	6920.82
917.236	6912.69
917.548	6880.14
917.859	6872.23
918.171	6812.12
918.482	6761.95
918.794	6778.45
919.105	6711.79
919.416	6686.7
919.727	6673.14
920.038	6645.35
920.349	6653.03
920.66	6614.61
920.971	6619.13
921.282	6552.92
921.593	6527.16
921.903	6435.64
922.214	6477.89
922.525	6468.63
922.835	6426.14
923.146	6380.95
923.456	6355.41
923.767	6346.15
924.077	6342.53
924.387	6265.7
924.697	6239.48
925.008	6182.54
925.318	6217.34
925.628	6166.72
925.938	6172.82
926.248	6147.73
926.558	6104.12
926.867	6070.67
927.177	6092.14
927.487	5980.96
927.796	5954.97
928.106	5920.85
928.416	5900.96
928.725	5930.56
929.034	5859.61
929.344	5860.74
929.653	5874.52
929.962	5805.14
930.271	5830.45
930.581	5778.25
930.89	5779.16
931.199	5732.83
931.508	5719.95
931.817	5710.46
932.125	5713.62
932.434	5645.83
932.743	5619.84
933.051	5598.82
933.36	5542.55
933.669	5512.95
933.977	5552.72
934.286	5528.09
934.594	5486.28
934.902	5479.5
935.21	5413.52
935.519	5446.96
935.827	5426.4
936.135	5414.42
936.443	5334.87
936.751	5326.96
937.059	5368.32
937.367	5308.21
937.674	5307.08
937.982	5244.48
938.29	5228.66
938.597	5242.67
938.905	5186.86
939.213	5171.71
939.52	5127.65
939.827	5138.27
940.135	5069.8
940.442	5053.07
940.749	5029.8
941.056	5042
941.363	5015.33
941.67	4996.8
941.977	4959.06
942.284	4896.47
942.591	4935.11
942.898	4937.6
943.205	4918.61
943.511	4853.53
943.818	4836.36
944.125	4847.2
944.431	4796.13
944.738	4761.78
945.044	4714.33
945.35	4738.51
945.657	4689.24
945.963	4686.76
946.269	4655.34
946.575	4704.16
946.881	4632.29
947.187	4627.1
947.493	4563.82
947.799	4567.66
948.105	4553.65
948.41	4536.25
948.716	4541.9
949.022	4505.97
949.327	4499.87
949.633	4464.16
949.938	4448.12
950.244	4456.93
950.549	4403.82
950.854	4386.65
951.16	4354.56
951.465	4325.63
951.77	4319.31
952.075	4345.3
952.38	4295.58
952.685	4282.25
952.99	4253.32
953.294	4271.85
953.599	4202.93
953.904	4211.06
954.209	4130.16
954.513	4171.97
954.818	4192.98
955.122	4147.11
955.426	4102.82
955.731	4079.99
956.035	4032.54
956.339	4049.03
956.643	4077.05
956.948	3985.76
957.252	3976.49
957.556	3959.99
957.86	3998.64
958.163	3984.85
958.467	3972.65
958.771	3950.73
959.075	3899.21
959.378	3914.35
959.682	3893.33
959.985	3849.04
960.289	3834.12
960.592	3841.81
960.896	3778.98
961.199	3777.63
961.502	3783.73
961.805	3788.02
962.108	3732.66
962.411	3779.66
962.714	3712.09
963.017	3699.21
963.32	3678.19
963.623	3682.26
963.926	3678.19
964.228	3623.28
964.531	3651.08
964.833	3599.55
965.136	3598.87
965.438	3558.2
965.741	3544.41
966.043	3518.42
966.345	3503.51
966.648	3536.05
966.95	3517.75
967.252	3489.05
967.554	3458.76
967.856	3491.31
968.158	3390.74
968.46	3389.61
968.761	3420.12
969.063	3379.22
969.365	3382.38
969.666	3362.04
969.968	3337.41
970.269	3326.34
970.571	3329.28
970.872	3332.89
971.174	3256.74
971.475	3273.01
971.776	3239.56
972.077	3256.06
972.378	3270.75
972.679	3203.4
972.98	3189.39
973.281	3215.83
973.582	3186.91
973.883	3131.54
974.183	3161.37
974.484	3128.6
974.785	3153.01
975.085	3138.32
975.386	3131.77
975.686	3100.58
975.986	3106.23
976.287	3063.07
976.587	3057.19
976.887	3004.09
977.187	3058.1
977.487	3006.8
977.787	2993.69
978.087	2985.33
978.387	2938.78
978.687	2950.98
978.987	2954.82
979.286	2904.2
979.586	2913.02
979.885	2905.33
980.185	2885.45
980.484	2873.92
980.784	2847.03
981.083	2868.95
981.382	2818.56
981.682	2806.58
981.981	2832.79
982.28	2782.62
982.579	2796.18
982.878	2752.34
983.177	2745.11
983.475	2722.97
983.774	2690.42
984.073	2698.33
984.372	2708.5
984.67	2703.53
984.969	2755.28
985.267	2726.35
985.566	2679.8
985.864	2666.7
986.162	2668.73
986.461	2646.81
986.759	2641.39
987.057	2576.3
987.355	2570.2
987.653	2558.68
987.951	2568.62
988.249	2572.23
988.547	2552.12
988.844	2524.33
989.142	2531.33
989.44	2528.62
989.737	2533.14
990.035	2463.99
990.332	2491.56
990.63	2446.14
990.927	2430.54
991.224	2443.2
991.521	2426.48
991.819	2425.8
992.116	2433.03
992.413	2366.82
992.71	2383.77
993.006	2360.94
993.303	2361.84
993.6	2372.92
993.897	2356.65
994.193	2330.66
994.49	2307.16
994.787	2310.09
995.083	2285.69
995.379	2265.58
995.676	2275.75
995.972	2235.29
996.268	2243.2
996.565	2257.44
996.861	2236.2
997.157	2207.05
997.453	2197.78
997.749	2194.17
998.044	2189.87
998.34	2177.67
998.636	2144.68
998.932	2169.76
999.227	2127.73
999.523	2137.9
999.818	2174.28
1000.114	2107.84
1000.409	2094.06
1000.704	2104.22
1001	2077.33
1001.295	2081.17
1001.59	2039.37
1001.885	2068.52
1002.18	2026.03
1002.475	1988.75
1002.77	2013.61
1003.065	1954.4
1003.359	1970.44
1003.654	1980.39
1003.949	1960.05
1004.243	1953.27
1004.538	1906.26
1004.832	1912.82
1005.127	1931.35
1005.421	1900.16
1005.715	1892.93
1006.009	1885.47
1006.304	1891.35
1006.598	1875.98
1006.892	1871.01
1007.186	1861.07
1007.48	1825.59
1007.773	1858.58
1008.067	1819.26
1008.361	1809.77
1008.655	1787.4
1008.948	1797.34
1009.242	1781.75
1009.535	1770.45
1009.829	1770.45
1010.122	1740.62
1010.415	1723.44
1010.708	1730.9
1011.001	1723.67
1011.295	1719.83
1011.588	1695.42
1011.881	1679.6
1012.173	1689.32
1012.466	1680.96
1012.759	1672.82
1013.052	1665.14
1013.344	1631.47
1013.637	1630.11
1013.93	1605.03
1014.222	1619.49
1014.514	1601.41
1014.807	1573.16
1015.099	1587.85
1015.391	1600.96
1015.683	1572.26
1015.976	1561.19
1016.268	1575.2
1016.56	1503.56
1016.851	1546.95
1017.143	1544.01
1017.435	1517.8
1017.727	1514.86
1018.018	1498.36
1018.31	1488.42
1018.602	1467.18
1018.893	1475.09
1019.185	1443.9
1019.476	1433.28
1019.767	1432.38
1020.058	1417.91
1020.35	1412.72
1020.641	1401.19
1020.932	1423.34
1021.223	1397.12
1021.514	1364.81
1021.804	1389.67
1022.095	1356.67
1022.386	1369.78
1022.677	1344.47
1022.967	1318.26
1023.258	1326.17
1023.548	1307.86
1023.839	1315.32
1024.129	1313.28
1024.419	1308.31
1024.709	1290.69
1025	1312.61
1025.29	1266.96
1025.58	1255.21
1025.87	1225.6
1026.16	1219.05
1026.449	1251.14
1026.739	1224.93
1027.029	1209.33
1027.319	1223.8
1027.608	1191.48
1027.898	1197.36
1028.187	1172.05
1028.477	1168.88
1028.766	1172.72
1029.055	1158.26
1029.344	1167.75
1029.634	1150.35
1029.923	1160.97
1030.212	1171.14
1030.501	1126.85
1030.79	1114.42
1031.078	1099.28
1031.367	1096.12
1031.656	1104.7
1031.945	1111.48
1032.233	1078.04
1032.522	1084.14
1032.81	1063.8
1033.099	1074.42
1033.387	1044.59
1033.675	1071.71
1033.963	1060.18
1034.251	1050.01
1034.54	1056.79
1034.828	1041.2
1035.116	1000.75
1035.403	1016.57
1035.691	1013.86
1035.979	1024.7
1036.267	1007.76
1036.554	973.18
1036.842	992.39
1037.129	983.35
1037.417	955.78
1037.704	965.72
1037.992	965.05
1038.279	957.14
1038.566	958.94
1038.853	958.94
1039.14	958.94
