Data from hue_30_FLMS001491_99.txt Node
Date: Mon Feb 06 15:06:25 GMT 2017
User: dcchb
Spectrometer: FLMS00149
Trigger mode: 0
Integration Time (sec): 2.000000E-2
Scans to average: 10
Electric dark correction enabled: true
Nonlinearity correction enabled: false
Boxcar width: 0
XAxis mode: Wavelengths
Number of Pixels in Spectrum: 2048
>>>>>Begin Spectral Data<<<<<
341.393	-27.02
341.776	-27.02
342.16	-27.02
342.543	-53.23
342.927	-57.75
343.31	-71.99
343.693	-57.3
344.077	-74.25
344.46	-54.81
344.843	-62.72
345.226	-38.54
345.61	-48.49
345.993	-28.15
346.376	-8.71
346.759	13.21
347.142	31.51
347.525	34.45
347.908	61.79
348.291	83.94
348.674	108.57
349.057	111.51
349.44	114.67
349.823	151.51
350.206	156.7
350.588	167.78
350.971	214.78
351.354	217.27
351.737	255.23
352.119	248.23
352.502	263.82
352.884	268.11
353.267	255.01
353.65	279.87
354.032	309.24
354.414	318.06
354.797	312.41
355.179	335.23
355.562	322.35
355.944	324.84
356.326	334.78
356.709	316.02
357.091	346.3
357.473	326.87
357.855	335.46
358.238	346.76
358.62	355.8
359.002	358.73
359.384	338.17
359.766	345.85
360.148	357.38
360.53	328.68
360.912	350.82
361.294	333.42
361.676	327.32
362.057	334.33
362.439	323.71
362.821	336.14
363.203	324.16
363.584	338.4
363.966	338.85
364.348	326.19
364.729	320.09
365.111	334.55
365.493	338.4
365.874	331.62
366.256	305.18
366.637	307.89
367.019	329.13
367.4	312.63
367.781	314.67
368.163	303.82
368.544	319.19
368.925	344.04
369.306	327.32
369.688	328.23
370.069	339.98
370.45	316.25
370.831	329.81
371.212	305.4
371.593	288.68
371.974	315.8
372.355	317.83
372.736	312.63
373.117	318.96
373.498	296.36
373.879	317.38
374.26	320.32
374.641	302.92
375.021	324.84
375.402	318.96
375.783	316.25
376.163	322.35
376.544	310.6
376.925	319.41
377.305	331.39
377.686	315.12
378.066	333.65
378.447	344.04
378.827	314.44
379.208	356.93
379.588	330.71
379.968	329.58
380.349	359.41
380.729	332.97
381.109	336.36
381.489	330.03
381.87	332.97
382.25	342.46
382.63	357.15
383.01	339.75
383.39	340.2
383.77	329.58
384.15	313.08
384.53	325.74
384.91	342.46
385.29	346.76
385.67	335.46
386.049	340.88
386.429	355.57
386.809	347.21
387.189	365.51
387.568	354.21
387.948	361.9
388.328	358.73
388.707	354.67
389.087	346.3
389.466	349.92
389.846	347.21
390.225	351.28
390.605	364.16
390.984	354.89
391.363	363.93
391.743	357.15
392.122	363.48
392.501	364.84
392.881	369.81
393.26	375.91
393.639	369.13
394.018	374.55
394.397	368.22
394.776	377.72
395.155	382.91
395.534	399.41
395.913	371.61
396.292	366.42
396.671	359.41
397.05	377.49
397.429	387.21
397.808	365.96
398.186	382.69
398.565	382.91
398.944	370.48
399.323	391.5
399.701	359.86
400.08	385.4
400.458	385.63
400.837	394.66
401.215	386.08
401.594	386.76
401.972	394.44
402.351	392.18
402.729	396.92
403.107	382.01
403.486	394.44
403.864	389.24
404.242	412.97
404.62	401.67
404.999	418.39
405.377	388.34
405.755	396.92
406.133	425.62
406.511	429.69
406.889	415.23
407.267	419.07
407.645	406.64
408.023	415.46
408.401	449.8
408.779	419.52
409.156	443.03
409.534	426.98
409.912	433.76
410.29	438.28
410.667	436.92
411.045	445.51
411.422	430.6
411.8	428.11
412.178	452.52
412.555	453.65
412.933	448.45
413.31	455.45
413.687	460.88
414.065	464.49
414.442	447.54
414.819	473.98
415.197	485.74
415.574	468.11
415.951	460.65
416.328	470.37
416.705	464.27
417.082	465.4
417.46	480.09
417.837	484.38
418.214	474.44
418.591	507.43
418.967	465.62
419.344	480.09
419.721	502.68
420.098	507.43
420.475	456.36
420.852	495.91
421.228	501.33
421.605	514.21
421.982	510.37
422.358	506.98
422.735	508.33
423.111	518.5
423.488	515.34
423.864	527.77
424.241	522.8
424.617	528.45
424.994	539.97
425.37	541.33
425.746	543.59
426.123	524.6
426.499	512.18
426.875	541.78
427.251	561.67
427.627	565.28
428.003	564.83
428.379	561.21
428.756	545.4
429.132	557.37
429.507	563.93
429.883	588.11
430.259	564.15
430.635	585.17
431.011	576.35
431.387	601.66
431.763	614.55
432.138	576.35
432.514	607.77
432.89	617.94
433.265	613.87
433.641	612.96
434.016	618.16
434.392	629.69
434.767	618.61
435.143	627.43
435.518	620.65
435.894	627.65
436.269	660.42
436.644	667.65
437.02	643.7
437.395	650.25
437.77	659.97
438.145	650.25
438.52	664.04
438.895	636.47
439.271	665.39
439.646	670.36
440.021	657.26
440.395	678.05
440.77	691.38
441.145	686.86
441.52	701.55
441.895	709.46
442.27	695.9
442.645	701.1
443.019	701.78
443.394	696.35
443.769	695.67
444.143	714.2
444.518	723.7
444.892	752.62
445.267	763.24
445.641	746.07
446.016	721.44
446.39	742
446.764	748.78
447.139	758.5
447.513	763.24
447.887	762.56
448.262	781.55
448.636	774.32
449.01	790.81
449.384	784.49
449.758	755.79
450.132	776.58
450.506	785.61
450.88	806.86
451.254	777.93
451.628	788.33
452.002	783.36
452.376	818.83
452.75	831.49
453.123	832.17
453.497	844.6
453.871	846.86
454.244	849.79
454.618	854.77
454.992	847.08
455.365	858.38
455.739	852.96
456.112	869
456.486	878.27
456.859	892.5
457.232	905.16
457.606	908.78
457.979	916.68
458.352	898.38
458.725	937.25
459.099	946.06
459.472	963.69
459.845	982.22
460.218	985.38
460.591	944.93
460.964	979.73
461.337	1017.02
461.71	1008.89
462.083	1017.02
462.456	1012.95
462.829	1038.49
463.201	1045.72
463.574	1060.41
463.947	1072.16
464.32	1078.71
464.692	1096.57
465.065	1090.01
465.438	1116
465.81	1111.26
466.183	1146.06
466.555	1161.2
466.928	1163.01
467.3	1160.29
467.672	1173.18
468.045	1229.22
468.417	1224.02
468.789	1235.55
469.161	1245.04
469.534	1269.22
469.906	1294.3
470.278	1274.87
470.65	1299.05
471.022	1341.76
471.394	1347.18
471.766	1361.42
472.138	1381.53
472.51	1411.59
472.882	1465.37
473.253	1446.61
473.625	1466.5
473.997	1505.82
474.369	1536.78
474.74	1529.55
475.112	1563.22
475.484	1582.66
475.855	1621.07
476.227	1621.07
476.598	1690.45
476.97	1715.76
477.341	1745.14
477.713	1789.88
478.084	1802.09
478.455	1866.72
478.827	1881.63
479.198	1926.38
479.569	1957.11
479.94	2049.31
480.311	2031.23
480.682	2095.64
481.053	2136.09
481.424	2198.46
481.795	2185.13
482.166	2276.42
482.537	2295.86
482.908	2363.65
483.279	2374.73
483.65	2441.39
484.021	2491.56
484.391	2528.39
484.762	2573.82
485.133	2614.04
485.503	2680.48
485.874	2736.75
486.244	2814.49
486.615	2857.88
486.985	2903.07
487.356	2967.25
487.726	2996.63
488.097	3107.36
488.467	3124.54
488.837	3191.65
489.207	3217.64
489.578	3303.06
489.948	3295.38
490.318	3395.04
490.688	3424.87
491.058	3460.35
491.428	3555.94
491.798	3630.74
492.168	3719.32
492.538	3741.02
492.908	3780.79
493.278	3819.66
493.648	3847.91
494.017	3924.74
494.387	4025.98
494.757	4002.48
495.126	4069.6
495.496	4101.69
495.866	4148.69
496.235	4197.05
496.605	4288.8
496.974	4299.42
497.344	4341.68
497.713	4416.71
498.082	4389.81
498.452	4549.36
498.821	4544.84
499.19	4554.56
499.559	4624.61
499.928	4685.4
500.298	4650.37
500.667	4752.74
501.036	4757.49
501.405	4814.89
501.774	4861.67
502.143	4918.16
502.512	4944.83
502.88	4930.59
503.249	4950.7
503.618	5014.43
503.987	5051.04
504.356	5153.86
504.724	5125.39
505.093	5139.17
505.462	5179.17
505.83	5247.87
506.199	5222.11
506.567	5350.24
506.936	5356.57
507.304	5355.66
507.672	5425.27
508.041	5436.34
508.409	5504.59
508.777	5546.85
509.145	5534.19
509.514	5608.09
509.882	5610.8
510.25	5606.05
510.618	5686.05
510.986	5711.36
511.354	5766.27
511.722	5780.29
512.09	5868.65
512.458	5857.8
512.826	5877.68
513.193	5862.09
513.561	5930.79
513.929	5944.8
514.297	5962.65
514.664	6053.05
515.032	6032.71
515.4	6086.94
515.767	6120.16
516.135	6093.72
516.502	6159.26
516.869	6217.34
517.237	6196.77
517.604	6220.95
517.972	6273.61
518.339	6273.38
518.706	6297.56
519.073	6307.05
519.44	6354.06
519.808	6444
520.175	6423.88
520.542	6456.65
520.909	6498.69
521.276	6504.56
521.643	6566.03
522.009	6608.51
522.376	6655.52
522.743	6672.24
523.11	6708.4
523.477	6779.58
523.843	6770.77
524.21	6837.89
524.577	6887.15
524.943	6923.76
525.31	6951.33
525.676	7007.15
526.043	6992.23
526.409	7026.13
526.776	7090.31
527.142	7116.75
527.508	7190.64
527.874	7233.81
528.241	7237.2
528.607	7297.53
528.973	7367.14
529.339	7323.52
529.705	7342.73
530.071	7444.87
530.437	7515.83
530.803	7497.3
531.169	7620.24
531.535	7542.73
531.901	7570.97
532.267	7553.12
532.632	7656.39
532.998	7669.28
533.364	7744.08
533.73	7776.39
534.095	7849.61
534.461	7795.37
534.826	7896.39
535.192	7907.91
535.557	8004.86
535.923	7969.38
536.288	8001.02
536.653	8051.64
537.019	8036.5
537.384	8071.75
537.749	8125.99
538.114	8158.08
538.479	8182.71
538.845	8194.23
539.21	8236.27
539.575	8280.79
539.94	8273.78
540.305	8340.9
540.67	8289.37
541.034	8358.52
541.399	8410.05
541.764	8427.22
542.129	8472.64
542.494	8491.4
542.858	8517.16
543.223	8615.01
543.587	8594.9
543.952	8619.76
544.316	8733.43
544.681	8670.83
545.045	8786.53
545.41	8772.52
545.774	8858.85
546.138	8851.84
546.503	8869.24
546.867	8882.58
547.231	8977.49
547.595	8970.71
547.959	8988.79
548.324	9012.97
548.688	9038.51
549.052	9092.06
549.416	9088.67
549.779	9112.63
550.143	9094.32
550.507	9278.5
550.871	9254.54
551.235	9255.45
551.599	9364.82
551.962	9331.38
552.326	9415.9
552.689	9429.46
553.053	9451.6
553.417	9491.15
553.78	9560.98
554.143	9469
554.507	9560.07
554.87	9610.92
555.234	9683.01
555.597	9596.91
555.96	9676.23
556.323	9791.25
556.686	9737.7
557.05	9867.64
557.413	9839.61
557.776	9923.45
558.139	9903.12
558.502	9894.08
558.865	9967.75
559.228	10017.69
559.59	10000.74
559.953	10007.52
560.316	10083
560.679	10173.39
561.041	10205.48
561.404	10207.06
561.767	10285.03
562.129	10209.77
562.492	10371.58
562.854	10369.32
563.217	10286.16
563.579	10344.01
563.941	10415.87
564.304	10455.19
564.666	10515.3
565.028	10484.12
565.39	10685.02
565.753	10626.71
566.115	10646.37
566.477	10681.17
566.839	10716.65
567.201	10758.46
567.563	10756.88
567.925	10872.58
568.287	10839.81
568.648	10947.16
569.01	10947.61
569.372	11032.8
569.734	11050.2
570.095	11124.55
570.457	11084.55
570.819	11212.23
571.18	11132.01
571.542	11321.38
571.903	11296.53
572.265	11434.83
572.626	11470.08
572.987	11486.35
573.349	11469.4
573.71	11609.51
574.071	11602.51
574.432	11754.14
574.794	11878.2
575.155	11911.2
575.516	11921.82
575.877	11939.67
576.238	12058.99
576.599	12109.61
576.96	12180.12
577.32	12377.17
577.681	12418.76
578.042	12550.5
578.403	12619.65
578.763	12685.19
579.124	12801.34
579.485	12971.96
579.845	13040.89
580.206	13223.71
580.566	13281.56
580.927	13364.27
581.287	13560.65
581.648	13674.09
582.008	13818.94
582.368	13977.58
582.728	14191.59
583.089	14252.38
583.449	14506.84
583.809	14594.97
584.169	14767.62
584.529	14918.35
584.889	15147.72
585.249	15344.33
585.609	15483.53
585.969	15684.43
586.329	15801.94
586.688	16149.96
587.048	16244.19
587.408	16497.07
587.768	16641.02
588.127	16877.17
588.487	17022.48
588.846	17466.98
589.206	17567.32
589.565	17791.5
589.925	18108.55
590.284	18372.72
590.643	18588.54
591.003	18911.69
591.362	19094.74
591.721	19318.23
592.08	19537.21
592.44	19867.83
592.799	20070.98
593.158	20301.49
593.517	20639.33
593.876	20998.64
594.235	21140.11
594.593	21418.97
594.952	21670.72
595.311	21882.91
595.67	22124.49
596.029	22519.96
596.387	22744.59
596.746	22916.33
597.104	23119.94
597.463	23384.12
597.822	23874.95
598.18	23929.87
598.538	24142.97
598.897	24617.3
599.255	24622.95
599.613	25101.13
599.972	25230.62
600.33	25536.38
600.688	25530.95
601.046	26027.89
601.404	26288.22
601.762	26454.77
602.12	26712.39
602.478	26975.66
602.836	27213.39
603.194	27271.02
603.552	27634.17
603.91	27642.31
604.268	27995.97
604.625	28154.39
604.983	28513.02
605.341	28520.48
605.698	28906.91
606.056	28969.28
606.413	29178.54
606.771	29457.18
607.128	29669.15
607.485	29625.08
607.843	29864.17
608.2	30181.9
608.557	30556.58
608.914	30522.23
609.272	30861.43
609.629	30901.43
609.986	31241.09
610.343	31324.02
610.7	31694.41
611.057	31689.21
611.414	31835.65
611.771	32029.99
612.127	32173.72
612.484	32367.61
612.841	32465.91
613.198	32533.25
613.554	32678.56
613.911	32937.76
614.267	33124.2
614.624	33223.86
614.98	33341.82
615.337	33580.68
615.693	33649.61
616.05	33729.61
616.406	34022.71
616.762	33845.99
617.118	34139.09
617.475	34252.31
617.831	34346.09
618.187	34539.53
618.543	34658.85
618.899	34758.28
619.255	34888.67
619.611	34994.66
619.967	35138.61
620.323	35219.51
620.678	35194.43
621.034	35405.04
621.39	35310.81
621.746	35436.91
622.101	35755.32
622.457	35583.57
622.812	35757.35
623.168	35939.49
623.523	35944.46
623.879	36121.18
624.234	35960.74
624.589	36120.51
624.945	36221.52
625.3	36303.78
625.655	36329.31
626.01	36346.26
626.365	36361.4
626.72	36352.14
627.075	36439.14
627.43	36411.8
627.785	36492.02
628.14	36546.03
628.495	36707.83
628.85	36612.7
629.205	36707.38
629.559	36897.89
629.914	36743.54
630.269	36796.65
630.623	36814.95
630.978	36684.56
631.332	36802.97
631.687	37026.47
632.041	36873.71
632.396	36972.01
632.75	36785.12
633.104	36938.79
633.459	36732.24
633.813	36843.42
634.167	36821.96
634.521	36868.51
634.875	36981.95
635.229	36840.03
635.583	36813.37
635.937	36863.54
636.291	36691.56
636.645	36873.71
636.999	36706.93
637.352	36865.8
637.706	36788.06
638.06	36694.05
638.413	36800.71
638.767	36732.47
639.121	36776.98
639.474	36650.43
639.828	36736.08
640.181	36779.24
640.534	36726.82
640.888	36651.34
641.241	36548.97
641.594	36591.23
641.947	36666.48
642.301	36499.7
642.654	36594.62
643.007	36638.68
643.36	36596.65
643.713	36490.44
644.066	36572.02
644.419	36391.23
644.771	36148.53
645.124	35813.62
645.477	35814.52
645.83	35505.38
646.182	35429.22
646.535	35494.31
646.888	35424.03
647.24	35289.34
647.593	35499.73
647.945	35581.08
648.298	35488.43
648.65	35344.48
649.002	35294.31
649.355	35447.75
649.707	35394.65
650.059	35435.55
650.411	35907.18
650.763	35955.09
651.115	36249.32
651.467	36002.99
651.819	36211.8
652.171	35962.77
652.523	35959.61
652.875	36090.9
653.227	35764.58
653.578	36238.69
653.93	35972.71
654.282	35866.95
654.633	35759.61
654.985	35782.89
655.337	35859.04
655.688	35824.02
656.039	36009.77
656.391	35757.12
656.742	35714.64
657.094	35862.66
657.445	36040.28
657.796	35862.88
658.147	35715.54
658.498	35839.16
658.849	35838.48
659.2	35728.42
659.551	35639.39
659.902	35687.3
660.253	35676.45
660.604	35606.62
660.955	35651.82
661.306	35809.55
661.656	35648.2
662.007	35609.78
662.358	35578.82
662.708	35698.14
663.059	35494.53
663.409	35480.97
663.76	35751.48
664.11	35677.13
664.461	35699.5
664.811	35886.39
665.161	35646.85
665.511	35557.58
665.862	35729.1
666.212	35752.83
666.562	35776.33
666.912	35735.88
667.262	35647.07
667.612	35637.81
667.962	35755.09
668.312	35572.27
668.662	35767.07
669.011	35596.68
669.361	35587.86
669.711	35615.43
670.06	35498.15
670.41	35439.84
670.76	35381.77
671.109	35614.3
671.459	35385.38
671.808	35449.56
672.157	35562.33
672.507	35291.15
672.856	35323.92
673.205	35412.05
673.554	35456.79
673.904	35286.63
674.253	35435.1
674.602	35265.16
674.951	34778.85
675.3	34645.29
675.649	35243.24
675.998	35191.26
676.346	35235.78
676.695	35250.02
677.044	35039.86
677.393	35113.98
677.741	35260.64
678.09	35099.97
678.438	34913.08
678.787	35112.4
679.135	35149.68
679.484	34916.24
679.832	34979.97
680.181	34751.95
680.529	34869.24
680.877	34727.55
681.225	34802.57
681.573	34986.52
681.922	34702.92
682.27	34566.42
682.618	34570.26
682.966	34556.7
683.314	34580.21
683.661	34502.47
684.009	34249.82
684.357	34353.55
684.705	34225.64
685.053	34345.18
685.4	34235.81
685.748	34082.82
686.095	34087.56
686.443	33972.54
686.79	33849.15
687.138	34101.8
687.485	33931.86
687.832	33854.12
688.18	33872.2
688.527	33619.33
688.874	33593.79
689.221	33576.39
689.568	33560.12
689.915	33339.56
690.262	33415.27
690.609	33189.51
690.956	33091.88
691.303	33167.59
691.65	32859.35
691.997	32992.9
692.344	32846.01
692.69	32722.4
693.037	32834.26
693.383	32534.84
693.73	32713.81
694.077	32521.96
694.423	32462.07
694.769	32478.11
695.116	32390.21
695.462	32275.41
695.808	32178.24
696.155	32204.68
696.501	31911.12
696.847	32060.5
697.193	31784.12
697.539	31906.38
697.885	31666.84
698.231	31523.79
698.577	31575.31
698.923	31521.53
699.269	31387.52
699.614	31277.02
699.96	31136.23
700.306	31065.95
700.651	30942.56
700.997	30860.08
701.342	30987.31
701.688	30870.7
702.033	30760.87
702.379	30653.08
702.724	30658.05
703.069	30665.06
703.415	30339.87
703.76	30414.89
704.105	30411.05
704.45	30237.72
704.795	30044.28
705.14	29967.9
705.485	29983.49
705.83	29840.22
706.175	29955.24
706.52	29781.69
706.865	29659.21
707.209	29777.85
707.554	29573.78
707.899	29678.64
708.243	29438.42
708.588	29469.61
708.932	29206.11
709.277	29297.86
709.621	29287.24
709.966	29027.36
710.31	29105.55
710.654	28910.98
710.998	29016.29
711.342	28959.34
711.687	28864.42
712.031	28733.35
712.375	28710.3
712.719	28619.23
713.063	28559.12
713.407	28664.43
713.75	28447.71
714.094	28461.5
714.438	28347.6
714.782	28367.49
715.125	28292.69
715.469	28288.62
715.812	28129.08
716.156	27949.42
716.499	27938.57
716.843	28039.59
717.186	27839.59
717.53	27977.89
717.873	27983.32
718.216	27802.53
718.559	27712.59
718.902	27497.91
719.246	27668.52
719.589	27674.4
719.932	27417.68
720.275	27547.17
720.617	27450.9
720.96	27372.26
721.303	27455.42
721.646	27380.17
721.989	27164.13
722.331	27300.85
722.674	27181.53
723.016	27225.37
723.359	27053.62
723.701	27148.09
724.044	26963.68
724.386	26970.69
724.729	27065.6
725.071	26839.17
725.413	26852.5
725.755	26701.32
726.097	26668.78
726.439	26645.27
726.782	26670.81
727.124	26722.33
727.465	26526.63
727.807	26565.5
728.149	26589.91
728.491	26521.66
728.833	26478.05
729.175	26366.19
729.516	26352.63
729.858	26311.27
730.199	26325.06
730.541	26211.61
730.882	26206.87
731.224	26321.21
731.565	26092.52
731.906	26102.69
732.248	25961.68
732.589	26028.57
732.93	25895.24
733.271	25891.85
733.612	25933.88
733.953	25970.26
734.294	25793.09
734.635	25723.94
734.976	25782.25
735.317	25609.37
735.658	25610.27
735.999	25554.68
736.339	25467.68
736.68	25710.16
737.021	25574.12
737.361	25423.61
737.702	25523.95
738.042	25408.7
738.383	25350.39
738.723	25490.28
739.063	25340.22
739.404	25333.9
739.744	25291.86
740.084	25238.53
740.424	25153.79
740.764	25187.91
741.104	25258.42
741.444	25205.76
741.784	24923.51
742.124	25069.5
742.464	24955.37
742.804	24938.88
743.143	24844.42
743.483	24918.09
743.823	24742.73
744.162	24666.12
744.502	24830.63
744.841	24786.11
745.181	24818.43
745.52	24741.6
745.86	24680.58
746.199	24636.97
746.538	24527.59
746.877	24623.41
747.216	24597.87
747.556	24494.82
747.895	24514.48
748.234	24418.89
748.573	24449.17
748.911	24375.05
749.25	24337.99
749.589	24230.87
749.928	24297.31
750.267	24337.99
750.605	24246.24
750.944	24271.33
751.283	24260.25
751.621	24175.06
751.96	23984.78
752.298	24112.91
752.636	24027.94
752.975	23978.23
753.313	23799.02
753.651	23925.57
753.989	23765.58
754.327	23614.62
754.666	23535.53
755.004	23752.02
755.342	23732.36
755.679	23621.17
756.017	23521.29
756.355	23629.53
756.693	23414.17
757.031	23464.79
757.368	23295.31
757.706	23361.29
758.044	23275.42
758.381	23244.46
758.719	23171.02
759.056	23166.27
759.394	23095.54
759.731	22960.4
760.068	22945.26
760.405	22881.08
760.743	22789.33
761.08	22863
761.417	22739.16
761.754	22697.36
762.091	22680.63
762.428	22562.22
762.765	22312.96
763.102	22468.89
763.438	22364.48
763.775	22311.6
764.112	22377.36
764.449	22239.97
764.785	22165.17
765.122	22126.52
765.458	22004.49
765.795	21949.58
766.131	21905.06
766.467	21764.27
766.804	21719.08
767.14	21692.18
767.476	21617.16
767.812	21442.92
768.148	21520.21
768.485	21329.26
768.821	21317.96
769.157	21297.39
769.492	21205.19
769.828	21220.56
770.164	21025.31
770.5	20952.09
770.836	21014.91
771.171	20905.76
771.507	20772.21
771.842	20609.95
772.178	20609.27
772.513	20517.98
772.849	20607.92
773.184	20325.89
773.519	20335.38
773.855	20297.64
774.19	20145.56
774.525	20142.85
774.86	20077.09
775.195	20060.14
775.53	20119.57
775.865	19873.02
776.2	19672.12
776.535	19641.16
776.87	19657.66
777.205	19555.97
777.539	19410.66
777.874	19576.53
778.209	19271.91
778.543	19267.16
778.878	19180.61
779.212	19166.6
779.547	19122.31
779.881	19115.3
780.215	18854.52
780.55	18974.97
780.884	18861.07
781.218	18782.2
781.552	18697.91
781.886	18645.48
782.22	18533.4
782.554	18525.71
782.888	18394.42
783.222	18314.87
783.556	18287.3
783.889	18180.19
784.223	18061.77
784.557	17996.46
784.89	18052.96
785.224	17949.68
785.557	17815
785.891	17848.9
786.224	17796.69
786.558	17695.9
786.891	17573.65
787.224	17490.94
787.557	17462.01
787.891	17420.66
788.224	17405.97
788.557	17370.49
788.89	17338.4
789.223	17271.06
789.556	17132.08
789.888	17050.05
790.221	17062.93
790.554	16904.29
790.887	16947.68
791.219	16827.68
791.552	16784.29
791.884	16701.81
792.217	16680.11
792.549	16683.05
792.882	16454.58
793.214	16389.95
793.546	16464.52
793.879	16362.38
794.211	16210.75
794.543	16283.74
794.875	16188.37
795.207	16238.09
795.539	16101.37
795.871	16151.76
796.203	15987.48
796.535	15887.82
796.867	15867.03
797.198	15823.86
797.53	15821.83
797.862	15756.52
798.193	15827.71
798.525	15695.28
798.856	15718.33
799.188	15477.21
799.519	15495.51
799.85	15389.98
800.182	15446.92
800.513	15380.49
800.844	15177.78
801.175	15292.35
801.506	15235.18
801.837	15174.39
802.168	15121.06
802.499	15125.8
802.83	15129.42
803.161	15019.36
803.491	15001.51
803.822	14948.18
804.153	14834.51
804.483	14779.82
804.814	14742.76
805.145	14733.5
805.475	14648.08
805.805	14642.43
806.136	14684.23
806.466	14643.1
806.796	14552.48
807.126	14451.92
807.457	14448.08
807.787	14442.43
808.117	14371.47
808.447	14334.19
808.777	14369.66
809.107	14314.98
809.436	14223
809.766	14206.73
810.096	14168.09
810.426	14136.22
810.755	14066.62
811.085	14120.41
811.414	13980.3
811.744	13879.73
812.073	13955.21
812.403	13915.44
812.732	13876.57
813.061	13828.44
813.39	13804.93
813.719	13656.24
814.049	13707.76
814.378	13673.41
814.707	13551.15
815.036	13579.18
815.365	13554.09
815.693	13409.46
816.022	13395
816.351	13379.18
816.68	13414.89
817.008	13317.04
817.337	13281.56
817.665	13243.59
817.994	13220.09
818.322	13204.05
818.651	13083.14
818.979	13144.84
819.307	13220.77
819.636	13104.61
819.964	13030.26
820.292	13042.69
820.62	13072.07
820.948	13044.05
821.276	13106.19
821.604	13005.41
821.932	13004.73
822.259	13024.62
822.587	12960.66
822.915	12939.65
823.243	12982.58
823.57	12972.41
823.898	12939.42
824.225	12911.62
824.553	12963.37
824.88	12895.58
825.207	13001.11
825.535	12930.15
825.862	12968.8
826.189	12923.83
826.516	12992.3
826.843	13027.33
827.17	12928.8
827.497	12851.29
827.824	12959.76
828.151	12973.09
828.478	12885.86
828.805	12948.68
829.131	12859.42
829.458	12918.4
829.785	12884.73
830.111	12826.88
830.438	12879.76
830.764	12851.29
831.09	12953.2
831.417	12814.68
831.743	12908.69
832.069	12885.64
832.395	12797.95
832.722	12874.11
833.048	12864.85
833.374	12879.76
833.7	12743.49
834.026	12739.42
834.351	12811.97
834.677	12712.53
835.003	12747.56
835.329	12713.89
835.654	12673.44
835.98	12687.9
836.306	12650.39
836.631	12620.33
836.956	12683.38
837.282	12639.77
837.607	12607.45
837.932	12511.41
838.258	12661.23
838.583	12523.16
838.908	12455.36
839.233	12480
839.558	12511.41
839.883	12532.88
840.208	12355.48
840.533	12421.02
840.858	12395.25
841.182	12430.73
841.507	12399.77
841.832	12328.59
842.156	12321.58
842.481	12306.22
842.805	12273.45
843.13	12140.8
843.454	12240.91
843.778	12103.06
844.103	12111.42
844.427	12045.66
844.751	11982.38
845.075	12043.85
845.399	12034.81
845.723	12000.01
846.047	11868.71
846.371	11774.7
846.695	11819
847.019	11701.26
847.343	11687.25
847.666	11649.06
847.99	11562.05
848.313	11585.1
848.637	11420.82
848.96	11419.23
849.284	11485.67
849.607	11346.69
849.931	11297.88
850.254	11290.2
850.577	11273.25
850.9	11190.77
851.223	11146.92
851.546	11091.78
851.869	11052.01
852.192	11044.1
852.515	10929.53
852.838	10956.65
853.161	10979.02
853.483	10869.64
853.806	10869.64
854.129	10761.17
854.451	10739.93
854.774	10716.2
855.096	10666.94
855.419	10646.15
855.741	10623.1
856.063	10593.27
856.385	10558.01
856.708	10479.82
857.03	10517.11
857.352	10418.13
857.674	10473.27
857.996	10421.07
858.318	10404.8
858.64	10347.62
858.961	10354.63
859.283	10287.06
859.605	10217.23
859.926	10276.44
860.248	10156.67
860.57	10111.7
860.891	10153.73
861.212	10060.4
861.534	10081.19
861.855	10031.7
862.176	10034.86
862.498	10057.01
862.819	10099.27
863.14	9973.62
863.461	9963.68
863.782	9861.08
864.103	9941.31
864.424	9866.28
864.745	9981.08
865.065	9888.43
865.386	9920.06
865.707	9809.56
866.027	9806.85
866.348	9760.52
866.668	9788.99
866.989	9735.44
867.309	9745.61
867.63	9724.81
867.95	9770.92
868.27	9644.14
868.59	9737.02
868.91	9645.04
869.23	9635.33
869.55	9638.04
869.87	9690.47
870.19	9637.13
870.51	9605.95
870.83	9557.36
871.15	9541.77
871.469	9528.21
871.789	9481.21
872.109	9469.68
872.428	9477.36
872.748	9516.01
873.067	9478.04
873.386	9440.75
873.706	9439.62
874.025	9419.96
874.344	9406.86
874.663	9392.85
874.982	9316.69
875.301	9318.05
875.62	9353.07
875.939	9274.21
876.258	9307.2
876.577	9264.04
876.896	9247.09
877.214	9222
877.533	9244.6
877.852	9175.68
878.17	9243.7
878.489	9197.15
878.807	9186.52
879.125	9153.53
879.444	9137.71
879.762	9113.08
880.08	9144.94
880.398	9072.4
880.716	9066.53
881.034	9040.99
881.352	9075.11
881.67	9031.05
881.988	9043.25
882.306	9036.47
882.624	8916.02
882.941	8922.8
883.259	8928.23
883.577	8896.14
883.894	8851.84
884.212	8878.28
884.529	8861.79
884.846	8796.25
885.164	8806.65
885.481	8791.73
885.798	8774.56
886.115	8716.48
886.432	8694.79
886.75	8658.18
887.067	8724.39
887.383	8694.79
887.7	8633.09
888.017	8592.42
888.334	8584.73
888.651	8632.41
888.967	8551.29
889.284	8509.48
889.6	8506.32
889.917	8546.99
890.233	8496.82
890.55	8473.1
890.866	8413.89
891.182	8429.93
891.498	8415.7
891.815	8379.54
892.131	8282.59
892.447	8390.39
892.763	8222.71
893.079	8224.29
893.395	8224.29
893.71	8236.04
894.026	8172.31
894.342	8139.09
894.657	8105.42
894.973	8092.99
895.289	8093.22
895.604	8081.92
895.92	8041.47
896.235	8056.16
896.55	7943.39
896.865	7964.86
897.181	7937.07
897.496	7903.39
897.811	7856.39
898.126	7796.5
898.441	7787.01
898.756	7806.9
899.071	7710.18
899.386	7721.48
899.7	7678.54
900.015	7627.02
900.33	7606.45
900.644	7622.27
900.959	7668.15
901.273	7569.39
901.588	7553.8
901.902	7513.8
902.216	7403.97
902.531	7473.35
902.845	7400.13
903.159	7415.5
903.473	7382.73
903.787	7269.74
904.101	7298.21
904.415	7248.04
904.729	7244.2
905.042	7193.13
905.356	7147.71
905.67	7198.78
905.984	7142.51
906.297	7104.54
906.611	7072.46
906.924	7059.8
907.237	7045.56
907.551	7007.15
907.864	6983.42
908.177	6946.81
908.491	6932.57
908.804	6852.12
909.117	6866.81
909.43	6861.39
909.743	6778.9
910.056	6841.73
910.368	6753.14
910.681	6757.66
910.994	6746.36
911.307	6701.39
911.619	6645.57
911.932	6681.73
912.244	6611
912.557	6599.47
912.869	6625.46
913.181	6551.57
913.494	6491.91
913.806	6504.79
914.118	6453.04
914.43	6440.38
914.742	6423.88
915.054	6423.66
915.366	6300.95
915.678	6326.49
915.99	6290.55
916.302	6271.8
916.613	6255.3
916.925	6227.51
917.236	6217.56
917.548	6121.97
917.859	6133.72
918.171	6096.89
918.482	6064.57
918.794	6091.69
919.105	6104.8
919.416	5966.5
919.727	5974.41
920.038	5973.95
920.349	5907.29
920.66	5913.16
920.971	5930.34
921.282	5814.64
921.593	5839.95
921.903	5815.54
922.214	5805.37
922.525	5755.65
922.835	5759.72
923.146	5725.82
923.456	5741.19
923.767	5692.83
924.077	5640.63
924.387	5660.97
924.697	5621.42
925.008	5642.44
925.318	5560.63
925.628	5565.6
925.938	5506.17
926.248	5487.86
926.558	5387.3
926.867	5423.01
927.177	5434.98
927.487	5353.86
927.796	5343.91
928.106	5324.25
928.416	5325.61
928.725	5370.81
929.034	5266.18
929.344	5268.43
929.653	5238.61
929.962	5244.25
930.271	5196.8
930.581	5143.01
930.89	5135.56
931.199	5069.12
931.508	5120.87
931.817	5073.41
932.125	5119.51
932.434	5078.61
932.743	5022.11
933.051	4970.36
933.36	5034.32
933.669	4924.72
933.977	4893.08
934.286	4926.07
934.594	4908.44
934.902	4830.25
935.21	4819.18
935.519	4839.52
935.827	4818.28
936.135	4791.16
936.443	4777.15
936.751	4749.13
937.059	4734.21
937.367	4711.16
937.674	4698.05
937.982	4687.21
938.29	4665.29
938.597	4671.84
938.905	4583.26
939.213	4604.95
939.52	4538.06
939.827	4589.36
940.135	4523.37
940.442	4510.94
940.749	4506.2
941.056	4504.16
941.363	4432.98
941.67	4419.87
941.977	4405.18
942.284	4368.57
942.591	4343.71
942.898	4363.83
943.205	4353.43
943.511	4332.19
943.818	4332.64
944.125	4229.14
944.431	4285.18
944.738	4245.86
945.044	4180.55
945.35	4226.88
945.657	4141.91
945.963	4171.06
946.269	4155.02
946.575	4125.87
946.881	4111.4
947.187	4097.62
947.493	4088.58
947.799	4110.5
948.105	4010.61
948.41	4070.95
948.716	4038.86
949.022	3986.66
949.327	4005.19
949.633	3919.77
949.938	3969.49
950.244	3963.16
950.549	3904.63
950.854	3894.23
951.16	3896.04
951.465	3878.87
951.77	3861.47
952.075	3828.25
952.38	3806.55
952.685	3816.95
952.99	3831.86
953.294	3778.76
953.599	3760
953.904	3721.58
954.209	3717.74
954.513	3715.26
954.818	3668.48
955.122	3671.41
955.426	3657.63
955.731	3635.71
956.035	3642.26
956.339	3595.71
956.643	3576.05
956.948	3565.65
957.252	3545.09
957.556	3537.41
957.86	3530.18
958.163	3521.81
958.467	3543.73
958.771	3490.63
959.075	3484.3
959.378	3453.34
959.682	3458.09
959.985	3453.34
960.289	3434.13
960.592	3388.94
960.896	3392.55
961.199	3402.04
961.502	3346.23
961.805	3334.02
962.108	3315.94
962.411	3320.46
962.714	3295.15
963.017	3290.41
963.32	3305.32
963.623	3254.48
963.926	3256.51
964.228	3234.59
964.531	3238.21
964.833	3209.28
965.136	3173.8
965.438	3195.72
965.741	3169.73
966.043	3124.54
966.345	3129.96
966.648	3129.28
966.95	3081.83
967.252	3099.68
967.554	3079.11
967.856	3057.19
968.158	3056.97
968.46	3066.91
968.761	3067.36
969.063	3034.14
969.365	3009.29
969.666	2995.05
969.968	2995.05
970.269	2940.13
970.571	2955.5
970.872	2922.73
971.174	2900.81
971.475	2912.34
971.776	2897.88
972.077	2928.38
972.378	2885.67
972.679	2901.27
972.98	2858.1
973.281	2849.06
973.582	2861.72
973.883	2792.79
974.183	2809.97
974.484	2817.43
974.785	2807.93
975.085	2770.65
975.386	2774.49
975.686	2745.11
975.986	2750.08
976.287	2742.63
976.587	2705.34
976.887	2699.69
977.187	2682.29
977.487	2690.2
977.787	2674.83
978.087	2629.86
978.387	2622.4
978.687	2661.72
978.987	2621.95
979.286	2618.56
979.586	2605
979.885	2576.3
980.185	2593.7
980.484	2548.05
980.784	2558
981.083	2545.12
981.382	2528.62
981.682	2504.89
981.981	2525.23
982.28	2517.55
982.579	2488.4
982.878	2479.36
983.177	2481.84
983.475	2428.74
983.774	2453.14
984.073	2439.13
984.372	2423.09
984.67	2407.27
984.969	2405.91
985.267	2381.51
985.566	2376.76
985.864	2362.3
986.162	2374.05
986.461	2359.81
986.759	2334.05
987.057	2342.18
987.355	2311.22
987.653	2317.55
987.951	2307.83
988.249	2315.74
988.547	2268.06
988.844	2228.06
989.142	2253.37
989.44	2230.77
989.737	2198.01
990.035	2218.35
990.332	2248.18
990.63	2216.31
990.927	2204.11
991.224	2188.29
991.521	2176.54
991.819	2164.11
992.116	2165.24
992.413	2174.73
992.71	2135.41
993.006	2137.67
993.303	2105.13
993.6	2117.78
993.897	2120.95
994.193	2110.55
994.49	2047.95
994.787	2057.9
995.083	2040.5
995.379	2054.51
995.676	2048.86
995.972	1991.68
996.268	2052.7
996.565	2024.68
996.861	2026.94
997.157	1978.58
997.453	1979.03
997.749	1928.86
998.044	1965.24
998.34	1957.79
998.636	1979.71
998.932	1932.25
999.227	1917.11
999.523	1881.63
999.818	1913.27
1000.114	1902.42
1000.409	1871.24
1000.704	1873.5
1001	1889.09
1001.295	1850.22
1001.59	1853.61
1001.885	1849.77
1002.18	1807.06
1002.475	1826.94
1002.77	1821.97
1003.065	1797.34
1003.359	1778.58
1003.654	1775.42
1003.949	1767.74
1004.243	1753.27
1004.538	1750.79
1004.832	1761.41
1005.127	1737.68
1005.421	1711.69
1005.715	1733.39
1006.009	1723.44
1006.304	1726.16
1006.598	1695.65
1006.892	1677.34
1007.186	1699.04
1007.48	1663.11
1007.773	1657.23
1008.067	1643.9
1008.361	1645.25
1008.655	1636.44
1008.948	1628.08
1009.242	1626.5
1009.535	1596.22
1009.829	1590.57
1010.122	1572.49
1010.415	1582.66
1010.708	1551.24
1011.001	1567.74
1011.295	1544.01
1011.588	1532.04
1011.881	1514.86
1012.173	1539.49
1012.466	1536.1
1012.759	1488.42
1013.052	1520.28
1013.344	1488.87
1013.637	1514.64
1013.93	1463.11
1014.222	1452.49
1014.514	1457.24
1014.807	1441.19
1015.099	1418.82
1015.391	1446.84
1015.683	1414.98
1015.976	1440.06
1016.268	1415.65
1016.56	1398.25
1016.851	1381.76
1017.143	1388.54
1017.435	1376.56
1017.727	1355.77
1018.018	1379.27
1018.31	1345.15
1018.602	1340.18
1018.893	1343.34
1019.185	1332.72
1019.476	1321.87
1019.767	1310.57
1020.058	1285.49
1020.35	1324.58
1020.641	1280.29
1020.932	1269.22
1021.223	1254.08
1021.514	1277.13
1021.804	1240.29
1022.095	1260.18
1022.386	1261.08
1022.677	1238.03
1022.967	1229.45
1023.258	1217.69
1023.548	1206.85
1023.839	1189.22
1024.129	1207.07
1024.419	1201.2
1024.709	1189.9
1025	1170.01
1025.29	1161.88
1025.58	1143.35
1025.87	1134.76
1026.16	1127.07
1026.449	1141.09
1026.739	1116.91
1027.029	1137.7
1027.319	1098.83
1027.608	1108.77
1027.898	1077.13
1028.187	1100.63
1028.477	1104.93
1028.766	1064.25
1029.055	1066.29
1029.344	1072.16
1029.634	1065.38
1029.923	1076.68
1030.212	1048.21
1030.501	1035.33
1030.79	1026.74
1031.078	1029
1031.367	1016.57
1031.656	989.45
1031.945	1021.09
1032.233	1031.48
1032.522	1011.15
1032.81	976.8
1033.099	988.32
1033.387	995.1
1033.675	971.6
1033.963	993.07
1034.251	981.77
1034.54	954.65
1034.828	928.21
1035.116	956.68
1035.403	920.3
1035.691	930.02
1035.979	926.4
1036.267	937.48
1036.554	908.55
1036.842	903.8
1037.129	893.41
1037.417	913.3
1037.704	906.06
1037.992	879.85
1038.279	888.89
1038.566	858.38
1038.853	858.38
1039.14	858.38
