Data from hue_240_FLMS001491_00043.txt Node
Date: Tue Feb 07 16:35:31 GMT 2017
User: dcchb
Spectrometer: FLMS00149
Trigger mode: 0
Integration Time (sec): 2.000000E-2
Scans to average: 10
Electric dark correction enabled: true
Nonlinearity correction enabled: false
Boxcar width: 0
XAxis mode: Wavelengths
Number of Pixels in Spectrum: 2048
>>>>>Begin Spectral Data<<<<<
341.393	-10.27
341.776	-10.27
342.16	-10.27
342.543	-61.11
342.927	-75.35
343.31	-54.11
343.693	-81.23
344.077	-55.46
344.46	-45.52
344.843	-48.01
345.226	-27.44
345.61	-50.04
345.993	-12.75
346.376	-14.34
346.759	4.19
347.142	24.31
347.525	43.74
347.908	64.53
348.291	77.19
348.674	69.5
349.057	105.44
349.44	133.68
349.823	150.18
350.206	140.69
350.588	190.18
350.971	226.34
351.354	234.92
351.737	235.15
352.119	244.41
352.502	269.95
352.884	264.07
353.267	284.64
353.65	279.44
354.032	289.39
354.414	302.94
354.797	302.04
355.179	308.37
355.562	284.41
355.944	321.7
356.326	325.77
356.709	318.31
357.091	325.99
357.473	337.52
357.855	326.9
358.238	332.1
358.62	331.87
359.002	338.2
359.384	318.99
359.766	319.44
360.148	319.89
360.53	327.35
360.912	319.44
361.294	316.05
361.676	325.09
362.057	349.5
362.439	324.19
362.821	323.06
363.203	311.53
363.584	308.37
363.966	331.87
364.348	319.44
364.729	321.7
365.111	320.57
365.493	303.62
365.874	334.58
366.256	310.18
366.637	305.88
367.019	303.62
367.4	310.63
367.781	309.27
368.163	307.69
368.544	300.46
368.925	302.27
369.306	314.24
369.688	301.81
370.069	291.64
370.45	302.27
370.831	294.36
371.212	331.64
371.593	295.26
371.974	330.97
372.355	307.24
372.736	295.49
373.117	320.8
373.498	308.82
373.879	308.37
374.26	307.24
374.641	301.14
375.021	311.53
375.402	314.92
375.783	330.06
376.163	308.59
376.544	308.37
376.925	309.05
377.305	320.8
377.686	323.06
378.066	322.38
378.447	336.62
378.827	343.39
379.208	348.37
379.588	326.22
379.968	326.22
380.349	317.41
380.729	337.75
381.109	350.17
381.489	307.69
381.87	325.77
382.25	329.84
382.63	331.87
383.01	311.08
383.39	340.46
383.77	339.1
384.15	339.55
384.53	339.78
384.91	319.89
385.29	331.19
385.67	331.42
386.049	340.68
386.429	345.65
386.809	347.69
387.189	331.87
387.568	342.49
387.948	325.99
388.328	372.09
388.707	351.08
389.087	345.65
389.466	358.54
389.846	360.57
390.225	337.07
390.605	371.19
390.984	343.85
391.363	356.05
391.743	386.33
392.122	345.88
392.501	375.71
392.881	373.68
393.26	365.54
393.639	375.94
394.018	366.45
394.397	373
394.776	348.59
395.155	397.86
395.534	366.45
395.913	380.23
396.292	391.08
396.671	382.49
397.05	368.03
397.429	403.96
397.808	378.42
398.186	388.37
398.565	391.08
398.944	399.21
399.323	383.85
399.701	387.01
400.08	374.58
400.458	419.78
400.837	409.83
401.215	383.39
401.594	398.53
401.972	380.46
402.351	407.35
402.729	406.67
403.107	430.62
403.486	403.51
403.864	429.27
404.242	420.91
404.62	441.25
404.999	406.67
405.377	431.75
405.755	429.72
406.133	420
406.511	436.73
406.889	451.41
407.267	425.88
407.645	441.25
408.023	437.63
408.401	455.93
408.779	468.14
409.156	465.43
409.534	483.5
409.912	473.79
410.29	500.9
410.667	532.99
411.045	511.3
411.422	523.96
411.8	502.03
412.178	495.48
412.555	524.63
412.933	531.86
413.31	556.04
413.687	528.47
414.065	546.33
414.442	540.45
414.819	553.33
415.197	549.27
415.574	544.29
415.951	564.63
416.328	575.25
416.705	587.91
417.082	582.48
417.46	584.74
417.837	597.63
418.214	606.44
418.591	622.71
418.967	609.15
419.344	635.14
419.721	625.65
420.098	636.72
420.475	653.22
420.852	647.12
421.228	656.83
421.605	688.02
421.982	692.31
422.358	667.68
422.735	690.96
423.111	695.25
423.488	700
423.864	718.07
424.241	723.72
424.617	728.02
424.994	754.23
425.37	759.2
425.746	764.85
426.123	771.41
426.499	776.15
426.875	772.54
427.251	802.14
427.627	808.02
428.003	807.56
428.379	826.77
428.756	853.44
429.132	864.06
429.507	857.28
429.883	847.11
430.259	876.94
430.635	863.38
431.011	875.81
431.387	901.57
431.763	902.93
432.138	906.32
432.514	920.78
432.89	937.96
433.265	963.27
433.641	949.03
434.016	1000.1
434.392	986.77
434.767	1015.92
435.143	1026.54
435.518	1057.27
435.894	1038.97
436.269	1048.46
436.644	1080.55
437.02	1102.25
437.395	1107.44
437.77	1108.57
438.145	1158.97
438.52	1171.4
438.895	1151.06
439.271	1171.85
439.646	1220.66
440.021	1213.43
440.395	1236.03
440.77	1218.4
441.145	1216.14
441.52	1246.2
441.895	1250.04
442.27	1280.77
442.645	1297.27
443.019	1306.31
443.394	1302.01
443.769	1310.83
444.143	1279.19
444.518	1351.73
444.892	1331.39
445.267	1357.38
445.641	1377.04
446.016	1361.45
446.39	1386.53
446.764	1372.97
447.139	1397.15
447.513	1410.94
447.887	1409.36
448.262	1440.09
448.636	1422.46
449.01	1415.23
449.384	1445.51
449.758	1471.95
450.132	1486.64
450.506	1501.1
450.88	1503.36
451.254	1488.68
451.628	1560.76
452.002	1565.74
452.376	1533.65
452.75	1563.02
453.123	1598.96
453.497	1605.06
453.871	1644.38
454.244	1673.98
454.618	1653.19
454.992	1682.79
455.365	1679.18
455.739	1706.3
456.112	1707.43
456.486	1732.51
456.859	1731.83
457.232	1784.94
457.606	1773.19
457.979	1775.67
458.352	1808.89
458.725	1854.54
459.099	1873.75
459.472	1862.9
459.845	1885.28
460.218	1895.67
460.591	1914.88
460.964	1918.72
461.337	1966.86
461.71	2030.81
462.083	2045.72
462.456	2079.17
462.829	2023.8
463.201	2058.38
463.574	2071.71
463.947	2089.79
464.32	2163.91
464.692	2141.99
465.065	2168.88
465.438	2198.26
465.81	2213.4
466.183	2254.08
466.555	2296.56
466.928	2323.23
467.3	2294.3
467.672	2357.81
468.045	2355.77
468.417	2411.59
468.789	2395.54
469.161	2418.59
469.534	2480.29
469.906	2517.35
470.278	2508.08
470.65	2562.55
471.022	2600.06
471.394	2627.4
471.766	2643
472.138	2679.83
472.51	2751.02
472.882	2760.05
473.253	2797.79
473.625	2805.93
473.997	2881.86
474.369	2874.85
474.74	2930.9
475.112	2969.09
475.484	3001.18
475.855	3073.27
476.227	3040.95
476.598	3113.04
476.97	3173.15
477.341	3219.48
477.713	3230.78
478.084	3280.27
478.455	3333.37
478.827	3415.18
479.198	3490.66
479.569	3477.1
479.94	3543.54
480.311	3582.63
480.682	3630.09
481.053	3713.02
481.424	3727.03
481.795	3803.64
482.166	3806.81
482.537	3896.3
482.908	3953.24
483.279	3963.41
483.65	4040.92
484.021	4150.98
484.391	4146.01
484.762	4166.57
485.133	4254.93
485.503	4267.59
485.874	4347.81
486.244	4398.66
486.615	4434.81
486.985	4475.49
487.356	4584.19
487.726	4593.9
488.097	4727.69
488.467	4663.28
488.837	4776.27
489.207	4756.16
489.578	4919.09
489.948	4881.35
490.318	4985.98
490.688	4989.6
491.058	5022.82
491.428	5097.62
491.798	5119.99
492.168	5222.36
492.538	5210.39
492.908	5298.97
493.278	5384.84
493.648	5339.65
494.017	5406.54
494.387	5455.8
494.757	5537.61
495.126	5558.17
495.496	5522.02
495.866	5578.74
496.235	5655.12
496.605	5668.23
496.974	5690.15
497.344	5731.95
497.713	5750.48
498.082	5778.73
498.452	5835.23
498.821	5796.13
499.19	5843.14
499.559	5900.54
499.928	5918.39
500.298	5974.89
500.667	6015.56
501.036	5990.03
501.405	6061.66
501.774	5995
502.143	6074.09
502.512	6122.45
502.88	6179.4
503.249	6183.24
503.618	6190.92
503.987	6208.78
504.356	6231.15
504.724	6283.58
505.093	6302.11
505.462	6292.39
505.83	6361.54
506.199	6366.06
506.567	6408.32
506.936	6390.92
507.304	6463.46
507.672	6517.7
508.041	6514.53
508.409	6572.84
508.777	6538.49
509.145	6595.89
509.514	6569.9
509.882	6628.43
510.25	6598.82
510.618	6642.44
510.986	6639.5
511.354	6680.86
511.722	6692.61
512.09	6736.67
512.458	6766.95
512.826	6773.73
513.193	6783.9
513.561	6848.08
513.929	6784.36
514.297	6895.09
514.664	6913.17
515.032	6968.98
515.4	6986.38
515.767	6945.48
516.135	6916.33
516.502	6903.9
516.869	7024.12
517.237	7044.01
517.604	6963.79
517.972	7025.48
518.339	7019.38
518.706	7085.36
519.073	7037.46
519.44	7123.33
519.808	7081.52
520.175	7152.48
520.542	7210.56
520.909	7192.03
521.276	7172.59
521.643	7215.53
522.009	7243.55
522.376	7263.21
522.743	7252.82
523.11	7314.96
523.477	7348.18
523.843	7397.67
524.21	7404.45
524.577	7460.95
524.943	7503.66
525.31	7479.48
525.676	7505.24
526.043	7472.47
526.409	7545.47
526.776	7638.8
527.142	7590.21
527.508	7563.77
527.874	7620.49
528.241	7623.2
528.607	7566.03
528.973	7664.33
529.339	7627.72
529.705	7636.08
530.071	7700.26
530.437	7665.69
530.803	7677.44
531.169	7717.44
531.535	7677.67
531.901	7733.03
532.267	7720.15
532.632	7706.82
532.998	7756.53
533.364	7752.69
533.73	7798.79
534.095	7841.73
534.461	7781.62
534.826	7820.26
535.192	7752.47
535.557	7790.43
535.923	7748.4
536.288	7726.03
536.653	7773.48
537.019	7759.02
537.384	7678.12
537.749	7727.38
538.114	7743.88
538.479	7740.04
538.845	7742.07
539.21	7743.2
539.575	7713.6
539.94	7762.18
540.305	7767.61
540.67	7714.5
541.034	7694.39
541.399	7714.73
541.764	7744.33
542.129	7755.18
542.494	7683.54
542.858	7755.18
543.223	7673.82
543.587	7645.35
543.952	7701.17
544.316	7695.07
544.681	7602.87
545.045	7661.17
545.41	7684.9
545.774	7660.94
546.138	7656.65
546.503	7640.15
546.867	7571.23
547.231	7652.58
547.595	7604.67
547.959	7623.2
548.324	7678.12
548.688	7613.03
549.052	7631.56
549.416	7633.82
549.779	7621.62
550.143	7611.45
550.507	7627.5
550.871	7646.03
551.235	7594.5
551.599	7589.31
551.962	7596.54
552.326	7571.45
552.689	7636.54
553.053	7625.01
553.417	7562.19
553.78	7642.19
554.143	7563.77
554.507	7585.01
554.87	7627.27
555.234	7674.5
555.597	7595.63
555.96	7590.89
556.323	7582.07
556.686	7569.42
557.05	7605.58
557.413	7618.91
557.776	7623.88
558.139	7634.05
558.502	7626.14
558.865	7650.55
559.228	7648.06
559.59	7704.11
559.953	7700.04
560.316	7646.03
560.679	7659.36
561.041	7721.96
561.404	7723.54
561.767	7744.33
562.129	7737.55
562.492	7856.87
562.854	7715.18
563.217	7796.53
563.579	7796.31
563.941	7833.82
564.304	7793.14
564.666	7814.16
565.028	7867.26
565.39	7866.81
565.753	7902.07
566.115	7945.68
566.477	7893.25
566.839	7934.38
567.201	7986.81
567.563	8001.95
567.925	7986.58
568.287	8046.7
568.648	7994.95
569.01	8087.37
569.372	8075.17
569.734	8079.91
570.095	8119.46
570.457	8116.98
570.819	8093.25
571.18	8085.11
571.542	8123.3
571.903	8121.27
572.265	8255.05
572.626	8205.34
572.987	8241.72
573.349	8271.55
573.71	8274.49
574.071	8320.59
574.432	8325.11
574.794	8373.47
575.155	8323.52
575.516	8277.65
575.877	8344.54
576.238	8399.23
576.599	8429.51
576.96	8443.75
577.32	8379.57
577.681	8424.31
578.042	8521.94
578.403	8507.25
578.763	8498.66
579.124	8428.83
579.485	8577.08
579.845	8548.15
580.206	8564.42
580.566	8524.87
580.927	8572.33
581.287	8557.87
581.648	8496.17
582.008	8637.41
582.368	8638.77
582.728	8580.69
583.089	8684.42
583.449	8728.03
583.809	8687.36
584.169	8669.96
584.529	8698.66
584.889	8782.5
585.249	8716.96
585.609	8702.5
585.969	8762.38
586.329	8727.81
586.688	8816.39
587.048	8732.55
587.408	8739.56
587.768	8791.53
588.127	8775.49
588.487	8757.64
588.846	8867.92
589.206	8753.57
589.565	8820.46
589.925	8766
590.284	8791.31
590.643	8863.62
591.003	8855.94
591.362	8906.79
591.721	8920.12
592.08	8842.83
592.44	8917.86
592.799	8942.04
593.158	8924.19
593.517	8927.58
593.876	8958.76
594.235	8930.06
594.593	8941.36
594.952	8943.17
595.311	8909.27
595.67	8957.63
596.029	8980.68
596.387	8942.72
596.746	8969.38
597.104	8949.27
597.463	8958.54
597.822	8984.98
598.18	8977.74
598.538	8952.89
598.897	9009.16
599.255	8981.81
599.613	9063.84
599.972	9123.96
600.33	9018.87
600.688	9044.18
601.046	9050.28
601.404	9088.48
601.762	9107.68
602.12	9108.59
602.478	9139.1
602.836	9089.38
603.194	9079.66
603.552	9092.77
603.91	9041.25
604.268	9136.16
604.625	9114.46
604.983	9144.52
605.341	9005.09
605.698	9158.08
606.056	9120.79
606.413	9183.39
606.771	9172.09
607.128	9182.71
607.485	9107.01
607.843	9110.85
608.2	9175.93
608.557	9137.74
608.914	9215.7
609.272	9204.4
609.629	9220
609.986	9237.4
610.343	9150.17
610.7	9159.89
611.057	9257.74
611.414	9216.83
611.771	9246.21
612.127	9189.04
612.484	9267.23
612.841	9348.36
613.198	9260
613.554	9310.84
613.911	9286.89
614.267	9339.32
614.624	9306.55
614.98	9344.51
615.337	9363.04
615.693	9300.9
616.05	9352.65
616.406	9391.97
616.762	9327.79
617.118	9307
617.475	9334.12
617.831	9371.63
618.187	9381.58
618.543	9400.56
618.899	9432.65
619.255	9427.9
619.611	9419.99
619.967	9440.78
620.323	9521.91
620.678	9479.2
621.034	9435.81
621.39	9431.07
621.746	9405.98
622.101	9477.17
622.457	9385.42
622.812	9451.4
623.168	9441.46
623.523	9441.91
623.879	9490.05
624.234	9443.04
624.589	9504.74
624.945	9476.04
625.3	9439.43
625.655	9488.69
626.01	9435.36
626.365	9480.1
626.72	9371.63
627.075	9419.31
627.43	9402.82
627.785	9434.46
628.14	9381.58
628.495	9443.49
628.85	9473.78
629.205	9410.95
629.559	9451.63
629.914	9352.42
630.269	9367.11
630.623	9394.46
630.978	9354.91
631.332	9372.08
631.687	9360.11
632.041	9289.15
632.396	9364.85
632.75	9310.62
633.104	9275.82
633.459	9309.03
633.813	9344.51
634.167	9250.05
634.521	9290.73
634.875	9291.41
635.229	9247.34
635.583	9217.06
635.937	9183.84
636.291	9245.99
636.645	9172.32
636.999	9153.33
637.352	9224.74
637.706	9128.25
638.06	9143.84
638.413	9149.49
638.767	9111.53
639.121	9103.62
639.474	9029.04
639.828	9108.81
640.181	9089.15
640.534	9137.29
640.888	9020.68
641.241	9019.78
641.594	9028.14
641.947	9071.98
642.301	9060.45
642.654	9050.06
643.007	9077.85
643.36	9056.61
643.713	9024.07
644.066	9092.32
644.419	9031.75
644.771	9012.55
645.124	8889.84
645.477	8847.13
645.83	8846.9
646.182	8831.31
646.535	8721.25
646.888	8767.35
647.24	8675.83
647.593	8685.1
647.945	8681.03
648.298	8618.43
648.65	8631.31
649.002	8587.7
649.355	8703.85
649.707	8686.68
650.059	8763.74
650.411	8793.34
650.763	8809.84
651.115	8902.27
651.467	8916.28
651.819	8816.17
652.171	8916.95
652.523	8879.22
652.875	8855.49
653.227	8868.37
653.578	8864.3
653.93	8873.79
654.282	8780.69
654.633	8778.2
654.985	8800.35
655.337	8834.25
655.688	8863.62
656.039	8928.71
656.391	8822.04
656.742	8795.6
657.094	8879.89
657.445	8881.48
657.796	8777.52
658.147	8870.85
658.498	8832.66
658.849	8810.52
659.2	8816.62
659.551	8848.26
659.902	8848.93
660.253	8781.82
660.604	8789.05
660.955	8789.27
661.306	8860.91
661.656	8871.53
662.007	8839.67
662.358	8820.46
662.708	8858.43
663.059	8852.1
663.409	8762.38
663.76	8869.05
664.11	8885.77
664.461	8874.24
664.811	8856.84
665.161	8826.34
665.511	8839.22
665.862	8831.53
666.212	8862.72
666.562	8863.62
666.912	8859.56
667.262	8871.53
667.612	8815.71
667.962	8813.45
668.312	8829.73
668.662	8847.8
669.011	8800.8
669.361	8844.41
669.711	8819.56
670.06	8751.31
670.41	8793.57
670.76	8829.05
671.109	8833.57
671.459	8858.88
671.808	8815.04
672.157	8790.63
672.507	8777.3
672.856	8729.62
673.205	8765.32
673.554	8778.2
673.904	8662.72
674.253	8782.72
674.602	8749.28
674.951	8696.62
675.3	8603.74
675.649	8732.55
675.998	8630.18
676.346	8635.38
676.695	8708.6
677.044	8625.21
677.393	8648.71
677.741	8596.29
678.09	8706.56
678.438	8666.11
678.787	8643.52
679.135	8645.1
679.484	8608.26
679.832	8534.14
680.181	8580.47
680.529	8546.34
680.877	8584.76
681.225	8527.81
681.573	8648.49
681.922	8576.85
682.27	8477.64
682.618	8481.26
682.966	8448.72
683.314	8480.36
683.661	8453.24
684.009	8385.44
684.357	8371.88
684.705	8323.98
685.053	8389.29
685.4	8392.9
685.748	8313.58
686.095	8286.24
686.443	8286.69
686.79	8296.86
687.138	8328.95
687.485	8340.7
687.832	8309.06
688.18	8263.86
688.527	8232.68
688.874	8240.59
689.221	8188.84
689.568	8117.65
689.915	8149.52
690.262	8107.94
690.609	8094.6
690.956	8093.93
691.303	8043.76
691.65	8058.67
691.997	8030.65
692.344	7978.67
692.69	7981.16
693.037	7889.41
693.383	7924.44
693.73	7895.06
694.077	7845.34
694.423	7900.94
694.769	7766.48
695.116	7800.37
695.462	7713.82
695.808	7732.81
696.155	7709.75
696.501	7670.66
696.847	7651.45
697.193	7559.48
697.539	7674.28
697.885	7596.76
698.231	7514.05
698.577	7522.64
698.923	7527.61
699.269	7470.44
699.614	7477.9
699.96	7408.29
700.306	7452.36
700.651	7365.13
700.997	7379.82
701.342	7349.31
701.688	7337.11
702.033	7255.98
702.379	7276.55
702.724	7220.95
703.069	7266.38
703.415	7210.11
703.76	7195.64
704.105	7141.41
704.45	7155.65
704.795	7048.76
705.14	7071.13
705.485	7091.47
705.83	7116.1
706.175	7030.22
706.52	7083.33
706.865	6965.14
707.209	6961.3
707.554	6944.58
707.899	6968.08
708.243	6934.41
708.588	6915.65
708.932	6877.69
709.277	6881.75
709.621	6858.25
709.966	6797.69
710.31	6834.75
710.654	6756.11
710.998	6767.86
711.342	6722.66
711.687	6747.29
712.031	6745.49
712.375	6641.31
712.719	6732.83
713.063	6645.38
713.407	6652.16
713.75	6676.79
714.094	6662.55
714.438	6644.02
714.782	6660.97
715.125	6584.81
715.469	6638.37
715.812	6586.39
716.156	6573.06
716.499	6576.68
716.843	6527.64
717.186	6548.66
717.53	6521.99
717.873	6558.6
718.216	6565.83
718.559	6488.09
718.902	6485.83
719.246	6476.57
719.589	6461.2
719.932	6465.95
720.275	6463.69
720.617	6448.09
720.96	6462.78
721.303	6459.62
721.646	6436.57
721.989	6418.94
722.331	6402.67
722.674	6439.28
723.016	6413.29
723.359	6396.34
723.701	6395.44
724.044	6340.53
724.386	6283.8
724.729	6332.16
725.071	6347.08
725.413	6349.11
725.755	6333.97
726.097	6278.83
726.439	6279.28
726.782	6300.75
727.124	6330.13
727.465	6290.13
727.807	6256.91
728.149	6344.82
728.491	6291.94
728.833	6283.8
729.175	6303.01
729.516	6248.55
729.858	6316.8
730.199	6265.27
730.541	6222.56
730.882	6229.57
731.224	6261.66
731.565	6202.45
731.906	6249.91
732.248	6196.12
732.589	6209
732.93	6215.33
733.271	6232.73
733.612	6193.41
733.953	6250.13
734.294	6209
734.635	6184.6
734.976	6214.65
735.317	6220.53
735.658	6210.36
735.999	6168.55
736.339	6187.76
736.68	6222.11
737.021	6174.43
737.361	6184.82
737.702	6249.68
738.042	6206.29
738.383	6216.01
738.723	6228.66
739.063	6179.63
739.404	6192.96
739.744	6252.62
740.084	6283.13
740.424	6316.12
740.764	6263.47
741.104	6238.83
741.444	6206.97
741.784	6281.32
742.124	6232.51
742.464	6285.84
742.804	6265.05
743.143	6305.05
743.483	6285.16
743.823	6372.61
744.162	6344.82
744.502	6409.45
744.841	6361.77
745.181	6427.53
745.52	6395.21
745.86	6430.69
746.199	6478.37
746.538	6504.81
746.877	6531.48
747.216	6524.25
747.556	6539.62
747.895	6599.5
748.234	6605.6
748.573	6616.9
748.911	6658.26
749.25	6679.05
749.589	6711.36
749.928	6771.25
750.267	6862.77
750.605	6874.3
750.944	6888.76
751.283	6944.13
751.621	6994.75
751.96	6973.05
752.298	7052.15
752.636	7134.85
752.975	7136.44
753.313	7206.94
753.651	7337.11
753.989	7291.46
754.327	7324.23
754.666	7441.06
755.004	7514.05
755.342	7616.88
755.679	7697.1
756.017	7702.98
756.355	7879.69
756.693	7923.31
757.031	8062.74
757.368	8038.79
757.706	8147.94
758.044	8221.61
758.381	8421.6
758.719	8431.54
759.056	8535.72
759.394	8586.34
759.731	8657.98
760.068	8749.28
760.405	8857.52
760.743	8954.24
761.08	9012.09
761.417	9132.54
761.754	9173.45
762.091	9334.12
762.428	9436.94
762.765	9474
763.102	9561.68
763.438	9625.18
763.775	9730.27
764.112	9753.77
764.449	9918.51
764.785	9995.34
765.122	10021.56
765.458	10074.66
765.795	10232.63
766.131	10235.11
766.467	10372.28
766.804	10431.72
767.14	10553.07
767.476	10520.3
767.812	10626.29
768.148	10659.51
768.485	10768.43
768.821	10758.49
769.157	10863.57
769.492	10900.41
769.828	10949.67
770.164	10914.19
770.5	11109.21
770.836	11109.67
771.171	11154.18
771.507	11203
771.842	11121.19
772.178	11270.11
772.513	11250.23
772.849	11308.98
773.184	11382.43
773.519	11374.52
773.855	11312.6
774.19	11439.15
774.525	11443.22
774.86	11482.99
775.195	11521.41
775.53	11501.52
775.865	11553.72
776.2	11510.11
776.535	11490.22
776.87	11565.92
777.205	11565.92
777.539	11548.75
777.874	11653.15
778.209	11510.33
778.543	11579.94
778.878	11502.42
779.212	11568.86
779.547	11587.39
779.881	11670.1
780.215	11576.55
780.55	11622.19
780.884	11577.22
781.218	11624.68
781.552	11641.63
781.886	11630.56
782.22	11565.47
782.554	11525.7
782.888	11460.16
783.222	11492.03
783.556	11505.36
783.889	11443.89
784.223	11442.99
784.557	11423.78
784.89	11497
785.224	11429.43
785.557	11327.74
785.891	11414.52
786.224	11305.37
786.558	11319.38
786.891	11275.99
787.224	11299.72
787.557	11217.01
787.891	11258.14
788.224	11323.9
788.557	11293.16
788.89	11265.37
789.223	11239.15
789.556	11182.66
789.888	11130.91
790.221	11132.04
790.554	11003.91
790.887	11015.43
791.219	11019.05
791.552	11024.7
791.884	11004.36
792.217	11051.36
792.549	10930.46
792.882	10904.47
793.214	10927.07
793.546	10902.67
793.879	10833.97
794.211	10823.12
794.543	10856.11
794.875	10826.28
795.207	10787.41
795.539	10763.46
795.871	10726.4
796.203	10707.19
796.535	10648.66
796.867	10578.15
797.198	10615.22
797.53	10676.46
797.862	10573.63
798.193	10591.71
798.525	10472.17
798.856	10525.95
799.188	10399.18
799.519	10447.99
799.85	10386.97
800.182	10419.74
800.513	10373.19
800.844	10271.27
801.175	10322.57
801.506	10333.41
801.837	10301.33
802.168	10232.17
802.499	10206.86
802.83	10219.97
803.161	10120.54
803.491	10093.65
803.822	10208.67
804.153	10132.74
804.483	10042.12
804.814	10053.87
805.145	9992.63
805.475	9994.44
805.805	10011.62
806.136	9972.07
806.466	9931.62
806.796	9937.27
807.126	9792.19
807.457	9877.61
807.787	9900.21
808.117	9856.59
808.447	9862.92
808.777	9803.71
809.107	9790.83
809.436	9803.71
809.766	9772.53
810.096	9769.81
810.426	9659.53
810.755	9668.8
811.085	9698.4
811.414	9614.34
811.744	9587.67
812.073	9572.53
812.403	9537.5
812.732	9504.74
813.061	9497.05
813.39	9464.51
813.719	9450.27
814.049	9507
814.378	9456.15
814.707	9415.7
815.036	9436.72
815.365	9369.15
815.693	9355.14
816.022	9288.24
816.351	9301.35
816.68	9253.22
817.008	9262.26
817.337	9187.46
817.665	9164.63
817.994	9142.71
818.322	9163.28
818.651	9179.55
818.979	9137.29
819.307	9157.63
819.636	9095.03
819.964	9052.32
820.292	9081.02
820.62	9100.23
820.948	9034.24
821.276	9095.48
821.604	9070.4
821.932	9101.58
822.259	9096.61
822.587	9084.86
822.915	9016.84
823.243	9074.92
823.57	9020
823.898	9060.45
824.225	8995.82
824.553	9054.35
824.88	8998.31
825.207	9107.91
825.535	9033.79
825.862	9056.16
826.189	9010.51
826.516	9092.54
826.843	9115.37
827.17	9049.38
827.497	9063.62
827.824	9038.31
828.151	9102.71
828.478	9087.8
828.805	9081.02
829.131	9092.77
829.458	9063.17
829.785	9039.44
830.111	9021.58
830.438	9039.89
830.764	9085.31
831.09	9062.26
831.417	9051.19
831.743	9091.87
832.069	9053.22
832.395	8991.98
832.722	9023.39
833.048	8976.16
833.374	9057.74
833.7	9043.05
834.026	8996.5
834.351	9061.58
834.677	8986.11
835.003	9059.1
835.329	9013.22
835.654	9017.07
835.98	8942.49
836.306	8958.08
836.631	8914.02
836.956	8924.19
837.282	8950.17
837.607	8947.91
837.932	8893.23
838.258	8916.95
838.583	8860.91
838.908	8844.87
839.233	8835.6
839.558	8875.83
839.883	8840.35
840.208	8747.69
840.533	8770.29
840.858	8777.07
841.182	8751.99
841.507	8702.5
841.832	8757.86
842.156	8721.93
842.481	8719.45
842.805	8695.72
843.13	8688.26
843.454	8603.29
843.778	8628.6
844.103	8573.69
844.427	8570.52
844.751	8537.76
845.075	8494.59
845.399	8529.85
845.723	8518.1
846.047	8509.73
846.371	8440.58
846.695	8412.56
847.019	8409.85
847.343	8321.04
847.666	8261.38
847.99	8275.62
848.313	8266.8
848.637	8204.66
848.96	8167.37
849.284	8176.86
849.607	8053.47
849.931	8058.45
850.254	8048.5
850.577	7926.7
850.9	7918.79
851.223	7959.92
851.546	7949.52
851.869	7859.36
852.192	7886.02
852.515	7826.36
852.838	7746.14
853.161	7818
853.483	7780.04
853.806	7741.62
854.129	7723.31
854.451	7676.54
854.774	7627.72
855.096	7655.07
855.419	7559.25
855.741	7608.29
856.063	7526.48
856.385	7475.64
856.708	7497.56
857.03	7446.71
857.352	7480.16
857.674	7484.9
857.996	7365.36
858.318	7358.58
858.64	7427.95
858.961	7345.24
859.283	7331.23
859.605	7300.95
859.926	7338.01
860.248	7285.13
860.57	7265.25
860.891	7273.61
861.212	7201.52
861.534	7212.14
861.855	7190.45
862.176	7252.37
862.498	7218.69
862.819	7176.44
863.14	7106.61
863.461	7145.7
863.782	7151.13
864.103	7147.74
864.424	7138.02
864.745	7196.32
865.065	7053.5
865.386	7116.32
865.707	7049.89
866.027	7002.65
866.348	7014.86
866.668	7041.3
866.989	6982.54
867.309	6957.23
867.63	7006.5
867.95	6984.58
868.27	6947.74
868.59	6935.31
868.91	6895.31
869.23	6850.79
869.55	6900.51
869.87	6881.3
870.19	6858.48
870.51	6859.38
870.83	6913.84
871.15	6849.66
871.469	6827.97
871.789	6847.4
872.109	6831.36
872.428	6830.23
872.748	6859.61
873.067	6780.29
873.386	6801.98
873.706	6767.86
874.025	6723.34
874.344	6676.79
874.663	6770.57
874.982	6674.98
875.301	6662.55
875.62	6709.78
875.939	6702.1
876.258	6694.41
876.577	6653.96
876.896	6687.86
877.214	6629.56
877.533	6644.02
877.852	6581.65
878.17	6593.63
878.489	6612.61
878.807	6608.31
879.125	6567.86
879.444	6584.36
879.762	6519.73
880.08	6512.95
880.398	6550.69
880.716	6570.8
881.034	6550.01
881.352	6556.34
881.67	6493.97
881.988	6509.33
882.306	6496.91
882.624	6434.53
882.941	6472.27
883.259	6424.59
883.577	6461.2
883.894	6401.99
884.212	6380.75
884.529	6384.59
884.846	6348.89
885.164	6318.83
885.481	6327.42
885.798	6347.98
886.115	6288.78
886.432	6314.76
886.75	6277.93
887.067	6310.7
887.383	6248.78
887.7	6250.36
888.017	6257.14
888.334	6246.52
888.651	6177.59
888.967	6211.49
889.284	6176.91
889.6	6136.24
889.917	6118.84
890.233	6152.73
890.55	6056.92
890.866	6083.81
891.182	6084.49
891.498	6061.66
891.815	6042.23
892.131	6004.04
892.447	5971.27
892.763	5990.03
893.079	6011.49
893.395	5999.97
893.71	5936.69
894.026	5925.17
894.342	5899.18
894.657	5890.14
894.973	5844.72
895.289	5881.1
895.604	5797.49
895.92	5795.23
896.235	5814.21
896.55	5763.82
896.865	5751.84
897.181	5682.92
897.496	5755.68
897.811	5726.3
898.126	5706.64
898.441	5628.68
898.756	5665.51
899.071	5599.53
899.386	5598.17
899.7	5544.61
900.015	5545.52
900.33	5508
900.644	5490.15
900.959	5519.53
901.273	5463.49
901.588	5439.53
901.902	5416.03
902.216	5385.3
902.531	5440.44
902.845	5406.31
903.159	5383.04
903.473	5348.91
903.787	5313.89
904.101	5285.64
904.415	5250.16
904.729	5274.34
905.042	5206.09
905.356	5246.09
905.67	5233.66
905.984	5248.35
906.297	5202.48
906.611	5176.26
906.924	5150.95
907.237	5151.86
907.551	5100.33
907.864	5084.51
908.177	5056.49
908.491	5070.28
908.804	5019.66
909.117	5025.08
909.43	4964.06
909.743	4970.62
910.056	4967.23
910.368	4916.83
910.681	4942.6
910.994	4865.31
911.307	4868.93
911.619	4848.59
911.932	4835.25
912.244	4814.46
912.557	4799.55
912.869	4809.27
913.181	4757.74
913.494	4753.9
913.806	4664.64
914.118	4740.79
914.43	4653.56
914.742	4703.28
915.054	4638.65
915.366	4635.26
915.678	4651.08
915.99	4604.07
916.302	4575.83
916.613	4538.09
916.925	4586.22
917.236	4555.71
917.548	4497.64
917.859	4506
918.171	4437.52
918.482	4449.73
918.794	4430.52
919.105	4411.08
919.416	4395.27
919.727	4407.02
920.038	4365.44
920.349	4338.09
920.66	4358.88
920.971	4320.24
921.282	4288.83
921.593	4312.56
921.903	4257.19
922.214	4265.1
922.525	4263.29
922.835	4214.03
923.146	4196.4
923.456	4151.43
923.767	4170.19
924.077	4163.41
924.387	4114.14
924.697	4086.12
925.008	4165.67
925.318	4125.67
925.628	4084.99
925.938	4040.02
926.248	4042.28
926.558	4024.43
926.867	4027.59
927.177	4005.22
927.487	3969.06
927.796	3918.67
928.106	3957.54
928.416	3911.21
928.725	3888.61
929.034	3907.14
929.344	3876.64
929.653	3877.77
929.962	3845.45
930.271	3841.16
930.581	3790.76
930.89	3849.52
931.199	3789.63
931.508	3788.95
931.817	3796.19
932.125	3770.65
932.434	3721.39
932.743	3734.72
933.051	3670.77
933.36	3709.86
933.669	3676.64
933.977	3680.93
934.286	3702.4
934.594	3631.67
934.902	3616.53
935.21	3624.44
935.519	3562.75
935.827	3558.68
936.135	3567.26
936.443	3547.6
936.751	3514.38
937.059	3529.75
937.367	3482.75
937.674	3498.79
937.982	3496.53
938.29	3484.33
938.597	3472.13
938.905	3424.22
939.213	3369.76
939.52	3418.79
939.827	3427.83
940.135	3345.35
940.442	3375.18
940.749	3380.6
941.056	3341.28
941.363	3276.65
941.67	3326.82
941.977	3287.5
942.284	3265.8
942.591	3272.81
942.898	3241.85
943.205	3269.87
943.511	3218.57
943.818	3255.63
944.125	3194.85
944.431	3208.86
944.738	3191.68
945.044	3177.22
945.35	3108.75
945.657	3111.46
945.963	3150.1
946.269	3165.69
946.575	3113.27
946.881	3099.25
947.187	3077.33
947.493	3075.53
947.799	3086.15
948.105	3081.63
948.41	3012.48
948.716	3036.88
949.022	3009.77
949.327	2956.21
949.633	2963.67
949.938	2987.17
950.244	2970.44
950.549	2963.44
950.854	2936.55
951.16	2945.36
951.465	2927.28
951.77	2920.28
952.075	2881.63
952.38	2852.71
952.685	2892.25
952.99	2841.18
953.294	2822.65
953.599	2845.48
953.904	2823.78
954.209	2809.32
954.513	2816.32
954.818	2792.6
955.122	2768.64
955.426	2744.46
955.731	2761.64
956.035	2751.47
956.339	2742.2
956.643	2689.32
956.948	2676.89
957.252	2666.5
957.556	2651.81
957.86	2655.2
958.163	2654.07
958.467	2638.7
958.771	2671.7
959.075	2634.63
959.378	2618.36
959.682	2615.43
959.985	2600.06
960.289	2572.49
960.592	2575.65
960.896	2528.65
961.199	2564.81
961.502	2509.89
961.805	2541.98
962.108	2494.52
962.411	2487.07
962.714	2502.66
963.017	2470.57
963.32	2485.49
963.623	2461.08
963.926	2461.76
964.228	2440.29
964.531	2420.85
964.833	2440.51
965.136	2402.78
965.438	2401.65
965.741	2402.78
966.043	2396
966.345	2384.92
966.648	2396.22
966.95	2406.62
967.252	2351.7
967.554	2328.65
967.856	2341.31
968.158	2323.46
968.46	2337.01
968.761	2341.08
969.063	2316.22
969.365	2281.65
969.666	2281.2
969.968	2270.58
970.269	2257.69
970.571	2220.41
970.872	2252.72
971.174	2220.18
971.475	2183.57
971.776	2213.4
972.077	2196.45
972.378	2184.7
972.679	2186.74
972.98	2156.91
973.281	2155.32
973.582	2164.36
973.883	2158.04
974.183	2143.57
974.484	2149.45
974.785	2124.14
975.085	2126.4
975.386	2113.29
975.686	2099.96
975.986	2064.48
976.287	2067.64
976.587	2061.99
976.887	2054.76
977.187	2054.54
977.487	2059.96
977.787	2043.01
978.087	2020.64
978.387	2041.66
978.687	2042.79
978.987	1987.65
979.286	2021.77
979.586	2001.66
979.885	1978.83
980.185	1960.08
980.484	1978.61
980.784	1971.6
981.083	1954.88
981.382	1955.33
981.682	1936.35
981.981	1922.79
982.28	1900.42
982.579	1887.08
982.878	1887.99
983.177	1934.09
983.475	1925.73
983.774	1892.51
984.073	1862.45
984.372	1872.17
984.67	1901.55
984.969	1819.51
985.267	1841.66
985.566	1807.09
985.864	1825.62
986.162	1814.32
986.461	1821.32
986.759	1805.5
987.057	1808.89
987.355	1783.13
987.653	1770.25
987.951	1781.1
988.249	1770.02
988.547	1763.7
988.844	1752.17
989.142	1766.41
989.44	1738.39
989.737	1756.69
990.035	1718.73
990.332	1720.31
990.63	1708.78
990.927	1687.54
991.224	1686.86
991.521	1713.08
991.819	1658.16
992.116	1677.82
992.413	1688.44
992.71	1677.15
993.006	1660.42
993.303	1619.29
993.6	1617.71
993.897	1605.73
994.193	1631.72
994.49	1601.67
994.787	1612.74
995.083	1608.9
995.379	1603.25
995.676	1580.65
995.972	1599.18
996.268	1582.46
996.565	1559.63
996.861	1542.69
997.157	1561.22
997.453	1550.37
997.749	1535.91
998.044	1553.76
998.34	1539.52
998.636	1537.71
998.932	1527.09
999.227	1500.65
999.523	1470.6
999.818	1471.27
1000.114	1476.02
1000.409	1470.37
1000.704	1460.65
1001	1435.8
1001.295	1447.09
1001.59	1452.52
1001.885	1448.45
1002.18	1426.53
1002.475	1422.24
1002.77	1443.7
1003.065	1398.73
1003.359	1429.69
1003.654	1383.14
1003.949	1398.28
1004.243	1389.92
1004.538	1357.61
1004.832	1367.77
1005.127	1365.06
1005.421	1336.14
1005.715	1352.86
1006.009	1351.28
1006.304	1348.57
1006.598	1336.36
1006.892	1322.8
1007.186	1320.54
1007.48	1301.79
1007.773	1337.72
1008.067	1298.62
1008.361	1286.42
1008.655	1262.69
1008.948	1289.58
1009.242	1284.84
1009.535	1291.62
1009.829	1244.61
1010.122	1237.61
1010.415	1226.31
1010.708	1239.87
1011.001	1237.83
1011.295	1227.44
1011.588	1218.63
1011.881	1205.75
1012.173	1182.47
1012.466	1218.85
1012.759	1197.16
1013.052	1177.72
1013.344	1165.29
1013.637	1194.67
1013.93	1178.18
1014.222	1158.97
1014.514	1156.03
1014.807	1152.64
1015.099	1150.38
1015.391	1142.24
1015.683	1122.13
1015.976	1097.5
1016.268	1100.89
1016.56	1119.42
1016.851	1114.45
1017.143	1109.48
1017.435	1101.79
1017.727	1086.88
1018.018	1085.3
1018.31	1075.35
1018.602	1034.9
1018.893	1064.28
1019.185	1086.65
1019.476	1066.54
1019.767	1051.17
1020.058	1050.72
1020.35	1051.4
1020.641	1010.27
1020.932	1012.3
1021.223	1005.07
1021.514	1022.93
1021.804	997.39
1022.095	979.76
1022.386	984.96
1022.677	968.92
1022.967	965.07
1023.258	965.3
1023.548	962.81
1023.839	951.97
1024.129	978.18
1024.419	957.62
1024.709	923.27
1025	934.34
1025.29	951.74
1025.58	932.53
1025.87	918.07
1026.16	918.52
1026.449	939.54
1026.739	925.98
1027.029	902.93
1027.319	905.41
1027.608	899.76
1027.898	884.62
1028.187	875.13
1028.477	883.72
1028.766	871.06
1029.055	880.1
1029.344	874
1029.634	861.35
1029.923	884.85
1030.212	838.52
1030.501	841.46
1030.79	842.82
1031.078	825.64
1031.367	845.3
1031.656	845.3
1031.945	808.92
1032.233	837.17
1032.522	824.29
1032.81	840.56
1033.099	814.79
1033.387	790.39
1033.675	798.52
1033.963	795.13
1034.251	811.18
1034.54	790.61
1034.828	779.54
1035.116	788.35
1035.403	784.29
1035.691	767.34
1035.979	758.3
1036.267	773.21
1036.554	756.04
1036.842	737.73
1037.129	764.85
1037.417	729.83
1037.704	736.15
1037.992	759.2
1038.279	735.02
1038.566	732.31
1038.853	732.31
1039.14	732.31
