Data from hue_310_FLMS001491_94.txt Node
Date: Mon Feb 06 15:50:28 GMT 2017
User: dcchb
Spectrometer: FLMS00149
Trigger mode: 0
Integration Time (sec): 2.000000E-2
Scans to average: 10
Electric dark correction enabled: true
Nonlinearity correction enabled: false
Boxcar width: 0
XAxis mode: Wavelengths
Number of Pixels in Spectrum: 2048
>>>>>Begin Spectral Data<<<<<
341.393	-5.96
341.776	-5.96
342.16	-5.96
342.543	-75.34
342.927	-47.99
343.31	-76.92
343.693	-88.44
344.077	-72.4
344.46	-62.91
344.843	-57.48
345.226	-32.85
345.61	-30.59
345.993	-5.96
346.376	-21.78
346.759	26.81
347.142	33.59
347.525	55.28
347.908	55.28
348.291	82.4
348.674	89.4
349.057	106.58
349.44	126.01
349.823	147.71
350.206	169.85
350.588	214.15
350.971	185
351.354	231.1
351.737	233.58
352.119	262.96
352.502	257.08
352.884	273.35
353.267	289.85
353.65	287.14
354.032	296.63
354.414	295.5
354.797	317.87
355.179	328.04
355.562	320.13
355.944	315.61
356.326	314.94
356.709	319
357.091	331.43
357.473	325.1
357.855	330.08
358.238	332.11
358.62	333.92
359.002	337.08
359.384	337.76
359.766	350.87
360.148	343.86
360.53	339.57
360.912	329.17
361.294	323.97
361.676	317.87
362.057	347.7
362.439	317.87
362.821	309.29
363.203	327.59
363.584	322.39
363.966	310.64
364.348	329.4
364.729	319
365.111	287.14
365.493	315.84
365.874	296.63
366.256	326.46
366.637	293.01
367.019	323.75
367.4	302.05
367.781	315.61
368.163	314.26
368.544	324.88
368.925	321.71
369.306	325.78
369.688	296.4
370.069	306.35
370.45	306.8
370.831	316.52
371.212	286.91
371.593	316.07
371.974	315.39
372.355	320.36
372.736	309.96
373.117	315.61
373.498	307.7
373.879	306.8
374.26	309.74
374.641	303.64
375.021	300.7
375.402	307.25
375.783	324.88
376.163	304.54
376.544	305.9
376.925	295.27
377.305	313.81
377.686	335.05
378.066	323.97
378.447	327.14
378.827	346.12
379.208	331.88
379.588	330.75
379.968	325.56
380.349	321.94
380.729	338.89
381.109	329.62
381.489	316.97
381.87	336.63
382.25	346.57
382.63	343.86
383.01	335.73
383.39	326.01
383.77	320.58
384.15	340.25
384.53	346.8
384.91	354.71
385.29	359
385.67	348.15
386.049	334.14
386.429	337.76
386.809	349.06
387.189	359
387.568	354.48
387.948	350.19
388.328	347.7
388.707	356.97
389.087	370.98
389.466	355.61
389.846	340.7
390.225	378.21
390.605	370.3
390.984	372.11
391.363	374.59
391.743	362.17
392.122	387.93
392.501	379.11
392.881	376.85
393.26	366.23
393.639	388.38
394.018	363.75
394.397	388.83
394.776	389.06
395.155	376.4
395.534	361.04
395.913	381.37
396.292	387.48
396.671	394.93
397.05	402.84
397.429	397.19
397.808	389.28
398.186	389.51
398.565	380.92
398.944	393.8
399.323	388.38
399.701	390.41
400.08	409.85
400.458	425.21
400.837	413.46
401.215	403.29
401.594	422.05
401.972	404.65
402.351	424.76
402.729	416.63
403.107	420.47
403.486	414.37
403.864	415.95
404.242	422.05
404.62	437.19
404.999	445.55
405.377	437.64
405.755	451.2
406.133	456.17
406.511	441.26
406.889	442.39
407.267	476.74
407.645	474.25
408.023	484.42
408.401	462.5
408.779	476.96
409.156	472.22
409.534	473.8
409.912	479.45
410.29	486
410.667	506.34
411.045	511.99
411.422	515.61
411.8	503.86
412.178	543.4
412.555	557.87
412.933	546.57
413.31	566.45
413.687	549.73
414.065	558.09
414.442	568.71
414.819	594.25
415.197	587.7
415.574	577.75
415.951	596.06
416.328	616.4
416.705	599.45
417.082	625.89
417.46	646.68
417.837	651.2
418.214	640.12
418.591	636.96
418.967	657.98
419.344	662.95
419.721	683.97
420.098	662.27
420.475	681.71
420.852	686.68
421.228	693.91
421.605	712.66
421.982	725.32
422.358	749.95
422.735	755.6
423.111	763.06
423.488	756.73
423.864	749.73
424.241	776.39
424.617	771.65
424.994	787.69
425.37	772.78
425.746	805.32
426.123	811.42
426.499	810.52
426.875	806.45
427.251	841.02
427.627	843.06
428.003	850.06
428.379	864.75
428.756	870.17
429.132	864.98
429.507	896.16
429.883	893.68
430.259	904.07
430.635	913.79
431.011	929.16
431.387	935.71
431.763	940
432.138	978.87
432.514	984.97
432.89	979.78
433.265	1008.25
433.641	993.34
434.016	1005.76
434.392	1038.31
434.767	1064.52
435.143	1054.12
435.518	1077.18
435.894	1068.81
436.269	1074.01
436.644	1107.46
437.02	1104.07
437.395	1120.79
437.77	1139.55
438.145	1170.51
438.52	1143.61
438.895	1148.81
439.271	1163.05
439.646	1192.2
440.021	1175.48
440.395	1209.83
440.77	1222.93
441.145	1194.46
441.52	1206.21
441.895	1208.7
442.27	1235.81
442.645	1251.63
443.019	1239.88
443.394	1246.44
443.769	1242.82
444.143	1260.22
444.518	1281.69
444.892	1249.6
445.267	1290.73
445.641	1272.88
446.016	1287.57
446.39	1257.74
446.764	1287.79
447.139	1265.19
447.513	1292.76
447.887	1302.25
448.262	1291.63
448.636	1313.1
449.01	1316.94
449.384	1294.34
449.758	1311.52
450.132	1316.26
450.506	1344.29
450.88	1356.04
451.254	1329.6
451.628	1373.66
452.002	1386.77
452.376	1395.58
452.75	1373.89
453.123	1383.83
453.497	1397.62
453.871	1424.28
454.244	1427.22
454.618	1430.84
454.992	1456.15
455.365	1472.19
455.739	1454.57
456.112	1464.28
456.486	1476.26
456.859	1482.36
457.232	1511.06
457.606	1500.89
457.979	1541.34
458.352	1547.22
458.725	1564.85
459.099	1577.5
459.472	1595.58
459.845	1607.1
460.218	1583.15
460.591	1597.16
460.964	1612.3
461.337	1646.2
461.71	1679.19
462.083	1662.02
462.456	1659.53
462.829	1681.9
463.201	1678.74
463.574	1707.67
463.947	1723.49
464.32	1729.14
464.692	1723.26
465.065	1756.48
465.438	1765.07
465.81	1782.69
466.183	1823.82
466.555	1829.02
466.928	1855.01
467.3	1846.19
467.672	1835.35
468.045	1860.43
468.417	1885.29
468.789	1902.92
469.161	1904.27
469.534	1921.9
469.906	1968
470.278	1943.82
470.65	1955.34
471.022	1975.46
471.394	2004.38
471.766	2043.03
472.138	2069.01
472.51	2069.69
472.882	2115.34
473.253	2108.33
473.625	2136.58
473.997	2151.5
474.369	2188.33
474.74	2217.48
475.112	2208.22
475.484	2246.86
475.855	2309.91
476.227	2249.35
476.598	2321.44
476.97	2330.93
477.341	2333.41
477.713	2398.95
478.084	2409.34
478.455	2459.74
478.827	2431.49
479.198	2504.48
479.569	2481.21
479.94	2565.72
480.311	2549.9
480.682	2572.28
481.053	2607.76
481.424	2641.2
481.795	2657.47
482.166	2721.2
482.537	2740.63
482.908	2779.96
483.279	2805.94
483.65	2814.53
484.021	2877.35
484.391	2866.73
484.762	2889.33
485.133	2916.67
485.503	2941.31
485.874	2993.96
486.244	3007.07
486.615	3055.43
486.985	3075.99
487.356	3105.6
487.726	3121.87
488.097	3197.57
488.467	3175.65
488.837	3214.07
489.207	3240.51
489.578	3265.82
489.948	3355.53
490.318	3374.29
490.688	3339.04
491.058	3366.61
491.428	3431.92
491.798	3449.09
492.168	3494.29
492.538	3501.07
492.908	3500.61
493.278	3542.87
493.648	3592.59
494.017	3580.61
494.387	3579.93
494.757	3628.07
495.126	3672.36
495.496	3691.12
495.866	3680.72
496.235	3715.07
496.605	3725.02
496.974	3732.25
497.344	3799.59
497.713	3774.05
498.082	3837.1
498.452	3868.74
498.821	3844.79
499.19	3891.56
499.559	3868.51
499.928	3930.43
500.298	3948.06
500.667	3952.35
501.036	3918
501.405	3962.97
501.774	3995.52
502.143	3974.95
502.512	4004.78
502.88	4030.32
503.249	4026.48
503.618	4004.78
503.987	4035.29
504.356	4066.47
504.724	4140.82
505.093	4143.54
505.462	4096.08
505.83	4165.46
506.199	4131.78
506.567	4162.07
506.936	4192.57
507.304	4214.27
507.672	4239.13
508.041	4264.44
508.409	4243.42
508.777	4285.68
509.145	4285.23
509.514	4287.26
509.882	4326.36
510.25	4313.47
510.618	4301.95
510.986	4344.21
511.354	4402.06
511.722	4399.8
512.09	4341.95
512.458	4418.1
512.826	4443.64
513.193	4423.08
513.561	4419.01
513.929	4465.56
514.297	4516.86
514.664	4516.41
515.032	4520.93
515.4	4538.78
515.767	4554.6
516.135	4551.21
516.502	4489.97
516.869	4543.98
517.237	4599.57
517.604	4522.28
517.972	4581.94
518.339	4577.65
518.706	4610.64
519.073	4617.42
519.44	4637.53
519.808	4648.61
520.175	4660.58
520.542	4680.7
520.909	4728.83
521.276	4707.81
521.643	4705.78
522.009	4747.14
522.376	4786.46
522.743	4804.08
523.11	4816.74
523.477	4889.96
523.843	4875.49
524.21	4903.29
524.577	4952.1
524.943	4954.14
525.31	4928.15
525.676	4977.64
526.043	5010.86
526.409	5050.86
526.776	5055.38
527.142	5047.69
527.508	5033.23
527.874	5074.13
528.241	5133.11
528.607	5160.68
528.973	5231.64
529.339	5183.73
529.705	5247.91
530.071	5280
530.437	5300.11
530.803	5276.84
531.169	5343.5
531.535	5366.55
531.901	5343.96
532.267	5384.86
532.632	5375.82
532.998	5390.51
533.364	5435.25
533.73	5453.56
534.095	5535.36
534.461	5502.37
534.826	5550.5
535.192	5615.81
535.557	5635.93
535.923	5558.41
536.288	5623.72
536.653	5651.74
537.019	5647
537.384	5687.45
537.749	5702.36
538.114	5752.08
538.479	5768.58
538.845	5717.73
539.21	5776.26
539.575	5810.38
539.94	5850.83
540.305	5884.28
540.67	5831.4
541.034	5869.59
541.399	5932.19
541.764	5924.28
542.129	5961.57
542.494	5988.23
542.858	6048.8
543.223	6053.54
543.587	6065.52
543.952	6112.07
544.316	6155.46
544.681	6114.1
545.045	6143.48
545.41	6194.1
545.774	6227.55
546.138	6171.73
546.503	6232.29
546.867	6197.27
547.231	6296.47
547.595	6335.79
547.959	6382.35
548.324	6357.26
548.688	6390.03
549.052	6425.28
549.416	6448.11
549.779	6385.96
550.143	6480.87
550.507	6496.47
550.871	6535.56
551.235	6573.98
551.599	6588.22
551.962	6636.12
552.326	6611.49
552.689	6643.13
553.053	6620.98
553.417	6637.71
553.78	6715.67
554.143	6700.08
554.507	6746.63
554.87	6763.13
555.234	6827.31
555.597	6783.01
555.96	6734.88
556.323	6774.2
556.686	6799.28
557.05	6855.33
557.413	6853.07
557.776	6860.3
558.139	6921.77
558.502	6929.9
558.865	6957.92
559.228	7016.23
559.59	7036.57
559.953	7061.65
560.316	7085.83
560.679	7066.62
561.041	7133.96
561.404	7083.12
561.767	7143
562.129	7150.01
562.492	7195.66
562.854	7224.13
563.217	7225.71
563.579	7230.69
563.941	7278.59
564.304	7353.17
564.666	7347.07
565.028	7373.96
565.39	7389.33
565.753	7424.8
566.115	7426.61
566.477	7464.13
566.839	7479.49
567.201	7521.53
567.563	7490.34
567.925	7558.36
568.287	7532.37
568.648	7571.92
569.01	7635.42
569.372	7721.29
569.734	7667.51
570.095	7712.93
570.457	7767.39
570.819	7767.17
571.18	7814.63
571.542	7839.48
571.903	7906.83
572.265	7966.26
572.626	8016.65
572.987	8064.34
573.349	8046.26
573.71	8089.19
574.071	8138.68
574.432	8193.82
574.794	8313.82
575.155	8333.26
575.516	8376.64
575.877	8474.49
576.238	8454.83
576.599	8582.97
576.96	8666.58
577.32	8628.39
577.681	8791.32
578.042	8888.5
578.403	8964.2
578.763	9062.95
579.124	9127.36
579.485	9256.4
579.845	9337.07
580.206	9410.52
580.566	9557.63
580.927	9644.18
581.287	9767.79
581.648	9953.33
582.008	10097.05
582.368	10139.54
582.728	10394.67
583.089	10522.35
583.449	10618.17
583.809	10850.48
584.169	11026.07
584.529	11207.08
584.889	11452.27
585.249	11598.25
585.609	11863.11
585.969	12082.31
586.329	12272.13
586.688	12521.62
587.048	12752.8
587.408	12901.04
587.768	13131.1
588.127	13348.04
588.487	13631.87
588.846	13993.9
589.206	14103.73
589.565	14413.32
589.925	14733.09
590.284	14966.08
590.643	15244.94
591.003	15495.1
591.362	15911.36
591.721	16153.39
592.08	16406.49
592.44	16882.64
592.799	16993.14
593.158	17301.16
593.517	17693.24
593.876	17903.63
594.235	18203.73
594.593	18551.29
594.952	18783.38
595.311	19132.29
595.67	19475.34
596.029	19857.02
596.387	20163
596.746	20567.96
597.104	20635.3
597.463	21064.67
597.822	21395.28
598.18	21604.32
598.538	21987.13
598.897	22317.52
599.255	22413.56
599.613	23088.57
599.972	23242.92
600.33	23494.44
600.688	23824.37
601.046	24244.48
601.404	24493.51
601.762	24792.71
602.12	25195.64
602.478	25482.86
602.836	25770.76
603.194	25827.71
603.552	26168.49
603.91	26304.53
604.268	26833.79
604.625	26857.29
604.983	27347.44
605.341	27425.63
605.698	27891.84
606.056	28165.5
606.413	28197.14
606.771	28700.4
607.128	28809.78
607.485	28932.49
607.843	29276.66
608.2	29759.81
608.557	29954.83
608.914	30041.16
609.272	30405.22
609.629	30653.8
609.986	30843.17
610.343	30880.46
610.7	31433.67
611.057	31564.06
611.414	31664.17
611.771	31941.67
612.127	32081.33
612.484	32365.62
612.841	32472.51
613.198	32773.97
613.554	32894.42
613.911	33238.82
614.267	33207.18
614.624	33396.1
614.98	33667.05
615.337	34013.94
615.693	33974.62
616.05	34221.84
616.406	34588.84
616.762	34511.78
617.118	34705.44
617.475	34749.06
617.831	34926.68
618.187	35032.44
618.543	35241.25
618.899	35542.03
619.255	35583.61
619.611	35817.73
619.967	35968.91
620.323	36132.3
620.678	36109.47
621.034	36141.11
621.39	36328.45
621.746	36377.49
622.101	36894.99
622.457	36542.68
622.812	36831.72
623.168	37053.86
623.523	37156
623.879	37204.13
624.234	37127.07
624.589	37336.56
624.945	37367.97
625.3	37611.36
625.655	37612.49
626.01	37733.84
626.365	37801.41
626.72	37911.46
627.075	37826.94
627.43	37844.12
627.785	37873.04
628.14	38103.77
628.495	38132.47
628.85	38215.41
629.205	38076.2
629.559	38298.57
629.914	38158.91
630.269	38332.92
630.623	38244.33
630.978	38370.21
631.332	38560.26
631.687	38653.81
632.041	38405.69
632.396	38465.57
632.75	38399.58
633.104	38629.18
633.459	38375.63
633.813	38480.94
634.167	38466.93
634.521	38626.92
634.875	38750.53
635.229	38561.39
635.583	38469.41
635.937	38540.6
636.291	38478.9
636.645	38652.23
636.999	38628.96
637.352	38645
637.706	38523.65
638.06	38702.63
638.413	38612.69
638.767	38607.49
639.121	38567.49
639.474	38350.09
639.828	38484.1
640.181	38435.29
640.534	38474.61
640.888	38642.74
641.241	38323.88
641.594	38510.99
641.947	38614.04
642.301	38402.97
642.654	38452.92
643.007	38560.26
643.36	38414.05
643.713	38324.11
644.066	38612.46
644.419	38379.7
644.771	38131.12
645.124	37751.01
645.477	37790.33
645.83	37482.77
646.182	37407.97
646.535	37229.44
646.888	37386.95
647.24	37226.51
647.593	37381.53
647.945	37295.88
648.298	37229.44
648.65	37144.25
649.002	37125.49
649.355	37344.24
649.707	37361.87
650.059	37284.81
650.411	37734.74
650.763	37698.36
651.115	38171.34
651.467	38001.18
651.819	37932.25
652.171	38026.03
652.523	37866.04
652.875	37872.82
653.227	37840.73
653.578	38151.45
653.93	38074.85
654.282	37862.87
654.633	37809.54
654.985	37966.15
655.337	37853.16
655.688	37794.4
656.039	37952.59
656.391	37684.35
656.742	37754.85
657.094	37800.96
657.445	37861.74
657.796	37722.54
658.147	37766.61
658.498	37774.06
658.849	37760.96
659.2	37817.45
659.551	37688.19
659.902	37809.77
660.253	37641.86
660.604	37702.65
660.955	37706.95
661.306	37831.46
661.656	37699.26
662.007	37636.89
662.358	37727.06
662.708	37650.68
663.059	37553.96
663.409	37569.32
663.76	37722.77
664.11	37642.54
664.461	37737.91
664.811	37879.82
665.161	37637.57
665.511	37554.41
665.862	37555.99
666.212	37746.27
666.562	37593.5
666.912	37611.81
667.262	37555.09
667.612	37611.58
667.962	37620.85
668.312	37551.47
668.662	37798.02
669.011	37395.32
669.361	37510.12
669.711	37427.63
670.06	37487.29
670.41	37424.24
670.76	37374.07
671.109	37531.13
671.459	37428.31
671.808	37399.16
672.157	37465.14
672.507	37155.32
672.856	37364.36
673.205	37285.71
673.554	37425.6
673.904	37305.83
674.253	37538.59
674.602	37369.1
674.951	36836.91
675.3	36630.36
675.649	37205.26
675.998	37270.35
676.346	37289.56
676.695	37344.47
677.044	37144.93
677.393	37273.29
677.741	37138.15
678.09	37004.59
678.438	37021.54
678.787	36969.79
679.135	37128.88
679.484	36860.64
679.832	36964.82
680.181	36863.13
680.529	36927.76
680.877	36680.53
681.225	36719.85
681.573	36909.45
681.922	36555.11
682.27	36533.64
682.618	36650.93
682.966	36416.36
683.314	36625.62
683.661	36534.1
684.009	36351.73
684.357	36293.65
684.705	36241
685.053	36284.61
685.4	36179.53
685.748	36022.24
686.095	35975.01
686.443	35994.22
686.79	35854.34
687.138	35861.12
687.485	35947.44
687.832	35809.6
688.18	35767.79
688.527	35686.21
688.874	35521.69
689.221	35584.74
689.568	35467.23
689.915	35410.06
690.262	35419.1
690.609	35274.47
690.956	35150.4
691.303	35356.5
691.65	35016.85
691.997	34990.41
692.344	34769.85
692.69	34705.67
693.037	34775.27
693.383	34668.83
693.73	34609.17
694.077	34461.83
694.423	34302.97
694.769	34342.06
695.116	34224.78
695.462	34249.41
695.808	34038.12
696.155	34036.53
696.501	33806.48
696.847	33916.76
697.193	33564.46
697.539	33822.75
697.885	33642.19
698.231	33527.85
698.577	33388.19
698.923	33488.07
699.269	33281.3
699.614	33098.71
699.96	33094.64
700.306	32998.6
700.651	32853.29
700.997	32831.37
701.342	32762.22
701.688	32641.09
702.033	32602.22
702.379	32671.6
702.724	32515.44
703.069	32611.26
703.415	32136.7
703.76	32165.62
704.105	32362.91
704.45	32157.04
704.795	32011.05
705.14	31878.85
705.485	31914.78
705.83	31724.28
706.175	31882.24
706.52	31873.43
706.865	31600.21
707.209	31557.28
707.554	31532.42
707.899	31433.89
708.243	31318.87
708.588	31379.66
708.932	31079.32
709.277	31061.47
709.621	31238.87
709.966	30943.96
710.31	31055.82
710.654	30771.08
710.998	30844.53
711.342	30802.27
711.687	30723.85
712.031	30585.33
712.375	30448.83
712.719	30403.64
713.063	30334.94
713.407	30522.73
713.75	30215.84
714.094	30338.78
714.438	30184.21
714.782	30099.46
715.125	30057.66
715.469	30105.79
715.812	29892.69
716.156	29767.72
716.499	29816.31
716.843	29880.94
717.186	29729.53
717.53	29832.13
717.873	29810.43
718.216	29649.31
718.559	29580.15
718.902	29391.68
719.246	29400.05
719.589	29353.95
719.932	29190.11
720.275	29127.06
720.617	29212.25
720.96	29200.28
721.303	29103.56
721.646	29076.44
721.989	28999.38
722.331	29029.43
722.674	28838.48
723.016	28785.83
723.359	28901.53
723.701	28948.08
724.044	28682.32
724.386	28556.9
724.729	28663.34
725.071	28547.41
725.413	28588.09
725.755	28670.12
726.097	28347.42
726.439	28288.66
726.782	28298.15
727.124	28463.12
727.465	28045.28
727.807	28362.56
728.149	28183.35
728.491	28138.61
728.833	28154.66
729.175	28103.81
729.516	27992.17
729.858	28000.53
730.199	27954.21
730.541	27909.01
730.882	27927.77
731.224	27935.23
731.565	27791.73
731.906	27693.88
732.248	27826.08
732.589	27619.3
732.93	27427.89
733.271	27531.39
733.612	27595.8
733.953	27561
734.294	27491.62
734.635	27379.99
734.976	27496.37
735.317	27236.49
735.658	27304.06
735.999	27342.7
736.339	27190.61
736.68	27280.1
737.021	27135.92
737.361	27000.34
737.702	27234.91
738.042	26995.36
738.383	27107.45
738.723	27074.91
739.063	26915.14
739.404	26969.38
739.744	26883.5
740.084	26728.03
740.424	26797.18
740.764	26674.47
741.104	26860.23
741.444	26625.88
741.784	26563.28
742.124	26457.75
742.464	26607.13
742.804	26525.09
743.143	26254.14
743.483	26554.25
743.823	26333.01
744.162	26405.55
744.502	26339.34
744.841	26165.55
745.181	26304.31
745.52	26203.97
745.86	26136.18
746.199	26111.32
746.538	25985.9
746.877	26197.87
747.216	26139.57
747.556	25984.77
747.895	25983.41
748.234	25910.87
748.573	25789.29
748.911	25795.4
749.25	25817.99
749.589	25520.83
749.928	25680.82
750.267	25671.78
750.605	25528.96
750.944	25493.93
751.283	25475.86
751.621	25507.04
751.96	25381.17
752.298	25274.05
752.636	25379.13
752.975	25251
753.313	25110.22
753.651	25334.84
753.989	25081.97
754.327	24940.95
754.666	24923.78
755.004	24939.6
755.342	24944.57
755.679	24790.68
756.017	24676.1
756.355	24830
756.693	24619.15
757.031	24661.87
757.368	24522.89
757.706	24537.35
758.044	24521.3
758.381	24371.03
758.719	24342.1
759.056	24371.03
759.394	24262.55
759.731	24079.06
760.068	24088.32
760.405	24086.06
760.743	23817.37
761.08	23934.2
761.417	23809.01
761.754	23726.52
762.091	23689.91
762.428	23647.66
762.765	23437.49
763.102	23524.49
763.438	23383.71
763.775	23234.78
764.112	23373.99
764.449	23336.02
764.785	23110.04
765.122	22931.29
765.458	22986.43
765.795	22938.07
766.131	22877.51
766.467	22799.54
766.804	22706.21
767.14	22609.94
767.476	22473.22
767.812	22482.71
768.148	22459.89
768.485	22329.27
768.821	22197.3
769.157	22245.66
769.492	22182.16
769.828	22117.75
770.164	21849.96
770.5	21925.67
770.836	21887.25
771.171	21763.18
771.507	21643.64
771.842	21520.03
772.178	21499.01
772.513	21485.23
772.849	21355.51
773.184	21302.63
773.519	21367.49
773.855	21129.53
774.19	21005.46
774.525	21067.38
774.86	20991
775.195	21029.64
775.53	20866.26
775.865	20742.19
776.2	20526.16
776.535	20444.58
776.87	20459.72
777.205	20338.36
777.539	20303.79
777.874	20395.09
778.209	20030.12
778.543	20098.82
778.878	20012.5
779.212	20081.42
779.547	19868.09
779.881	19862.67
780.215	19757.59
780.55	19873.07
780.884	19639.4
781.218	19667.65
781.552	19648.44
781.886	19600.3
782.22	19372.74
782.554	19297.26
782.888	19199.86
783.222	19097.94
783.556	19042.13
783.889	19053.88
784.223	18878.51
784.557	18781.57
784.89	18792.42
785.224	18736.6
785.557	18648.46
785.891	18695.24
786.224	18557.39
786.558	18503.61
786.891	18421.35
787.224	18245.54
787.557	18225.65
787.891	18193.79
788.224	18157.63
788.557	18120.12
788.89	18162.6
789.223	18014.58
789.556	17839.67
789.888	17898.65
790.221	17834.93
790.554	17699.34
790.887	17656.63
791.219	17624.76
791.552	17570.75
791.884	17497.08
792.217	17512.45
792.549	17373.02
792.882	17267.94
793.214	17194.49
793.546	17168.05
793.879	17137.32
794.211	16961.73
794.543	17069.75
794.875	16966.7
795.207	17060.03
795.539	16863.43
795.871	16908.62
796.203	16694.17
796.535	16608.52
796.867	16608.07
797.198	16486.26
797.53	16571.91
797.862	16393.38
798.193	16570.55
798.525	16334.4
798.856	16425.02
799.188	16235.42
799.519	16246.95
799.85	16058.02
800.182	16116.1
800.513	16072.04
800.844	15926.95
801.175	16073.62
801.506	15914.98
801.837	15872.27
802.168	15776
802.499	15690.58
802.83	15666.17
803.161	15733.96
803.491	15659.84
803.822	15615.32
804.153	15516.8
804.483	15402.45
804.814	15375.33
805.145	15384.82
805.475	15313.18
805.805	15352.51
806.136	15282.68
806.466	15185.28
806.796	15197.48
807.126	15049.01
807.457	15081.1
807.787	15117.26
808.117	14971.27
808.447	14933.76
808.777	14954.32
809.107	14932.4
809.436	14910.94
809.766	14845.85
810.096	14672.98
810.426	14735.8
810.755	14689.25
811.085	14693.09
811.414	14578.29
811.744	14501.45
812.073	14483.6
812.403	14526.54
812.732	14419.65
813.061	14442.25
813.39	14427.11
813.719	14282.48
814.049	14355.24
814.378	14260.78
814.707	14260.56
815.036	14156.15
815.365	14171.75
815.693	14040.22
816.022	14005.65
816.351	14010.85
816.68	13963.62
817.008	13898.76
817.337	13766.33
817.665	13780.57
817.994	13868.7
818.322	13785.09
818.651	13735.37
818.979	13696.5
819.307	13735.37
819.636	13695.15
819.964	13595.94
820.292	13672.1
820.62	13582.38
820.948	13492.67
821.276	13561.37
821.604	13557.07
821.932	13584.42
822.259	13508.03
822.587	13571.54
822.915	13535.6
823.243	13498.32
823.57	13552.55
823.898	13510.29
824.225	13423.97
824.553	13477.98
824.88	13404.76
825.207	13490.86
825.535	13425.78
825.862	13466.68
826.189	13409.73
826.516	13533.57
826.843	13524.53
827.17	13532.89
827.497	13449.05
827.824	13465.1
828.151	13554.14
828.478	13529.95
828.805	13480.69
829.131	13372.22
829.458	13442.27
829.785	13353.69
830.111	13481.14
830.438	13503.06
830.764	13420.58
831.09	13432.78
831.417	13395.04
831.743	13439.11
832.069	13401.82
832.395	13333.35
832.722	13370.64
833.048	13362.28
833.374	13293.35
833.7	13283.86
834.026	13292.22
834.351	13368.38
834.677	13345.55
835.003	13273.92
835.329	13204.09
835.654	13260.13
835.98	13180.81
836.306	13165.9
836.631	13209.06
836.956	13172
837.282	13209.51
837.607	13133.81
837.932	13070.31
838.258	13157.99
838.583	13152.56
838.908	13057.65
839.233	13079.57
839.558	13054.26
839.883	13003.64
840.208	12910.54
840.533	12962.51
840.858	12932.46
841.182	12936.98
841.507	12893.59
841.832	12771.78
842.156	12854.94
842.481	12725.23
842.805	12762.52
843.13	12742.18
843.454	12736.08
843.778	12678
844.103	12666.47
844.427	12639.81
844.751	12673.71
845.075	12596.65
845.399	12521.17
845.723	12455.86
846.047	12464.67
846.371	12337.9
846.695	12377.67
847.019	12312.13
847.343	12290.67
847.666	12193.94
847.99	12144
848.313	12107.39
848.637	11985.36
848.96	11984.01
849.284	11874.63
849.607	11885.03
849.931	11862.43
850.254	11762.09
850.577	11648.87
850.9	11610.46
851.223	11626.95
851.546	11451.82
851.869	11467.86
852.192	11570.91
852.515	11461.99
852.838	11479.39
853.161	11372.27
853.483	11260.86
853.806	11379.05
854.129	11232.84
854.451	11222.45
854.774	11147.87
855.096	11123.69
855.419	11098.15
855.741	11055.67
856.063	10974.54
856.385	11047.76
856.708	10961.43
857.03	10892.74
857.352	10928.89
857.674	10892.06
857.996	10883.92
858.318	10745.4
858.64	10829.01
858.961	10760.99
859.283	10674.44
859.605	10625.85
859.926	10603.25
860.248	10591.95
860.57	10583.59
860.891	10597.6
861.212	10544.95
861.534	10519.86
861.855	10489.36
862.176	10477.15
862.498	10509.02
862.819	10453.88
863.14	10383.37
863.461	10360.55
863.782	10344.28
864.103	10310.15
864.424	10304.28
864.745	10337.95
865.065	10333.43
865.386	10229.25
865.707	10264.28
866.027	10214.34
866.348	10209.82
866.668	10180.21
866.989	10126.2
867.309	10067.22
867.63	10201
867.95	10108.35
868.27	10011.4
868.59	10015.92
868.91	10085.3
869.23	10052.53
869.55	9993.32
869.87	10030.61
870.19	10016.6
870.51	9919.43
870.83	10026.09
871.15	9948.13
871.469	9949.26
871.789	9955.36
872.109	9913.55
872.428	9867.23
872.748	9908.81
873.067	9925.3
873.386	9875.36
873.706	9843.27
874.025	9843.27
874.344	9718.3
874.663	9741.13
874.982	9764.86
875.301	9771.64
875.62	9801.47
875.939	9657.51
876.258	9711.3
876.577	9682.82
876.896	9686.89
877.214	9671.3
877.533	9712.88
877.852	9562.6
878.17	9585.43
878.489	9636.72
878.807	9642.37
879.125	9604.86
879.444	9542.49
879.762	9560.34
880.08	9540.46
880.398	9423.85
880.716	9468.14
881.034	9459.33
881.352	9506.78
881.67	9370.06
881.988	9449.38
882.306	9404.41
882.624	9279.45
882.941	9343.62
883.259	9307.02
883.577	9289.84
883.894	9249.84
884.212	9190.86
884.529	9192.67
884.846	9234.47
885.164	9141.37
885.481	9136.62
885.798	9139.34
886.115	9110.64
886.432	9055.27
886.75	9032.67
887.067	9072.9
887.383	8982.96
887.7	8969.17
888.017	8982.5
888.334	8997.42
888.651	8982.73
888.967	8848.5
889.284	8866.8
889.6	8832
889.917	8796.97
890.233	8764.66
890.55	8721.95
890.866	8742.06
891.182	8759.46
891.498	8709.74
891.815	8679.46
892.131	8608.28
892.447	8652.34
892.763	8551.33
893.079	8579.58
893.395	8533.48
893.71	8579.12
894.026	8531.44
894.342	8556.53
894.657	8454.61
894.973	8380.26
895.289	8440.37
895.604	8364.89
895.92	8315.4
896.235	8275.86
896.55	8356.53
896.865	8292.13
897.181	8245.57
897.496	8274.73
897.811	8223.65
898.126	8167.61
898.441	8100.04
898.756	8056.88
899.071	8032.92
899.386	8067.95
899.7	8020.27
900.015	7992.7
900.33	7933.72
900.644	7947.95
900.959	8002.64
901.273	7938.24
901.588	7863.44
901.902	7851.69
902.216	7778.69
902.531	7784.8
902.845	7726.94
903.159	7643.56
903.473	7635.65
903.787	7637.45
904.101	7550.9
904.415	7549.1
904.729	7516.78
905.042	7517.68
905.356	7475.65
905.67	7512.94
905.984	7493.5
906.297	7464.13
906.611	7449.66
906.924	7361.08
907.237	7393.62
907.551	7309.55
907.864	7305.94
908.177	7272.94
908.491	7235.88
908.804	7200.63
909.117	7215.09
909.43	7118.37
909.743	7052.84
910.056	7089.9
910.368	7064.14
910.681	6974.65
910.994	6996.34
911.307	6944.14
911.619	6939.85
911.932	6922.9
912.244	6893.52
912.557	6900.75
912.869	6818.94
913.181	6773.75
913.494	6782.11
913.806	6748.21
914.118	6747.76
914.43	6674.09
914.742	6680.42
915.054	6620.76
915.366	6609.46
915.678	6593.64
915.99	6565.17
916.302	6501.44
916.613	6518.61
916.925	6511.38
917.236	6472.97
917.548	6393.87
917.859	6411.05
918.171	6353.87
918.482	6348.67
918.794	6331.27
919.105	6345.51
919.416	6292.41
919.727	6286.3
920.038	6233.88
920.349	6149.13
920.66	6166.31
920.971	6132.41
921.282	6117.27
921.593	6045.41
921.903	6018.29
922.214	6049.47
922.525	5990.27
922.835	5953.66
923.146	6005.18
923.456	5914.34
923.767	5838.41
924.077	5891.29
924.387	5833.89
924.697	5847.45
925.008	5834.11
925.318	5769.71
925.628	5772.64
925.938	5762.7
926.248	5679.99
926.558	5625.3
926.867	5658.98
927.177	5592.99
927.487	5655.59
927.796	5590.05
928.106	5528.13
928.416	5540.79
928.725	5567.9
929.034	5489.49
929.344	5500.79
929.653	5492.2
929.962	5425.31
930.271	5374.69
930.581	5412.65
930.89	5337.63
931.199	5351.19
931.508	5326.78
931.817	5321.58
932.125	5249.95
932.434	5268.7
932.743	5252.21
933.051	5207.24
933.36	5184.86
933.669	5098.31
933.977	5119.55
934.286	5099.44
934.594	5128.14
934.902	5099.67
935.21	5014.92
935.519	5073.23
935.827	5019.67
936.135	4979.9
936.443	4958.65
936.751	4929.96
937.059	4908.26
937.367	4885.66
937.674	4887.47
937.982	4890.63
938.29	4798.43
938.597	4853.35
938.905	4805.66
939.213	4754.82
939.52	4716.4
939.827	4754.37
940.135	4706.91
940.442	4666.69
940.749	4725.67
941.056	4668.72
941.363	4635.27
941.67	4609.51
941.977	4622.17
942.284	4576.29
942.591	4534.49
942.898	4517.08
943.205	4574.03
943.511	4520.7
943.818	4484.09
944.125	4427.14
944.431	4451.32
944.738	4416.97
945.044	4393.02
945.35	4353.93
945.657	4383.08
945.963	4344.43
946.269	4326.58
946.575	4306.92
946.881	4318.45
947.187	4306.24
947.493	4213.82
947.799	4254.49
948.105	4222.86
948.41	4178.34
948.716	4218.56
949.022	4173.14
949.327	4129.07
949.633	4124.33
949.938	4086.14
950.244	4133.82
950.549	4037.32
950.854	4054.5
951.16	4036.65
951.465	4026.25
951.77	3960.26
952.075	3952.13
952.38	3941.05
952.685	3961.17
952.99	3888.85
953.294	3893.37
953.599	3874.84
953.904	3903.54
954.209	3859.25
954.513	3857.21
954.818	3846.37
955.122	3774.96
955.426	3803.43
955.731	3797.78
956.035	3791.91
956.339	3784.45
956.643	3748.29
956.948	3736.09
957.252	3707.61
957.556	3738.12
957.86	3666.71
958.163	3675.07
958.467	3687.73
958.771	3624.23
959.075	3638.92
959.378	3571.35
959.682	3584.91
959.985	3583.32
960.289	3571.35
960.592	3508.75
960.896	3525.47
961.199	3537.9
961.502	3509.2
961.805	3471.69
962.108	3461.07
962.411	3489.32
962.714	3409.32
963.017	3414.51
963.32	3427.85
963.623	3405.25
963.926	3420.84
964.228	3376.78
964.531	3362.76
964.833	3328.64
965.136	3309.88
965.438	3305.14
965.741	3300.62
966.043	3257
966.345	3235.99
966.648	3193.5
966.95	3213.39
967.252	3264.24
967.554	3245.03
967.856	3192.15
968.158	3158.25
968.46	3194.41
968.761	3133.39
969.063	3148.76
969.365	3109.44
969.666	3086.39
969.968	3088.2
970.269	3085.94
970.571	3083.68
970.872	3039.38
971.174	3048.42
971.475	3021.3
971.776	3019.95
972.077	2986.73
972.378	2982.89
972.679	2966.62
972.98	3008.65
973.281	2949.89
973.582	2930.23
973.883	2921.19
974.183	2905.6
974.484	2897.92
974.785	2864.7
975.085	2893.4
975.386	2885.72
975.686	2864.47
975.986	2837.35
976.287	2812.5
976.587	2795.32
976.887	2827.86
977.187	2765.04
977.487	2783.57
977.787	2771.82
978.087	2728.43
978.387	2710.35
978.687	2733.18
978.987	2725.27
979.286	2667.87
979.586	2702.9
979.885	2641.2
980.185	2676.23
980.484	2680.3
980.784	2642.11
981.083	2642.33
981.382	2648.43
981.682	2637.13
981.981	2627.19
982.28	2592.62
982.579	2557.59
982.878	2586.51
983.177	2558.04
983.475	2532.28
983.774	2497.02
984.073	2526.4
984.372	2497.93
984.67	2506.97
984.969	2469
985.267	2489.12
985.566	2459.96
985.864	2436.91
986.162	2425.16
986.461	2420.64
986.759	2396.01
987.057	2404.37
987.355	2401.66
987.653	2374.54
987.951	2364.82
988.249	2350.59
988.547	2356.69
988.844	2331.83
989.142	2337.48
989.44	2363.24
989.737	2300.65
990.035	2290.48
990.332	2286.86
990.63	2316.24
990.927	2276.92
991.224	2259.29
991.521	2274.21
991.819	2230.59
992.116	2208.22
992.413	2199.63
992.71	2208.44
993.006	2238.95
993.303	2174.55
993.6	2186.52
993.897	2153.08
994.193	2194.43
994.49	2127.09
994.787	2167.54
995.083	2099.97
995.379	2122.35
995.676	2128.22
995.972	2086.87
996.268	2105.17
996.565	2095.68
996.861	2068.11
997.157	2115.79
997.453	2064.04
997.749	2025.17
998.044	2024.27
998.34	1998.28
998.636	1991.73
998.932	1968.68
999.227	2020.65
999.523	1982.69
999.818	1985.63
1000.114	1973.42
1000.409	1925.29
1000.704	1932.07
1001	1949.92
1001.295	1931.16
1001.59	1921.67
1001.885	1916.93
1002.18	1895.46
1002.475	1891.84
1002.77	1890.94
1003.065	1860.21
1003.359	1831.05
1003.654	1863.6
1003.949	1846.65
1004.243	1836.7
1004.538	1829.25
1004.832	1792.18
1005.127	1791.51
1005.421	1788.79
1005.715	1763.26
1006.009	1778.85
1006.304	1754.67
1006.598	1739.76
1006.892	1748.12
1007.186	1714.45
1007.48	1697.95
1007.773	1724.62
1008.067	1715.58
1008.361	1662.24
1008.655	1662.7
1008.948	1691.17
1009.242	1633.54
1009.535	1638.74
1009.829	1657.05
1010.122	1604.17
1010.415	1605.75
1010.708	1633.54
1011.001	1604.84
1011.295	1605.07
1011.588	1551.96
1011.881	1550.83
1012.173	1547.9
1012.466	1573.66
1012.759	1555.81
1013.052	1522.59
1013.344	1526.2
1013.637	1533.43
1013.93	1515.58
1014.222	1525.3
1014.514	1520.55
1014.807	1504.06
1015.099	1472.87
1015.391	1505.41
1015.683	1474.9
1015.976	1457.5
1016.268	1446.43
1016.56	1461.12
1016.851	1420.89
1017.143	1442.14
1017.435	1441.01
1017.727	1385.42
1018.018	1379.99
1018.31	1400.78
1018.602	1384.06
1018.893	1382.48
1019.185	1384.74
1019.476	1381.12
1019.767	1328.69
1020.058	1323.95
1020.35	1318.52
1020.641	1307.45
1020.932	1315.81
1021.223	1290.95
1021.514	1286.21
1021.804	1293.67
1022.095	1269.71
1022.386	1285.76
1022.677	1282.82
1022.967	1243.5
1023.258	1235.59
1023.548	1235.36
1023.839	1233.56
1024.129	1243.5
1024.419	1217.28
1024.709	1197.17
1025	1170.96
1025.29	1204.18
1025.58	1168.02
1025.87	1188.36
1026.16	1161.47
1026.449	1157.17
1026.739	1158.08
1027.029	1151.52
1027.319	1144.74
1027.608	1153.33
1027.898	1141.58
1028.187	1111.75
1028.477	1126.21
1028.766	1126.67
1029.055	1095.93
1029.344	1104.97
1029.634	1072.43
1029.923	1079.66
1030.212	1043.5
1030.501	1051.86
1030.79	1076.5
1031.078	1034.24
1031.367	1058.64
1031.656	1061.13
1031.945	1048.25
1032.233	1032.43
1032.522	1021.58
1032.81	1004.18
1033.099	1014.58
1033.387	1000.11
1033.675	987.23
1033.963	990.4
1034.251	992.88
1034.54	976.16
1034.828	972.09
1035.116	961.7
1035.403	955.37
1035.691	930.96
1035.979	954.92
1036.267	951.3
1036.554	924.64
1036.842	896.39
1037.129	934.58
1037.417	921.25
1037.704	928.25
1037.992	916.05
1038.279	913.34
1038.566	902.49
1038.853	902.49
1039.14	902.49
