Data from hue_34_FLMS001491_00051.txt Node
Date: Tue Feb 07 17:25:49 GMT 2017
User: dcchb
Spectrometer: FLMS00149
Trigger mode: 0
Integration Time (sec): 2.000000E-2
Scans to average: 10
Electric dark correction enabled: true
Nonlinearity correction enabled: false
Boxcar width: 0
XAxis mode: Wavelengths
Number of Pixels in Spectrum: 2048
>>>>>Begin Spectral Data<<<<<
341.393	-12.73
341.776	-12.73
342.16	-12.73
342.543	-51.82
342.927	-68.32
343.31	-78.03
343.693	-67.41
344.077	-52.5
344.46	-64.48
344.843	-44.36
345.226	-52.5
345.61	-42.33
345.993	-28.77
346.376	1.06
346.759	19.14
347.142	9.87
347.525	53.04
347.908	46.93
348.291	74.05
348.674	99.14
349.057	127.16
349.44	125.58
349.823	145.46
350.206	163.54
350.588	194.27
350.971	223.2
351.354	243.99
351.737	246.25
352.119	230.88
352.502	281.28
352.884	259.58
353.267	273.59
353.65	302.97
354.032	315.18
354.414	293.71
354.797	324.89
355.179	336.87
355.562	301.84
355.944	329.64
356.326	333.48
356.709	344.55
357.091	322.41
357.473	345.68
357.855	353.14
358.238	340.71
358.62	323.08
359.002	346.36
359.384	339.13
359.766	350.88
360.148	330.54
360.53	340.94
360.912	328.51
361.294	357.43
361.676	333.03
362.057	333.25
362.439	323.31
362.821	337.1
363.203	320.82
363.584	343.65
363.966	342.75
364.348	325.8
364.729	294.61
365.111	319.02
365.493	316.53
365.874	311.56
366.256	336.87
366.637	312.24
367.019	301.16
367.4	302.97
367.781	306.36
368.163	314.95
368.544	325.12
368.925	307.94
369.306	302.29
369.688	323.99
370.069	304.55
370.45	313.14
370.831	310.88
371.212	315.63
371.593	315.85
371.974	313.82
372.355	302.29
372.736	337.32
373.117	312.69
373.498	336.19
373.879	312.69
374.26	313.59
374.641	307.72
375.021	321.28
375.402	319.24
375.783	326.47
376.163	323.76
376.544	337.55
376.925	322.41
377.305	328.51
377.686	335.06
378.066	337.1
378.447	319.02
378.827	326.02
379.208	336.87
379.588	343.88
379.968	345.01
380.349	316.31
380.729	337.55
381.109	347.04
381.489	340.71
381.87	346.36
382.25	350.2
382.63	326.93
383.01	330.99
383.39	333.25
383.77	335.74
384.15	332.58
384.53	352.46
384.91	345.23
385.29	338.68
385.67	349.3
386.049	356.53
386.429	344.33
386.809	336.87
387.189	360.37
387.568	353.37
387.948	352.69
388.328	356.3
388.707	338.9
389.087	360.37
389.466	358.34
389.846	356.76
390.225	375.06
390.605	369.86
390.984	370.99
391.363	381.61
391.743	362.86
392.122	373.7
392.501	375.06
392.881	356.98
393.26	368.51
393.639	381.84
394.018	387.49
394.397	368.51
394.776	390.43
395.155	407.15
395.534	385.46
395.913	381.61
396.292	391.56
396.671	385.23
397.05	377.09
397.429	384.78
397.808	400.37
398.186	400.37
398.565	393.14
398.944	397.66
399.323	401.27
399.701	392.69
400.08	404.44
400.458	386.13
400.837	415.29
401.215	382.07
401.594	377.77
401.972	406.02
402.351	397.21
402.729	399.69
403.107	423.65
403.486	388.17
403.864	415.74
404.242	421.61
404.62	412.12
404.999	395.85
405.377	435.4
405.755	396.53
406.133	436.08
406.511	438.79
406.889	419.35
407.267	429.07
407.645	441.73
408.023	436.75
408.401	413.7
408.779	458.67
409.156	453.48
409.534	450.99
409.912	433.82
410.29	429.75
410.667	451.89
411.045	450.09
411.422	448.51
411.8	446.25
412.178	447.38
412.555	460.93
412.933	462.97
413.31	471.56
413.687	461.84
414.065	467.26
414.442	476.08
414.819	491.67
415.197	487.6
415.574	503.42
415.951	501.16
416.328	470.88
416.705	492.35
417.082	501.61
417.46	500.03
417.837	519.24
418.214	501.39
418.591	491.22
418.967	507.26
419.344	533.02
419.721	521.95
420.098	513.36
420.475	543.87
420.852	537.32
421.228	527.6
421.605	550.42
421.982	521.27
422.358	538.22
422.735	543.87
423.111	552.46
423.488	540.71
423.864	564.43
424.241	542.06
424.617	542.06
424.994	559.01
425.37	563.3
425.746	566.24
426.123	556.75
426.499	566.24
426.875	570.31
427.251	575.28
427.627	581.38
428.003	584.55
428.379	582.06
428.756	589.97
429.132	621.16
429.507	615.96
429.883	614.15
430.259	597.88
430.635	595.62
431.011	623.19
431.387	609.86
431.763	643.98
432.138	607.82
432.514	617.99
432.89	651.89
433.265	646.92
433.641	671.32
434.016	670.19
434.392	674.94
434.767	685.11
435.143	672.68
435.518	688.95
435.894	698.67
436.269	696.41
436.644	693.02
437.02	684.88
437.395	730.08
437.77	717.88
438.145	733.47
438.52	709.06
438.895	732.34
439.271	754.94
439.646	743.86
440.021	763.98
440.395	749.51
440.77	745.9
441.145	743.41
441.52	751.1
441.895	746.35
442.27	773.69
442.645	778.89
443.019	758.78
443.394	777.76
443.769	767.14
444.143	783.86
444.518	778.67
444.892	793.81
445.267	797.65
445.641	778.67
446.016	792.9
446.39	800.36
446.764	828.38
447.139	815.5
447.513	820.7
447.887	841.26
448.262	849.4
448.636	844.43
449.01	845.1
449.384	851.43
449.758	844.2
450.132	844.43
450.506	867.03
450.88	845.1
451.254	840.13
451.628	886.46
452.002	881.04
452.376	891.21
452.75	878.32
453.123	914.48
453.497	928.72
453.871	907.25
454.244	928.49
454.618	936.63
454.992	977.3
455.365	946.57
455.739	942.5
456.112	982.5
456.486	978.66
456.859	1001.48
457.232	1032.22
457.606	1006.91
457.979	1021.82
458.352	1015.5
458.725	1045.33
459.099	1058.21
459.472	1045.33
459.845	1073.12
460.218	1077.42
460.591	1107.02
460.964	1088.94
461.337	1111.99
461.71	1118.77
462.083	1173.91
462.456	1153.57
462.829	1166
463.201	1160.8
463.574	1218.65
463.947	1234.02
464.32	1235.15
464.692	1255.72
465.065	1240.57
465.438	1274.7
465.81	1276.28
466.183	1304.98
466.555	1297.75
466.928	1345.2
467.3	1335.49
467.672	1331.19
468.045	1375.71
468.417	1393.79
468.789	1425.43
469.161	1431.08
469.534	1465.2
469.906	1514.24
470.278	1497.07
470.65	1511.98
471.022	1517.18
471.394	1580.23
471.766	1596.05
472.138	1620.68
472.51	1668.13
472.882	1710.39
473.253	1698.87
473.625	1721.01
473.997	1768.47
474.369	1806.44
474.74	1829.71
475.112	1845.76
475.484	1909.94
475.855	1924.62
476.227	1977.73
476.598	2014.57
476.97	2062.25
477.341	2101.12
477.713	2116.71
478.084	2192.41
478.455	2276.71
478.827	2300.89
479.198	2378.17
479.569	2426.31
479.94	2486.87
480.311	2524.38
480.682	2594.21
481.053	2664.04
481.424	2718.73
481.795	2775.22
482.166	2853.64
482.537	2885.05
482.908	3000.98
483.279	3035.1
483.65	3148.1
484.021	3184.25
484.391	3280.07
484.762	3290.24
485.133	3370.69
485.503	3425.6
485.874	3559.84
486.244	3614.07
486.615	3722.77
486.985	3842.09
487.356	3826.04
487.726	3976.55
488.097	4087.51
488.467	4103.78
488.837	4224
489.207	4305.13
489.578	4385.58
489.948	4489.75
490.318	4618.11
490.688	4686.59
491.058	4743.76
491.428	4854.94
491.798	4983.08
492.168	5066.01
492.538	5063.07
492.908	5204.76
493.278	5314.14
493.648	5320.24
494.017	5489.5
494.387	5536.96
494.757	5603.85
495.126	5770.17
495.496	5756.84
495.866	5905.76
496.235	5979.21
496.605	6055.82
496.974	6106.89
497.344	6196.38
497.713	6236.15
498.082	6329.93
498.452	6427.78
498.821	6475.01
499.19	6564.95
499.559	6611.96
499.928	6722.24
500.298	6767.89
500.667	6826.87
501.036	6864.38
501.405	6978.5
501.774	6976.7
502.143	7149.35
502.512	7160.19
502.88	7263.47
503.249	7251.94
503.618	7343.92
503.987	7382.56
504.356	7394.99
504.724	7545.49
505.093	7519.51
505.462	7592.05
505.83	7600.86
506.199	7769.22
506.567	7881.98
506.936	7877.24
507.304	7965.14
507.672	8006.95
508.041	8031.58
508.409	8159.04
508.777	8204.01
509.145	8258.24
509.514	8282.42
509.882	8331.46
510.25	8345.47
510.618	8394.96
510.986	8416.88
511.354	8556.77
511.722	8655.52
512.09	8652.36
512.458	8677.67
512.826	8791.34
513.193	8838.34
513.561	8912.92
513.929	8980.94
514.297	9032.46
514.664	9065.91
515.032	9173.47
515.4	9129.63
515.767	9173.93
516.135	9256.64
516.502	9241.95
516.869	9392
517.237	9394.48
517.604	9379.8
517.972	9522.16
518.339	9532.56
518.706	9552.45
519.073	9666.79
519.44	9682.84
519.808	9751.09
520.175	9738.66
520.542	9872.21
520.909	9926
521.276	9898.43
521.643	10000.12
522.009	10065.65
522.376	10120.79
522.743	10190.4
523.11	10234.46
523.477	10340.22
523.843	10403.95
524.21	10510.61
524.577	10539.77
524.943	10596.26
525.31	10652.53
525.676	10733.88
526.043	10784.96
526.409	10842.13
526.776	10909.25
527.142	11010.04
527.508	10995.8
527.874	11068.56
528.241	11123.03
528.607	11138.39
528.973	11267.2
529.339	11292.29
529.705	11414.54
530.071	11523.92
530.437	11562.79
530.803	11627.87
531.169	11656.57
531.535	11668.78
531.901	11769.56
532.267	11759.39
532.632	11906.51
532.998	11845.49
533.364	11945.15
533.73	12042.1
534.095	12085.04
534.461	12061.53
534.826	12155.77
535.192	12218.59
535.557	12276.89
535.923	12268.99
536.288	12337.91
536.653	12453.84
537.019	12373.84
537.384	12507.17
537.749	12605.47
538.114	12590.56
538.479	12618.81
538.845	12708.07
539.21	12706.04
539.575	12788.75
539.94	12808.63
540.305	12958.23
540.67	12868.52
541.034	12929.98
541.399	12983.32
541.764	12999.14
542.129	13160.04
542.494	13138.12
542.858	13192.35
543.223	13196.42
543.587	13358.22
543.952	13334.27
544.316	13430.31
544.681	13400.26
545.045	13522.96
545.41	13588.72
545.774	13600.48
546.138	13596.41
546.503	13700.59
546.867	13719.57
547.231	13836.4
547.595	13894.03
547.959	13871.66
548.324	13893.12
548.688	13924.08
549.052	13974.25
549.416	14110.29
549.779	14126.79
550.143	14155.72
550.507	14311.42
550.871	14262.15
551.235	14272.1
551.599	14363.62
551.962	14355.48
552.326	14558.64
552.689	14514.12
553.053	14514.8
553.417	14545.08
553.78	14749.15
554.143	14682.03
554.507	14739.88
554.87	14791.4
555.234	14983.72
555.597	14849.48
555.96	14908.46
556.323	14969.93
556.686	15076.6
557.05	15075.92
557.413	15097.39
557.776	15163.82
558.139	15262.8
558.502	15351.16
558.865	15406.08
559.228	15491.05
559.59	15538.96
559.953	15516.81
560.316	15624.15
560.679	15602.91
561.041	15725.62
561.404	15829.8
561.767	15897.59
562.129	15818.04
562.492	16027.3
562.854	15951.6
563.217	15953.86
563.579	16029.34
563.941	16114.99
564.304	16231.37
564.666	16261.65
565.028	16323.12
565.39	16397.46
565.753	16474.3
566.115	16464.13
566.477	16560.4
566.839	16572.37
567.201	16788.87
567.563	16846.94
567.925	16849.88
568.287	16970.33
568.648	16888.07
569.01	17073.15
569.372	17133.72
569.734	17130.1
570.095	17188.63
570.457	17336.2
570.819	17353.15
571.18	17391.56
571.542	17437.21
571.903	17520.37
572.265	17589.75
572.626	17706.36
572.987	17793.36
573.349	17825.45
573.71	17830.87
574.071	17922.85
574.432	18080.81
574.794	18227.02
575.155	18257.98
575.516	18344.98
575.877	18416.39
576.238	18497.97
576.599	18726.89
576.96	18745.88
577.32	18803.05
577.681	18944.52
578.042	19103.61
578.403	19230.84
578.763	19296.6
579.124	19529.13
579.485	19632.41
579.845	19825.17
580.206	19866.98
580.566	19988.1
580.927	20166.4
581.287	20350.58
581.648	20533.63
582.008	20693.62
582.368	20842.09
582.728	21061.52
583.089	21149.66
583.449	21349.42
583.809	21556.2
584.169	21814.27
584.529	21893.37
584.889	22274.37
585.249	22329.96
585.609	22428.72
585.969	22807.47
586.329	22847.69
586.688	23313.44
587.048	23384.17
587.408	23533.32
587.768	23734.9
588.127	23914.33
588.487	24319.97
588.846	24635.44
589.206	24652.16
589.565	24898.03
589.925	25220.06
590.284	25358.81
590.643	25677.22
591.003	25988.62
591.362	26209.86
591.721	26493.24
592.08	26773.01
592.44	26996.28
592.799	27258.65
593.158	27470.17
593.517	27642.14
593.876	27911.96
594.235	28162.35
594.593	28361.67
594.952	28713.07
595.311	28718.95
595.67	29130.46
596.029	29575.87
596.387	29752.37
596.746	30013.6
597.104	30099.93
597.463	30376.31
597.822	30615.62
598.18	30818.1
598.538	31057.87
598.897	31489.27
599.255	31339.44
599.613	31988.24
599.972	31951.63
600.33	32295.35
600.688	32432.97
601.046	32665.74
601.404	33023.92
601.762	33176.91
602.12	33372.16
602.478	33654.86
602.836	33731.92
603.194	33837.68
603.552	34050.79
603.91	34131.24
604.268	34522.41
604.625	34568.29
604.983	34893.02
605.341	34880.82
605.698	35272
606.056	35397.19
606.413	35633.12
606.771	35825.2
607.128	35919.44
607.485	35888.25
607.843	36233.33
608.2	36479.65
608.557	36697.95
608.914	36857.04
609.272	37065.85
609.629	37022.91
609.986	37295.9
610.343	37432.39
610.7	37672.39
611.057	37831.03
611.414	37879.39
611.771	38044.58
612.127	38421.74
612.484	38460.16
612.841	38629.87
613.198	38657.22
613.554	38722.75
613.911	39056.53
614.267	38984.67
614.624	39244.77
614.98	39394.6
615.337	39645.89
615.693	39545.78
616.05	39610.19
616.406	39834.36
616.762	39975.6
617.118	39905.55
617.475	40105.77
617.831	40229.15
618.187	40399.09
618.543	40413.56
618.899	40719.99
619.255	40673.89
619.611	40784.39
619.967	40957.72
620.323	40912.53
620.678	40986.65
621.034	40915.24
621.39	41039.98
621.746	41052.18
622.101	41472.29
622.457	41189.13
622.812	41364.04
623.168	41536.69
623.523	41597.25
623.879	41745.95
624.234	41590.02
624.589	41777.59
624.945	41945.04
625.3	41853.74
625.655	41946.17
626.01	42025.72
626.365	42007.19
626.72	42011.25
627.075	42116.11
627.43	42041.31
627.785	42081.31
628.14	42124.25
628.495	42227.97
628.85	42287.41
629.205	42197.01
629.559	42422.09
629.914	42238.37
630.269	42315.88
630.623	42220.51
630.978	42135.32
631.332	42364.24
631.687	42439.27
632.041	42339.83
632.396	42455.54
632.75	42430.9
633.104	42439.04
633.459	42133.28
633.813	42333.28
634.167	42297.12
634.521	42324.47
634.875	42491.24
635.229	42355.43
635.583	42224.58
635.937	42206.5
636.291	42366.05
636.645	42250.34
636.999	42110.23
637.352	42342.32
637.706	42178.71
638.06	42379.15
638.413	42110.69
638.767	41952.5
639.121	42192.49
639.474	42011.25
639.828	42078.82
640.181	42140.06
640.534	42090.57
640.888	41912.95
641.241	41774.42
641.594	41934.42
641.947	42071.37
642.301	41922.22
642.654	41920.64
643.007	42005.38
643.36	42013.51
643.713	41972.39
644.066	42025.49
644.419	41890.13
644.771	41566.97
645.124	41247.66
645.477	41037.95
645.83	40918.4
646.182	40868.01
646.535	40685.87
646.888	40716.37
647.24	40519.32
647.593	40774.9
647.945	40690.61
648.298	40521.8
648.65	40367
649.002	40450.62
649.355	40540.78
649.707	40488.36
650.059	40703.27
650.411	41075.91
650.763	41191.39
651.115	41557.93
651.467	41342.57
651.819	41347.54
652.171	41298.96
652.523	41331.5
652.875	41159.3
653.227	41116.14
653.578	41248.34
653.93	41231.16
654.282	41140.32
654.633	41060.32
654.985	41246.75
655.337	41148.9
655.688	41131.28
656.039	41352.06
656.391	41068.23
656.742	41129.47
657.094	41046.76
657.445	41176.7
657.796	41039.98
658.147	41100.54
658.498	41045.18
658.849	41208.56
659.2	40976.25
659.551	40925.41
659.902	41015.57
660.253	40961.56
660.604	40909.59
660.955	40790.27
661.306	40917.95
661.656	40777.39
662.007	40913.2
662.358	40870.04
662.708	40858.06
663.059	40912.53
663.409	40696.94
663.76	40990.26
664.11	40854.9
664.461	40833.88
664.811	40844.05
665.161	40933.32
665.511	40668.92
665.862	40817.61
666.212	40987.55
666.562	40760.67
666.912	40785.07
667.262	40791.4
667.612	40740.33
667.962	40775.81
668.312	40659.43
668.662	41017.61
669.011	40828.69
669.361	40792.08
669.711	40789.14
670.06	40658.52
670.41	40729.25
670.76	40568.81
671.109	40965.86
671.459	40603.61
671.808	40715.69
672.157	40614.68
672.507	40505.08
672.856	40484.74
673.205	40578.07
673.554	40571.07
673.904	40480.9
674.253	40748.46
674.602	40484.06
674.951	40058.31
675.3	39788.49
675.649	40437.28
675.998	40363.84
676.346	40322.48
676.695	40602.48
677.044	40195.03
677.393	40408.36
677.741	40339.21
678.09	40214.24
678.438	40137.18
678.787	40244.97
679.135	40198.42
679.484	39969.73
679.832	40232.77
680.181	39936.73
680.529	40000.01
680.877	39929.95
681.225	39884.76
681.573	40077.97
681.922	39715.72
682.27	39564.09
682.618	39864.42
682.966	39595.95
683.314	39726.79
683.661	39552.56
684.009	39588.49
684.357	39373.36
684.705	39374.26
685.053	39449.51
685.4	39489.96
685.748	39181.27
686.095	39072.57
686.443	39136.08
686.79	39036.87
687.138	39082.29
687.485	38949.19
687.832	38880.49
688.18	38881.84
688.527	38795.07
688.874	38697.44
689.221	38544.45
689.568	38428.07
689.915	38458.13
690.262	38565.7
690.609	38303.78
690.956	38254.06
691.303	38242.31
691.65	37922.1
691.997	37963
692.344	37906.73
692.69	37686.62
693.037	37779.95
693.383	37448.66
693.73	37779.05
694.077	37373.18
694.423	37384.71
694.769	37283.92
695.116	37251.83
695.462	37063.59
695.808	37000.99
696.155	37097.03
696.501	36855.68
696.847	36935
697.193	36445.75
697.539	36676.48
697.885	36506.31
698.231	36462.93
698.577	36374.11
698.923	36438.29
699.269	36092.54
699.614	36057.96
699.96	35977.29
700.306	35983.39
700.651	35758.76
700.997	35683.96
701.342	35654.13
701.688	35553.57
702.033	35491.88
702.379	35309.28
702.724	35298.44
703.069	35437.64
703.415	34928.5
703.76	34974.38
704.105	35041.95
704.45	35036.07
704.795	34801.95
705.14	34686.02
705.485	34721.28
705.83	34521.28
706.175	34608.51
706.52	34498.46
706.865	34234.96
707.209	34276.54
707.554	34147.51
707.899	34262.98
708.243	34099.15
708.588	33997.91
708.932	33740.06
709.277	33601.08
709.621	33841.53
709.966	33571.7
710.31	33711.59
710.654	33360.63
710.998	33402.89
711.342	33361.09
711.687	33330.13
712.031	33211.49
712.375	33012.39
712.719	33184.59
713.063	33110.92
713.407	33102.56
713.75	32927.88
714.094	32887.88
714.438	32881.78
714.782	32731.27
715.125	32679.3
715.469	32781.21
715.812	32495.8
716.156	32402.47
716.499	32401.56
716.843	32418.74
717.186	32265.52
717.53	32362.02
717.873	32305.97
718.216	32204.51
718.559	32135.58
718.902	31918.19
719.246	32000.44
719.589	31905.08
719.932	31693.11
720.275	31705.54
720.617	31759.09
720.96	31619.89
721.303	31651.3
721.646	31638.42
721.989	31352.33
722.331	31393.23
722.674	31485.66
723.016	31362.27
723.359	31262.61
723.701	31360.91
724.044	31195.27
724.386	31157.98
724.729	31355.26
725.071	31167.02
725.413	30999.34
725.755	31074.59
726.097	30902.85
726.439	30784.43
726.782	30668.5
727.124	30886.57
727.465	30681.83
727.807	30753.47
728.149	30720.25
728.491	30588.28
728.833	30610.88
729.175	30562.06
729.516	30556.64
729.858	30465.34
730.199	30473.93
730.541	30328.4
730.882	30381.73
731.224	30346.02
731.565	30176.31
731.906	30278.91
732.248	30124.79
732.589	30001.4
732.93	29786.49
733.271	29908.52
733.612	30076.88
733.953	29965.7
734.294	29840.95
734.635	29892.7
734.976	29852.93
735.317	29635.08
735.658	29767.96
735.999	29548.3
736.339	29673.27
736.68	29665.36
737.021	29501.3
737.361	29461.53
737.702	29579.04
738.042	29405.03
738.383	29306.96
738.723	29402.77
739.063	29393.51
739.404	29332.49
739.744	29283.23
740.084	29184.47
740.424	29161.2
740.764	29075.32
741.104	29264.92
741.444	29031.03
741.784	28965.5
742.124	28866.52
742.464	28968.66
742.804	28871.49
743.143	28856.35
743.483	28882.56
743.823	28804.14
744.162	28647.99
744.502	28807.53
744.841	28607.99
745.181	28642.57
745.52	28573.87
745.86	28586.07
746.199	28459.97
746.538	28499.52
746.877	28563.25
747.216	28456.13
747.556	28388.34
747.895	28417.49
748.234	28311.28
748.573	28196.02
748.911	28180.21
749.25	28139.53
749.589	28081.45
749.928	28088.91
750.267	28085.29
750.605	27956.71
750.944	27831.06
751.283	27778.86
751.621	27942.92
751.96	27694.79
752.298	27584.97
752.636	27664.51
752.975	27445.31
753.313	27555.82
753.651	27538.87
753.989	27546.78
754.327	27264.75
754.666	27233.56
755.004	27318.76
755.342	27368.25
755.679	27359.21
756.017	27135.49
756.355	27198.54
756.693	26915.15
757.031	27010.74
757.368	26922.84
757.706	26822.5
758.044	26792.22
758.381	26740.02
758.719	26648.04
759.056	26647.36
759.394	26550.19
759.731	26397.65
760.068	26403.98
760.405	26314.49
760.743	26305.68
761.08	26267.49
761.417	26049.87
761.754	25969.64
762.091	25855.07
762.428	25835.18
762.765	25724.68
763.102	25839.48
763.438	25569.43
763.775	25569.43
764.112	25559.03
764.449	25596.32
764.785	25321.52
765.122	25306.61
765.458	25107.97
765.795	25206.95
766.131	25121.75
766.467	25030.23
766.804	24990.23
767.14	24672.95
767.476	24866.17
767.812	24702.1
768.148	24799.73
768.485	24444.71
768.821	24486.97
769.157	24333.75
769.492	24306.63
769.828	24286.52
770.164	24122.91
770.5	24030.03
770.836	24025.29
771.171	23846.99
771.507	23794.11
771.842	23596.6
772.178	23626.88
772.513	23581.68
772.849	23450.61
773.184	23399.99
773.519	23387.11
773.855	23414.23
774.19	23152.77
774.525	23010.17
774.86	23094.69
775.195	22985.54
775.53	22933.56
775.865	22752.78
776.2	22678.88
776.535	22492.22
776.87	22419.68
777.205	22377.19
777.539	22339.23
777.874	22412.67
778.209	22194.37
778.543	22183.75
778.878	22024.44
779.212	22010.65
779.547	21867.6
779.881	21990.54
780.215	21726.59
780.55	21765.01
780.884	21646.82
781.218	21592.13
781.552	21512.81
781.886	21456.77
782.22	21229.88
782.554	21236.21
782.888	20989.21
783.222	21011.81
783.556	20932.26
783.889	20869.89
784.223	20828.53
784.557	20700.4
784.89	20690.01
785.224	20545.83
785.557	20424.7
785.891	20432.16
786.224	20394.65
786.558	20266.52
786.891	20102.45
787.224	20143.81
787.557	20212.28
787.891	20110.36
788.224	19887.77
788.557	19932.96
788.89	19883.02
789.223	19786.53
789.556	19626.08
789.888	19645.29
790.221	19481.45
790.554	19415.01
790.887	19392.87
791.219	19304.96
791.552	19280.33
791.884	19210.5
792.217	19087.56
792.549	18959.43
792.882	18892.77
793.214	18872.65
793.546	18887.12
793.879	18658.2
794.211	18719.44
794.543	18663.17
794.875	18542.94
795.207	18703.17
795.539	18517.86
795.871	18502.27
796.203	18338.66
796.535	18230.18
796.867	18229.73
797.198	18080.58
797.53	18142.96
797.862	18069.28
798.193	18151.32
798.525	17870.19
798.856	18030.87
799.188	17819.12
799.519	17731.21
799.85	17571.67
800.182	17574.38
800.513	17523.08
800.844	17496.19
801.175	17614.16
801.506	17478.11
801.837	17449.87
802.168	17368.29
802.499	17351.56
802.83	17269.53
803.161	17158.57
803.491	17179.14
803.822	17136.2
804.153	17016.66
804.483	16924
804.814	16910.9
805.145	16882.88
805.475	16897.11
805.805	16850.56
806.136	16702.54
806.466	16782.09
806.796	16579.38
807.126	16607.63
807.457	16558.14
807.787	16466.84
808.117	16414.19
808.447	16381.65
808.777	16346.62
809.107	16294.19
809.436	16260.97
809.766	16226.17
810.096	16194.08
810.426	16087.42
810.755	16057.81
811.085	16110.01
811.414	16044.93
811.744	15881.09
812.073	15931.26
812.403	15946.4
812.732	15796.12
813.061	15759.97
813.39	15731.72
813.719	15679.97
814.049	15755.22
814.378	15749.8
814.707	15594.1
815.036	15618.73
815.365	15526.98
815.693	15274.56
816.022	15420.31
816.351	15272.3
816.68	15272.07
817.008	15279.98
817.337	15161.56
817.665	15125.18
817.994	15262.8
818.322	15183.94
818.651	15053.77
818.979	14965.64
819.307	15061.23
819.636	14939.42
819.964	14900.55
820.292	15025.75
820.62	14951.63
820.948	14863.49
821.276	14994.34
821.604	14876.15
821.932	14917.73
822.259	14916.83
822.587	14884.28
822.915	14784.4
823.243	14877.5
823.57	14902.14
823.898	14746.66
824.225	14757.51
824.553	14811.07
824.88	14768.13
825.207	14828.24
825.535	14729.94
825.862	14902.81
826.189	14839.77
826.516	14884.51
826.843	14817.39
827.17	14769.94
827.497	14827.56
827.824	14798.41
828.151	14863.95
828.478	14749.82
828.805	14825.98
829.131	14765.42
829.458	14722.25
829.785	14680
830.111	14757.73
830.438	14924.51
830.764	14762.03
831.09	14802.25
831.417	14698.75
831.743	14680.67
832.069	14721.8
832.395	14737.62
832.722	14645.42
833.048	14745.08
833.374	14756.6
833.7	14599.55
834.026	14667.79
834.351	14632.76
834.677	14598.64
835.003	14600.9
835.329	14562.48
835.654	14547.12
835.98	14520.45
836.306	14574.69
836.631	14403.39
836.956	14547.12
837.282	14503.28
837.607	14380.57
837.932	14407.23
838.258	14420.34
838.583	14394.58
838.908	14321.13
839.233	14392.55
839.558	14287.24
839.883	14214.92
840.208	14230.97
840.533	14237.97
840.858	14114.36
841.182	14169.73
841.507	14162.04
841.832	14129.05
842.156	14014.25
842.481	14036.17
842.805	14034.59
843.13	14007.92
843.454	13974.48
843.778	13876.85
844.103	13875.95
844.427	13801.37
844.751	13822.39
845.075	13775.39
845.399	13815.61
845.723	13600.25
846.047	13703.07
846.371	13526.81
846.695	13598.22
847.019	13414.94
847.343	13461.27
847.666	13395.96
847.99	13289.98
848.313	13305.79
848.637	13121.62
848.96	13181.96
849.284	13108.51
849.607	13002.98
849.931	13019.47
850.254	12909.65
850.577	12830.33
850.9	12768.63
851.223	12741.97
851.546	12711.69
851.869	12646.38
852.192	12702.87
852.515	12568.64
852.838	12511.69
853.161	12516.89
853.483	12430.56
853.806	12331.81
854.129	12338.59
854.451	12325.26
854.774	12262.21
855.096	12189.89
855.419	12171.59
855.741	12151.25
856.063	12121.42
856.385	12086.39
856.708	12085.49
857.03	12037.13
857.352	11959.16
857.674	11868.77
857.996	11934.3
858.318	11848.43
858.64	11796.23
858.961	11868.54
859.283	11727.08
859.605	11705.38
859.926	11696.12
860.248	11696.8
860.57	11741.09
860.891	11636.46
861.212	11576.57
861.534	11561.89
861.855	11493.64
862.176	11493.19
862.498	11526.63
862.819	11530.47
863.14	11490.25
863.461	11443.24
863.782	11442.34
864.103	11422.91
864.424	11295
864.745	11368.22
865.065	11332.06
865.386	11249.58
865.707	11261.1
866.027	11269.69
866.348	11229.46
866.668	11199.41
866.989	11116.02
867.309	11025.85
867.63	11179.07
867.95	11170.94
868.27	11033.99
868.59	11026.53
868.91	11018.62
869.23	10984.05
869.55	10945.4
869.87	11030.15
870.19	10949.25
870.51	10959.64
870.83	10949.92
871.15	10857.72
871.469	10891.17
871.789	10922.35
872.109	10898.85
872.428	10777.05
872.748	10839.19
873.067	10892.07
873.386	10881.9
873.706	10832.64
874.025	10746.09
874.344	10772.98
874.663	10733.43
874.982	10746.77
875.301	10671.97
875.62	10662.25
875.939	10656.15
876.258	10682.13
876.577	10612.98
876.896	10630.61
877.214	10609.14
877.533	10615.24
877.852	10509.94
878.17	10537.96
878.489	10530.73
878.807	10519.65
879.125	10478.98
879.444	10460.22
879.762	10447.79
880.08	10369.15
880.398	10417.06
880.716	10448.47
881.034	10353.33
881.352	10331.18
881.67	10313.33
881.988	10355.36
882.306	10260
882.624	10231.07
882.941	10190.85
883.259	10119.89
883.577	10229.04
883.894	10089.61
884.212	10142.49
884.529	10055.48
884.846	10077.18
885.164	10036.73
885.481	10032.43
885.798	10082.83
886.115	9957.18
886.432	9887.35
886.75	9903.62
887.067	9900.91
887.383	9927.8
887.7	9926
888.017	9894.13
888.334	9810.97
888.651	9818.2
888.967	9770.97
889.284	9681.48
889.6	9703.86
889.917	9699.34
890.233	9721.03
890.55	9644.42
890.866	9585.89
891.182	9551.54
891.498	9540.7
891.815	9513.8
892.131	9510.87
892.447	9435.39
892.763	9480.36
893.079	9437.65
893.395	9354.94
893.71	9345.67
894.026	9312.23
894.342	9287.82
894.657	9200.14
894.973	9232.91
895.289	9210.53
895.604	9196.07
895.92	9077.2
896.235	9105.68
896.55	9090.09
896.865	9032.91
897.181	9020.71
897.496	9051.89
897.811	9039.92
898.126	8916.98
898.441	8918.11
898.756	8832.24
899.071	8863.2
899.386	8853.71
899.7	8778.23
900.015	8821.62
900.33	8700.94
900.644	8674.28
900.959	8655.97
901.273	8626.14
901.588	8619.59
901.902	8612.58
902.216	8549.08
902.531	8513.83
902.845	8537.56
903.159	8434.28
903.473	8402.42
903.787	8380.5
904.101	8339.37
904.415	8365.36
904.729	8325.59
905.042	8270.9
905.356	8227.28
905.67	8216.66
905.984	8169.88
906.297	8115.42
906.611	8113.61
906.924	8089.89
907.237	8095.31
907.551	8052.37
907.864	7993.84
908.177	7980.28
908.491	7914.52
908.804	7906.84
909.117	7870.91
909.43	7806.5
909.743	7785.26
910.056	7839.05
910.368	7739.39
910.681	7717.24
910.994	7754.08
911.307	7628.43
911.619	7627.3
911.932	7611.93
912.244	7502.11
912.557	7529.45
912.869	7497.59
913.181	7404.03
913.494	7434.08
913.806	7421.88
914.118	7421.2
914.43	7336.23
914.742	7333.97
915.054	7330.36
915.366	7279.06
915.678	7244.94
915.99	7235.67
916.302	7102.34
916.613	7117.71
916.925	7092.17
917.236	7086.75
917.548	7040.2
917.859	6980.76
918.171	6941.67
918.482	6931.05
918.794	6930.82
919.105	6917.71
919.416	6814.21
919.727	6826.64
920.038	6837.49
920.349	6757.94
920.66	6723.37
920.971	6697.38
921.282	6681.34
921.593	6636.59
921.903	6611.96
922.214	6593.2
922.525	6539.64
922.835	6507.78
923.146	6528.35
923.456	6460.32
923.767	6499.19
924.077	6430.95
924.387	6441.34
924.697	6358.63
925.008	6379.65
925.318	6321.57
925.628	6346.88
925.938	6262.59
926.248	6224.4
926.558	6229.37
926.867	6219.43
927.177	6138.98
927.487	6221.69
927.796	6080.45
928.106	6064.85
928.416	6110.73
928.725	6051.07
929.034	5977.85
929.344	6058.98
929.653	6031.41
929.962	5941.92
930.271	5925.65
930.581	5907.34
930.89	5810.85
931.199	5828.7
931.508	5776.73
931.817	5802.26
932.125	5770.85
932.434	5745.54
932.743	5686.33
933.051	5696.73
933.36	5693.56
933.669	5638.2
933.977	5595.94
934.286	5594.58
934.594	5600.23
934.902	5582.38
935.21	5542.83
935.519	5513.68
935.827	5479.56
936.135	5499.45
936.443	5413.12
936.751	5348.04
937.059	5386.23
937.367	5375.61
937.674	5366.79
937.982	5365.66
938.29	5279.56
938.597	5314.37
938.905	5223.97
939.213	5216.74
939.52	5194.37
939.827	5161.15
940.135	5127.25
940.442	5113.47
940.749	5078.44
941.056	5089.74
941.363	5040.47
941.67	5007.48
941.977	5012.68
942.284	4986.01
942.591	4976.07
942.898	4969.97
943.205	4965.22
943.511	4962.74
943.818	4878.45
944.125	4847.49
944.431	4854.94
944.738	4821.05
945.044	4836.41
945.35	4738.11
945.657	4705.79
945.963	4735.4
946.269	4697.66
946.575	4710.54
946.881	4661.28
947.187	4677.55
947.493	4632.35
947.799	4567.72
948.105	4576.98
948.41	4610.2
948.716	4619.47
949.022	4558
949.327	4535.4
949.633	4475.74
949.938	4513.48
950.244	4475.29
950.549	4441.85
950.854	4394.39
951.16	4395.75
951.465	4418.12
951.77	4371.34
952.075	4362.3
952.38	4373.37
952.685	4337.89
952.99	4344.22
953.294	4254.73
953.599	4270.78
953.904	4237.11
954.209	4192.14
954.513	4156.43
954.818	4186.03
955.122	4201.17
955.426	4159.37
955.731	4178.58
956.035	4091.57
956.339	4119.37
956.643	4084.34
956.948	4054.74
957.252	4074.62
957.556	4016.55
957.86	4005.02
958.163	4027.39
958.467	3978.36
958.771	3963.44
959.075	3951.69
959.378	3908.3
959.682	3952.14
959.985	3937
960.289	3899.94
960.592	3878.02
960.896	3816.78
961.199	3826.95
961.502	3821.07
961.805	3801.19
962.108	3749.44
962.411	3793.73
962.714	3730.9
963.017	3718.25
963.32	3769.77
963.623	3705.14
963.926	3665.6
964.228	3675.99
964.531	3643.9
964.833	3662.66
965.136	3618.82
965.438	3602.32
965.741	3583.11
966.043	3608.65
966.345	3526.39
966.648	3538.82
966.95	3546.05
967.252	3478.48
967.554	3493.4
967.856	3467.86
968.158	3492.49
968.46	3445.26
968.761	3427.64
969.063	3405.49
969.365	3389.67
969.666	3334.3
969.968	3340.18
970.269	3332.95
970.571	3365.26
970.872	3306.96
971.174	3307.41
971.475	3334.98
971.776	3301.09
972.077	3266.06
972.378	3231.26
972.679	3250.01
972.98	3202.33
973.281	3211.37
973.582	3209.79
973.883	3235.32
974.183	3184.48
974.484	3124.14
974.785	3139.96
975.085	3173.63
975.386	3128.21
975.686	3100.41
975.986	3083.46
976.287	3099.06
976.587	3057.02
976.887	3022.67
977.187	3038.49
977.487	3024.48
977.787	3025.39
978.087	3027.42
978.387	2987.65
978.687	2956.69
978.987	2988.33
979.286	2900.87
979.586	2910.36
979.885	2919.85
980.185	2880.53
980.484	2910.81
980.784	2867.2
981.083	2857.71
981.382	2871.94
981.682	2848.44
981.981	2823.58
982.28	2803.02
982.579	2830.59
982.878	2834.66
983.177	2775.22
983.475	2773.19
983.774	2713.3
984.073	2749.01
984.372	2712.85
984.67	2675.57
984.969	2682.8
985.267	2722.34
985.566	2670.14
985.864	2664.04
986.162	2675.11
986.461	2640.31
986.759	2639.18
987.057	2627.43
987.355	2588.34
987.653	2591.05
987.951	2566.42
988.249	2578.39
988.547	2545.4
988.844	2537.26
989.142	2541.78
989.44	2509.69
989.737	2533.65
990.035	2495.46
990.332	2492.97
990.63	2490.03
990.927	2475.34
991.224	2499.3
991.521	2454.55
991.819	2473.31
992.116	2417.72
992.413	2423.37
992.71	2383.14
993.006	2402.35
993.303	2381.56
993.6	2407.55
993.897	2377.95
994.193	2366.42
994.49	2338.17
994.787	2342.69
995.083	2329.13
995.379	2319.42
995.676	2279.42
995.972	2271.28
996.268	2247.33
996.565	2239.42
996.861	2232.87
997.157	2227.67
997.453	2224.5
997.749	2197.16
998.044	2190.61
998.34	2217.72
998.636	2177.5
998.932	2202.13
999.227	2158.06
999.523	2150.61
999.818	2136.37
1000.114	2109.93
1000.409	2118.52
1000.704	2133.21
1001	2088.91
1001.295	2088.24
1001.59	2080.78
1001.885	2063.6
1002.18	2063.38
1002.475	2057.5
1002.77	2000.78
1003.065	2041.01
1003.359	2012.31
1003.654	2003.04
1003.949	2002.81
1004.243	1977.05
1004.538	1959.43
1004.832	1981.12
1005.127	1942.93
1005.421	1945.64
1005.715	1944.06
1006.009	1924.85
1006.304	1921.69
1006.598	1876.94
1006.892	1872.65
1007.186	1865.87
1007.48	1845.3
1007.773	1831.97
1008.067	1859.09
1008.361	1839.66
1008.655	1799.43
1008.948	1818.19
1009.242	1811.63
1009.535	1796.94
1009.829	1756.95
1010.122	1774.12
1010.415	1757.62
1010.708	1772.76
1011.001	1738.19
1011.295	1728.92
1011.588	1719.21
1011.881	1681.24
1012.173	1709.49
1012.466	1701.81
1012.759	1682.82
1013.052	1682.6
1013.344	1641.47
1013.637	1633.33
1013.93	1632.2
1014.222	1615.48
1014.514	1623.62
1014.807	1622.94
1015.099	1601.92
1015.391	1592.66
1015.683	1624.97
1015.976	1561.02
1016.268	1568.25
1016.56	1557.18
1016.851	1564.41
1017.143	1521.02
1017.435	1506.78
1017.727	1532.54
1018.018	1509.95
1018.31	1505.65
1018.602	1510.62
1018.893	1485.99
1019.185	1473.34
1019.476	1478.31
1019.767	1484.64
1020.058	1444.86
1020.35	1437.63
1020.641	1421.81
1020.932	1416.39
1021.223	1385.2
1021.514	1388.14
1021.804	1360.35
1022.095	1390.63
1022.386	1361.7
1022.677	1380.46
1022.967	1329.84
1023.258	1340.46
1023.548	1369.38
1023.839	1331.42
1024.129	1305.66
1024.419	1300.69
1024.709	1287.13
1025	1294.81
1025.29	1281.03
1025.58	1294.36
1025.87	1289.84
1026.16	1237.64
1026.449	1243.06
1026.739	1243.96
1027.029	1241.25
1027.319	1235.38
1027.608	1210.52
1027.898	1227.02
1028.187	1200.12
1028.477	1204.64
1028.766	1208.49
1029.055	1193.12
1029.344	1166
1029.634	1150.41
1029.923	1146.57
1030.212	1151.09
1030.501	1131.88
1030.79	1118.77
1031.078	1151.31
1031.367	1144.98
1031.656	1105.89
1031.945	1126
1032.233	1093.46
1032.522	1088.04
1032.81	1122.16
1033.099	1071.09
1033.387	1062.27
1033.675	1074.03
1033.963	1064.53
1034.251	1040.81
1034.54	1058.21
1034.828	1040.58
1035.116	1014.82
1035.403	1026.34
1035.691	1028.6
1035.979	981.6
1036.267	1009.39
1036.554	991.32
1036.842	980.92
1037.129	996.97
1037.417	982.5
1037.704	970.53
1037.992	990.19
1038.279	967.81
1038.566	970.07
1038.853	970.07
1039.14	970.07
