Data from hue_320_FLMS001491_40.txt Node
Date: Mon Feb 06 15:47:08 GMT 2017
User: dcchb
Spectrometer: FLMS00149
Trigger mode: 0
Integration Time (sec): 2.000000E-2
Scans to average: 10
Electric dark correction enabled: true
Nonlinearity correction enabled: false
Boxcar width: 0
XAxis mode: Wavelengths
Number of Pixels in Spectrum: 2048
>>>>>Begin Spectral Data<<<<<
341.393	0.56
341.776	0.56
342.16	0.56
342.543	-30.17
342.927	-62.71
343.31	-68.81
343.693	-82.37
344.077	-93.44
344.46	-76.95
344.843	-67.23
345.226	-31.07
345.61	-27.68
345.993	-9.15
346.376	4.63
346.759	26.78
347.142	48.7
347.525	57.29
347.908	42.6
348.291	67
348.674	93.44
349.057	116.27
349.44	138.41
349.823	134.8
350.206	153.33
350.588	205.76
350.971	205.31
351.354	222.71
351.737	232.88
352.119	271.52
352.502	243.72
352.884	281.24
353.267	273.78
353.65	307.9
354.032	296.6
354.414	320.78
354.797	316.94
355.179	328.47
355.562	321.01
355.944	309.94
356.326	341.8
356.709	335.25
357.091	334.57
357.473	318.3
357.855	352.65
358.238	344.28
358.62	350.84
359.002	355.81
359.384	330.05
359.766	362.82
360.148	341.8
360.53	321.23
360.912	351.06
361.294	326.43
361.676	323.72
362.057	324.62
362.439	338.64
362.821	329.6
363.203	349.93
363.584	338.41
363.966	328.01
364.348	328.92
364.729	314.91
365.111	315.36
365.493	324.4
365.874	324.17
366.256	320.78
366.637	306.77
367.019	314.23
367.4	310.61
367.781	337.05
368.163	312.65
368.544	302.93
368.925	309.03
369.306	329.6
369.688	310.61
370.069	305.87
370.45	320.33
370.831	307.45
371.212	322.36
371.593	327.34
371.974	316.71
372.355	317.17
372.736	292.76
373.117	319.65
373.498	321.46
373.879	317.84
374.26	321.23
374.641	329.6
375.021	307.45
375.402	343.61
375.783	331.63
376.163	325.53
376.544	327.56
376.925	339.09
377.305	326.43
377.686	325.3
378.066	318.75
378.447	334.12
378.827	328.92
379.208	327.79
379.588	350.16
379.968	322.59
380.349	311.29
380.729	319.43
381.109	339.77
381.489	340.22
381.87	342.02
382.25	336.15
382.63	338.86
383.01	356.71
383.39	330.5
383.77	342.93
384.15	354.23
384.53	335.02
384.91	351.52
385.29	361.01
385.67	368.01
386.049	358.07
386.429	349.48
386.809	354.91
387.189	358.52
387.568	358.97
387.948	352.42
388.328	352.19
388.707	350.16
389.087	348.58
389.466	367.11
389.846	374.79
390.225	348.58
390.605	391.52
390.984	335.92
391.363	367.33
391.743	367.79
392.122	368.46
392.501	367.79
392.881	354
393.26	377.5
393.639	383.38
394.018	383.38
394.397	367.79
394.776	374.57
395.155	406.43
395.534	385.64
395.913	387.9
396.292	368.24
396.671	365.75
397.05	385.87
397.429	403.94
397.808	374.79
398.186	406.66
398.565	391.97
398.944	393.32
399.323	404.17
399.701	383.15
400.08	379.09
400.458	419.09
400.837	398.75
401.215	411.63
401.594	402.36
401.972	392.19
402.351	424.51
402.729	419.31
403.107	402.59
403.486	414.11
403.864	399.88
404.242	445.53
404.62	432.87
404.999	418.63
405.377	396.26
405.755	421.34
406.133	441.68
406.511	432.19
406.889	435.13
407.267	426.32
407.645	451.85
408.023	454.11
408.401	451.85
408.779	447.11
409.156	472.19
409.534	466.99
409.912	470.61
410.29	478.52
410.667	497.05
411.045	459.99
411.422	482.81
411.8	488.69
412.178	515.35
412.555	514.45
412.933	503.83
413.31	507.44
413.687	522.13
414.065	522.36
414.442	543.38
414.819	539.99
415.197	550.83
415.574	560.1
415.951	551.74
416.328	555.13
416.705	563.04
417.082	566.2
417.46	580.44
417.837	597.84
418.214	588.57
418.591	606.65
418.967	615.46
419.344	641.23
419.721	611.85
420.098	612.3
420.475	627.22
420.852	644.62
421.228	634.45
421.605	642.58
421.982	659.98
422.358	649.59
422.735	675.12
423.111	666.08
423.488	669.93
423.864	675.8
424.241	706.99
424.617	720.32
424.994	703.15
425.37	696.14
425.746	729.13
426.123	730.49
426.499	720.32
426.875	731.39
427.251	759.87
427.627	745.63
428.003	774.1
428.379	760.32
428.756	773.43
429.132	771.84
429.507	773.43
429.883	811.84
430.259	796.93
430.635	806.19
431.011	831.28
431.387	831.5
431.763	838.51
432.138	861.33
432.514	864.5
432.89	873.08
433.265	889.36
433.641	895.46
434.016	883.03
434.392	897.04
434.767	911.05
435.143	896.36
435.518	928.45
435.894	921.67
436.269	954.89
436.644	941.11
437.02	979.3
437.395	925.74
437.77	949.24
438.145	997.15
438.52	973.42
438.895	993.31
439.271	993.99
439.646	1013.65
440.021	1034.44
440.395	1015.91
440.77	1011.61
441.145	1041.67
441.52	1063.59
441.895	1059.29
442.27	1059.97
442.645	1060.88
443.019	1097.71
443.394	1074.21
443.769	1060.65
444.143	1079.63
444.518	1093.19
444.892	1115.56
445.267	1097.71
445.641	1101.78
446.016	1120.08
446.39	1093.19
446.764	1110.37
447.139	1119.41
447.513	1110.59
447.887	1138.61
448.262	1106.07
448.636	1114.89
449.01	1142
449.384	1161.66
449.758	1167.31
450.132	1134.77
450.506	1184.04
450.88	1191.04
451.254	1154.88
451.628	1183.58
452.002	1185.84
452.376	1176.13
452.75	1224.49
453.123	1194.43
453.497	1224.94
453.871	1238.05
454.244	1229.01
454.618	1240.31
454.992	1277.37
455.365	1244.6
455.739	1286.63
456.112	1288.89
456.486	1300.64
456.859	1287.08
457.232	1304.26
457.606	1325.73
457.979	1316.69
458.352	1326.63
458.725	1349
459.099	1383.35
459.472	1387.42
459.845	1390.36
460.218	1384.26
460.591	1402.56
460.964	1396.91
461.337	1431.04
461.71	1426.52
462.083	1452.28
462.456	1463.35
462.829	1456.8
463.201	1452.28
463.574	1455.67
463.947	1494.99
464.32	1510.81
464.692	1501.99
465.065	1520.52
465.438	1569.79
465.81	1555.1
466.183	1551.48
466.555	1589
466.928	1603.46
467.3	1609.34
467.672	1611.6
468.045	1613.4
468.417	1642.1
468.789	1669.9
469.161	1677.13
469.534	1703.8
469.906	1731.59
470.278	1709.67
470.65	1758.94
471.022	1783.57
471.394	1791.7
471.766	1785.83
472.138	1789.22
472.51	1828.09
472.882	1821.31
473.253	1871.93
473.625	1871.02
473.997	1892.72
474.369	1929.78
474.74	1941.53
475.112	1958.48
475.484	2019.49
475.855	2004.13
476.227	2027.18
476.598	2081.64
476.97	2063.79
477.341	2117.57
477.713	2144.01
478.084	2123.67
478.455	2143.79
478.827	2178.13
479.198	2232.82
479.569	2236.66
479.94	2302.65
480.311	2320.73
480.682	2319.37
481.053	2354.63
481.424	2423.55
481.795	2401.86
482.166	2453.83
482.537	2466.94
482.908	2490.89
483.279	2515.98
483.65	2552.59
484.021	2567.96
484.391	2619.25
484.762	2637.56
485.133	2672.59
485.503	2705.13
485.874	2701.96
486.244	2724.79
486.615	2791.9
486.985	2801.17
487.356	2893.37
487.726	2875.74
488.097	2905.12
488.467	2909.19
488.837	2963.2
489.207	2969.53
489.578	2991.9
489.948	3030.77
490.318	3072.8
490.688	3054.04
491.058	3114.16
491.428	3155.51
491.798	3184.89
492.168	3212.46
492.538	3213.36
492.908	3241.16
493.278	3300.14
493.648	3279.12
494.017	3341.27
494.387	3354.38
494.757	3358.67
495.126	3413.58
495.496	3441.38
495.866	3422.62
496.235	3459.46
496.605	3498.78
496.974	3524.77
497.344	3513.92
497.713	3500.13
498.082	3573.58
498.452	3580.81
498.821	3590.75
499.19	3578.55
499.559	3644.31
499.928	3675.72
500.298	3648.6
500.667	3685.89
501.036	3705.55
501.405	3686.34
501.774	3715.5
502.143	3685.67
502.512	3783.97
502.88	3765.89
503.249	3756.85
503.618	3828.03
503.987	3800.92
504.356	3830.75
504.724	3882.5
505.093	3867.13
505.462	3851.09
505.83	3867.13
506.199	3936.28
506.567	3938.99
506.936	3913.91
507.304	4004.08
507.672	4001.14
508.041	3995.49
508.409	4015.37
508.777	4050.18
509.145	4048.82
509.514	4012.44
509.882	4038.65
510.25	4046.11
510.618	4057.86
510.986	4038.2
511.354	4056.28
511.722	4117.74
512.09	4165.65
512.458	4153
512.826	4133.56
513.193	4177.86
513.561	4183.51
513.929	4230.06
514.297	4214.69
514.664	4195.03
515.032	4242.49
515.4	4228.7
515.767	4281.81
516.135	4284.97
516.502	4245.43
516.869	4257.85
517.237	4338.53
517.604	4272.32
517.972	4314.35
518.339	4324.07
518.706	4367.23
519.073	4373.78
519.44	4406.1
519.808	4440.45
520.175	4402.26
520.542	4456.94
520.909	4438.87
521.276	4438.41
521.643	4504.63
522.009	4444.97
522.376	4562.93
522.743	4517.73
523.11	4553.44
523.477	4564.51
523.843	4565.42
524.21	4630.95
524.577	4664.4
524.943	4698.29
525.31	4670.5
525.676	4733.32
526.043	4732.64
526.409	4768.35
526.776	4819.87
527.142	4762.25
527.508	4831.4
527.874	4875.01
528.241	4804.51
528.607	4863.94
528.973	4905.52
529.339	4955.46
529.705	4948.91
530.071	4988.23
530.437	5023.48
530.803	4978.06
531.169	5068.45
531.535	5032.98
531.901	5070.94
532.267	5033.43
532.632	5142.58
532.998	5122.24
533.364	5187.55
533.73	5187.55
534.095	5211.73
534.461	5242.24
534.826	5275.68
535.192	5246.3
535.557	5325.4
535.923	5335.57
536.288	5344.83
536.653	5331.95
537.019	5317.26
537.384	5413.76
537.749	5404.72
538.114	5447.65
538.479	5428.44
538.845	5467.77
539.21	5481.78
539.575	5498.73
539.94	5510.25
540.305	5530.14
540.67	5530.59
541.034	5576.69
541.399	5631.15
541.764	5626.41
542.129	5695.78
542.494	5660.08
542.858	5674.54
543.223	5743.46
543.587	5753.63
543.952	5783.24
544.316	5783.92
544.681	5757.02
545.045	5828.89
545.41	5896.68
545.774	5898.26
546.138	5877.25
546.503	5906.62
546.867	5925.61
547.231	5950.92
547.595	6011.48
547.959	5999.05
548.324	6043.34
548.688	6063.46
549.052	6068.65
549.416	6085.6
549.779	6074.08
550.143	6122.66
550.507	6127.41
550.871	6179.16
551.235	6157.01
551.599	6249.89
551.962	6269.55
552.326	6231.14
552.689	6300.29
553.053	6291.92
553.417	6241.08
553.78	6345.48
554.143	6323.56
554.507	6406.27
554.87	6382.54
555.234	6449.21
555.597	6450.56
555.96	6453.95
556.323	6408.76
556.686	6509.77
557.05	6508.42
557.413	6502.77
557.776	6512.26
558.139	6555.19
558.502	6542.54
558.865	6578.25
559.228	6642.2
559.59	6670.22
559.953	6655.76
560.316	6713.61
560.679	6675.87
561.041	6783.44
561.404	6772.36
561.767	6819.37
562.129	6793.15
562.492	6817.79
562.854	6826.15
563.217	6802.65
563.579	6892.14
563.941	6893.94
564.304	6932.59
564.666	7030.44
565.028	6970.1
565.39	7041.74
565.753	7001.28
566.115	6981.85
566.477	7099.14
566.839	7066.59
567.201	7151.34
567.563	7175.29
567.925	7196.08
568.287	7152.92
568.648	7180.72
569.01	7249.87
569.372	7330.54
569.734	7339.81
570.095	7294.16
570.457	7338.9
570.819	7387.49
571.18	7414.61
571.542	7403.53
571.903	7505
572.265	7576.18
572.626	7590.87
572.987	7595.17
573.349	7559.01
573.71	7685.11
574.071	7714.26
574.432	7790.64
574.794	7893.01
575.155	7910.41
575.516	7972.56
575.877	8043.97
576.238	8050.3
576.599	8122.39
576.96	8151.76
577.32	8318.99
577.681	8261.14
578.042	8408.93
578.403	8504.07
578.763	8565.54
579.124	8691.18
579.485	8729.83
579.845	8869.03
580.206	8924.85
580.566	9017.5
580.927	9177.05
581.287	9288.91
581.648	9378.62
582.008	9513.31
582.368	9650.71
582.728	9806.41
583.089	9961.88
583.449	10057.48
583.809	10226.28
584.169	10439.84
584.529	10518.48
584.889	10857.91
585.249	10851.13
585.609	11018.58
585.969	11348.06
586.329	11506.93
586.688	11712.12
587.048	11902.85
587.408	12110.3
587.768	12377.87
588.127	12559.78
588.487	12730.4
588.846	13125.87
589.206	13294
589.565	13545.52
589.925	13873.19
590.284	14068.67
590.643	14351.6
591.003	14704.13
591.362	14867.07
591.721	15146.38
592.08	15392.02
592.44	15707.72
592.799	15977.77
593.158	16197.2
593.517	16513.8
593.876	16803.96
594.235	17102.04
594.593	17380.22
594.952	17668.12
595.311	17987.89
595.67	18232.4
596.029	18680.07
596.387	18850.24
596.746	19319.38
597.104	19448.42
597.463	19775.19
597.822	20183.31
598.18	20307.38
598.538	20647.48
598.897	21093.57
599.255	21144.64
599.613	21691.97
599.972	21815.58
600.33	22209.25
600.688	22413.76
601.046	22625.28
601.404	23120.64
601.762	23287.18
602.12	23643.79
602.478	23877
602.836	24076.77
603.194	24165.35
603.552	24587.26
603.91	24885.79
604.268	25158.77
604.625	25210.3
604.983	25597.18
605.341	25794.91
605.698	26262.7
606.056	26408.23
606.413	26712.63
606.771	26925.05
607.128	27274.2
607.485	27256.8
607.843	27516.45
608.2	27926.84
608.557	28249.77
608.914	28273.04
609.272	28491.34
609.629	28870.99
609.986	29195.96
610.343	29172.45
610.7	29588.04
611.057	29790.52
611.414	29890.17
611.771	30120
612.127	30378.07
612.484	30532.87
612.841	30702.58
613.198	30873.2
613.554	30997.94
613.911	31439.06
614.267	31503.24
614.624	31677.25
614.98	31776
615.337	32162.88
615.693	32069.55
616.05	32325.14
616.406	32580.95
616.762	32565.58
617.118	32692.13
617.475	32951.79
617.831	33174.83
618.187	33294.15
618.543	33451.21
618.899	33711.09
619.255	33792.67
619.611	33825.21
619.967	34062.49
620.323	34159.67
620.678	34161.47
621.034	34279.66
621.39	34399.21
621.746	34483.95
622.101	34895.01
622.457	34697.51
622.812	34974.79
623.168	35087.33
623.523	35092.52
623.879	35353.76
624.234	35211.84
624.589	35431.27
624.945	35349.69
625.3	35546.52
625.655	35687.31
626.01	35637.59
626.365	35862.67
626.72	35927.98
627.075	35930.47
627.43	35954.2
627.785	35923.91
628.14	35955.33
628.495	36152.38
628.85	36050.46
629.205	35957.59
629.559	36350.57
629.914	36191.48
630.269	36379.72
630.623	36360.29
630.978	36255.66
631.332	36512.15
631.687	36578.81
632.041	36448.65
632.396	36661.07
632.75	36425.37
633.104	36580.62
633.459	36465.37
633.813	36619.26
634.167	36596.89
634.521	36595.53
634.875	36652.26
635.229	36587.85
635.583	36530.23
635.937	36683.44
636.291	36555.76
636.645	36652.71
636.999	36549.66
637.352	36699.49
637.706	36523.45
638.06	36806.38
638.413	36591.92
638.767	36607.06
639.121	36686.61
639.474	36557.57
639.828	36617
640.181	36516.44
640.534	36693.61
640.888	36487.29
641.241	36440.74
641.594	36554.18
641.947	36572.71
642.301	36503.11
642.654	36516.67
643.007	36642.31
643.36	36567.51
643.713	36507.18
644.066	36564.58
644.419	36297.92
644.771	36150.57
645.124	35905.16
645.477	35878.04
645.83	35550.82
646.182	35636.24
646.535	35478.95
646.888	35523.25
647.24	35348.34
647.593	35630.36
647.945	35544.26
648.298	35474.89
648.65	35331.61
649.002	35294.33
649.355	35421.33
649.707	35440.54
650.059	35506.52
650.411	35799.85
650.763	35950.35
651.115	36308.99
651.467	36235.54
651.819	36292.04
652.171	36228.09
652.523	35990.58
652.875	36139.28
653.227	35979.28
653.578	36231.48
653.93	36041.2
654.282	35831.94
654.633	35841.43
654.985	35971.6
655.337	35936.34
655.688	36051.37
656.039	36105.38
656.391	35813.41
656.742	35954.87
657.094	35853.41
657.445	36036.68
657.796	35861.99
658.147	35805.5
658.498	35913.74
658.849	35865.16
659.2	35934.99
659.551	35793.07
659.902	35868.1
660.253	35824.26
660.604	35884.82
660.955	35757.59
661.306	35892.5
661.656	35782.67
662.007	35835.55
662.358	35799.4
662.708	35880.3
663.059	35841.88
663.409	35646.86
663.76	35828.32
664.11	35713.07
664.461	35839.85
664.811	35926.63
665.161	35737.93
665.511	35683.47
665.862	35794.88
666.212	35768.21
666.562	35999.62
666.912	35716.91
667.262	35741.09
667.612	35709.68
667.962	35765.95
668.312	35675.56
668.662	35885.05
669.011	35762.79
669.361	35682.34
669.711	35527.09
670.06	35693.19
670.41	35511.04
670.76	35572.06
671.109	35654.99
671.459	35631.27
671.808	35556.69
672.157	35597.82
672.507	35372.97
672.856	35434.66
673.205	35518.28
673.554	35536.13
673.904	35366.41
674.253	35597.6
674.602	35533.42
674.951	35036.48
675.3	34887.56
675.649	35391.5
675.998	35306.3
676.346	35332.97
676.695	35431.5
677.044	35183.82
677.393	35342.46
677.741	35492.06
678.09	35290.94
678.438	35155.12
678.787	35245.51
679.135	35146.31
679.484	34998.51
679.832	34986.99
680.181	34996.93
680.529	35058.63
680.877	35034.67
681.225	35022.92
681.573	35138.17
681.922	34838.74
682.27	34651.41
682.618	34764.4
682.966	34749.48
683.314	34849.82
683.661	34575.48
684.009	34474.91
684.357	34465.42
684.705	34344.52
685.053	34422.26
685.4	34354.01
685.748	34103.62
686.095	34145.43
686.443	34089.84
686.79	34093.68
687.138	34217.29
687.485	34221.59
687.832	34022.95
688.18	34073.34
688.527	33740.47
688.874	33815.04
689.221	33774.59
689.568	33734.14
689.915	33629.51
690.262	33604.65
690.609	33464.77
690.956	33410.31
691.303	33414.38
691.65	33167.83
691.997	33183.2
692.344	33160.82
692.69	32935.52
693.037	33070.66
693.383	32865.69
693.73	32907.04
694.077	32748.4
694.423	32726.94
694.769	32651.46
695.116	32557.68
695.462	32544.57
695.808	32455.98
696.155	32517.9
696.501	32293.5
696.847	32304.35
697.193	31953.17
697.539	32162.66
697.885	31985.26
698.231	31898.03
698.577	31777.81
698.923	31683.35
699.269	31734.87
699.614	31461.66
699.96	31456.01
700.306	31440.64
700.651	31298.27
700.997	31209.24
701.342	31164.04
701.688	31103.48
702.033	31044.27
702.379	31020.99
702.724	30891.05
703.069	30934.67
703.415	30629.59
703.76	30571.51
704.105	30604.73
704.45	30561.34
704.795	30305.53
705.14	30281.58
705.485	30350.05
705.83	30188.7
706.175	30320.45
706.52	30201.8
706.865	30018.31
707.209	30057.85
707.554	29906.22
707.899	29952.77
708.243	29786.67
708.588	29755.71
708.932	29513.01
709.277	29651.31
709.621	29637.75
709.966	29332.9
710.31	29441.6
710.654	29234.82
710.998	29377.87
711.342	29150.98
711.687	29057.88
712.031	28887.94
712.375	28842.97
712.719	28995.96
713.063	28935.62
713.407	28871.44
713.75	28711.67
714.094	28739.24
714.438	28609.53
714.782	28552.58
715.125	28552.13
715.469	28553.49
715.812	28402.08
716.156	28148.07
716.499	28426.48
716.843	28311.46
717.186	28013.84
717.53	28298.35
717.873	28327.96
718.216	28191.24
718.559	28083.22
718.902	27821.75
719.246	28024.01
719.589	27747.18
719.932	27797.12
720.275	27801.42
720.617	27695.88
720.96	27676.22
721.303	27659.05
721.646	27561.2
721.989	27556.22
722.331	27588.09
722.674	27451.59
723.016	27398.26
723.359	27422.67
723.701	27419.05
724.044	27323.24
724.386	26987.65
724.729	27206.18
725.071	27137.7
725.413	27102.45
725.755	27075.33
726.097	27027.2
726.439	26837.83
726.782	26879.41
727.124	26981.78
727.465	26829.92
727.807	26890.03
728.149	26822.68
728.491	26676.7
728.833	26737.49
729.175	26668.34
729.516	26670.37
729.858	26509.25
730.199	26546.53
730.541	26522.58
730.882	26586.98
731.224	26529.13
731.565	26340.66
731.906	26358.97
732.248	26318.07
732.589	26134.79
732.93	26158.52
733.271	26311.51
733.612	26232.42
733.953	26190.84
734.294	26024.51
734.635	25979.77
734.976	25982.03
735.317	25945.42
735.658	25947.91
735.999	25981.35
736.339	25827
736.68	25951.75
737.021	25822.26
737.361	25694.35
737.702	25852.77
738.042	25768.02
738.383	25721.47
738.723	25701.36
739.063	25495.26
739.404	25664.3
739.744	25621.59
740.084	25487.13
740.424	25460.91
740.764	25405.77
741.104	25493.23
741.444	25290.07
741.784	25225.21
742.124	25269.05
742.464	25259.11
742.804	25243.74
743.143	25187.93
743.483	25239.45
743.823	24917.42
744.162	25131.88
744.502	25085.56
744.841	24859.35
745.181	25001.49
745.52	24887.14
745.86	24811.66
746.199	24724.43
746.538	24804.66
746.877	24771.21
747.216	24847.6
747.556	24730.76
747.895	24737.54
748.234	24536.19
748.573	24567.83
748.911	24558.56
749.25	24474.27
749.589	24379.58
749.928	24469.75
750.267	24463.65
750.605	24414.61
750.944	24353.14
751.283	24280.6
751.621	24465.91
751.96	24250.1
752.298	24126.71
752.636	24069.76
752.975	24012.59
753.313	23956.77
753.651	24141.85
753.989	24011.01
754.327	23895.3
754.666	23822.54
755.004	23845.14
755.342	23742.99
755.679	23683.11
756.017	23645.37
756.355	23683.11
756.693	23648.76
757.031	23604.24
757.368	23482.21
757.706	23450.57
758.044	23301.42
758.381	23444.47
758.719	23152.95
759.056	23216.9
759.394	23139.84
759.731	22929
760.068	23016.68
760.405	22831.83
760.743	22879.96
761.08	22857.59
761.417	22721.55
761.754	22691.49
762.091	22627.09
762.428	22580.31
762.765	22450.14
763.102	22466.64
763.438	22310.94
763.775	22323.37
764.112	22250.83
764.449	22284.27
764.785	22132.64
765.122	21974
765.458	21936.26
765.795	21847.45
766.131	21840.67
766.467	21812.87
766.804	21574.69
767.14	21537.4
767.476	21559.32
767.812	21427.57
768.148	21486.33
768.485	21378.53
768.821	21197.75
769.157	21255.6
769.492	21175.15
769.828	21106.68
770.164	20886.8
770.5	20882.73
770.836	20865.1
771.171	20736.52
771.507	20667.37
771.842	20609.29
772.178	20658.55
772.513	20545.34
772.849	20356.19
773.184	20394.6
773.519	20319.13
773.855	20303.76
774.19	20121.39
774.525	20205.23
774.86	20016.76
775.195	20132.69
775.53	19852.25
775.865	19827.39
776.2	19688.41
776.535	19593.04
776.87	19582.87
777.205	19554.18
777.539	19401.18
777.874	19429.66
778.209	19290.23
778.543	19267.63
778.878	19118.48
779.212	19228.08
779.547	19056.11
779.881	19072.61
780.215	18953.74
780.55	18961.87
780.884	18814.31
781.218	18725.04
781.552	18735.67
781.886	18624.71
782.22	18447.99
782.554	18452.96
782.888	18306.98
783.222	18226.07
783.556	18187.21
783.889	18167.54
784.223	18034.44
784.557	17960.77
784.89	18008.45
785.224	17960.77
785.557	17808.46
785.891	17765.75
786.224	17752.19
786.558	17672.19
786.891	17560.33
787.224	17492.76
787.557	17435.59
787.891	17439.43
788.224	17417.28
788.557	17387.23
788.89	17194.01
789.223	17248.25
789.556	17148.14
789.888	17054.35
790.221	17027.01
790.554	16869.27
790.887	16917.63
791.219	16828.37
791.552	16795.6
791.884	16697.53
792.217	16696.17
792.549	16581.37
792.882	16510.87
793.214	16439.91
793.546	16479.45
793.879	16305
794.211	16259.35
794.543	16300.25
794.875	16165.34
795.207	16233.58
795.539	16165.56
795.871	16106.36
796.203	15986.59
796.535	15883.99
796.867	15898.9
797.198	15868.17
797.53	15878.79
797.862	15653.49
798.193	15646.03
798.525	15617.1
798.856	15575.75
799.188	15456.88
799.519	15460.72
799.85	15377.34
800.182	15414.4
800.513	15293.72
800.844	15224.8
801.175	15242.42
801.506	15260.95
801.837	15100.05
802.168	15157.23
802.499	15060.06
802.83	14986.39
803.161	14925.14
803.491	14907.97
803.822	14936.67
804.153	14811.02
804.483	14675.43
804.814	14716.34
805.145	14796.56
805.475	14609.22
805.805	14548.88
806.136	14526.74
806.466	14572.61
806.796	14569.67
807.126	14406.06
807.457	14401.54
807.787	14345.72
808.117	14314.09
808.447	14261.66
808.777	14294.2
809.107	14265.5
809.436	14180.31
809.766	14162.68
810.096	14150.02
810.426	14091.72
810.755	14042
811.085	14020.08
811.414	14017.6
811.744	13822.8
812.073	13874.78
812.403	13862.8
812.732	13772.18
813.061	13761.33
813.39	13654.9
813.719	13663.03
814.049	13772.86
814.378	13609.25
814.707	13550.72
815.036	13520.89
815.365	13468.46
815.693	13387.11
816.022	13413.55
816.351	13362.7
816.68	13263.04
817.008	13364.73
817.337	13185.53
817.665	13134.68
817.994	13171.74
818.322	13189.14
818.651	13107.11
818.979	13057.85
819.307	13138.52
819.636	13110.95
819.964	13009.94
820.292	12973.78
820.62	12966.55
820.948	12985.76
821.276	12952.77
821.604	12965.65
821.932	12940.11
822.259	12926.1
822.587	12972.2
822.915	12930.39
823.243	12963.61
823.57	12905.54
823.898	12927
824.225	12851.75
824.553	12827.35
824.88	12858.08
825.207	12921.81
825.535	12899.21
825.862	12967.46
826.189	12853.56
826.516	12984.63
826.843	12952.77
827.17	12923.61
827.497	12945.99
827.824	12869.15
828.151	12900.79
828.478	12833.9
828.805	12896.95
829.131	12768.14
829.458	12773.11
829.785	12781.02
830.111	12815.37
830.438	12881.58
830.764	12910.28
831.09	12866.89
831.417	12793.67
831.743	12790.29
832.069	12837.06
832.395	12816.5
832.722	12847.68
833.048	12723.39
833.374	12745.99
833.7	12672.32
834.026	12741.25
834.351	12797.52
834.677	12687.46
835.003	12675.03
835.329	12716.84
835.654	12727.01
835.98	12556.39
836.306	12645.88
836.631	12691.98
836.956	12650.85
837.282	12622.38
837.607	12540.35
837.932	12485.66
838.258	12504.64
838.583	12497.64
838.908	12436.17
839.233	12382.61
839.558	12408.6
839.883	12391.2
840.208	12348.04
840.533	12322.05
840.858	12356.85
841.182	12362.5
841.507	12338.77
841.832	12197.08
842.156	12259
842.481	12232.33
842.805	12197.98
843.13	12155.05
843.454	12189.17
843.778	12094.48
844.103	12040.93
844.427	12119.12
844.751	12003.19
845.075	11968.84
845.399	11966.58
845.723	11885.22
846.047	11901.49
846.371	11779.24
846.695	11830.31
847.019	11685
847.343	11614.95
847.666	11603.65
847.99	11603.88
848.313	11570.88
848.637	11529.75
848.96	11461.73
849.284	11454.73
849.607	11334.73
849.931	11332.7
850.254	11217.45
850.577	11270.1
850.9	11156.43
851.223	11062.65
851.546	11113.04
851.869	11033.5
852.192	11012.48
852.515	10963.21
852.838	10866.72
853.161	10852.71
853.483	10839.83
853.806	10720.96
854.129	10753.28
854.451	10682.09
854.774	10692.49
855.096	10627.4
855.419	10574.07
855.741	10626.5
856.063	10513.06
856.385	10604.58
856.708	10462.44
857.03	10441.65
857.352	10434.64
857.674	10371.82
857.996	10379.05
858.318	10365.72
858.64	10361.65
858.961	10187.87
859.283	10213.63
859.605	10189.45
859.926	10219.96
860.248	10151.94
860.57	10137.25
860.891	10085.05
861.212	10062.22
861.534	10039.17
861.855	9995.33
862.176	10077.36
862.498	10116.46
862.819	10016.12
863.14	9965.95
863.461	9900.19
863.782	9886.41
864.103	9871.49
864.424	9887.31
864.745	9935.44
865.065	9819.29
865.386	9797.14
865.707	9835.56
866.027	9789.23
866.348	9759.18
866.668	9717.37
866.989	9772.06
867.309	9691.84
867.63	9708.11
867.95	9760.08
868.27	9676.47
868.59	9676.24
868.91	9618.17
869.23	9674.66
869.55	9565.96
869.87	9576.81
870.19	9553.99
870.51	9559.86
870.83	9559.18
871.15	9515.79
871.469	9485.29
871.789	9584.27
872.109	9514.67
872.428	9427.89
872.748	9447.1
873.067	9413.42
873.386	9477.83
873.706	9335.23
874.025	9304.28
874.344	9343.6
874.663	9373.2
874.982	9312.64
875.301	9273.99
875.62	9379.08
875.939	9269.02
876.258	9290.26
876.577	9275.35
876.896	9209.59
877.214	9241.9
877.533	9173.43
877.852	9128.01
878.17	9216.37
878.489	9157.39
878.807	9144.05
879.125	9201
879.444	9154.67
879.762	9149.48
880.08	9095.47
880.398	9089.37
880.716	9124.17
881.034	9077.16
881.352	9014.11
881.67	8991.97
881.988	8983.15
882.306	8954
882.624	8909.71
882.941	8911.74
883.259	8939.54
883.577	8819.54
883.894	8814.12
884.212	8798.07
884.529	8853.89
884.846	8790.16
885.164	8816.83
885.481	8695.7
885.798	8751.3
886.115	8729.37
886.432	8759.66
886.75	8617.74
887.067	8671.75
887.383	8672.65
887.7	8638.98
888.017	8554.24
888.334	8595.82
888.651	8543.84
888.967	8558.98
889.284	8497.52
889.6	8469.04
889.917	8409.38
890.233	8408.03
890.55	8371.19
890.866	8429.72
891.182	8349.27
891.498	8413.45
891.815	8269.27
892.131	8376.62
892.447	8291.87
892.763	8240.35
893.079	8215.72
893.395	8113.12
893.71	8180.01
894.026	8118.54
894.342	8085.55
894.657	8102.05
894.973	8057.3
895.289	8074.48
895.604	8053.01
895.92	7971.65
896.235	7876.29
896.55	7941.83
896.865	7884.2
897.181	7900.92
897.496	7881.26
897.811	7884.65
898.126	7802.85
898.441	7794.03
898.756	7763.07
899.071	7699.12
899.386	7735.05
899.7	7629.29
900.015	7618.44
900.33	7564.43
900.644	7617.77
900.959	7619.8
901.273	7544.32
901.588	7480.37
901.902	7436.98
902.216	7422.06
902.531	7426.58
902.845	7377.77
903.159	7391.33
903.473	7309.3
903.787	7287.38
904.101	7297.32
904.415	7255.97
904.729	7264.55
905.042	7171
905.356	7191.79
905.67	7141.62
905.984	7137.78
906.297	7139.13
906.611	7044.9
906.924	7060.94
907.237	7060.49
907.551	6962.42
907.864	7012.36
908.177	6961.51
908.491	6988.86
908.804	6928.97
909.117	6839.03
909.43	6819.82
909.743	6778.24
910.056	6832.02
910.368	6721.97
910.681	6719.94
910.994	6660.73
911.307	6661.18
911.619	6599.04
911.932	6703.89
912.244	6570.79
912.557	6596.1
912.869	6530.34
913.181	6524.01
913.494	6543.67
913.806	6460.06
914.118	6476.78
914.43	6416.44
914.742	6430.9
915.054	6371.92
915.366	6333.73
915.678	6266.84
915.99	6282.43
916.302	6268.42
916.613	6273.17
916.925	6275.88
917.236	6169.22
917.548	6165.37
917.859	6158.14
918.171	6145.26
918.482	6100.07
918.794	6065.72
919.105	6060.07
919.416	5997.92
919.727	5935.32
920.038	5988.43
920.349	5945.27
920.66	5944.14
920.971	5898.49
921.282	5919.73
921.593	5795.44
921.903	5833.63
922.214	5753.63
922.525	5752.28
922.835	5734.65
923.146	5728.55
923.456	5672.73
923.767	5669.34
924.077	5661.21
924.387	5660.76
924.697	5561.32
925.008	5566.52
925.318	5547.76
925.628	5592.96
925.938	5516.13
926.248	5527.2
926.558	5516.58
926.867	5440.65
927.177	5392.29
927.487	5354.32
927.796	5385.28
928.106	5338.05
928.416	5316.58
928.725	5279.3
929.034	5253.08
929.344	5296.02
929.653	5212.18
929.962	5183.48
930.271	5199.07
930.581	5183.93
930.89	5176.47
931.199	5145.06
931.508	5109.58
931.817	5099.87
932.125	5073.43
932.434	5016.93
932.743	5023.48
933.051	4959.3
933.36	4989.36
933.669	4927.44
933.977	4891.96
934.286	4926.54
934.594	4892.41
934.902	4812.64
935.21	4797.95
935.519	4844.05
935.827	4773.77
936.135	4798.86
936.443	4714.34
936.751	4716.37
937.059	4750.04
937.367	4713.44
937.674	4671.4
937.982	4688.58
938.29	4629.37
938.597	4634.34
938.905	4636.15
939.213	4530.62
939.52	4582.14
939.827	4570.16
940.135	4503.95
940.442	4457.17
940.749	4473.67
941.056	4487.23
941.363	4412.43
941.67	4430.05
941.977	4374.91
942.284	4357.51
942.591	4390.05
942.898	4376.5
943.205	4379.66
943.511	4339.89
943.818	4324.52
944.125	4260.79
944.431	4276.38
944.738	4245.43
945.044	4224.18
945.35	4189.38
945.657	4152.77
945.963	4172.43
946.269	4167.91
946.575	4170.4
946.881	4089.05
947.187	4143.51
947.493	4058.09
947.799	4049.72
948.105	4017.63
948.41	4020.57
948.716	4038.2
949.022	4019.22
949.327	3976.28
949.633	3998.43
949.938	3927.24
950.244	4003.62
950.549	3928.6
950.854	3869.84
951.16	3876.4
951.465	3843.18
951.77	3842.27
952.075	3844.31
952.38	3815.61
952.685	3769.28
952.99	3786
953.294	3774.48
953.599	3780.58
953.904	3727.02
954.209	3688.38
954.513	3686.34
954.818	3695.16
955.122	3672.33
955.426	3612.45
955.731	3681.15
956.035	3663.29
956.339	3573.35
956.643	3626.46
956.948	3568.15
957.252	3565.89
957.556	3558.89
957.86	3549.17
958.163	3546.69
958.467	3472.11
958.771	3510.98
959.075	3490.64
959.378	3452.45
959.682	3476.18
959.985	3455.84
960.289	3437.31
960.592	3447.03
960.896	3388.72
961.199	3351.21
961.502	3390.08
961.805	3350.31
962.108	3334.49
962.411	3316.64
962.714	3291.33
963.017	3298.78
963.32	3290.87
963.623	3321.83
963.926	3265.79
964.228	3219.69
964.531	3255.62
964.833	3210.2
965.136	3149.41
965.438	3195.74
965.741	3196.41
966.043	3124.32
966.345	3143.08
966.648	3115.96
966.95	3082.74
967.252	3105.79
967.554	3080.94
967.856	3082.29
968.158	3073.03
968.46	3041.84
968.761	3033.25
969.063	3024.89
969.365	2996.87
969.666	3008.4
969.968	2948.28
970.269	2973.82
970.571	2978.11
970.872	2954.39
971.174	2910.09
971.475	2895.86
971.776	2925.46
972.077	2829.19
972.378	2852.24
972.679	2834.16
972.98	2840.94
973.281	2887.27
973.582	2813.6
973.883	2812.47
974.183	2785.8
974.484	2796.42
974.785	2756.88
975.085	2783.09
975.386	2762.75
975.686	2749.19
975.986	2719.82
976.287	2739.02
976.587	2725.24
976.887	2725.01
977.187	2663.55
977.487	2666.94
977.787	2643.66
978.087	2635.98
978.387	2640.95
978.687	2643.21
978.987	2586.94
979.286	2612.02
979.586	2588.07
979.885	2600.5
980.185	2556.66
980.484	2537.9
980.784	2544.9
981.083	2553.27
981.382	2559.14
981.682	2566.83
981.981	2497
982.28	2484.57
982.579	2446.15
982.878	2520.05
983.177	2465.58
983.475	2458.13
983.774	2438.47
984.073	2414.06
984.372	2434.4
984.67	2375.19
984.969	2393.5
985.267	2379.71
985.566	2364.57
985.864	2361.18
986.162	2388.3
986.461	2331.35
986.759	2330.22
987.057	2355.31
987.355	2330.45
987.653	2320.28
987.951	2281.63
988.249	2307.17
988.547	2301.3
988.844	2254.07
989.142	2255.42
989.44	2259.49
989.737	2205.7
990.035	2204.12
990.332	2199.6
990.63	2212.03
990.927	2208.19
991.224	2171.81
991.521	2195.54
991.819	2130.68
992.116	2161.19
992.413	2142.2
992.71	2132.49
993.006	2116.89
993.303	2131.36
993.6	2096.78
993.897	2089.1
994.193	2076.89
994.49	2051.58
994.787	2037.8
995.083	2050.23
995.379	2057.91
995.676	2051.36
995.972	1999.38
996.268	2022.21
996.565	1996.22
996.861	1985.82
997.157	2014.52
997.453	1997.8
997.749	1979.95
998.044	1956.9
998.34	1969.1
998.636	1952.38
998.932	1927.29
999.227	1909.22
999.523	1902.44
999.818	1898.82
1000.114	1899.27
1000.409	1905.37
1000.704	1890.46
1001	1874.87
1001.295	1861.98
1001.59	1831.48
1001.885	1846.39
1002.18	1836.45
1002.475	1816.34
1002.77	1831.03
1003.065	1817.01
1003.359	1798.03
1003.654	1751.93
1003.949	1758.03
1004.243	1762.33
1004.538	1750.35
1004.832	1758.94
1005.127	1725.27
1005.421	1703.8
1005.715	1715.1
1006.009	1704.25
1006.304	1677.81
1006.598	1696.79
1006.892	1692.5
1007.186	1684.81
1007.48	1642.1
1007.773	1653.85
1008.067	1639.62
1008.361	1630.8
1008.655	1614.76
1008.948	1628.32
1009.242	1614.53
1009.535	1589.68
1009.829	1612.95
1010.122	1589.22
1010.415	1564.14
1010.708	1587.87
1011.001	1538.38
1011.295	1537.7
1011.588	1577.47
1011.881	1512.39
1012.173	1520.98
1012.466	1503.58
1012.759	1497.7
1013.052	1493.63
1013.344	1490.7
1013.637	1455.67
1013.93	1452.28
1014.222	1476.01
1014.514	1428.78
1014.807	1429.23
1015.099	1413.64
1015.391	1421.09
1015.683	1423.8
1015.976	1414.99
1016.268	1393.07
1016.56	1399.85
1016.851	1397.36
1017.143	1392.39
1017.435	1386.07
1017.727	1350.81
1018.018	1364.14
1018.31	1346.74
1018.602	1346.07
1018.893	1307.42
1019.185	1319.17
1019.476	1330.47
1019.767	1328.21
1020.058	1313.98
1020.35	1286.63
1020.641	1293.41
1020.932	1281.21
1021.223	1289.12
1021.514	1247.54
1021.804	1250.25
1022.095	1257.93
1022.386	1232.62
1022.677	1240.31
1022.967	1257.48
1023.258	1209.57
1023.548	1194.43
1023.839	1191.72
1024.129	1185.62
1024.419	1176.81
1024.709	1200.08
1025	1185.39
1025.29	1186.75
1025.58	1150.82
1025.87	1140.65
1026.16	1129.57
1026.449	1137.94
1026.739	1147.2
1027.029	1130.48
1027.319	1119.41
1027.608	1111.72
1027.898	1112.17
1028.187	1099.97
1028.477	1070.37
1028.766	1083.47
1029.055	1078.5
1029.344	1048.67
1029.634	1054.55
1029.923	1037.6
1030.212	1059.75
1030.501	1038.73
1030.79	1053.19
1031.078	1021.78
1031.367	1042.57
1031.656	1015.68
1031.945	1023.36
1032.233	978.62
1032.522	1001.44
1032.81	1010.93
1033.099	986.98
1033.387	996.7
1033.675	984.04
1033.963	949.47
1034.251	967.09
1034.54	950.14
1034.828	930.48
1035.116	944.49
1035.403	942.24
1035.691	931.61
1035.979	935.23
1036.267	942.24
1036.554	904.72
1036.842	929.35
1037.129	921.44
1037.417	912.63
1037.704	862.24
1037.992	905.85
1038.279	889.36
1038.566	852.29
1038.853	852.29
1039.14	852.29
