Data from hue_300_FLMS001491_00071.txt Node
Date: Tue Feb 07 15:51:10 GMT 2017
User: dcchb
Spectrometer: FLMS00149
Trigger mode: 0
Integration Time (sec): 2.000000E-2
Scans to average: 10
Electric dark correction enabled: true
Nonlinearity correction enabled: false
Boxcar width: 0
XAxis mode: Wavelengths
Number of Pixels in Spectrum: 2048
>>>>>Begin Spectral Data<<<<<
341.393	7.78
341.776	7.78
342.16	7.78
342.543	-47.81
342.927	-66.34
343.31	-82.61
343.693	-72.44
344.077	-65.89
344.46	-66.34
344.843	-69.28
345.226	-38.09
345.61	-24.76
345.993	-19.34
346.376	-5.32
346.759	1
347.142	33.09
347.525	46.65
347.908	76.48
348.291	76.48
348.674	86.2
349.057	124.16
349.44	123.94
349.823	133.2
350.206	173.43
350.588	188.79
350.971	168.91
351.354	205.74
351.737	241
352.119	260.88
352.502	264.27
352.884	276.93
353.267	276.93
353.65	283.03
354.032	297.27
354.414	296.14
354.797	302.92
355.179	297.72
355.562	331.62
355.944	320.77
356.326	324.84
356.709	336.59
357.091	313.31
357.473	316.02
357.855	347.43
358.238	309.47
358.62	351.5
359.002	334.1
359.384	337.49
359.766	336.81
360.148	324.61
360.53	340.88
360.912	332.75
361.294	343.59
361.676	324.61
362.057	340.88
362.439	326.64
362.821	308.79
363.203	345.63
363.584	311.73
363.966	312.86
364.348	320.54
364.729	323.03
365.111	327.1
365.493	311.5
365.874	329.13
366.256	313.99
366.637	316.47
367.019	309.7
367.4	322.8
367.781	297.72
368.163	313.31
368.544	297.27
368.925	308.34
369.306	314.44
369.688	326.19
370.069	298.62
370.45	319.41
370.831	302.01
371.212	314.44
371.593	288.45
371.974	323.03
372.355	320.77
372.736	306.98
373.117	330.71
373.498	313.76
373.879	310.37
374.26	297.49
374.641	309.02
375.021	298.62
375.402	313.08
375.783	318.73
376.163	315.57
376.544	326.64
376.925	322.35
377.305	310.6
377.686	311.05
378.066	324.38
378.447	326.42
378.827	342.01
379.208	323.25
379.588	334.33
379.968	339.98
380.349	346.3
380.729	331.62
381.109	320.32
381.489	315.34
381.87	327.77
382.25	349.47
382.63	357.6
383.01	375.23
383.39	354.21
383.77	341.78
384.15	320.54
384.53	335.91
384.91	342.46
385.29	342.91
385.67	354.21
386.049	342.24
386.429	334.1
386.809	339.75
387.189	363.48
387.568	352.18
387.948	340.43
388.328	369.81
388.707	350.15
389.087	355.57
389.466	368.45
389.846	369.35
390.225	350.37
390.605	376.59
390.984	354.89
391.363	374.1
391.743	377.49
392.122	360.54
392.501	354.21
392.881	372.07
393.26	383.37
393.639	389.69
394.018	382.46
394.397	367.55
394.776	377.49
395.155	398.96
395.534	388.56
395.913	400.77
396.292	381.56
396.671	393.99
397.05	375.23
397.429	368.9
397.808	384.5
398.186	403.7
398.565	391.05
398.944	381.78
399.323	408
399.701	400.09
400.08	399.41
400.458	417.26
400.837	397.6
401.215	410.71
401.594	410.94
401.972	433.08
402.351	416.59
402.729	426.98
403.107	423.36
403.486	422.23
403.864	411.39
404.242	446.64
404.62	447.09
404.999	450.93
405.377	430.37
405.755	450.03
406.133	445.06
406.511	456.36
406.889	462.23
407.267	484.38
407.645	472.4
408.023	486.64
408.401	466.3
408.779	494.55
409.156	493.19
409.534	511.5
409.912	511.05
410.29	494.1
410.667	512.85
411.045	537.03
411.422	530.71
411.8	520.31
412.178	553.3
412.555	582.68
412.933	541.78
413.31	568.67
413.687	575.22
414.065	563.25
414.442	563.93
414.819	615.68
415.197	612.29
415.574	637.6
415.951	628.33
416.328	637.14
416.705	627.2
417.082	660.19
417.46	664.04
417.837	659.74
418.214	674.43
418.591	699.52
418.967	696.8
419.344	683.02
419.721	706.75
420.098	711.94
420.475	714.43
420.852	719.85
421.228	738.16
421.605	748.78
421.982	769.8
422.358	772.06
422.735	786.52
423.111	763.92
423.488	807.76
423.864	781.32
424.241	819.29
424.617	814.31
424.994	815.67
425.37	834.88
425.746	842.56
426.123	849.12
426.499	866.06
426.875	862.45
427.251	882.56
427.627	869.45
428.003	901.09
428.379	912.62
428.756	944.71
429.132	955.33
429.507	964.82
429.883	969.79
430.259	978.6
430.635	959.4
431.011	989
431.387	1025.38
431.763	1033.97
432.138	1040.52
432.514	1051.82
432.89	1048.21
433.265	1070.58
433.641	1080.75
434.016	1074.42
434.392	1083.69
434.767	1141.54
435.143	1121.2
435.518	1158.71
435.894	1134.53
436.269	1170.69
436.644	1162.1
437.02	1170.69
437.395	1200.75
437.77	1203.23
438.145	1228.09
438.52	1219.5
438.895	1220.63
439.271	1228.99
439.646	1265.15
440.021	1268.09
440.395	1255.89
440.77	1280.07
441.145	1274.19
441.52	1290.01
441.895	1295.66
442.27	1319.61
442.645	1287.97
443.019	1319.84
443.394	1331.14
443.769	1320.06
444.143	1315.32
444.518	1356.45
444.892	1352.38
445.267	1370.68
445.641	1370.46
446.016	1371.59
446.39	1399.16
446.764	1395.77
447.139	1358.71
447.513	1381.53
447.887	1379.27
448.262	1392.83
448.636	1390.8
449.01	1419.95
449.384	1438.25
449.758	1420.63
450.132	1419.27
450.506	1450.46
450.88	1454.98
451.254	1427.86
451.628	1442.77
452.002	1471.02
452.376	1454.3
452.75	1481.42
453.123	1521.87
453.497	1490.23
453.871	1498.14
454.244	1510.57
454.618	1513.51
454.992	1539.27
455.365	1558.48
455.739	1571.81
456.112	1603.67
456.486	1592.37
456.859	1559.38
457.232	1594.86
457.606	1587.4
457.979	1620.17
458.352	1632.6
458.725	1659.94
459.099	1628.76
459.472	1695.2
459.845	1702.88
460.218	1722.09
460.591	1745.14
460.964	1718.02
461.337	1740.17
461.71	1768.64
462.083	1783.78
462.456	1804.57
462.829	1774.97
463.201	1819.49
463.574	1817.23
463.947	1820.84
464.32	1856.32
464.692	1847.96
465.065	1855.87
465.438	1882.54
465.81	1907.62
466.183	1903.78
466.555	1956.66
466.928	1946.26
467.3	1961.86
467.672	1985.13
468.045	2015.19
468.417	1996.88
468.789	2024
469.161	2055.64
469.534	2028.29
469.906	2107.84
470.278	2077.78
470.65	2129.31
471.022	2157.56
471.394	2174.73
471.766	2130.44
472.138	2193.49
472.51	2247.27
472.882	2239.36
473.253	2244.11
473.625	2295.41
473.997	2346.48
474.369	2334.73
474.74	2329.76
475.112	2385.12
475.484	2409.08
475.855	2428.28
476.227	2452.01
476.598	2485.01
476.97	2512.8
477.341	2531.11
477.713	2554.61
478.084	2580.82
478.455	2624.44
478.827	2583.08
479.198	2687.71
479.569	2677.54
479.94	2704.21
480.311	2760.25
480.682	2807.26
481.053	2832.34
481.424	2829.63
481.795	2873.7
482.166	2930.87
482.537	2929.29
482.908	2955.28
483.279	3007.93
483.65	3016.97
484.021	3065.1
484.391	3104.88
484.762	3108.94
485.133	3108.49
485.503	3157.76
485.874	3165.89
486.244	3190.52
486.615	3239.79
486.985	3299.67
487.356	3322.05
487.726	3316.62
488.097	3404.08
488.467	3366.79
488.837	3445.66
489.207	3439.56
489.578	3508.26
489.948	3523.85
490.318	3547.35
490.688	3572.43
491.058	3604.07
491.428	3641.13
491.798	3714.58
492.168	3776.5
492.538	3718.42
492.908	3763.62
493.278	3735.37
493.648	3766.55
494.017	3814.91
494.387	3836.83
494.757	3875.7
495.126	3919.32
495.496	3943.27
495.866	3917.51
496.235	3948.24
496.605	3956.38
496.974	3949.37
497.344	4041.12
497.713	4017.85
498.082	4057.17
498.452	4109.82
498.821	4136.26
499.19	4094
499.559	4143.72
499.928	4108.47
500.298	4136.04
500.667	4208.58
501.036	4154.57
501.405	4232.08
501.774	4197.05
502.143	4205.64
502.512	4249.03
502.88	4276.6
503.249	4267.78
503.618	4259.42
503.987	4291.51
504.356	4307.1
504.724	4338.29
505.093	4330.38
505.462	4349.82
505.83	4375.35
506.199	4424.39
506.567	4458.06
506.936	4449.47
507.304	4473.2
507.672	4476.14
508.041	4505.74
508.409	4518.62
508.777	4536.93
509.145	4522.69
509.514	4550.49
509.882	4574.89
510.25	4570.15
510.618	4580.32
510.986	4562.01
511.354	4629.58
511.722	4663.71
512.09	4693.08
512.458	4617.6
512.826	4696.47
513.193	4722.91
513.561	4719.07
513.929	4745.06
514.297	4755.91
514.664	4803.59
515.032	4784.38
515.4	4828.67
515.767	4794.32
516.135	4818.05
516.502	4804.94
516.869	4840.65
517.237	4888.56
517.604	4786.41
517.972	4887.88
518.339	4911.83
518.706	4862.57
519.073	4933.75
519.44	4947.31
519.808	5009.23
520.175	4990.48
520.542	4955
520.909	4979.4
521.276	4994.54
521.643	5021.89
522.009	4998.39
522.376	5069.57
522.743	5074.54
523.11	5090.36
523.477	5167.19
523.843	5168.78
524.21	5206.29
524.577	5205.84
524.943	5204.93
525.31	5171.26
525.676	5296
526.043	5303.91
526.409	5371.26
526.776	5372.16
527.142	5366.29
527.508	5347.3
527.874	5395.66
528.241	5486.51
528.607	5448.32
528.973	5493.51
529.339	5486.73
529.705	5597.92
530.071	5600.18
530.437	5582.55
530.803	5678.14
531.169	5644.24
531.535	5635.88
531.901	5680.85
532.267	5725.15
532.632	5709.33
532.998	5705.49
533.364	5782.09
533.73	5811.02
534.095	5858.7
534.461	5834.52
534.826	5867.06
535.192	5876.33
535.557	5964.91
535.923	5943.22
536.288	5968.08
536.653	6023.44
537.019	5962.43
537.384	6084.46
537.749	6031.35
538.114	6085.59
538.479	6081.97
538.845	6110.22
539.21	6139.6
539.575	6126.72
539.94	6189.54
540.305	6209.88
540.67	6164
541.034	6216.88
541.399	6270.44
541.764	6251.91
542.129	6268.18
542.494	6276.77
542.858	6364.45
543.223	6369.87
543.587	6423.43
543.952	6377.33
544.316	6467.95
544.681	6470.89
545.045	6464.11
545.41	6524.67
545.774	6531.45
546.138	6590.66
546.503	6570.32
546.867	6622.75
547.231	6701.39
547.595	6665.91
547.959	6694.16
548.324	6707.72
548.688	6718.57
549.052	6730.32
549.416	6771.67
549.779	6758.34
550.143	6803.99
550.507	6800.15
550.871	6834.04
551.235	6877.43
551.599	6924.66
551.962	6943.65
552.326	6916.75
552.689	6997.2
553.053	6959.24
553.417	7003.76
553.78	7060.03
554.143	6993.14
554.507	7063.64
554.87	7033.36
555.234	7153.58
555.597	7069.29
555.96	7083.53
556.323	7141.83
556.686	7128.95
557.05	7233.58
557.413	7208.5
557.776	7200.14
558.139	7288.27
558.502	7281.94
558.865	7278.55
559.228	7302.51
559.59	7369.4
559.953	7388.38
560.316	7438.77
560.679	7405.1
561.041	7443.97
561.404	7530.3
561.767	7492.56
562.129	7506.12
562.492	7577.3
562.854	7606.45
563.217	7654.36
563.579	7648.26
563.941	7614.59
564.304	7682.83
564.666	7689.16
565.028	7685.55
565.39	7785.2
565.753	7808.26
566.115	7726.68
566.477	7797.41
566.839	7829.95
567.201	7821.36
567.563	7892.32
567.925	7958.53
568.287	7883.28
568.648	7985.2
569.01	7977.06
569.372	8085.31
569.734	8014.35
570.095	8148.13
570.457	8169.6
570.819	8164.18
571.18	8204.4
571.542	8263.16
571.903	8313.78
572.265	8294.34
572.626	8373.21
572.987	8358.52
573.349	8414.34
573.71	8514.68
574.071	8533.43
574.432	8549.25
574.794	8744.95
575.155	8684.62
575.516	8734.56
575.877	8884.39
576.238	8898.17
576.599	8962.58
576.96	9017.94
577.32	9078.96
577.681	9177.26
578.042	9262.23
578.403	9339.51
578.763	9433.98
579.124	9559.17
579.485	9700.86
579.845	9771.82
580.206	9899.27
580.566	9979.5
580.927	10118.48
581.287	10261.98
581.648	10383.78
582.008	10564.11
582.368	10665.13
582.728	10903.32
583.089	10970.21
583.449	11156.19
583.809	11261.72
584.169	11541.04
584.529	11643.18
584.889	11960.46
585.249	12034.36
585.609	12298.31
585.969	12494.23
586.329	12713.89
586.688	12895.35
587.048	13125.4
587.408	13333.08
587.768	13602.91
588.127	13858.72
588.487	14035.89
588.846	14392.71
589.206	14490.11
589.565	14806.94
589.925	15157.44
590.284	15312.01
590.643	15713.58
591.003	15905.22
591.362	16278.99
591.721	16445.99
592.08	16782.26
592.44	17157.61
592.799	17419.53
593.158	17713.98
593.517	17916.92
593.876	18369.11
594.235	18483.23
594.593	18838.7
594.952	19101.97
595.311	19413.15
595.67	19719.35
596.029	20140.13
596.387	20415.61
596.746	20712.77
597.104	20883.84
597.463	21238.64
597.822	21543.26
598.18	21808.79
598.538	22091.95
598.897	22557.25
599.255	22619.17
599.613	23249.66
599.972	23405.13
600.33	23590.67
600.688	23811.22
601.046	24235.85
601.404	24704.31
601.762	24825.89
602.12	25226.78
602.478	25405.98
602.836	25656.37
603.194	25778.4
603.552	26240.76
603.91	26317.37
604.268	26642.79
604.625	26838.04
604.983	27126.62
605.341	27219.95
605.698	27722.31
606.056	27859.25
606.413	28150.09
606.771	28539.46
607.128	28739.91
607.485	28971.09
607.843	29077.53
608.2	29401.81
608.557	29710.96
608.914	29778.07
609.272	30087.22
609.629	30408.56
609.986	30733.75
610.343	30727.43
610.7	31119.73
611.057	31172.61
611.414	31406.5
611.771	31638.14
612.127	31831.13
612.484	31941.41
612.841	32259.59
613.198	32376.87
613.554	32448.96
613.911	32749.75
614.267	33038.55
614.624	33010.08
614.98	33241.71
615.337	33483.96
615.693	33516.96
616.05	33635.37
616.406	33967.79
616.762	33874.24
617.118	34146.09
617.475	34215.7
617.831	34391.96
618.187	34682.12
618.543	34844.83
618.899	35055.22
619.255	35078.5
619.611	35170.47
619.967	35292.96
620.323	35516.91
620.678	35467.41
621.034	35728.42
621.39	35660.86
621.746	35743.79
622.101	36324.79
622.457	36025.82
622.812	36191.69
623.168	36382.42
623.523	36486.82
623.879	36607.72
624.234	36364.34
624.589	36666.71
624.945	36877.55
625.3	36950.99
625.655	36781.5
626.01	36892.46
626.365	37103.08
626.72	37165.22
627.075	37197.99
627.43	37307.59
627.785	37179.91
628.14	37301.94
628.495	37351.21
628.85	37401.6
629.205	37367.7
629.559	37597.3
629.914	37414.71
630.269	37614.48
630.623	37537.42
630.978	37513.69
631.332	37690.63
631.687	37745.1
632.041	37598.43
632.396	37674.81
632.75	37746.23
633.104	37833.91
633.459	37659
633.813	37631.43
634.167	37754.59
634.521	37746.68
634.875	37851.08
635.229	37750.52
635.583	37746.45
635.937	37605.21
636.291	37731.54
636.645	37732.89
636.999	37745.55
637.352	37853.11
637.706	37691.54
638.06	37834.36
638.413	37809.73
638.767	37764.3
639.121	37757.75
639.474	37492.45
639.828	37708.49
640.181	37756.62
640.534	37705.77
640.888	37599.34
641.241	37616.96
641.594	37529.73
641.947	37693.57
642.301	37704.19
642.654	37655.38
643.007	37693.35
643.36	37654.7
643.713	37681.14
644.066	37809.5
644.419	37578.09
644.771	37247.48
645.124	36982.86
645.477	37038.67
645.83	36690.21
646.182	36655.63
646.535	36565.69
646.888	36636.42
647.24	36462.19
647.593	36717.78
647.945	36645.01
648.298	36403.89
648.65	36454.28
649.002	36304.91
649.355	36446.15
649.707	36441.63
650.059	36717.55
650.411	37028.96
650.763	36950.09
651.115	37326.58
651.467	37285.67
651.819	37430.3
652.171	37236.63
652.523	37292.68
652.875	37169.97
653.227	37049.07
653.578	37260.81
653.93	37204.77
654.282	36978.56
654.633	36948.51
654.985	37176.3
655.337	37176.07
655.688	37150.08
656.039	37272.57
656.391	36962.97
656.742	37066.24
657.094	37108.73
657.445	37232.79
657.796	37028.05
658.147	37034.15
658.498	37041.16
658.849	37101.95
659.2	37116.19
659.551	36945.57
659.902	37176.3
660.253	37036.87
660.604	37061.5
660.955	36901.95
661.306	37108.28
661.656	37014.94
662.007	36949.41
662.358	37019.01
662.708	37132.46
663.059	37009.97
663.409	36885.23
663.76	36960.26
664.11	36843.42
664.461	37014.72
664.811	36966.36
665.161	36980.14
665.511	36771.11
665.862	36789.41
666.212	37052.91
666.562	37056.3
666.912	37017.88
667.262	36903.54
667.612	36842.97
667.962	36946.47
668.312	36918.9
668.662	37121.16
669.011	36946.7
669.361	36986.02
669.711	36910.09
670.06	36771.56
670.41	36844.1
670.76	36826.02
671.109	36921.84
671.459	36759.58
671.808	36797.78
672.157	36734.95
672.507	36633.71
672.856	36638.68
673.205	36768.17
673.554	36813.59
673.904	36606.37
674.253	36818.79
674.602	36541.06
674.951	36233.27
675.3	35914.41
675.649	36427.39
675.998	36486.15
676.346	36550.55
676.695	36792.35
677.044	36360.27
677.393	36542.64
677.741	36528.4
678.09	36550.78
678.438	36400.72
678.787	36384.23
679.135	36452.7
679.484	36143.33
679.832	36285.25
680.181	36022.65
680.529	36350.1
680.877	36083.22
681.225	36138.58
681.573	36290.22
681.922	35977.23
682.27	36099.71
682.618	35915.54
682.966	35821.76
683.314	35840.51
683.661	35791.25
684.009	35648.88
684.357	35574.3
684.705	35506.96
685.053	35732.04
685.4	35562.33
685.748	35374.54
686.095	35283.01
686.443	35260.41
686.79	35258.61
687.138	35324.37
687.485	35286.18
687.832	35151.72
688.18	35166.18
688.527	34988.33
688.874	34808.68
689.221	34838.96
689.568	34740.88
689.915	34732.97
690.262	34643.93
690.609	34441.91
690.956	34450.27
691.303	34337.5
691.65	34398.74
691.997	34311.29
692.344	34091.63
692.69	34158.07
693.037	34151.52
693.383	33802.37
693.73	33897.06
694.077	33715.6
694.423	33784.97
694.769	33558.99
695.116	33563.74
695.462	33436.96
695.808	33424.53
696.155	33463.4
696.501	33172.33
696.847	33169.62
697.193	32914.04
697.539	33182.05
697.885	32875.62
698.231	32749.52
698.577	32853.92
698.923	32724.44
699.269	32621.16
699.614	32401.96
699.96	32260.27
700.306	32292.58
700.651	32115.86
700.997	32098.46
701.342	32079.26
701.688	31956.32
702.033	31964.91
702.379	31817.79
702.724	31752.26
703.069	31898.24
703.415	31429.78
703.76	31336
704.105	31432.49
704.45	31331.93
704.795	31170.8
705.14	31038.38
705.485	31102.11
705.83	30931.49
706.175	31064.82
706.52	30903.24
706.865	30818.05
707.209	30722.23
707.554	30719.97
707.899	30771.95
708.243	30556.36
708.588	30530.14
708.932	30362.01
709.277	30371.05
709.621	30298.96
709.966	30143.94
710.31	30213.54
710.654	29940.55
710.998	30028.24
711.342	30054.22
711.687	29952.31
712.031	29819.88
712.375	29754.8
712.719	29699.88
713.063	29678.87
713.407	29856.49
713.75	29581.24
714.094	29618.53
714.438	29425.54
714.782	29546.67
715.125	29342.6
715.469	29416.5
715.812	29184.19
716.156	29064.87
716.499	29208.6
716.843	29064.42
717.186	28904.2
717.53	29087.7
717.873	29084.08
718.216	28964.08
718.559	28833.47
718.902	28694.49
719.246	28726.35
719.589	28645.9
719.932	28499.69
720.275	28471.21
720.617	28496.75
720.96	28376.98
721.303	28487.49
721.646	28526.81
721.989	28272.35
722.331	28306.25
722.674	28163.88
723.016	28243.65
723.359	28192.58
723.701	28086.59
724.044	28028.06
724.386	27911
724.729	27903.09
725.071	27897.67
725.413	27870.1
725.755	27835.75
726.097	27718.69
726.439	27538.58
726.782	27701.29
727.124	27832.81
727.465	27692.25
727.807	27624.68
728.149	27704.91
728.491	27567.28
728.833	27564.8
729.175	27544.69
729.516	27432.6
729.858	27271.47
730.199	27416.55
730.541	27389.21
730.882	27321.87
731.224	27412.94
731.565	27259.72
731.906	27245.71
732.248	27223.11
732.589	27046.62
732.93	27129.33
733.271	27074.87
733.612	27064.92
733.953	27069.22
734.294	26843.23
734.635	26923.23
734.976	26918.04
735.317	26742.45
735.658	26746.74
735.999	26838.26
736.339	26743.8
736.68	26779.96
737.021	26676.69
737.361	26521.21
737.702	26645.73
738.042	26607.53
738.383	26460.42
738.723	26574.99
739.063	26536.35
739.404	26507.42
739.744	26512.62
740.084	26357.37
740.424	26322.12
740.764	26324.6
741.104	26350.14
741.444	26220.2
741.784	26130.49
742.124	26197.38
742.464	26247.09
742.804	26183.59
743.143	26053.2
743.483	25983.14
743.823	25855.46
744.162	25925.74
744.502	26014.78
744.841	25768.01
745.181	26045.29
745.52	25875.8
745.86	25972.3
746.199	25847.55
746.538	25678.97
746.877	25897.05
747.216	25782.25
747.556	25738.86
747.895	25761.91
748.234	25695.92
748.573	25675.58
748.911	25642.81
749.25	25703.83
749.589	25559.88
749.928	25630.16
750.267	25612.08
750.605	25539.09
750.944	25405.31
751.283	25345.2
751.621	25422.93
751.96	25266.55
752.298	25409.15
752.636	25283.95
752.975	25247.34
753.313	25183.84
753.651	25327.34
753.989	25129.38
754.327	25189.04
754.666	25034.02
755.004	25043.51
755.342	24990.85
755.679	25070.85
756.017	24867.92
756.355	25011.42
756.693	24846.45
757.031	24904.98
757.368	24809.62
757.706	24768.04
758.044	24681.26
758.381	24785.89
758.719	24629.06
759.056	24604.88
759.394	24608.94
759.731	24531.43
760.068	24450.98
760.405	24330.76
760.743	24327.59
761.08	24251.89
761.417	24167.82
761.754	24282.85
762.091	24190.42
762.428	24135.74
762.765	23992.24
763.102	24124.21
763.438	23919.02
763.775	23779.36
764.112	23811.45
764.449	23890.32
764.785	23754.05
765.122	23567.84
765.458	23535.53
765.795	23531.68
766.131	23469.76
766.467	23383.66
766.804	23259.6
767.14	23105.71
767.476	23157.46
767.812	23166.04
768.148	23103.45
768.485	22961.76
768.821	22879.95
769.157	22825.49
769.492	22960.17
769.828	22787.07
770.164	22530.35
770.5	22533.74
770.836	22475.89
771.171	22331.94
771.507	22376.23
771.842	22202
772.178	22185.5
772.513	22110.93
772.849	22019.63
773.184	21905.74
773.519	21942.35
773.855	21804.05
774.19	21771.96
774.525	21783.93
774.86	21807.44
775.195	21605.18
775.53	21541.91
775.865	21445.64
776.2	21237.28
776.535	21094.01
776.87	21160.67
777.205	21074.35
777.539	21028.47
777.874	20994.35
778.209	20723.62
778.543	20831.42
778.878	20678.43
779.212	20673.68
779.547	20492.44
779.881	20601.37
780.215	20349.85
780.55	20434.59
780.884	20374.48
781.218	20250.64
781.552	20326.57
781.886	20111.21
782.22	20061.04
782.554	19971.33
782.888	19822.4
783.222	19807.04
783.556	19703.76
783.889	19662.18
784.223	19537.21
784.557	19438.23
784.89	19559.13
785.224	19419.48
785.557	19200.72
785.891	19214.28
786.224	19201.18
786.558	19186.94
786.891	18978.36
787.224	18937
787.557	18843.45
787.891	18833.28
788.224	18936.32
788.557	18870.56
788.89	18701.3
789.223	18678.48
789.556	18500.86
789.888	18492.04
790.221	18400.29
790.554	18333.4
790.887	18211.82
791.219	18253.18
791.552	18118.27
791.884	18032.62
792.217	18068.55
792.549	18026.74
792.882	17938.16
793.214	17821.78
793.546	17796.47
793.879	17749.69
794.211	17575.91
794.543	17669.24
794.875	17657.71
795.207	17616.58
795.539	17488
795.871	17513.08
796.203	17254.56
796.535	17296.37
796.867	17260.44
797.198	17172.75
797.53	17151.74
797.862	16955.59
798.193	17085.98
798.525	16904.06
798.856	16982.03
799.188	16781.58
799.519	16709.72
799.85	16613.45
800.182	16631.75
800.513	16661.13
800.844	16496.84
801.175	16583.39
801.506	16506.56
801.837	16421.81
802.168	16267.69
802.499	16278.77
802.83	16221.82
803.161	16240.35
803.491	16212.33
803.822	16125.1
804.153	16119.22
804.483	15953.8
804.814	15961.49
805.145	15856.86
805.475	15827.71
805.805	15750.42
806.136	15834.26
806.466	15799.91
806.796	15774.37
807.126	15558.56
807.457	15602.4
807.787	15587.49
808.117	15469.3
808.447	15425.91
808.777	15408.28
809.107	15370.32
809.436	15342.97
809.766	15326.48
810.096	15205.12
810.426	15234.95
810.755	15217.1
811.085	15153.37
811.414	15157.89
811.744	15007.84
812.073	15031.34
812.403	14949.31
812.732	14851.91
813.061	14906.6
813.39	14827.96
813.719	14770.78
814.049	14878.13
814.378	14765.13
814.707	14655.31
815.036	14762.65
815.365	14596.33
815.693	14450.79
816.022	14499.15
816.351	14529.66
816.68	14424.13
817.008	14463.22
817.337	14380.29
817.665	14316.78
817.994	14370.12
818.322	14287.63
818.651	14199.05
818.979	14234.98
819.307	14181.65
819.636	14146.17
819.964	14133.74
820.292	14067.3
820.62	14129.9
820.948	14091.03
821.276	14028.88
821.604	14053.29
821.932	13990.69
822.259	14075.21
822.587	14028.66
822.915	14058.94
823.243	14029.33
823.57	14011.93
823.898	14023.01
824.225	14009.67
824.553	13900.3
824.88	13988.43
825.207	13985.49
825.535	14085.83
825.862	13965.38
826.189	13943.91
826.516	13959.96
826.843	14028.43
827.17	13959.28
827.497	13956.12
827.824	13999.5
828.151	14108.2
828.478	14079.95
828.805	14008.32
829.131	13986.4
829.458	13950.01
829.785	13802.22
830.111	13933.07
830.438	13992.95
830.764	13955.66
831.09	13980.3
831.417	13854.2
831.743	13885.61
832.069	13859.17
832.395	13811.71
832.722	13922.44
833.048	13846.74
833.374	13807.87
833.7	13823.46
834.026	13786.86
834.351	13842.67
834.677	13728.1
835.003	13841.77
835.329	13755.67
835.654	13749.12
835.98	13632.73
836.306	13688.78
836.631	13626.86
836.956	13706.63
837.282	13740.08
837.607	13630.25
837.932	13681.1
838.258	13573.98
838.583	13488.78
838.908	13555.67
839.233	13481.55
839.558	13494.21
839.883	13437.03
840.208	13388.22
840.533	13367.43
840.858	13386.64
841.182	13439.75
841.507	13391.16
841.832	13247.89
842.156	13348
842.481	13275.23
842.805	13215.12
843.13	13205.18
843.454	13190.03
843.778	13114.78
844.103	13188.9
844.427	13029.81
844.751	13024.84
845.075	13029.36
845.399	12956.59
845.723	12818.07
846.047	12920.44
846.371	12773.55
846.695	12777.84
847.019	12714.79
847.343	12597.73
847.666	12572.88
847.99	12492.88
848.313	12506.66
848.637	12387.12
848.96	12437.96
849.284	12415.82
849.607	12289.49
849.931	12310.74
850.254	12146.9
850.577	12117.29
850.9	12013.57
851.223	12063.74
851.546	11943.29
851.869	11852.67
852.192	11957.07
852.515	11868.94
852.838	11852.44
853.161	11767.25
853.483	11723.86
853.806	11675.5
854.129	11721.6
854.451	11635.73
854.774	11611.54
855.096	11552.11
855.419	11526.58
855.741	11546.69
856.063	11436.63
856.385	11427.37
856.708	11295.4
857.03	11386.47
857.352	11283.19
857.674	11233.93
857.996	11262.63
858.318	11135.4
858.64	11219.92
858.961	11191.44
859.283	11056.31
859.605	11045.23
859.926	11160.48
860.248	10979.02
860.57	11009.75
860.891	10964.78
861.212	10877.78
861.534	10863.32
861.855	10841.85
862.176	10899.47
862.498	10879.36
862.819	10883.88
863.14	10788.06
863.461	10779.48
863.782	10743.09
864.103	10731.79
864.424	10706.94
864.745	10717.33
865.065	10602.98
865.386	10655.86
865.707	10567.28
866.027	10667.84
866.348	10664.45
866.668	10547.62
866.989	10615.41
867.309	10582.65
867.63	10564.34
867.95	10481.41
868.27	10401.86
868.59	10451.58
868.91	10417.68
869.23	10415.42
869.55	10435.98
869.87	10403.67
870.19	10388.07
870.51	10350.79
870.83	10393.95
871.15	10288.19
871.469	10306.27
871.789	10368.41
872.109	10263.11
872.428	10230.11
872.748	10214.75
873.067	10245.25
873.386	10259.94
873.706	10262.43
874.025	10130.68
874.344	10145.14
874.663	10207.06
874.982	10120.06
875.301	10138.82
875.62	10053.62
875.939	10017.69
876.258	9983.79
876.577	10043.68
876.896	10027.63
877.214	9958.26
877.533	9960.51
877.852	10017.46
878.17	9927.75
878.489	9917.13
878.807	9918.03
879.125	9901.31
879.444	9852.5
879.762	9853.63
880.08	9897.69
880.398	9828.77
880.716	9857.47
881.034	9802.33
881.352	9742.44
881.67	9746.74
881.988	9693.86
882.306	9748.77
882.624	9666.74
882.941	9714.65
883.259	9600.98
883.577	9603.24
883.894	9578.83
884.212	9598.04
884.529	9585.61
884.846	9514.88
885.164	9488.66
885.481	9483.01
885.798	9449.12
886.115	9368.44
886.432	9414.77
886.75	9365.28
887.067	9452.28
887.383	9362.11
887.7	9334.09
888.017	9337.48
888.334	9381.77
888.651	9200.53
888.967	9228.56
889.284	9182.46
889.6	9190.59
889.917	9179.74
890.233	9210.48
890.55	9118.5
890.866	9061.1
891.182	9083.7
891.498	9060.88
891.815	8963.03
892.131	8946.08
892.447	8952.86
892.763	8940.43
893.079	8859.75
893.395	8904.95
893.71	8856.36
894.026	8873.54
894.342	8807.55
894.657	8718.74
894.973	8783.82
895.289	8713.09
895.604	8709.93
895.92	8632.87
896.235	8586.31
896.55	8603.94
896.865	8612.53
897.181	8532.98
897.496	8526.43
897.811	8476.71
898.126	8390.39
898.441	8434.68
898.756	8405.98
899.071	8320.78
899.386	8339.99
899.7	8260.45
900.015	8211.18
900.33	8216.15
900.644	8194.91
900.959	8232.65
901.273	8154.91
901.588	8080.79
901.902	8088.02
902.216	8068.36
902.531	8043.28
902.845	8009.15
903.159	8002.15
903.473	7966.9
903.787	7908.82
904.101	7859.55
904.415	7854.81
904.729	7898.2
905.042	7836.73
905.356	7801.25
905.67	7687.58
905.984	7756.51
906.297	7765.77
906.611	7645.77
906.924	7624.76
907.237	7614.14
907.551	7594.25
907.864	7568.26
908.177	7519.45
908.491	7551.54
908.804	7489.85
909.117	7366.23
909.43	7381.83
909.743	7395.16
910.056	7387.48
910.368	7279.68
910.681	7320.81
910.994	7252.79
911.307	7168.95
911.619	7118.1
911.932	7177.31
912.244	7096.41
912.557	7065.45
912.869	6990.2
913.181	7067.94
913.494	7005.56
913.806	6954.04
914.118	6936.87
914.43	6894.61
914.742	6913.14
915.054	6827.49
915.366	6820.71
915.678	6836.08
915.99	6770.32
916.302	6723.54
916.613	6678.79
916.925	6674.05
917.236	6666.82
917.548	6625.46
917.859	6647.38
918.171	6591.79
918.482	6516.09
918.794	6561.51
919.105	6555.41
919.416	6448.29
919.727	6436.77
920.038	6404.68
920.349	6392.7
920.66	6360.38
920.971	6396.99
921.282	6331.68
921.593	6256.21
921.903	6227.51
922.214	6188.41
922.525	6215.08
922.835	6193.38
923.146	6153.84
923.456	6085.59
923.767	6077.91
924.077	6115.64
924.387	6080.16
924.697	6033.61
925.008	6020.96
925.318	5977.57
925.628	5920.17
925.938	5894.18
926.248	5851.47
926.558	5859.61
926.867	5815.09
927.177	5837.01
927.487	5761.08
927.796	5735.77
928.106	5741.64
928.416	5714.3
928.725	5705.94
929.034	5674.75
929.344	5643.57
929.653	5628.88
929.962	5615.77
930.271	5618.48
930.581	5516.79
930.89	5494.19
931.199	5520.63
931.508	5474.08
931.817	5421.43
932.125	5455.55
932.434	5448.32
932.743	5375.78
933.051	5360.18
933.36	5288.32
933.669	5268.89
933.977	5263.46
934.286	5269.34
934.594	5243.8
934.902	5204.71
935.21	5202.22
935.519	5171.26
935.827	5190.24
936.135	5100.08
936.443	5140.3
936.751	5077.93
937.059	5064.37
937.367	5070.93
937.674	5020.76
937.982	5027.76
938.29	4994.32
938.597	4975.11
938.905	4962
939.213	4951.61
939.52	4900.99
939.827	4922.23
940.135	4874.32
940.442	4846.98
940.749	4786.64
941.056	4787.09
941.363	4741.67
941.67	4800.65
941.977	4679.3
942.284	4672.52
942.591	4734.21
942.898	4688.56
943.205	4649.47
943.511	4642.24
943.818	4605.85
944.125	4550.94
944.431	4582.58
944.738	4576.93
945.044	4544.16
945.35	4513.2
945.657	4484.95
945.963	4466.87
946.269	4442.69
946.575	4447.67
946.881	4405.18
947.187	4374.67
947.493	4337.84
947.799	4338.74
948.105	4365.41
948.41	4301.23
948.716	4324.05
949.022	4264.17
949.327	4299.42
949.633	4258.97
949.938	4239.31
950.244	4263.49
950.549	4211.74
950.854	4210.84
951.16	4170.61
951.465	4147.11
951.77	4118.18
952.075	4094.91
952.38	4093.1
952.685	4051.74
952.99	4037.73
953.294	4021.69
953.599	4024.4
953.904	4010.39
954.209	3981.24
954.513	3941.46
954.818	3963.38
955.122	3900.34
955.426	3926.78
955.731	3873.22
956.035	3890.39
956.339	3900.79
956.643	3828.92
956.948	3794.8
957.252	3774.46
957.556	3784.18
957.86	3751.86
958.163	3752.54
958.467	3771.53
958.771	3730.62
959.075	3696.72
959.378	3667.12
959.682	3718.87
959.985	3664.86
960.289	3648.82
960.592	3616.73
960.896	3608.14
961.199	3631.19
961.502	3564.07
961.805	3555.94
962.108	3552.55
962.411	3557.52
962.714	3524.3
963.017	3501.02
963.32	3529.72
963.623	3474.81
963.926	3473.91
964.228	3397.75
964.531	3445.66
964.833	3461.25
965.136	3404.08
965.438	3380.57
965.741	3365.43
966.043	3377.86
966.345	3317.75
966.648	3335.6
966.95	3317.07
967.252	3282.95
967.554	3296.28
967.856	3275.27
968.158	3253.35
968.46	3275.49
968.761	3231.88
969.063	3237.53
969.365	3178.55
969.666	3184.42
969.968	3161.6
970.269	3132.22
970.571	3121.15
970.872	3104.42
971.174	3101.03
971.475	3084.99
971.776	3117.53
972.077	3064.2
972.378	3032.11
972.679	3060.58
972.98	3083.18
973.281	3037.08
973.582	2997.53
973.883	3001.38
974.183	3009.96
974.484	3032.34
974.785	2955.5
975.085	2998.66
975.386	2962.96
975.686	2925.9
975.986	2908.5
976.287	2915.5
976.587	2822.4
976.887	2907.14
977.187	2873.02
977.487	2848.39
977.787	2827.82
978.087	2878.44
978.387	2823.75
978.687	2798.67
978.987	2780.82
979.286	2781.27
979.586	2780.82
979.885	2772.68
980.185	2712.34
980.484	2705.34
980.784	2701.27
981.083	2696.3
981.382	2678.45
981.682	2674.15
981.981	2634.15
982.28	2645.91
982.579	2630.09
982.878	2660.59
983.177	2601.39
983.475	2594.15
983.774	2627.6
984.073	2577.66
984.372	2564.55
984.67	2547.15
984.969	2555.96
985.267	2536.53
985.566	2536.76
985.864	2494.27
986.162	2507.6
986.461	2506.02
986.759	2469.19
987.057	2475.29
987.355	2443.65
987.653	2438.9
987.951	2436.19
988.249	2423.76
988.547	2379.7
988.844	2394.39
989.142	2367.04
989.44	2369.75
989.737	2364.78
990.035	2369.75
990.332	2325.24
990.63	2325.46
990.927	2347.16
991.224	2299.47
991.521	2307.61
991.819	2328.4
992.116	2286.37
992.413	2306.48
992.71	2273.26
993.006	2257.89
993.303	2242.3
993.6	2228.29
993.897	2214.05
994.193	2209.08
994.49	2173.6
994.787	2165.69
995.083	2181.06
995.379	2183.09
995.676	2172.25
995.972	2117.33
996.268	2117.56
996.565	2122.75
996.861	2115.3
997.157	2117.78
997.453	2058.58
997.749	2074.85
998.044	2076.88
998.34	2078.24
998.636	2045.47
998.932	2043.89
999.227	2020.16
999.523	2029.2
999.818	2006.6
1000.114	2014.51
1000.409	1983.1
1000.704	1972.48
1001	1965.47
1001.295	1979.48
1001.59	1947.84
1001.885	1947.39
1002.18	1920.5
1002.475	1912.59
1002.77	1901.74
1003.065	1899.71
1003.359	1916.88
1003.654	1880.73
1003.949	1851.12
1004.243	1845.47
1004.538	1878.47
1004.832	1831.46
1005.127	1845.25
1005.421	1815.87
1005.715	1827.4
1006.009	1815.87
1006.304	1770
1006.598	1784.46
1006.892	1793.72
1007.186	1763.22
1007.48	1756.89
1007.773	1718.25
1008.067	1729.77
1008.361	1720.05
1008.655	1711.69
1008.948	1673.5
1009.242	1680.28
1009.535	1665.82
1009.829	1653.39
1010.122	1663.33
1010.415	1631.24
1010.708	1617.01
1011.001	1636.89
1011.295	1620.4
1011.588	1621.3
1011.881	1642.54
1012.173	1595.76
1012.466	1617.01
1012.759	1583.79
1013.052	1569.55
1013.344	1550.57
1013.637	1539.27
1013.93	1518.93
1014.222	1548.31
1014.514	1507.18
1014.807	1521.87
1015.099	1478.03
1015.391	1490.68
1015.683	1476.9
1015.976	1506.5
1016.268	1492.94
1016.56	1459.95
1016.851	1472.15
1017.143	1422.43
1017.435	1427.41
1017.727	1417.24
1018.018	1417.46
1018.31	1435.99
1018.602	1404.81
1018.893	1385.83
1019.185	1368.88
1019.476	1379.72
1019.767	1371.59
1020.058	1363.23
1020.35	1348.09
1020.641	1325.04
1020.932	1310.12
1021.223	1326.62
1021.514	1292.72
1021.804	1291.82
1022.095	1319.84
1022.386	1298.37
1022.677	1288.43
1022.967	1282.33
1023.258	1268.54
1023.548	1253.63
1023.839	1245.94
1024.129	1240.74
1024.419	1231.93
1024.709	1244.59
1025	1219.05
1025.29	1217.47
1025.58	1212.27
1025.87	1191.93
1026.16	1171.59
1026.449	1183.34
1026.739	1163.68
1027.029	1160.97
1027.319	1148.54
1027.608	1144.02
1027.898	1179.73
1028.187	1117.81
1028.477	1122.1
1028.766	1120.97
1029.055	1101.99
1029.344	1113.52
1029.634	1090.92
1029.923	1094.99
1030.212	1079.39
1030.501	1106.96
1030.79	1067.87
1031.078	1076.91
1031.367	1038.94
1031.656	1065.16
1031.945	1071.26
1032.233	1031.26
1032.522	1016.57
1032.81	1021.31
1033.099	1024.7
1033.387	994.42
1033.675	1004.14
1033.963	991.26
1034.251	1012.05
1034.54	972.95
1034.828	965.95
1035.116	1005.04
1035.403	1002.33
1035.691	954.88
1035.979	950.13
1036.267	940.64
1036.554	958.72
1036.842	928.44
1037.129	925.05
1037.417	928.89
1037.704	916.68
1037.992	904.26
1038.279	906.74
1038.566	913.75
1038.853	913.75
1039.14	913.75
