Data from hue_270_FLMS001491_00055.txt Node
Date: Tue Feb 07 15:57:23 GMT 2017
User: dcchb
Spectrometer: FLMS00149
Trigger mode: 0
Integration Time (sec): 2.000000E-2
Scans to average: 10
Electric dark correction enabled: true
Nonlinearity correction enabled: false
Boxcar width: 0
XAxis mode: Wavelengths
Number of Pixels in Spectrum: 2048
>>>>>Begin Spectral Data<<<<<
341.393	-13.87
341.776	-13.87
342.16	-13.87
342.543	-54.09
342.927	-67.2
343.31	-55.68
343.693	-54.09
344.077	-57.48
344.46	-56.81
344.843	-57.03
345.226	-44.6
345.61	-29.24
345.993	0.37
346.376	-17.94
346.759	11.89
347.142	19.35
347.525	29.97
347.908	55.28
348.291	77.2
348.674	95.51
349.057	83.3
349.44	133.25
349.823	134.37
350.206	160.36
350.588	215.05
350.971	207.82
351.354	230.19
351.737	218.67
352.119	238.55
352.502	255.95
352.884	246.46
353.267	243.75
353.65	306.12
354.032	287.37
354.414	308.16
354.797	307.25
355.179	301.38
355.562	312.22
355.944	322.62
356.326	337.99
356.709	315.39
357.091	336.63
357.473	339.34
357.855	346.12
358.238	316.74
358.62	334.6
359.002	333.47
359.384	351.32
359.766	310.64
360.148	324.88
360.53	315.39
360.912	336.18
361.294	325.56
361.676	327.82
362.057	324.88
362.439	321.49
362.821	334.14
363.203	319.68
363.584	307.25
363.966	325.78
364.348	329.4
364.729	339.79
365.111	312.22
365.493	308.61
365.874	310.87
366.256	327.59
366.637	323.97
367.019	310.19
367.4	342.05
367.781	298.89
368.163	295.05
368.544	316.74
368.925	299.34
369.306	317.42
369.688	339.57
370.069	300.25
370.45	308.61
370.831	309.51
371.212	286.91
371.593	316.97
371.974	320.58
372.355	305.22
372.736	329.62
373.117	323.52
373.498	317.2
373.879	319.91
374.26	324.43
374.641	311.32
375.021	322.62
375.402	312
375.783	315.84
376.163	356.29
376.544	315.61
376.925	304.99
377.305	310.87
377.686	339.12
378.066	336.4
378.447	319.91
378.827	327.36
379.208	322.39
379.588	326.46
379.968	344.99
380.349	348.61
380.729	323.3
381.109	332.56
381.489	343.64
381.87	352.22
382.25	334.14
382.63	350.64
383.01	366.91
383.39	332.11
383.77	334.6
384.15	343.41
384.53	368.95
384.91	326.69
385.29	345.67
385.67	368.04
386.049	363.3
386.429	344.09
386.809	366.01
387.189	363.75
387.568	371.43
387.948	360.81
388.328	356.97
388.707	355.16
389.087	357.87
389.466	354.03
389.846	361.49
390.225	378.66
390.605	382.05
390.984	362.62
391.363	382.05
391.743	382.96
392.122	357.19
392.501	378.21
392.881	382.5
393.26	387.02
393.639	394.03
394.018	391.32
394.397	390.41
394.776	387.93
395.155	394.26
395.534	357.87
395.913	403.29
396.292	414.59
396.671	385.89
397.05	411.66
397.429	423.63
397.808	406.46
398.186	407.14
398.565	401.26
398.944	416.63
399.323	409.62
399.701	414.14
400.08	416.18
400.458	421.6
400.837	422.28
401.215	416.63
401.594	444.65
401.972	459.56
402.351	423.18
402.729	440.36
403.107	451.65
403.486	438.55
403.864	446.01
404.242	443.29
404.62	455.5
404.999	445.1
405.377	450.75
405.755	465.89
406.133	456.17
406.511	476.29
406.889	484.2
407.267	471.99
407.645	489.62
408.023	474.25
408.401	493.46
408.779	490.07
409.156	502.95
409.534	499.79
409.912	517.42
410.29	523.52
410.667	523.52
411.045	514.03
411.422	533.91
411.8	536.85
412.178	558.77
412.555	588.15
412.933	568.26
413.31	560.8
413.687	570.52
414.065	595.61
414.442	589.05
414.819	588.6
415.197	613.91
415.574	627.7
415.951	621.59
416.328	614.14
416.705	618.88
417.082	643.51
417.46	617.07
417.837	626.34
418.214	669.95
418.591	670.86
418.967	681.71
419.344	683.51
419.721	722.61
420.098	688.48
420.475	714.02
420.852	730.29
421.228	732.78
421.605	718.31
421.982	728.94
422.358	774.81
422.735	771.19
423.111	767.35
423.488	760.35
423.864	789.72
424.241	774.13
424.617	809.61
424.994	796.05
425.37	828.14
425.746	836.73
426.123	843.06
426.499	847.12
426.875	859.55
427.251	874.24
427.627	894.81
428.003	899.1
428.379	921.02
428.756	929.83
429.132	959.44
429.507	921.92
429.883	922.15
430.259	982.04
430.635	975.26
431.011	982.49
431.387	1029.04
431.763	1010.96
432.138	1020.91
432.514	1052.54
432.89	1029.04
433.265	1054.8
433.641	1074.01
434.016	1081.92
434.392	1128.02
434.767	1123.5
435.143	1131.86
435.518	1166.89
435.894	1165.76
436.269	1210.5
436.644	1225.42
437.02	1242.14
437.395	1234.01
437.77	1278.98
438.145	1291.63
438.52	1289.82
438.895	1297.96
439.271	1334.34
439.646	1359.43
440.021	1365.76
440.395	1339.54
440.77	1362.59
441.145	1398.3
441.52	1401.91
441.895	1433.78
442.27	1432.19
442.645	1469.26
443.019	1455.02
443.394	1471.29
443.769	1478.29
444.143	1469.93
444.518	1484.62
444.892	1505.64
445.267	1495.92
445.641	1547.9
446.016	1563.94
446.39	1552.64
446.764	1548.58
447.139	1593.09
447.513	1631.74
447.887	1579.53
448.262	1605.75
448.636	1597.84
449.01	1622.02
449.384	1659.08
449.758	1664.5
450.132	1655.69
450.506	1652.3
450.88	1678.97
451.254	1679.42
451.628	1669.25
452.002	1721.45
452.376	1694.33
452.75	1711.73
453.123	1767.78
453.497	1784.5
453.871	1787.89
454.244	1796.03
454.618	1830.6
454.992	1881.67
455.365	1869.92
455.739	1909.47
456.112	1881.22
456.486	1937.49
456.859	1925.74
457.232	1949.24
457.606	1960.99
457.979	1944.04
458.352	2005.51
458.725	2033.76
459.099	2020.2
459.472	2062.91
459.845	2098.17
460.218	2133.19
460.591	2122.8
460.964	2117.37
461.337	2168.67
461.71	2191.27
462.083	2224.26
462.456	2203.47
462.829	2235.79
463.201	2268.56
463.574	2287.09
463.947	2297.48
464.32	2360.08
464.692	2368.89
465.065	2358.72
465.438	2411.83
465.81	2416.57
466.183	2441.21
466.555	2496.35
466.928	2496.57
467.3	2486.86
467.672	2522.33
468.045	2603.91
468.417	2611.82
468.789	2622.45
469.161	2638.72
469.534	2719.62
469.906	2707.87
470.278	2714.19
470.65	2765.94
471.022	2800.52
471.394	2871.25
471.766	2870.35
472.138	2875.09
472.51	2929.33
472.882	2977.92
473.253	2943.79
473.625	3009.78
473.997	3122.77
474.369	3082.09
474.74	3132.94
475.112	3170
475.484	3239.6
475.855	3290
476.227	3300.39
476.598	3367.74
476.97	3381.75
477.341	3430.33
477.713	3464.91
478.084	3482.31
478.455	3563.21
478.827	3608.18
479.198	3704.22
479.569	3689.99
479.94	3765.69
480.311	3758.46
480.682	3832.81
481.053	3922.98
481.424	3974.95
481.795	3962.75
482.166	4054.27
482.537	4103.76
482.908	4095.85
483.279	4198.45
483.65	4276.19
484.021	4306.92
484.391	4360.25
484.762	4401.38
485.133	4364.09
485.503	4447.93
485.874	4522.28
486.244	4610.19
486.615	4648.83
486.985	4672.33
487.356	4746.01
487.726	4750.3
488.097	4851.54
488.467	4820.58
488.837	4906.9
489.207	4982.84
489.578	5039.33
489.948	5085.66
490.318	5112.78
490.688	5188.03
491.058	5223.96
491.428	5280.68
491.798	5293.56
492.168	5417.63
492.538	5408.59
492.908	5475.93
493.278	5516.83
493.648	5546.89
494.017	5581.46
494.387	5608.58
494.757	5619.88
495.126	5727.67
495.496	5709.37
495.866	5694.91
496.235	5766.32
496.605	5865.98
496.974	5879.76
497.344	5894.68
497.713	5919.76
498.082	5944.39
498.452	6022.13
498.821	6086.99
499.19	6027.78
499.559	6050.15
499.928	6068.68
500.298	6098.51
500.667	6143.93
501.036	6162.24
501.405	6225.06
501.774	6268.23
502.143	6232.29
502.512	6318.85
502.88	6285.17
503.249	6341.67
503.618	6371.73
503.987	6355
504.356	6397.26
504.724	6429.8
505.093	6431.84
505.462	6452.63
505.83	6467.09
506.199	6509.57
506.567	6555.68
506.936	6579.63
507.304	6615.56
507.672	6573.3
508.041	6627.31
508.409	6661.21
508.777	6688.33
509.145	6790.7
509.514	6721.09
509.882	6787.99
510.25	6722
510.618	6769.23
510.986	6850.13
511.354	6863.01
511.722	6829.57
512.09	6926.51
512.458	6854.88
512.826	6921.99
513.193	6924.03
513.561	6920.64
513.929	6972.61
514.297	7047.87
514.664	7022.1
515.032	7080.86
515.4	7095.55
515.767	7097.58
516.135	7112.72
516.502	7084.93
516.869	7100.52
517.237	7193.17
517.604	7139.39
517.972	7214.41
518.339	7159.05
518.706	7149.78
519.073	7227.07
519.44	7173.96
519.808	7256
520.175	7281.98
520.542	7358.37
520.909	7374.41
521.276	7354.98
521.643	7459.38
522.009	7423.45
522.376	7477.68
522.743	7515.42
523.11	7567.4
523.477	7590.9
523.843	7597
524.21	7663.22
524.577	7654.18
524.943	7670.45
525.31	7712.71
525.676	7698.02
526.043	7713.61
526.409	7740.5
526.776	7815.3
527.142	7821.63
527.508	7826.6
527.874	7907.05
528.241	7874.74
528.607	7889.43
528.973	7930.55
529.339	7983.66
529.705	7973.72
530.071	7970.55
530.437	8047.39
530.803	8019.14
531.169	8096.2
531.535	8037.9
531.901	8092.13
532.267	8105.01
532.632	8116.31
532.998	8229.98
533.364	8223.2
533.73	8173.26
534.095	8222.3
534.461	8235.4
534.826	8291
535.192	8249.19
535.557	8279.25
535.923	8259.59
536.288	8322.18
536.653	8328.28
537.019	8268.17
537.384	8272.24
537.749	8340.71
538.114	8370.99
538.479	8292.13
538.845	8383.65
539.21	8309.75
539.575	8328.74
539.94	8420.71
540.305	8460.03
540.67	8449.64
541.034	8394.72
541.399	8413.03
541.764	8465.68
542.129	8512.23
542.494	8406.02
542.858	8510.2
543.223	8502.97
543.587	8479.24
543.952	8449.18
544.316	8511.56
544.681	8463.65
545.045	8524.89
545.41	8648.95
545.774	8504.78
546.138	8558.56
546.503	8589.97
546.867	8554.27
547.231	8643.53
547.595	8643.76
547.959	8654.15
548.324	8644.89
548.688	8600.14
549.052	8648.5
549.416	8672.23
549.779	8631.33
550.143	8660.03
550.507	8703.19
550.871	8766.92
551.235	8722.17
551.599	8719.69
551.962	8727.82
552.326	8731.89
552.689	8794.03
553.053	8751.55
553.417	8706.58
553.78	8858.44
554.143	8812.56
554.507	8811.66
554.87	8805.33
555.234	8887.37
555.597	8790.64
555.96	8854.82
556.323	8886.91
556.686	8915.61
557.05	8992
557.413	8919.68
557.776	8938.44
558.139	8939.57
558.502	8972.11
558.865	9024.31
559.228	9065.21
559.59	9102.73
559.953	9134.36
560.316	9139.79
560.679	9164.19
561.041	9199
561.404	9271.99
561.767	9217.98
562.129	9284.64
562.492	9394.7
562.854	9276.28
563.217	9277.64
563.579	9409.61
563.941	9391.08
564.304	9406.67
564.666	9482.38
565.028	9539.78
565.39	9421.36
565.753	9518.54
566.115	9582.49
566.477	9568.48
566.839	9552.21
567.201	9653.45
567.563	9708.59
567.925	9700.23
568.287	9791.75
568.648	9706.33
569.01	9793.56
569.372	9885.53
569.734	9773.22
570.095	9853.44
570.457	9998.52
570.819	9970.73
571.18	9958.75
571.542	10005.53
571.903	10004.17
572.265	10084.85
572.626	10058.41
572.987	10138.41
573.349	10138.63
573.71	10196.71
574.071	10201.45
574.432	10252.53
574.794	10320.77
575.155	10311.06
575.516	10325.97
575.877	10361.9
576.238	10443.93
576.599	10440.77
576.96	10438.74
577.32	10478.96
577.681	10578.62
578.042	10588.34
578.403	10528
578.763	10593.99
579.124	10605.29
579.485	10645.29
579.845	10770.25
580.206	10708.33
580.566	10791.04
580.927	10812.29
581.287	10822.68
581.648	10847.99
582.008	10876.24
582.368	10857.93
582.728	10876.69
583.089	10941.32
583.449	10946.75
583.809	10973.64
584.169	11036.01
584.529	11089.79
584.889	11113.75
585.249	11100.41
585.609	11134.09
585.969	11191.94
586.329	11152.84
586.688	11203.69
587.048	11242.33
587.408	11219.28
587.768	11233.07
588.127	11247.98
588.487	11333.63
588.846	11416.56
589.206	11347.41
589.565	11446.85
589.925	11490.01
590.284	11432.83
590.643	11526.62
591.003	11485.71
591.362	11547.86
591.721	11524.81
592.08	11641.42
592.44	11578.14
592.799	11650.23
593.158	11616.11
593.517	11674.64
593.876	11753.28
594.235	11690.91
594.593	11748.76
594.952	11775.65
595.311	11753.73
595.67	11796.67
596.029	11796.44
596.387	11885.7
596.746	11934.52
597.104	11885.7
597.463	11930.22
597.822	11887.74
598.18	11868.98
598.538	11943.33
598.897	12013.38
599.255	11906.27
599.613	12150.1
599.972	12031.01
600.33	12086.38
600.688	12021.52
601.046	12093.16
601.404	12079.37
601.762	12049.32
602.12	12144.91
602.478	12126.6
602.836	12118.24
603.194	12127.96
603.552	12198.46
603.91	12132.48
604.268	12186.71
604.625	12173.15
604.983	12299.48
605.341	12221.29
605.698	12209.09
606.056	12360.72
606.413	12320.04
606.771	12309.65
607.128	12413.83
607.485	12299.93
607.843	12328.18
608.2	12451.34
608.557	12396.2
608.914	12353.26
609.272	12446.82
609.629	12422.41
609.986	12515.52
610.343	12361.4
610.7	12532.24
611.057	12421.06
611.414	12475.52
611.771	12568.85
612.127	12579.02
612.484	12601.17
612.841	12657.44
613.198	12543.99
613.554	12615.85
613.911	12604.1
614.267	12622.18
614.624	12629.87
614.98	12642.07
615.337	12684.1
615.693	12602.52
616.05	12747.6
616.406	12752.57
616.762	12664.22
617.118	12681.62
617.475	12722.29
617.831	12763.87
618.187	12737.21
618.543	12756.64
618.899	12908.95
619.255	12807.49
619.611	12763.87
619.967	12804.78
620.323	12823.08
620.678	12859.69
621.034	12766.81
621.39	12808.39
621.746	12812.23
622.101	12941.04
622.457	12769.75
622.812	12873.7
623.168	12875.06
623.523	12938.11
623.879	12979.23
624.234	12832.8
624.589	12859.46
624.945	12929.29
625.3	12935.62
625.655	12902.85
626.01	12849.75
626.365	12874.6
626.72	12931.1
627.075	12814.72
627.43	12858.79
627.785	12864.89
628.14	12840.03
628.495	12875.96
628.85	12748.51
629.205	12864.89
629.559	12952.34
629.914	12756.87
630.269	12857.2
630.623	12779.69
630.978	12761.61
631.332	12819.24
631.687	12760.94
632.041	12775.4
632.396	12765.23
632.75	12740.15
633.104	12766.81
633.459	12668.51
633.813	12607.04
634.167	12723.65
634.521	12600.94
634.875	12620.37
635.229	12647.72
635.583	12677.32
635.937	12647.27
636.291	12545.12
636.645	12677.77
636.999	12514.39
637.352	12568.62
637.706	12482.52
638.06	12538.79
638.413	12570.88
638.767	12498.34
639.121	12523.88
639.474	12388.06
639.828	12436.88
640.181	12528.17
640.534	12485.01
640.888	12387.39
641.241	12368.4
641.594	12355.52
641.947	12384.45
642.301	12343.32
642.654	12374.96
643.007	12386.93
643.36	12378.35
643.713	12353.71
644.066	12372.47
644.419	12314.17
644.771	12215.19
645.124	12152.36
645.477	12138.35
645.83	11974.74
646.182	12000.96
646.535	11906.95
646.888	11945.82
647.24	11886.38
647.593	11928.19
647.945	11884.12
648.298	11844.8
648.65	11939.26
649.002	11882.77
649.355	11923.44
649.707	11876.89
650.059	11922.09
650.411	12067.39
650.763	12093.38
651.115	12153.49
651.467	12173.15
651.819	12188.52
652.171	12181.74
652.523	12118.24
652.875	12069.65
653.227	12103.1
653.578	12088.18
653.93	12098.58
654.282	12007.28
654.633	11975.65
654.985	12102.87
655.337	12067.39
655.688	12108.3
656.039	12098.58
656.391	12028.75
656.742	12117.11
657.094	12105.81
657.445	12109.88
657.796	12121.63
658.147	12109.2
658.498	12099.03
658.849	12104
659.2	12075.98
659.551	12075.3
659.902	12121.4
660.253	12087.96
660.604	12168.18
660.955	12048.41
661.306	12092.03
661.656	12136.09
662.007	12100.84
662.358	12064.68
662.708	12083.89
663.059	12094.06
663.409	12043.21
663.76	12068.98
664.11	12070.33
664.461	12152.14
664.811	12118.01
665.161	12082.08
665.511	12026.72
665.862	12101.07
666.212	12118.47
666.562	12095.42
666.912	12081.63
667.262	12089.77
667.612	12078.92
667.962	12098.35
668.312	11995.31
668.662	12104.23
669.011	12096.77
669.361	12056.1
669.711	12061.97
670.06	12067.62
670.41	12007.96
670.76	12029.88
671.109	11970.9
671.459	12064.23
671.808	12065.81
672.157	12078.24
672.507	11913.5
672.856	11915.53
673.205	11973.61
673.554	12026.04
673.904	11974.97
674.253	12034.4
674.602	12032.14
674.951	11888.64
675.3	11743.56
675.649	11969.77
675.998	11923.67
676.346	11926.38
676.695	11920.28
677.044	11870.11
677.393	11865.59
677.741	11893.61
678.09	11912.6
678.438	11850
678.787	11845.03
679.135	11799.6
679.484	11797.8
679.832	11796.89
680.181	11659.95
680.529	11777.91
680.877	11705.6
681.225	11661.98
681.573	11774.75
681.922	11638.25
682.27	11628.76
682.618	11614.98
682.966	11649.55
683.314	11614.98
683.661	11551.48
684.009	11461.53
684.357	11470.57
684.705	11439.39
685.053	11505.83
685.4	11473.96
685.748	11352.84
686.095	11429.9
686.443	11391.48
686.79	11315.78
687.138	11297.47
687.485	11285.27
687.832	11263.35
688.18	11257.47
688.527	11209.56
688.874	11210.24
689.221	11102.9
689.568	11175.21
689.915	11122.56
690.262	11029.46
690.609	11036.91
690.956	11019.96
691.303	11057.93
691.65	10970.47
691.997	10901.1
692.344	10810.93
692.69	10826.3
693.037	10855.45
693.383	10787.65
693.73	10816.81
694.077	10638.96
694.423	10671.73
694.769	10701.1
695.116	10547.89
695.462	10566.42
695.808	10565.29
696.155	10539.53
696.501	10501.11
696.847	10457.49
697.193	10368.91
697.539	10433.09
697.885	10392.64
698.231	10305.18
698.577	10262.24
698.923	10312.86
699.269	10215.24
699.614	10146.54
699.96	10186.09
700.306	10056.6
700.651	10103.6
700.997	10012.53
701.342	10062.02
701.688	10009.14
702.033	9973.66
702.379	9968.01
702.724	9848.92
703.069	9929.6
703.415	9748.13
703.76	9752.2
704.105	9804.63
704.45	9764.4
704.795	9658.19
705.14	9701.58
705.485	9650.06
705.83	9587.46
706.175	9563.51
706.52	9564.18
706.865	9550.4
707.209	9549.49
707.554	9471.53
707.899	9511.53
708.243	9388.59
708.588	9490.29
708.932	9325.32
709.277	9353.34
709.621	9333.46
709.966	9303.17
710.31	9277.64
710.654	9239.67
710.998	9270.86
711.342	9267.47
711.687	9163.29
712.031	9167.58
712.375	9187.92
712.719	9211.42
713.063	9109.28
713.407	9145.66
713.75	9075.16
714.094	9128.26
714.438	9078.55
714.782	9063.18
715.125	8989.51
715.469	9016.18
715.812	9003.07
716.156	8927.82
716.499	8946.12
716.843	8989.06
717.186	8970.98
717.53	9003.52
717.873	8929.62
718.216	8921.04
718.559	8822.96
718.902	8819.8
719.246	8865.22
719.589	8765.11
719.932	8761.27
720.275	8838.33
720.617	8759.91
720.96	8764.66
721.303	8761.04
721.646	8771.21
721.989	8717.2
722.331	8709.97
722.674	8746.8
723.016	8704.77
723.359	8724.21
723.701	8735.73
724.044	8694.38
724.386	8603.53
724.729	8704.55
725.071	8652.34
725.413	8563.98
725.755	8562.18
726.097	8553.14
726.439	8550.2
726.782	8507.94
727.124	8613.93
727.465	8591.1
727.807	8593.36
728.149	8530.99
728.491	8519.24
728.833	8477.88
729.175	8484.66
729.516	8462.97
729.858	8526.7
730.199	8448.51
730.541	8457.77
730.882	8519.69
731.224	8457.77
731.565	8454.83
731.906	8467.49
732.248	8432.69
732.589	8444.89
732.93	8384.1
733.271	8382.07
733.612	8455.51
733.953	8482.18
734.294	8418.68
734.635	8414.38
734.976	8483.08
735.317	8409.64
735.658	8445.57
735.999	8455.74
736.339	8394.04
736.68	8442.41
737.021	8439.24
737.361	8452.57
737.702	8387.49
738.042	8445.12
738.383	8445.57
738.723	8437.89
739.063	8460.03
739.404	8470.88
739.744	8480.82
740.084	8528.5
740.424	8506.13
740.764	8481.95
741.104	8508.84
741.444	8510.43
741.784	8516.75
742.124	8574.15
742.464	8518.56
742.804	8487.38
743.143	8425
743.483	8511.56
743.823	8485.79
744.162	8549.75
744.502	8633.13
744.841	8537.77
745.181	8595.17
745.52	8623.42
745.86	8707.71
746.199	8742.06
746.538	8690.31
746.877	8727.82
747.216	8807.37
747.556	8796.75
747.895	8868.83
748.234	8879.91
748.573	8963.07
748.911	8987.93
749.25	9048.72
749.589	9054.37
749.928	9128.71
750.267	9191.99
750.605	9261.14
750.944	9333.68
751.283	9366.67
751.621	9418.88
751.96	9479.89
752.298	9526.9
752.636	9609.38
752.975	9699.77
753.313	9760.56
753.651	9878.53
753.989	9868.58
754.327	10008.01
754.666	10122.36
755.004	10131.85
755.342	10384.27
755.679	10451.39
756.017	10537.49
756.355	10750.14
756.693	10742.01
757.031	10911.72
757.368	10975.22
757.706	11132.73
758.044	11223.35
758.381	11351.26
758.719	11556
759.056	11723
759.394	11783.79
759.731	11924.35
760.068	12095.19
760.405	12157.56
760.743	12337.22
761.08	12538.12
761.417	12611.34
761.754	12760.94
762.091	12889.29
762.428	13034.37
762.765	13092.68
763.102	13446.34
763.438	13524.31
763.775	13591.65
764.112	13775.37
764.449	13996.38
764.785	14072.77
765.122	14197.28
765.458	14264.62
765.795	14448.8
766.131	14596.37
766.467	14805.63
766.804	14887.21
767.14	14980.76
767.476	15126.98
767.812	15324.26
768.148	15437.48
768.485	15501.43
768.821	15583.69
769.157	15749.78
769.492	15799.73
769.828	15979.61
770.164	15963.79
770.5	16187.74
770.836	16292.82
771.171	16324.46
771.507	16477.22
771.842	16475.64
772.178	16602.19
772.513	16712.92
772.849	16812.81
773.184	16815.29
773.519	16917.44
773.855	16991.56
774.19	17044.89
774.525	17042.86
774.86	17205.34
775.195	17281.27
775.53	17397.2
775.865	17278.78
776.2	17257.77
776.535	17272.23
776.87	17374.83
777.205	17508.61
777.539	17445.11
777.874	17617.76
778.209	17501.83
778.543	17574.14
778.878	17546.8
779.212	17658.89
779.547	17602.39
779.881	17735.72
780.215	17748.6
780.55	17868.15
780.884	17677.42
781.218	17751.54
781.552	17830.86
781.886	17864.53
782.22	17727.81
782.554	17785.21
782.888	17635.61
783.222	17690.52
783.556	17688.04
783.889	17753.8
784.223	17619.11
784.557	17728.71
784.89	17765.55
785.224	17633.58
785.557	17655.5
785.891	17728.49
786.224	17709.28
786.558	17734.82
786.891	17619.11
787.224	17528.04
787.557	17464.54
787.891	17580.92
788.224	17566.01
788.557	17651.2
788.89	17582.96
789.223	17575.5
789.556	17527.82
789.888	17423.19
790.221	17434.71
790.554	17314.94
790.887	17415.95
791.219	17418.89
791.552	17291.66
791.884	17297.99
792.217	17365.79
792.549	17240.14
792.882	17198.11
793.214	17115.4
793.546	17243.98
793.879	17087.6
794.211	17000.6
794.543	17118.56
794.875	16954.05
795.207	17102.52
795.539	17056.19
795.871	16973.93
796.203	16901.39
796.535	16786.82
796.867	16839.25
797.198	16719.25
797.53	16837.21
797.862	16681.96
798.193	16699.14
798.525	16586.6
798.856	16660.95
799.188	16566.71
799.519	16557.9
799.85	16380.5
800.182	16486.71
800.513	16525.13
800.844	16269.54
801.175	16466.15
801.506	16324.46
801.837	16258.7
802.168	16259.15
802.499	16232.93
802.83	16160.39
803.161	16142.32
803.491	16127.4
803.822	16160.39
804.153	16073.16
804.483	15976.9
804.814	15874.07
805.145	15890.57
805.475	15903.45
805.805	15857.35
806.136	15867.75
806.466	15783.46
806.796	15821.19
807.126	15693.74
807.457	15702.1
807.787	15670.69
808.117	15664.36
808.447	15527.42
808.777	15601.31
809.107	15491.03
809.436	15481.09
809.766	15489.9
810.096	15447.87
810.426	15366.97
810.755	15385.05
811.085	15304.82
811.414	15347.31
811.744	15193.19
812.073	15221.89
812.403	15315.22
812.732	15113.87
813.061	15177.37
813.39	15095.34
813.719	15048.79
814.049	15083.36
814.378	15058.05
814.707	14977.6
815.036	15025.96
815.365	14901.67
815.693	14788
816.022	14815.12
816.351	14832.29
816.68	14629.81
817.008	14829.58
817.337	14717.49
817.665	14663.71
817.994	14704.16
818.322	14723.37
818.651	14585.97
818.979	14585.52
819.307	14561.57
819.636	14582.58
819.964	14519.08
820.292	14550.27
820.62	14497.84
820.948	14432.53
821.276	14510.72
821.604	14486.09
821.932	14460.33
822.259	14488.12
822.587	14445.64
822.915	14414.23
823.243	14482.47
823.57	14499.65
823.898	14485.86
824.225	14408.12
824.553	14446.09
824.88	14492.64
825.207	14470.27
825.535	14422.59
825.862	14498.52
826.189	14486.54
826.516	14486.77
826.843	14554.33
827.17	14482.25
827.497	14467.78
827.824	14505.97
828.151	14564.28
828.478	14552.07
828.805	14543.71
829.131	14532.19
829.458	14429.37
829.785	14462.13
830.111	14479.53
830.438	14524.51
830.764	14541.68
831.09	14511.4
831.417	14472.53
831.743	14511.85
832.069	14542.36
832.395	14454.9
832.722	14511.17
833.048	14422.13
833.374	14498.97
833.7	14369.25
834.026	14500.1
834.351	14389.37
834.677	14457.84
835.003	14423.94
835.329	14398.86
835.654	14375.81
835.98	14316.6
836.306	14303.27
836.631	14239.31
836.956	14270.05
837.282	14296.26
837.607	14263.72
837.932	14279.77
838.258	14239.31
838.583	14224.63
838.908	14206.1
839.233	14138.07
839.558	14059.66
839.883	14061.69
840.208	14020.34
840.533	14017.4
840.858	14046.1
841.182	14047.68
841.507	13993.45
841.832	13953.9
842.156	13944.18
842.481	13854.47
842.805	13883.17
843.13	13837.97
843.454	13724.07
843.778	13778.08
844.103	13777.63
844.427	13702.83
844.751	13693.11
845.075	13613.79
845.399	13634.36
845.723	13449.28
846.047	13535.38
846.371	13427.36
846.695	13421.94
847.019	13364.31
847.343	13235.95
847.666	13181.26
847.99	13191.66
848.313	13169.96
848.637	13079.8
848.96	13059.46
849.284	12983.08
849.607	12972
849.931	12878.45
850.254	12820.37
850.577	12763.65
850.9	12739.69
851.223	12654.27
851.546	12580.38
851.869	12500.38
852.192	12603.2
852.515	12495.63
852.838	12485.69
853.161	12476.2
853.483	12390.55
853.806	12296.77
854.129	12296.77
854.451	12252.02
854.774	12242.08
855.096	12160.5
855.419	12103.1
855.741	12084.34
856.063	12048.64
856.385	12015.19
856.708	11937.45
857.03	11863.78
857.352	11896.55
857.674	11836.89
857.996	11856.78
858.318	11731.81
858.64	11750.79
858.961	11725.48
859.283	11749.21
859.605	11625.15
859.926	11609.78
860.248	11586.96
860.57	11607.52
860.891	11562.55
861.212	11409.33
861.534	11444.36
861.855	11399.84
862.176	11442.1
862.498	11367.53
862.819	11394.42
863.14	11372.05
863.461	11322.33
863.782	11269.68
864.103	11325.27
864.424	11276.68
864.745	11361.2
865.065	11130.24
865.386	11230.58
865.707	11179.06
866.027	11165.95
866.348	11150.58
866.668	11244.82
866.989	11133.18
867.309	11043.24
867.63	11018.83
867.95	11042.11
868.27	10945.62
868.59	11007.54
868.91	10937.48
869.23	11019.51
869.55	10925.73
869.87	11106.97
870.19	10962.34
870.51	10976.8
870.83	10967.31
871.15	10887.99
871.469	10905.84
871.789	10877.6
872.109	10844.6
872.428	10839.4
872.748	10763.02
873.067	10720.09
873.386	10768.9
873.706	10723.48
874.025	10716.7
874.344	10701.33
874.663	10728.67
874.982	10756.02
875.301	10646.87
875.62	10616.59
875.939	10607.32
876.258	10646.19
876.577	10605.29
876.896	10673.08
877.214	10535.91
877.533	10554.67
877.852	10482.35
878.17	10486.19
878.489	10588.56
878.807	10551.73
879.125	10445.29
879.444	10503.59
879.762	10431.96
880.08	10390.38
880.398	10377.95
880.716	10456.36
881.034	10307.21
881.352	10328.46
881.67	10315.35
881.988	10335.46
882.306	10246.2
882.624	10262.7
882.941	10196.71
883.259	10170.27
883.577	10135.24
883.894	10160.33
884.212	10104.06
884.529	10152.42
884.846	10147.9
885.164	10060.67
885.481	9981.12
885.798	9969.6
886.115	9972.31
886.432	9921.46
886.75	9917.39
887.067	9909.49
887.383	9838.3
887.7	9899.32
888.017	9796.27
888.334	9814.12
888.651	9757.4
888.967	9682.15
889.284	9645.31
889.6	9658.64
889.917	9652.09
890.233	9556.73
890.55	9576.61
890.866	9576.84
891.182	9541.59
891.498	9452.32
891.815	9492.77
892.131	9426.56
892.447	9432.89
892.763	9341.36
893.079	9438.54
893.395	9320.35
893.71	9327.81
894.026	9276.06
894.342	9280.58
894.657	9219.11
894.973	9232.89
895.289	9182.27
895.604	9152.67
895.92	9072.45
896.235	9081.94
896.55	9080.13
896.865	9049.85
897.181	8964.65
897.496	8944.09
897.811	8922.84
898.126	8929.17
898.441	8855.28
898.756	8861.6
899.071	8798.1
899.386	8818.67
899.7	8650.08
900.015	8705
900.33	8629.29
900.644	8601.72
900.959	8593.36
901.273	8585.9
901.588	8553.14
901.902	8460.03
902.216	8491.22
902.531	8523.98
902.845	8428.62
903.159	8345.91
903.473	8325.8
903.787	8335.06
904.101	8215.52
904.415	8273.6
904.729	8228.4
905.042	8149.98
905.356	8173.94
905.67	8148.18
905.984	8159.25
906.297	8141.62
906.611	8093.71
906.924	8063.88
907.237	8029.53
907.551	7959.03
907.864	7970.78
908.177	7914.74
908.491	7898.24
908.804	7873.15
909.117	7775.76
909.43	7744.12
909.743	7735.08
910.056	7673.61
910.368	7644.69
910.681	7646.72
910.994	7564.69
911.307	7597.68
911.619	7477.23
911.932	7521.98
912.244	7437.69
912.557	7430.45
912.869	7376.22
913.181	7374.41
913.494	7360.4
913.806	7275.2
914.118	7239.5
914.43	7267.07
914.742	7249.89
915.054	7151.82
915.366	7130.35
915.678	7123.34
915.99	7087.41
916.302	6997.25
916.613	7000.64
916.925	6982.78
917.236	7014.87
917.548	6958.6
917.859	6926.29
918.171	6859.85
918.482	6891.49
918.794	6868.21
919.105	6825.95
919.416	6770.58
919.727	6791.38
920.038	6721.55
920.349	6724.26
920.66	6726.74
920.971	6697.82
921.282	6633.64
921.593	6633.87
921.903	6591.83
922.214	6516.58
922.525	6487.43
922.835	6501.21
923.146	6443.36
923.456	6472.74
923.767	6387.32
924.077	6447.2
924.387	6358.62
924.697	6346.87
925.008	6332.4
925.318	6267.55
925.628	6300.54
925.938	6234.33
926.248	6222.35
926.558	6194.1
926.867	6189.58
927.177	6106.65
927.487	6138.96
927.796	6042.92
928.106	6104.84
928.416	6018.97
928.725	6081.79
929.034	5980.77
929.344	5972.64
929.653	5926.77
929.962	5913.43
930.271	5907.78
930.581	5830.72
930.89	5854
931.199	5841.8
931.508	5794.34
931.817	5795.92
932.125	5769.03
932.434	5718.41
932.743	5692.42
933.051	5616.94
933.36	5671.4
933.669	5596.15
933.977	5590.73
934.286	5606.1
934.594	5604.51
934.902	5533.33
935.21	5506.89
935.519	5516.61
935.827	5440.9
936.135	5457.17
936.443	5438.42
936.751	5407.68
937.059	5367.23
937.367	5391.19
937.674	5349.61
937.982	5330.85
938.29	5288.59
938.597	5308.48
938.905	5197.97
939.213	5191.19
939.52	5223.28
939.827	5228.93
940.135	5143.28
940.442	5109.84
940.749	5131.53
941.056	5143.06
941.363	5033.23
941.67	5031.2
941.977	5038.2
942.284	4965.89
942.591	4951.42
942.898	4967.47
943.205	4954.36
943.511	4925.21
943.818	4882.5
944.125	4843.86
944.431	4829.39
944.738	4834.82
945.044	4825.55
945.35	4753.24
945.657	4826.91
945.963	4718.21
946.269	4713.24
946.575	4721.37
946.881	4720.7
947.187	4684.09
947.493	4659.91
947.799	4636.86
948.105	4619.23
948.41	4570.19
948.716	4581.94
949.022	4581.94
949.327	4535.62
949.633	4504.43
949.938	4514.37
950.244	4506.46
950.549	4497.88
950.854	4406.81
951.16	4418.33
951.465	4433.47
951.77	4410.87
952.075	4369.74
952.38	4335.85
952.685	4360.7
952.99	4290.65
953.294	4270.76
953.599	4274.83
953.904	4249.07
954.209	4173.82
954.513	4228.28
954.818	4147.83
955.122	4178.56
955.426	4144.21
955.731	4071.9
956.035	4140.15
956.339	4119.81
956.643	4085.01
956.948	4053.82
957.252	4059.24
957.556	4064.44
957.86	4026.02
958.163	4019.92
958.467	3969.08
958.771	3980.15
959.075	3924.78
959.378	3918.91
959.682	3942.86
959.985	3891.34
960.289	3886.82
960.592	3869.19
960.896	3850.89
961.199	3865.58
961.502	3850.66
961.805	3800.27
962.108	3800.04
962.411	3796.88
962.714	3759.36
963.017	3698.35
963.32	3761.17
963.623	3709.65
963.926	3665.81
964.228	3691.8
964.531	3702.64
964.833	3664.45
965.136	3616.54
965.438	3572.93
965.741	3621.74
966.043	3585.36
966.345	3531.8
966.648	3561.4
966.95	3549.2
967.252	3525.7
967.554	3503.78
967.856	3518.01
968.158	3460.16
968.46	3427.17
968.761	3447.51
969.063	3404.57
969.365	3431.92
969.666	3432.14
969.968	3376.1
970.269	3359.37
970.571	3352.6
970.872	3349.21
971.174	3330.68
971.475	3341.3
971.776	3332.03
972.077	3283.44
972.378	3301.75
972.679	3255.87
972.98	3223.79
973.281	3231.24
973.582	3229.66
973.883	3222.2
974.183	3181.53
974.484	3170.45
974.785	3182.2
975.085	3153.96
975.386	3183.56
975.686	3122.09
975.986	3111.02
976.287	3094.07
976.587	3046.61
976.887	3053.62
977.187	3053.85
977.487	3049.55
977.787	3008.88
978.087	2986.5
978.387	2986.05
978.687	2960.97
978.987	2961.87
979.286	2957.35
979.586	2945.37
979.885	2926.84
980.185	2942.66
980.484	2894.98
980.784	2899.73
981.083	2879.39
981.382	2878.71
981.682	2840.52
981.981	2859.95
982.28	2824.25
982.579	2810.24
982.878	2820.63
983.177	2807.98
983.475	2803.01
983.774	2774.08
984.073	2760.29
984.372	2728.88
984.67	2691.37
984.969	2702.44
985.267	2682.33
985.566	2665.83
985.864	2649.56
986.162	2677.58
986.461	2607.98
986.759	2656.79
987.057	2608.89
987.355	2590.58
987.653	2587.42
987.951	2592.84
988.249	2572.05
988.547	2567.98
988.844	2561.88
989.142	2559.85
989.44	2548.1
989.737	2527.76
990.035	2507.42
990.332	2506.97
990.63	2482.34
990.927	2469.45
991.224	2483.92
991.521	2446.4
991.819	2455.44
992.116	2404.6
992.413	2385.84
992.71	2391.49
993.006	2411.15
993.303	2365.95
993.6	2353.75
993.897	2362.11
994.193	2368.89
994.49	2344.49
994.787	2334.32
995.083	2344.71
995.379	2284.37
995.676	2253.87
995.972	2253.42
996.268	2269.46
996.565	2264.26
996.861	2249.35
997.157	2227.43
997.453	2213.64
997.749	2210.03
998.044	2185.85
998.34	2172.97
998.636	2194.89
998.932	2141.78
999.227	2119.86
999.523	2145.17
999.818	2095.23
1000.114	2128.45
1000.409	2105.4
1000.704	2112.63
1001	2111.27
1001.295	2037.15
1001.59	2054.78
1001.885	2039.18
1002.18	2046.42
1002.475	2013.42
1002.77	2023.82
1003.065	1997.15
1003.359	1999.41
1003.654	1995.34
1003.949	1991.73
1004.243	1961.9
1004.538	1934.33
1004.832	1958.28
1005.127	1926.87
1005.421	1939.53
1005.715	1905.18
1006.009	1875.57
1006.304	1879.19
1006.598	1834.44
1006.892	1871.5
1007.186	1858.62
1007.48	1845.74
1007.773	1840.32
1008.067	1805.97
1008.361	1824.27
1008.655	1815.69
1008.948	1803.94
1009.242	1779.3
1009.535	1758.51
1009.829	1775.69
1010.122	1758.06
1010.415	1737.72
1010.708	1730.04
1011.001	1719.64
1011.295	1693.88
1011.588	1696.82
1011.881	1691.85
1012.173	1695.46
1012.466	1700.89
1012.759	1673.77
1013.052	1652.98
1013.344	1654.11
1013.637	1630.83
1013.93	1602.13
1014.222	1607.1
1014.514	1605.97
1014.807	1605.52
1015.099	1610.95
1015.391	1611.85
1015.683	1541.34
1015.976	1563.04
1016.268	1572.98
1016.56	1514.9
1016.851	1518.07
1017.143	1503.6
1017.435	1482.81
1017.727	1504.51
1018.018	1545.86
1018.31	1465.87
1018.602	1488.92
1018.893	1483.27
1019.185	1456.6
1019.476	1420.44
1019.767	1420.22
1020.058	1425.87
1020.35	1379.54
1020.641	1395.58
1020.932	1373.44
1021.223	1379.54
1021.514	1391.29
1021.804	1379.31
1022.095	1383.38
1022.386	1329.15
1022.677	1343.16
1022.967	1337.06
1023.258	1325.76
1023.548	1342.48
1023.839	1310.16
1024.129	1305.19
1024.419	1297.73
1024.709	1303.16
1025	1291.86
1025.29	1243.95
1025.58	1263.38
1025.87	1265.19
1026.16	1238.07
1026.449	1230.62
1026.739	1243.05
1027.029	1218.19
1027.319	1234.69
1027.608	1197.62
1027.898	1202.37
1028.187	1212.99
1028.477	1185.65
1028.766	1163.95
1029.055	1181.81
1029.344	1146.78
1029.634	1154.46
1029.923	1141.35
1030.212	1168.92
1030.501	1125.08
1030.79	1121.69
1031.078	1155.82
1031.367	1118.76
1031.656	1137.96
1031.945	1101.36
1032.233	1130.28
1032.522	1085.54
1032.81	1068.14
1033.099	1055.25
1033.387	1042.15
1033.675	1062.03
1033.963	1038.76
1034.251	1022.26
1034.54	1048.93
1034.828	1036.05
1035.116	1045.31
1035.403	1012.77
1035.691	1012.77
1035.979	1016.84
1036.267	1008.02
1036.554	1004.18
1036.842	985.65
1037.129	973.67
1037.417	982.94
1037.704	979.32
1037.992	973
1038.279	959.21
1038.566	955.6
1038.853	955.6
1039.14	955.6
