Data from hue_40_FLMS001491_70.txt Node
Date: Mon Feb 06 15:08:17 GMT 2017
User: dcchb
Spectrometer: FLMS00149
Trigger mode: 0
Integration Time (sec): 2.000000E-2
Scans to average: 10
Electric dark correction enabled: true
Nonlinearity correction enabled: false
Boxcar width: 0
XAxis mode: Wavelengths
Number of Pixels in Spectrum: 2048
>>>>>Begin Spectral Data<<<<<
341.393	-15.66
341.776	-15.66
342.16	-15.66
342.543	-60.41
342.927	-79.84
343.31	-55.89
343.693	-81.2
344.077	-63.12
344.46	-50.24
344.843	-54.53
345.226	-45.72
345.61	-30.13
345.993	-12.27
346.376	-19.73
346.759	1.06
347.142	46.26
347.525	41.51
347.908	67.27
348.291	75.41
348.674	82.19
349.057	99.14
349.44	128.51
349.823	146.59
350.206	161.28
350.588	196.76
350.971	198.12
351.354	227.04
351.737	239.92
352.119	258.23
352.502	251.9
352.884	276.08
353.267	293.48
353.65	308.17
354.032	287.83
354.414	316.76
354.797	318.57
355.179	328.28
355.562	327.6
355.944	328.06
356.326	310.43
356.709	320.82
357.091	328.28
357.473	337.1
357.855	314.95
358.238	345.23
358.62	324.89
359.002	335.51
359.384	346.36
359.766	349.75
360.148	347.49
360.53	351.33
360.912	335.51
361.294	332.35
361.676	327.38
362.057	342.07
362.439	323.76
362.821	330.32
363.203	338.68
363.584	337.1
363.966	331.45
364.348	315.18
364.729	322.18
365.111	318.34
365.493	335.74
365.874	319.24
366.256	315.18
366.637	323.08
367.019	293.93
367.4	309.53
367.781	317.66
368.163	306.59
368.544	317.66
368.925	314.27
369.306	316.76
369.688	319.02
370.069	309.3
370.45	328.06
370.831	331.45
371.212	325.8
371.593	322.63
371.974	308.17
372.355	319.92
372.736	329.19
373.117	311.11
373.498	327.83
373.879	333.48
374.26	326.25
374.641	318.79
375.021	314.27
375.402	324.67
375.783	327.15
376.163	334.16
376.544	327.38
376.925	337.77
377.305	326.25
377.686	301.39
378.066	319.24
378.447	328.28
378.827	320.15
379.208	319.02
379.588	337.1
379.968	320.15
380.349	348.85
380.729	349.98
381.109	341.16
381.489	359.24
381.87	338.9
382.25	358.34
382.63	355.63
383.01	341.84
383.39	348.85
383.77	362.41
384.15	330.77
384.53	344.55
384.91	347.72
385.29	352.01
385.67	357.43
386.049	355.63
386.429	364.44
386.809	352.01
387.189	337.55
387.568	348.39
387.948	368.73
388.328	370.77
388.707	369.86
389.087	348.85
389.466	367.38
389.846	355.85
390.225	361.95
390.605	368.51
390.984	366.7
391.363	384.1
391.743	377.55
392.122	389.3
392.501	382.29
392.881	380.94
393.26	393.14
393.639	378.9
394.018	386.81
394.397	380.48
394.776	405.34
395.155	398.34
395.534	380.26
395.913	380.03
396.292	394.27
396.671	394.95
397.05	386.81
397.429	410.54
397.808	394.5
398.186	407.38
398.565	423.2
398.944	386.36
399.323	397.43
399.701	380.26
400.08	410.54
400.458	416.42
400.837	408.73
401.215	398.56
401.594	391.33
401.972	429.75
402.351	422.74
402.729	409.18
403.107	435.17
403.486	420.26
403.864	428.39
404.242	428.62
404.62	434.04
404.999	419.81
405.377	427.71
405.755	435.4
406.133	451.22
406.511	440.6
406.889	449.86
407.267	446.25
407.645	434.04
408.023	452.12
408.401	435.62
408.779	463.87
409.156	445.79
409.534	484.44
409.912	452.35
410.29	451.44
410.667	475.4
411.045	473.59
411.422	478.79
411.8	458.22
412.178	500.71
412.555	507.03
412.933	513.36
413.31	484.66
413.687	505.9
414.065	492.8
414.442	504.32
414.819	491.22
415.197	514.04
415.574	518.56
415.951	542.29
416.328	515.85
416.705	520.14
417.082	504.55
417.46	526.7
417.837	533.93
418.214	549.97
418.591	529.63
418.967	554.72
419.344	518.11
419.721	559.46
420.098	560.59
420.475	572.34
420.852	545.45
421.228	566.92
421.605	559.46
421.982	551.78
422.358	563.98
422.735	563.98
423.111	593.81
423.488	581.38
423.864	568.5
424.241	601.27
424.617	594.04
424.994	587.48
425.37	592.91
425.746	613.92
426.123	606.47
426.499	610.53
426.875	605.56
427.251	604.89
427.627	624.55
428.003	654.6
428.379	647.82
428.756	650.53
429.132	623.42
429.507	636.52
429.883	669.29
430.259	682.62
430.635	661.15
431.011	676.75
431.387	679.01
431.763	692.79
432.138	696.63
432.514	690.53
432.89	695.73
433.265	719.68
433.641	697.31
434.016	726.46
434.392	727.37
434.767	737.76
435.143	716.29
435.518	754.26
435.894	759.46
436.269	748.84
436.644	755.84
437.02	785.9
437.395	767.59
437.77	783.41
438.145	795.84
438.52	787.48
438.895	789.51
439.271	809.85
439.646	787.48
440.021	809.63
440.395	792.9
440.77	828.38
441.145	844.65
441.52	810.53
441.895	825.44
442.27	827.7
442.645	829.06
443.019	873.58
443.394	836.97
443.769	838.33
444.143	856.63
444.518	866.57
444.892	851.88
445.267	895.73
445.641	881.26
446.016	910.41
446.39	919.91
446.764	909.96
447.139	903.41
447.513	888.27
447.887	890.53
448.262	907.48
448.636	940.47
449.01	965.78
449.384	937.31
449.758	937.98
450.132	979.79
450.506	950.86
450.88	958.77
451.254	957.64
451.628	986.12
452.002	973.92
452.376	1014.59
452.75	1001.94
453.123	1006.68
453.497	1014.59
453.871	1023.63
454.244	1029.51
454.618	1055.72
454.992	1100.01
455.365	1055.27
455.739	1074.93
456.112	1097.53
456.486	1105.66
456.859	1133.01
457.232	1126.23
457.606	1156.74
457.979	1161.48
458.352	1175.72
458.725	1158.99
459.099	1203.29
459.472	1174.36
459.845	1243.96
460.218	1234.25
460.591	1252.1
460.964	1240.8
461.337	1282.61
461.71	1304.98
462.083	1290.97
462.456	1339.56
462.829	1322.15
463.201	1352.44
463.574	1350.63
463.947	1353.11
464.32	1400.57
464.692	1387.01
465.065	1432.21
465.438	1444.86
465.81	1464.52
466.183	1483.05
466.555	1503.62
466.928	1521.92
467.3	1532.54
467.672	1553.11
468.045	1605.08
468.417	1588.14
468.789	1595.59
469.161	1650.73
469.534	1697.29
469.906	1713.56
470.278	1723.95
470.65	1757.4
471.022	1781.35
471.394	1799.88
471.766	1828.58
472.138	1858.41
472.51	1922.59
472.882	1974.11
473.253	1966.66
473.625	1976.6
473.997	2050.5
474.369	2060.44
474.74	2100.44
475.112	2193.09
475.484	2229.48
475.855	2282.36
476.227	2306.99
476.598	2394.22
476.97	2368.45
477.341	2466.98
477.713	2550.82
478.084	2563.25
478.455	2641.89
478.827	2683.02
479.198	2734.55
479.569	2774.77
479.94	2881.66
480.311	2981.55
480.682	3013.18
481.053	3111.03
481.424	3234.19
481.795	3262.22
482.166	3351.48
482.537	3397.35
482.908	3481.19
483.279	3566.84
483.65	3683.22
484.021	3767.97
484.391	3863.1
484.762	3890.45
485.133	3984.46
485.503	4133.38
485.874	4183.77
486.244	4270.33
486.615	4409.53
486.985	4527.72
487.356	4604.78
487.726	4712.8
488.097	4865.34
488.467	5000.48
488.837	5101.72
489.207	5179.91
489.578	5326.57
489.948	5376.29
490.318	5480.69
490.688	5630.74
491.058	5684.3
491.428	5851.07
491.798	5935.59
492.168	6109.15
492.538	6141.24
492.908	6284.06
493.278	6393.66
493.648	6522.02
494.017	6649.02
494.387	6726.08
494.757	6847.88
495.126	6916.13
495.496	7081.1
495.866	7166.97
496.235	7272.73
496.605	7366.06
496.974	7441.09
497.344	7613.97
497.713	7680.18
498.082	7853.28
498.452	7926.95
498.821	7998.59
499.19	8140.28
499.559	8205.36
499.928	8276.77
500.298	8399.48
500.667	8478.58
501.036	8571.23
501.405	8688.97
501.774	8706.14
502.143	8866.59
502.512	8965.12
502.88	9016.87
503.249	9083.31
503.618	9184.32
503.987	9283.98
504.356	9394.26
504.724	9431.09
505.093	9489.85
505.462	9516.74
505.83	9634.7
506.199	9812.33
506.567	9918.31
506.936	9897.97
507.304	10073.11
507.672	10177.51
508.041	10245.99
508.409	10307.91
508.777	10364.4
509.145	10516.72
509.514	10531.63
509.882	10688.01
510.25	10738.18
510.618	10782.24
510.986	10824.05
511.354	10998.51
511.722	11148.79
512.09	11189.01
512.458	11202.12
512.826	11238.28
513.193	11407.54
513.561	11416.8
513.929	11528.67
514.297	11637.14
514.664	11713.52
515.032	11830.58
515.4	11860.63
515.767	11880.75
516.135	12036.9
516.502	12044.81
516.869	12247.74
517.237	12309.44
517.604	12207.74
517.972	12435.99
518.339	12534.97
518.706	12476.44
519.073	12644.79
519.44	12628.52
519.808	12836.88
520.175	12791.91
520.542	12958.23
520.909	13020.38
521.276	13108.29
521.643	13160.04
522.009	13318.45
522.376	13354.38
522.743	13506.47
523.11	13601.15
523.477	13697.2
523.843	13744.43
524.21	13921.82
524.577	13953.91
524.943	14125.43
525.31	14116.39
525.676	14329.04
526.043	14348.03
526.409	14402.49
526.776	14580.34
527.142	14631.64
527.508	14701.24
527.874	14861.46
528.241	14892.19
528.607	14898.07
528.973	15073.66
529.339	15071.4
529.705	15237.95
530.071	15231.62
530.437	15378.96
530.803	15501.44
531.169	15598.16
531.535	15580.08
531.901	15648.33
532.267	15707.09
532.632	15869.12
532.998	15867.31
533.364	15934.43
533.73	15992.05
534.095	16192.5
534.461	16131.71
534.826	16319.73
535.192	16351.14
535.557	16465.71
535.923	16500.06
536.288	16579.38
536.653	16663.45
537.019	16662.54
537.384	16727.17
537.749	16830
538.114	16874.97
538.479	16950.9
538.845	17043.78
539.21	17011.69
539.575	17145.92
539.94	17185.69
540.305	17314.05
540.67	17374.39
541.034	17365.35
541.399	17542.74
541.764	17458.23
542.129	17599.92
542.494	17546.13
542.858	17615.06
543.223	17761.95
543.587	17787.26
543.952	17935.05
544.316	18024.54
544.681	17916.75
545.045	17994.94
545.41	18076.06
545.774	18244.87
546.138	18200.35
546.503	18310.18
546.867	18367.58
547.231	18497.97
547.595	18590.18
547.959	18585.43
548.324	18653.22
548.688	18723.5
549.052	18766.89
549.416	18808.25
549.779	18928.7
550.143	18997.62
550.507	19101.35
550.871	19020.67
551.235	19241.46
551.599	19201.23
551.962	19299.08
552.326	19330.72
552.689	19470.15
553.053	19387.44
553.417	19507.44
553.78	19780.88
554.143	19606.65
554.507	19700.88
554.87	19858.84
555.234	19954.66
555.597	19890.03
555.96	20015.45
556.323	20042.34
556.686	20077.82
557.05	20263.8
557.413	20235.1
557.776	20398.26
558.139	20507.41
558.502	20484.81
558.865	20592.83
559.228	20803.45
559.59	20750.8
559.953	20812.72
560.316	21099.49
560.679	21037.34
561.041	21142.42
561.404	21168.41
561.767	21283.44
562.129	21272.82
562.492	21628.97
562.854	21462.42
563.217	21491.57
563.579	21602.53
563.941	21693.37
564.304	21870.31
564.666	21998.45
565.028	22020.59
565.39	22042.74
565.753	22192.11
566.115	22211.1
566.477	22394.37
566.839	22374.48
567.201	22535.61
567.563	22511.88
567.925	22829.61
568.287	22719.56
568.648	22726.34
569.01	22892.89
569.372	23035.26
569.734	23093.56
570.095	23091.75
570.457	23277.28
570.819	23265.08
571.18	23339.2
571.542	23467.79
571.903	23622.13
572.265	23612.64
572.626	23775.8
572.987	23802.47
573.349	23931.5
573.71	24066.19
574.071	24129.46
574.432	24302.34
574.794	24458.5
575.155	24501.66
575.516	24459.63
575.877	24561.32
576.238	24725.83
576.599	25019.38
576.96	25006.5
577.32	24999.95
577.681	25206.95
578.042	25364.46
578.403	25380.05
578.763	25636.32
579.124	25719.93
579.485	25866.37
579.845	26116.08
580.206	26181.61
580.566	26260.48
580.927	26398.11
581.287	26639.23
581.648	26626.12
582.008	26955.6
582.368	26904.08
582.728	27180.46
583.089	27317.18
583.449	27364.86
583.809	27644.85
584.169	27848.91
584.529	27817.5
584.889	28162.13
585.249	28200.32
585.609	28351.05
585.969	28656.13
586.329	28756.91
586.688	29002.33
587.048	29050.01
587.408	29235.54
587.768	29341.98
588.127	29539.94
588.487	29723.22
588.846	30092.92
589.206	29861.29
589.565	30247.95
589.925	30612.46
590.284	30696.75
590.643	30759.8
591.003	31087.25
591.362	31364.53
591.721	31418.31
592.08	31625.31
592.44	31768.13
592.799	31979.65
593.158	31999.99
593.517	32331.28
593.876	32460.77
594.235	32543.25
594.593	32879.29
594.952	33005.16
595.311	33165.84
595.67	33377.13
596.029	33695.54
596.387	33872.71
596.746	33949.77
597.104	34051.24
597.463	34258.24
597.822	34489.87
598.18	34540.04
598.538	34574.84
598.897	35036.75
599.255	34873.59
599.613	35402.16
599.972	35442.61
600.33	35512.44
600.688	35702.27
601.046	35899.32
601.404	36148.81
601.762	36338.41
602.12	36578.63
602.478	36605.07
602.836	36655.69
603.194	36663.37
603.552	36865.85
603.91	36925.51
604.268	37189.23
604.625	37174.32
604.983	37529.11
605.341	37449.11
605.698	37646.17
606.056	37732.72
606.413	37863.34
606.771	38158.25
607.128	38317.34
607.485	38080.74
607.843	38260.84
608.2	38620.83
608.557	38766.14
608.914	38650.66
609.272	39060.82
609.629	39071.9
609.986	39301.72
610.343	39156.87
610.7	39573.8
611.057	39499
611.414	39642.95
611.771	39729.73
612.127	39860.12
612.484	39958.65
612.841	40213.11
613.198	40064.19
613.554	40238.65
613.911	40529.03
614.267	40482.48
614.624	40508.02
614.98	40657.84
615.337	40888.12
615.693	40700.1
616.05	40786.2
616.406	41198.85
616.762	41138.28
617.118	41066.42
617.475	41116.14
617.831	41321.78
618.187	41390.03
618.543	41510.25
618.899	41878.6
619.255	41722.67
619.611	41723.8
619.967	42033.85
620.323	42080.18
620.678	42051.71
621.034	41910.69
621.39	41957.7
621.746	41990.46
622.101	42508.19
622.457	42043.34
622.812	42203.79
623.168	42403.79
623.523	42431.13
623.879	42557.68
624.234	42288.99
624.589	42455.31
624.945	42524.23
625.3	42601.97
625.655	42611.46
626.01	42615.08
626.365	42687.39
626.72	42674.29
627.075	42731.69
627.43	42780.73
627.785	42671.8
628.14	42851.91
628.495	42897.33
628.85	42762.19
629.205	42732.59
629.559	42970.55
629.914	42748.86
630.269	43046.93
630.623	42880.84
630.978	42681.52
631.332	42991.12
631.687	42944.11
632.041	42888.52
632.396	43029.76
632.75	42836.09
633.104	42929.42
633.459	42669.09
633.813	42724.46
634.167	42725.36
634.521	42628.64
634.875	42881.74
635.229	42768.97
635.583	42720.61
635.937	42719.94
636.291	42558.58
636.645	42762.87
636.999	42601.07
637.352	42797.67
637.706	42515.42
638.06	42646.04
638.413	42654.18
638.767	42529.21
639.121	42525.82
639.474	42255.32
639.828	42323.56
640.181	42469.77
640.534	42432.49
640.888	42337.35
641.241	42356.56
641.594	42239.5
641.947	42264.58
642.301	42213.96
642.654	42351.13
643.007	42360.85
643.36	42288.99
643.713	42165.37
644.066	42448.53
644.419	42137.13
644.771	41909.56
645.124	41477.48
645.477	41479.06
645.83	41168.56
646.182	41166.76
646.535	40945.75
646.888	40949.14
647.24	40831.85
647.593	41068
647.945	40936.03
648.298	40767.45
648.65	40742.81
649.002	40552.99
649.355	40843.83
649.707	40670.72
650.059	40872.08
650.411	41444.94
650.763	41396.58
651.115	41817.36
651.467	41695.33
651.819	41703.92
652.171	41578.72
652.523	41525.39
652.875	41629.12
653.227	41406.98
653.578	41783.24
653.93	41577.14
654.282	41411.04
654.633	41261.67
654.985	41308.9
655.337	41389.58
655.688	41384.38
656.039	41622.34
656.391	41255.34
656.742	41266.19
657.094	41341.89
657.445	41490.36
657.796	41314.32
658.147	41093.76
658.498	41228.45
658.849	41330.82
659.2	41127.21
659.551	41133.09
659.902	41338.73
660.253	41142.58
660.604	41315
660.955	40984.84
661.306	41257.15
661.656	41005.63
662.007	40995.69
662.358	41096.02
662.708	40967.44
663.059	40973.32
663.409	40896.03
663.76	41104.84
664.11	41151.16
664.461	41066.42
664.811	41004.95
665.161	41007.89
665.511	41017.16
665.862	40845.18
666.212	41084.95
666.562	40939.87
666.912	41059.41
667.262	41025.52
667.612	40862.58
667.962	40917.5
668.312	40922.24
668.662	41154.33
669.011	40901.9
669.361	40816.03
669.711	40879.08
670.06	40854.9
670.41	40680.44
670.76	40740.1
671.109	40739.65
671.459	40800.44
671.808	40675.92
672.157	40789.59
672.507	40486.32
672.856	40689.25
673.205	40724.06
673.554	40674.57
673.904	40567.9
674.253	40948.23
674.602	40653.55
674.951	40153
675.3	39907.35
675.649	40489.03
675.998	40430.5
676.346	40490.62
676.695	40612.19
677.044	40274.35
677.393	40450.17
677.741	40482.25
678.09	40335.37
678.438	40344.18
678.787	40289.72
679.135	40262.37
679.484	40067.35
679.832	40321.58
680.181	39991.42
680.529	40137.18
680.877	40031.65
681.225	39941.48
681.573	40154.81
681.922	39912.78
682.27	39808.15
682.618	39860.35
682.966	39683.63
683.314	39709.85
683.661	39684.08
684.009	39571.32
684.357	39387.37
684.705	39278.44
685.053	39434.37
685.4	39344.88
685.748	39117.32
686.095	39160.03
686.443	39049.98
686.79	38976.98
687.138	39068.28
687.485	39087.72
687.832	38813.37
688.18	38941.28
688.527	38815.18
688.874	38624.45
689.221	38716.88
689.568	38658.57
689.915	38486.38
690.262	38518.69
690.609	38320.05
690.956	38352.82
691.303	38240.51
691.65	38072.6
691.997	37988.54
692.344	37847.52
692.69	37786.73
693.037	37809.33
693.383	37520.3
693.73	37641.65
694.077	37424.48
694.423	37302.9
694.769	37318.95
695.116	37124.83
695.462	37065.85
695.808	37032.85
696.155	37081.21
696.501	36816.36
696.847	36871.73
697.193	36415.24
697.539	36641.23
697.885	36424.73
698.231	36401.46
698.577	36265.64
698.923	36400.33
699.269	36052.77
699.614	35919.66
699.96	35827.69
700.306	35972.32
700.651	35747.69
700.997	35652.55
701.342	35604.19
701.688	35610.29
702.033	35451.88
702.379	35447.81
702.724	35173.47
703.069	35373.01
703.415	34923.98
703.76	34891.67
704.105	35001.27
704.45	34829.3
704.795	34749.75
705.14	34590.66
705.485	34725.57
705.83	34521.51
706.175	34470.21
706.52	34402.87
706.865	34364.68
707.209	34290.1
707.554	34145.7
707.899	34218.46
708.243	34064.12
708.588	34055.98
708.932	33666.39
709.277	33761.08
709.621	33744.8
709.966	33607.41
710.31	33637.91
710.654	33390.24
710.998	33543.23
711.342	33437.69
711.687	33293.07
712.031	33147.08
712.375	33004.03
712.719	33217.59
713.063	33033.64
713.407	33105.27
713.75	33009.23
714.094	32846.3
714.438	32637.94
714.782	32798.16
715.125	32609.92
715.469	32535.57
715.812	32458.96
716.156	32277.05
716.499	32453.77
716.843	32364.28
717.186	32229.59
717.53	32320.44
717.873	32361.11
718.216	32152.76
718.559	32064.4
718.902	31809.94
719.246	31930.16
719.589	31800.68
719.932	31734.69
720.275	31701.92
720.617	31708.25
720.96	31577.63
721.303	31549.16
721.646	31623.05
721.989	31365.21
722.331	31551.87
722.674	31352.1
723.016	31358.65
723.359	31454.92
723.701	31329.28
724.044	31345.32
724.386	30984.43
724.729	31203.4
725.071	31073.69
725.413	30985.1
725.755	30954.82
726.097	30948.27
726.439	30790.53
726.782	30729.52
727.124	30783.3
727.465	30711.44
727.807	30652.91
728.149	30497.66
728.491	30473.25
728.833	30460.37
729.175	30388.28
729.516	30492.91
729.858	30255.18
730.199	30229.64
730.541	30245.46
730.882	30111.68
731.224	30354.84
731.565	30112.58
731.906	30038.24
732.248	30047.5
732.589	30005.24
732.93	29797.56
733.271	29891.35
733.612	29879.82
733.953	29955.75
734.294	29769.54
734.635	29555.54
734.976	29797.34
735.317	29650.22
735.658	29672.6
735.999	29689.77
736.339	29516.22
736.68	29548.3
737.021	29417.46
737.361	29366.61
737.702	29491.81
738.042	29371.81
738.383	29261.53
738.723	29377.46
739.063	29228.77
739.404	29240.29
739.744	29155.55
740.084	28991.71
740.424	29101.54
740.764	28943.35
741.104	29047.3
741.444	28930.02
741.784	28884.14
742.124	28862.45
742.464	28880.07
742.804	28834.2
743.143	28736.12
743.483	28821.54
743.823	28525.73
744.162	28496.13
744.502	28556.92
744.841	28453.64
745.181	28602.34
745.52	28364.16
745.86	28462.01
746.199	28217.27
746.538	28363.48
746.877	28358.73
747.216	28377.71
747.556	28161
747.895	28055.46
748.234	27990.61
748.573	27949.7
748.911	28052.98
749.25	28016.14
749.589	27855.24
749.928	27931.4
750.267	27910.61
750.605	27724.85
750.944	27820.21
751.283	27710.84
751.621	27716.49
751.96	27534.12
752.298	27429.26
752.636	27434.91
752.975	27416.61
753.313	27281.47
753.651	27381.58
753.989	27208.25
754.327	27248.93
754.666	26912.89
755.004	27070.18
755.342	27061.59
755.679	26992.21
756.017	26861.6
756.355	26851.2
756.693	26907.7
757.031	26796.74
757.368	26730.3
757.706	26611.66
758.044	26498.67
758.381	26441.04
758.719	26307.71
759.056	26344.1
759.394	26294.61
759.731	26143.2
760.068	26168.96
760.405	26164.44
760.743	26028.4
761.08	26189.3
761.417	25869.31
761.754	25728.74
762.091	25672.25
762.428	25662.53
762.765	25519.71
763.102	25623.66
763.438	25376.89
763.775	25333.95
764.112	25342.77
764.449	25245.82
764.785	25167.63
765.122	25080.63
765.458	24876.56
765.795	24837.47
766.131	24781.2
766.467	24768.32
766.804	24598.83
767.14	24531.04
767.476	24556.57
767.812	24387.76
768.148	24322.68
768.485	24116.58
768.821	24029.35
769.157	24108.45
769.492	23976.93
769.828	24038.62
770.164	23791.39
770.5	23770.15
770.836	23764.05
771.171	23590.04
771.507	23551.85
771.842	23272.76
772.178	23400.67
772.513	23291.29
772.849	23319.32
773.184	23266.66
773.519	23117.97
773.855	22972.88
774.19	22915.26
774.525	22863.51
774.86	22891.98
775.195	22786
775.53	22658.09
775.865	22631.2
776.2	22373.35
776.535	22292
776.87	22278.89
777.205	22235.73
777.539	22120.48
777.874	22146.69
778.209	21957.32
778.543	21837.55
778.878	21767.72
779.212	21866.7
779.547	21604.11
779.881	21684.78
780.215	21453.15
780.55	21453.83
780.884	21314.62
781.218	21357.56
781.552	21235.98
781.886	21158.02
782.22	21073.5
782.554	21031.47
782.888	20725.71
783.222	20727.29
783.556	20683.45
783.889	20655.88
784.223	20434.19
784.557	20519.62
784.89	20412.05
785.224	20239.4
785.557	20116.24
785.891	20246.85
786.224	20123.69
786.558	20123.69
786.891	19927.54
787.224	19758.96
787.557	19748.34
787.891	19770.71
788.224	19676.47
788.557	19761.22
788.89	19647.55
789.223	19576.82
789.556	19362.13
789.888	19257.73
790.221	19314.22
790.554	19087.11
790.887	19198.29
791.219	19058.86
791.552	18946.78
791.884	18898.87
792.217	18894.35
792.549	18837.63
792.882	18710.4
793.214	18652.55
793.546	18662.26
793.879	18543.62
794.211	18436.51
794.543	18540.68
794.875	18429.28
795.207	18410.07
795.539	18337.98
795.871	18231.31
796.203	18147.25
796.535	18057.76
796.867	18082.39
797.198	17961.49
797.53	17887.14
797.862	17839.91
798.193	17921.72
798.525	17705.9
798.856	17778.9
799.188	17554.72
799.519	17447.83
799.85	17388.85
800.182	17499.81
800.513	17408.06
800.844	17240.83
801.175	17305.92
801.506	17354.28
801.837	17299.14
802.168	17126.03
802.499	17129.87
802.83	16974.85
803.161	16977.34
803.491	16926.04
803.822	16885.14
804.153	16761.52
804.483	16730.56
804.814	16584.8
805.145	16612.83
805.475	16581.41
805.805	16513.62
806.136	16577.8
806.466	16438.14
806.796	16499.16
807.126	16369.89
807.457	16313.17
807.787	16210.8
808.117	16234.98
808.447	16159.73
808.777	16264.13
809.107	16126.74
809.436	16154.76
809.766	16084.03
810.096	16104.82
810.426	15922.45
810.755	15968.55
811.085	16011.71
811.414	15780.31
811.744	15729.69
812.073	15764.94
812.403	15729.01
812.732	15629.57
813.061	15656.92
813.39	15598.62
813.719	15442.91
814.049	15560.88
814.378	15417.6
814.707	15365.85
815.036	15399.07
815.365	15293.99
815.693	15121.79
816.022	15248.12
816.351	15103.71
816.68	15097.61
817.008	15080.21
817.337	14957.28
817.665	14887.9
817.994	14996.15
818.322	14952.08
818.651	14831.63
818.979	14782.82
819.307	14864.4
819.636	14819.43
819.964	14759.77
820.292	14763.61
820.62	14783.72
820.948	14715.25
821.276	14869.59
821.604	14680.67
821.932	14744.85
822.259	14716.6
822.587	14740.78
822.915	14636.61
823.243	14726.1
823.57	14666.89
823.898	14720.9
824.225	14617.85
824.553	14614.01
824.88	14601.81
825.207	14671.86
825.535	14564.97
825.862	14767.45
826.189	14592.77
826.516	14675.93
826.843	14585.08
827.17	14619.88
827.497	14658.3
827.824	14630.28
828.151	14585.31
828.478	14569.49
828.805	14610.84
829.131	14541.02
829.458	14494.01
829.785	14428.7
830.111	14584.4
830.438	14589.15
830.764	14583.05
831.09	14521.13
831.417	14415.37
831.743	14486.1
832.069	14577.17
832.395	14393.68
832.722	14500.34
833.048	14424.86
833.374	14498.31
833.7	14354.35
834.026	14488.14
834.351	14508.7
834.677	14470.74
835.003	14362.26
835.329	14361.13
835.654	14359.78
835.98	14315.26
836.306	14272.77
836.631	14257.86
836.956	14339.67
837.282	14310.74
837.607	14157.3
837.932	14152.78
838.258	14174.7
838.583	14268.48
838.908	14131.54
839.233	14149.84
839.558	14028.71
839.883	14022.16
840.208	13997.08
840.533	14040.69
840.858	13946
841.182	13947.36
841.507	14017.87
841.832	13859
842.156	13905.1
842.481	13863.52
842.805	13839.11
843.13	13830.75
843.454	13720.25
843.778	13719.79
844.103	13621.49
844.427	13710.08
844.751	13657.88
845.075	13641.6
845.399	13616.07
845.723	13444.77
846.047	13459.69
846.371	13386.02
846.695	13364.1
847.019	13282.07
847.343	13218.34
847.666	13162.52
847.99	13104.22
848.313	13041.17
848.637	13029.64
848.96	13047.72
849.284	12984.9
849.607	12874.17
849.931	12854.96
850.254	12776.54
850.577	12733.38
850.9	12593.72
851.223	12622.2
851.546	12475.99
851.869	12476.21
852.192	12550.11
852.515	12413.39
852.838	12372.94
853.161	12380.17
853.483	12302.2
853.806	12261.3
854.129	12189.67
854.451	12235.31
854.774	12073.96
855.096	12049.78
855.419	11949.67
855.741	11969.56
856.063	11870.58
856.385	11924.14
856.708	11885.49
857.03	11831.93
857.352	11735.44
857.674	11774.99
857.996	11712.84
858.318	11636.69
858.64	11661.54
858.961	11586.29
859.283	11637.14
859.605	11502
859.926	11582.9
860.248	11503.13
860.57	11504.03
860.891	11499.97
861.212	11385.39
861.534	11426.3
861.855	11273.76
862.176	11374.55
862.498	11305.17
862.819	11390.14
863.14	11254.77
863.461	11264.27
863.782	11234.21
864.103	11200.54
864.424	11163.03
864.745	11212.74
865.065	11163.48
865.386	11052.75
865.707	11042.58
866.027	11173.65
866.348	11083.71
866.668	11077.83
866.989	11033.31
867.309	11022.46
867.63	10944.73
867.95	10923.94
868.27	10892.75
868.59	10953.09
868.91	10904.5
869.23	10868.12
869.55	10788.12
869.87	10907.67
870.19	10858.63
870.51	10782.92
870.83	10920.55
871.15	10711.29
871.469	10725.75
871.789	10780.21
872.109	10770.49
872.428	10685.98
872.748	10696.6
873.067	10735.01
873.386	10738.63
873.706	10703.15
874.025	10589.03
874.344	10557.39
874.663	10567.79
874.982	10569.82
875.301	10617.28
875.62	10550.16
875.939	10498.86
876.258	10549.26
876.577	10462.71
876.896	10418.41
877.214	10355.59
877.533	10448.92
877.852	10366.21
878.17	10381.8
878.489	10349.49
878.807	10368.47
879.125	10330.73
879.444	10351.97
879.762	10305.42
880.08	10257.29
880.398	10242.37
880.716	10242.37
881.034	10286.44
881.352	10182.03
881.67	10123.05
881.988	10227.01
882.306	10133
882.624	10132.77
882.941	10109.27
883.259	10097.74
883.577	10018.65
883.894	9997.63
884.212	10028.14
884.529	9969.38
884.846	9934.13
885.164	9940.68
885.481	9949.72
885.798	9896.84
886.115	9851.65
886.432	9825.66
886.75	9792.67
887.067	9843.29
887.383	9769.62
887.7	9782.27
888.017	9686.45
888.334	9691.88
888.651	9723.74
888.967	9653.91
889.284	9610.98
889.6	9514.26
889.917	9521.94
890.233	9571.43
890.55	9501.15
890.866	9465.22
891.182	9475.61
891.498	9456.18
891.815	9438.33
892.131	9273.36
892.447	9374.15
892.763	9320.36
893.079	9262.74
893.395	9316.29
893.71	9179.8
894.026	9195.62
894.342	9129.86
894.657	9083.31
894.973	9036.3
895.289	9055.74
895.604	9082.18
895.92	9010.09
896.235	8916.08
896.55	8984.1
896.865	8949.98
897.181	8968.28
897.496	8905.68
897.811	8846.25
898.126	8831.11
898.441	8844.44
898.756	8785.24
899.071	8698.46
899.386	8735.97
899.7	8623.66
900.015	8638.8
900.33	8588.4
900.644	8566.26
900.959	8628.4
901.273	8495.98
901.588	8509.54
901.902	8450.33
902.216	8418.47
902.531	8349.09
902.845	8385.47
903.159	8350.22
903.473	8294.63
903.787	8186.15
904.101	8255.98
904.415	8194.97
904.729	8183.22
905.042	8130.34
905.356	8086.04
905.67	8130.56
905.984	8077.46
906.297	8001.75
906.611	7985.26
906.924	7954.75
907.237	7968.08
907.551	7905.94
907.864	7936.67
908.177	7854.19
908.491	7841.08
908.804	7775.32
909.117	7740.74
909.43	7724.25
909.743	7728.54
910.056	7639.28
910.368	7612.38
910.681	7535.32
910.994	7549.11
911.307	7506.17
911.619	7479.96
911.932	7517.25
912.244	7375.33
912.557	7438.38
912.869	7354.09
913.181	7320.87
913.494	7269.34
913.806	7272.96
914.118	7250.36
914.43	7167.2
914.742	7205.84
915.054	7261.43
915.366	7134.21
915.678	7154.32
915.99	7077.94
916.302	7048.33
916.613	7018.95
916.925	7036.13
917.236	7002.68
917.548	6913.19
917.859	6936.24
918.171	6918.84
918.482	6806.98
918.794	6803.82
919.105	6802.46
919.416	6758.85
919.727	6795.46
920.038	6728.34
920.349	6623.26
920.66	6675.91
920.971	6668.45
921.282	6601.56
921.593	6537.61
921.903	6521.34
922.214	6508.91
922.525	6549.14
922.835	6475.92
923.146	6449.25
923.456	6376.26
923.767	6378.52
924.077	6364.73
924.387	6367.45
924.697	6279.31
925.008	6240.67
925.318	6239.99
925.628	6279.31
925.938	6260.1
926.248	6175.13
926.558	6145.76
926.867	6088.58
927.177	6058.3
927.487	6057.17
927.796	6029.6
928.106	6044.29
928.416	6019.43
928.725	5934.69
929.034	5931.3
929.344	5970.39
929.653	5898.08
929.962	5820.57
930.271	5838.87
930.581	5800
930.89	5776.27
931.199	5715.94
931.508	5739.89
931.817	5710.51
932.125	5719.33
932.434	5682.27
932.743	5628.93
933.051	5595.71
933.36	5584.42
933.669	5586.22
933.977	5489.95
934.286	5500.58
934.594	5470.07
934.902	5438.66
935.21	5483.63
935.519	5446.34
935.827	5388.94
936.135	5383.74
936.443	5309.39
936.751	5333.35
937.059	5325.21
937.367	5326.12
937.674	5284.08
937.982	5299.9
938.29	5216.74
938.597	5223.75
938.905	5164.99
939.213	5147.36
939.52	5096.29
939.827	5117.53
940.135	5104.43
940.442	5073.24
940.749	5013.81
941.056	5052.9
941.363	4934.71
941.67	4961.61
941.977	4935.39
942.284	4894.72
942.591	4902.63
942.898	4882.74
943.205	4920.7
943.511	4850.2
943.818	4847.71
944.125	4780.59
944.431	4799.13
944.738	4765.68
945.044	4755.74
945.35	4706.25
945.657	4693.59
945.963	4681.39
946.269	4612.46
946.575	4674.38
946.881	4629.64
947.187	4597.1
947.493	4586.93
947.799	4598.9
948.105	4559.81
948.41	4506.48
948.716	4514.39
949.022	4480.72
949.327	4487.04
949.633	4433.26
949.938	4445.91
950.244	4418.57
950.549	4398.46
950.854	4376.54
951.16	4328.63
951.465	4374.5
951.77	4336.76
952.075	4285.92
952.38	4293.6
952.685	4240.72
952.99	4225.81
953.294	4249.76
953.599	4179.25
953.904	4161.85
954.209	4156.2
954.513	4148.29
954.818	4105.58
955.122	4122.53
955.426	4088.64
955.731	4050.22
956.035	4047.96
956.339	4021.97
956.643	4038.92
956.948	4037.79
957.252	3954.85
957.556	3957.34
957.86	3925.48
958.163	3917.79
958.467	3925.93
958.771	3937.45
959.075	3874.86
959.378	3854.74
959.682	3861.3
959.985	3823.33
960.289	3826.04
960.592	3807.29
960.896	3857.68
961.199	3814.52
961.502	3770.23
961.805	3756.67
962.108	3720.74
962.411	3718.25
962.714	3696.33
963.017	3713.73
963.32	3692.26
963.623	3603
963.926	3631.92
964.228	3617.91
964.531	3607.07
964.833	3587.86
965.136	3564.13
965.438	3553.73
965.741	3477.58
966.043	3508.99
966.345	3476
966.648	3494.3
966.95	3506.28
967.252	3450.23
967.554	3425.6
967.856	3371.14
968.158	3401.65
968.46	3423.12
968.761	3381.54
969.063	3356.9
969.365	3341.76
969.666	3338.15
969.968	3263.57
970.269	3345.83
970.571	3318.03
970.872	3301.99
971.174	3280.97
971.475	3274.42
971.776	3256.57
972.077	3215.44
972.378	3247.98
972.679	3197.36
972.98	3186.96
973.281	3187.87
973.582	3132.73
973.883	3174.76
974.183	3149.45
974.484	3152.61
974.785	3099.06
975.085	3095.44
975.386	3075.33
975.686	3045.95
975.986	3051.83
976.287	3040.98
976.587	3012.73
976.887	2966.86
977.187	3004.6
977.487	2994.43
977.787	2965.28
978.087	2949
978.387	2941.32
978.687	2937.03
978.987	2920.53
979.286	2890.02
979.586	2869.68
979.885	2872.4
980.185	2908.1
980.484	2865.62
980.784	2821.32
981.083	2834.43
981.382	2827.43
981.682	2789.46
981.981	2812.74
982.28	2784.49
982.579	2780.42
982.878	2784.71
983.177	2761.44
983.475	2756.69
983.774	2718.95
984.073	2722.57
984.372	2687.77
984.67	2689.35
984.969	2690.48
985.267	2655.23
985.566	2621.1
985.864	2635.34
986.162	2600.31
986.461	2581.56
986.759	2559.18
987.057	2596.7
987.355	2566.42
987.653	2579.52
987.951	2552.18
988.249	2544.04
988.547	2549.24
988.844	2526.19
989.142	2469.69
989.44	2495.46
989.737	2457.94
990.035	2442.35
990.332	2452.29
990.63	2460.2
990.927	2422.46
991.224	2425.18
991.521	2409.58
991.819	2420.88
992.116	2379.3
992.413	2354.44
992.71	2330.26
993.006	2393.54
993.303	2339.75
993.6	2340.43
993.897	2313.54
994.193	2315.12
994.49	2274.22
994.787	2275.58
995.083	2319.64
995.379	2272.86
995.676	2270.15
995.972	2226.99
996.268	2230.61
996.565	2229.02
996.861	2202.36
997.157	2202.58
997.453	2200.32
997.749	2190.38
998.044	2162.81
998.34	2199.19
998.636	2159.87
998.932	2152.42
999.227	2114.68
999.523	2127.78
999.818	2104.73
1000.114	2078.07
1000.409	2104.51
1000.704	2082.13
1001	2043.27
1001.295	2031.74
1001.59	2066.09
1001.885	2031.74
1002.18	2016.37
1002.475	2010.05
1002.77	2014.34
1003.065	1983.83
1003.359	1973.21
1003.654	1985.19
1003.949	1981.35
1004.243	1970.95
1004.538	1961.23
1004.832	1936.15
1005.127	1927.56
1005.421	1923.27
1005.715	1883.95
1006.009	1899.77
1006.304	1882.82
1006.598	1859.54
1006.892	1830.84
1007.186	1844.63
1007.48	1833.78
1007.773	1841.01
1008.067	1831.29
1008.361	1793.33
1008.655	1786.78
1008.948	1790.39
1009.242	1796.94
1009.535	1751.52
1009.829	1763.5
1010.122	1756.27
1010.415	1743.61
1010.708	1730.28
1011.001	1716.72
1011.295	1718.08
1011.588	1693.22
1011.881	1685.99
1012.173	1661.81
1012.466	1679.43
1012.759	1644.63
1013.052	1659.77
1013.344	1649.15
1013.637	1652.77
1013.93	1617.29
1014.222	1645.08
1014.514	1578.64
1014.807	1570.06
1015.099	1578.87
1015.391	1599.44
1015.683	1601.47
1015.976	1547.69
1016.268	1541.13
1016.56	1553.56
1016.851	1536.16
1017.143	1516.73
1017.435	1471.08
1017.727	1449.83
1018.018	1486.22
1018.31	1483.51
1018.602	1461.59
1018.893	1445.77
1019.185	1468.37
1019.476	1434.47
1019.767	1440.12
1020.058	1422.04
1020.35	1440.12
1020.641	1394.47
1020.932	1405.32
1021.223	1391.98
1021.514	1368.48
1021.804	1377.75
1022.095	1340.91
1022.386	1327.13
1022.677	1351.98
1022.967	1340.69
1023.258	1330.06
1023.548	1315.38
1023.839	1315.6
1024.129	1300.91
1024.419	1298.43
1024.709	1292.1
1025	1259.78
1025.29	1266.34
1025.58	1265.43
1025.87	1246.22
1026.16	1252.33
1026.449	1254.13
1026.739	1231.54
1027.029	1241.25
1027.319	1227.24
1027.608	1206.68
1027.898	1222.95
1028.187	1181.14
1028.477	1190.18
1028.766	1171.42
1029.055	1168.03
1029.344	1179.56
1029.634	1155.61
1029.923	1144.53
1030.212	1136.62
1030.501	1130.3
1030.79	1111.76
1031.078	1119.22
1031.367	1086.68
1031.656	1091.2
1031.945	1083.06
1032.233	1080.8
1032.522	1067.7
1032.81	1050.98
1033.099	1083.74
1033.387	1075.61
1033.675	1061.6
1033.963	1053.69
1034.251	1062.05
1034.54	1000.81
1034.828	1020.02
1035.116	988.6
1035.403	1012.56
1035.691	1000.13
1035.979	995.38
1036.267	989.51
1036.554	1000.81
1036.842	974.59
1037.129	990.64
1037.417	951.32
1037.704	955.38
1037.992	967.14
1038.279	939.34
1038.566	951.99
1038.853	951.99
1039.14	951.99
