Data from hue_00_FLMS001491_44.txt Node
Date: Mon Feb 06 15:29:45 GMT 2017
User: dcchb
Spectrometer: FLMS00149
Trigger mode: 0
Integration Time (sec): 2.000000E-2
Scans to average: 10
Electric dark correction enabled: true
Nonlinearity correction enabled: false
Boxcar width: 0
XAxis mode: Wavelengths
Number of Pixels in Spectrum: 2048
>>>>>Begin Spectral Data<<<<<
341.393	-3.45
341.776	-3.45
342.16	-3.45
342.543	-67.4
342.927	-90.45
343.31	-81.41
343.693	-71.47
344.077	-74.4
344.46	-75.76
344.843	-56.33
345.226	-38.02
345.61	-36.21
345.993	-10.45
346.376	-4.35
346.759	32.03
347.142	23.22
347.525	60.28
347.908	61.18
348.291	72.94
348.674	86.27
349.057	112.48
349.44	123.78
349.823	128.08
350.206	169.43
350.588	182.76
350.971	196.77
351.354	239.26
351.737	252.82
352.119	254.85
352.502	252.37
352.884	265.02
353.267	277.22
353.65	298.47
354.032	295.75
354.414	305.25
354.797	305.7
355.179	332.14
355.562	307.05
355.944	314.96
356.326	332.82
356.709	345.7
357.091	338.24
357.473	357.22
357.855	348.63
358.238	340.05
358.62	357.9
359.002	348.18
359.384	338.01
359.766	317.9
360.148	344.34
360.53	336.43
360.912	318.58
361.294	327.17
361.676	317.9
362.057	325.81
362.439	323.1
362.821	337.11
363.203	319.94
363.584	315.64
363.966	302.76
364.348	305.7
364.729	332.36
365.111	315.19
365.493	316.09
365.874	331.69
366.256	317.45
366.637	300.05
367.019	303.44
367.4	323.55
367.781	310.67
368.163	339.14
368.544	303.89
368.925	296.21
369.306	309.31
369.688	301.4
370.069	303.21
370.45	294.17
370.831	320.39
371.212	310.67
371.593	307.28
371.974	293.95
372.355	319.03
372.736	296.21
373.117	318.58
373.498	311.57
373.879	328.52
374.26	312.48
374.641	307.28
375.021	314.29
375.402	326.04
375.783	309.77
376.163	310.22
376.544	314.06
376.925	309.31
377.305	311.8
377.686	340.27
378.066	321.52
378.447	337.79
378.827	310.22
379.208	303.66
379.588	315.19
379.968	326.26
380.349	325.13
380.729	328.3
381.109	326.94
381.489	337.79
381.87	311.57
382.25	332.36
382.63	320.61
383.01	338.24
383.39	338.69
383.77	338.47
384.15	348.63
384.53	338.92
384.91	340.05
385.29	340.27
385.67	342.76
386.049	347.5
386.429	328.07
386.809	350.44
387.189	350.44
387.568	355.41
387.948	342.08
388.328	357.22
388.707	342.31
389.087	346.15
389.466	354.06
389.846	344.79
390.225	377.79
390.605	362.87
390.984	347.96
391.363	365.13
391.743	364.23
392.122	386.6
392.501	356.54
392.881	363.1
393.26	368.97
393.639	363.55
394.018	367.17
394.397	358.58
394.776	363.32
395.155	375.53
395.534	369.88
395.913	361.74
396.292	376.2
396.671	341.63
397.05	370.1
397.429	381.4
397.808	385.02
398.186	382.08
398.565	387.28
398.944	364.91
399.323	380.95
399.701	387.28
400.08	357
400.458	396.54
400.837	383.66
401.215	375.75
401.594	384.11
401.972	389.76
402.351	406.26
402.729	375.07
403.107	395.64
403.486	412.81
403.864	406.26
404.242	398.35
404.62	406.03
404.999	395.19
405.377	395.19
405.755	415.07
406.133	428.41
406.511	413.27
406.889	423.89
407.267	434.06
407.645	434.06
408.023	403.1
408.401	418.24
408.779	399.26
409.156	422.08
409.534	439.93
409.912	432.25
410.29	447.16
410.667	434.06
411.045	429.31
411.422	441.51
411.8	448.52
412.178	464.11
412.555	436.99
412.933	441.06
413.31	455.3
413.687	464.56
414.065	468.63
414.442	425.92
414.819	493.94
415.197	456.65
415.574	464.79
415.951	474.51
416.328	474.06
416.705	486.71
417.082	502.53
417.46	486.71
417.837	490.78
418.214	485.35
418.591	490.1
418.967	504.34
419.344	476.09
419.721	508.63
420.098	520.61
420.475	513.83
420.852	499.37
421.228	529.42
421.605	492.81
421.982	509.31
422.358	515.18
422.735	534.17
423.111	521.96
423.488	538.91
423.864	524.68
424.241	530.1
424.617	520.83
424.994	547.5
425.37	543.66
425.746	544.11
426.123	560.83
426.499	536.43
426.875	545.24
427.251	554.51
427.627	556.09
428.003	562.19
428.379	571.68
428.756	587.72
429.132	585.92
429.507	584.11
429.883	589.08
430.259	611.9
430.635	598.12
431.011	584.11
431.387	596.54
431.763	627.95
432.138	640.38
432.514	634.05
432.89	640.83
433.265	651
433.641	635.86
434.016	647.84
434.392	650.55
434.767	643.99
435.143	674.05
435.518	669.3
435.894	652.36
436.269	659.59
436.644	673.82
437.02	669.3
437.395	683.54
437.77	691.22
438.145	689.19
438.52	697.55
438.895	714.5
439.271	695.52
439.646	700.49
440.021	727.61
440.395	711.56
440.77	703.65
441.145	735.07
441.52	739.59
441.895	733.94
442.27	753.6
442.645	732.13
443.019	752.47
443.394	751.56
443.769	759.47
444.143	758.57
444.518	752.01
444.892	767.83
445.267	766.7
445.641	756.08
446.016	774.39
446.39	801.28
446.764	748.85
447.139	789.3
447.513	779.13
447.887	805.57
448.262	792.24
448.636	795.18
449.01	799.92
449.384	799.24
449.758	798.57
450.132	815.29
450.506	826.59
450.88	848.06
451.254	828.85
451.628	848.96
452.002	838.57
452.376	852.12
452.75	863.2
453.123	871.56
453.497	869.07
453.871	876.76
454.244	899.13
454.618	903.65
454.992	891.67
455.365	882.18
455.739	909.75
456.112	942.07
456.486	929.41
456.859	923.54
457.232	964.21
457.606	937.55
457.979	953.36
458.352	976.19
458.725	967.38
459.099	981.84
459.472	1000.6
459.845	997.21
460.218	1025.91
460.591	1019.8
460.964	1019.35
461.337	1053.93
461.71	1047.37
462.083	1069.29
462.456	1047.15
462.829	1110.65
463.201	1104.55
463.574	1116.07
463.947	1084.89
464.32	1130.54
464.692	1143.19
465.065	1179.35
465.438	1162.4
465.81	1166.92
466.183	1192.23
466.555	1205.56
466.928	1234.26
467.3	1217.54
467.672	1246.92
468.045	1250.08
468.417	1254.83
468.789	1272
469.161	1280.36
469.534	1310.19
469.906	1330.08
470.278	1339.34
470.65	1366.24
471.022	1380.25
471.394	1429.96
471.766	1397.19
472.138	1439.91
472.51	1458.66
472.882	1449.4
473.253	1480.13
473.625	1477.64
473.997	1575.72
474.369	1543.63
474.74	1567.59
475.112	1599
475.484	1618.88
475.855	1660.69
476.227	1651.88
476.598	1693.68
476.97	1709.96
477.341	1784.3
477.713	1788.6
478.084	1778.2
478.455	1852.32
478.827	1863.4
479.198	1904.07
479.569	1899.33
479.94	1945.88
480.311	1981.81
480.682	2013.68
481.053	2072.88
481.424	2111.53
481.795	2144.07
482.166	2166.44
482.537	2181.36
482.908	2233.56
483.279	2279.88
483.65	2294.35
484.021	2356.49
484.391	2378.64
484.762	2399.2
485.133	2403.5
485.503	2459.99
485.874	2521.01
486.244	2575.69
486.615	2599.88
486.985	2625.19
487.356	2664.05
487.726	2717.61
488.097	2746.31
488.467	2749.7
488.837	2862.24
489.207	2833.32
489.578	2933.2
489.948	2913.54
490.318	2963.93
490.688	3040.09
491.058	3032.18
491.428	3091.84
491.798	3104.95
492.168	3148.79
492.538	3170.71
492.908	3221.55
493.278	3260.42
493.648	3269.46
494.017	3332.96
494.387	3362.11
494.757	3360.53
495.126	3411.61
495.496	3385.84
495.866	3495.22
496.235	3494.09
496.605	3574.76
496.974	3546.97
497.344	3560.3
497.713	3625.61
498.082	3644.82
498.452	3688.43
498.821	3680.07
499.19	3701.32
499.559	3764.36
499.928	3782.67
500.298	3777.92
500.667	3836
501.036	3834.87
501.405	3885.49
501.774	3859.5
502.143	3939.05
502.512	3894.08
502.88	3937.24
503.249	3989.44
503.618	3996.45
503.987	4031.48
504.356	4055.66
504.724	4015.21
505.093	4050.68
505.462	4118.93
505.83	4104.02
506.199	4136.56
506.567	4177.23
506.936	4162.32
507.304	4182.88
507.672	4233.05
508.041	4293.62
508.409	4272.6
508.777	4268.53
509.145	4338.13
509.514	4301.75
509.882	4317.12
510.25	4331.81
510.618	4392.14
510.986	4362.77
511.354	4373.84
511.722	4434.4
512.09	4467.4
512.458	4455.65
512.826	4485.48
513.193	4513.05
513.561	4511.01
513.929	4527.06
514.297	4609.09
514.664	4622.19
515.032	4561.18
515.4	4662.65
515.767	4659.93
516.135	4671.23
516.502	4660.39
516.869	4707.39
517.237	4679.37
517.604	4720.5
517.972	4744
518.339	4783.55
518.706	4748.75
519.073	4763.66
519.44	4774.51
519.808	4847.95
520.175	4808.63
520.542	4889.31
520.909	4878.01
521.276	4860.83
521.643	4917.55
522.009	4887.5
522.376	5005.24
522.743	5003.2
523.11	5030.55
523.477	5085.69
523.843	5050.43
524.21	5101.5
524.577	5179.47
524.943	5170.88
525.31	5184.89
525.676	5242.29
526.043	5211.11
526.409	5319.35
526.776	5327.49
527.142	5302.18
527.508	5377.88
527.874	5390.31
528.241	5394.83
528.607	5409.97
528.973	5438.22
529.339	5454.49
529.705	5541.27
530.071	5537.43
530.437	5519.12
530.803	5548.05
531.169	5651.55
531.535	5600.25
531.901	5644.31
532.267	5668.04
532.632	5666.91
532.998	5729.28
533.364	5767.25
533.73	5738.1
534.095	5852.9
534.461	5833.24
534.826	5873.46
535.192	5891.54
535.557	5917.3
535.923	5901.26
536.288	5988.49
536.653	5917.53
537.019	5936.51
537.384	5986.68
537.749	6049.73
538.114	6045.66
538.479	6026.45
538.845	6109.61
539.21	6085.43
539.575	6091.31
539.94	6179.22
540.305	6164.98
540.67	6191.65
541.034	6222.15
541.399	6246.33
541.764	6259.44
542.129	6275.71
542.494	6307.12
542.858	6343.51
543.223	6340.34
543.587	6407.91
543.952	6368.36
544.316	6456.04
544.681	6414.92
545.045	6502.37
545.41	6461.24
545.774	6535.59
546.138	6546.44
546.503	6572.88
546.867	6568.58
547.231	6652.42
547.595	6681.58
547.959	6685.87
548.324	6673.21
548.688	6707.56
549.052	6744.17
549.416	6754.12
549.779	6807.9
550.143	6773.32
550.507	6809.03
550.871	6873.89
551.235	6841.35
551.599	6929.03
551.962	6929.48
552.326	6933.09
552.689	7013.32
553.053	6969.03
553.417	6964.51
553.78	7035.24
554.143	7058.51
554.507	7074.11
554.87	7061.45
555.234	7161.56
555.597	7124.95
555.96	7168.79
556.323	7154.56
556.686	7154.33
557.05	7243.59
557.413	7232.3
557.776	7333.08
558.139	7299.41
558.502	7311.16
558.865	7350.71
559.228	7367.21
559.59	7397.04
559.953	7417.15
560.316	7466.87
560.679	7459.86
561.041	7506.86
561.404	7510.03
561.767	7597.71
562.129	7560.42
562.492	7671.83
562.854	7601.1
563.217	7634.55
563.579	7619.86
563.941	7726.52
564.304	7691.72
564.666	7789.12
565.028	7813.75
565.39	7765.62
565.753	7840.87
566.115	7892.39
566.477	7949.34
566.839	7928.32
567.201	7985.27
567.563	7978.49
567.925	8025.04
568.287	8022.11
568.648	8106.85
569.01	8107.53
569.372	8184.81
569.734	8142.55
570.095	8220.97
570.457	8229.78
570.819	8325.37
571.18	8289.9
571.542	8331.48
571.903	8347.07
572.265	8392.27
572.626	8468.65
572.987	8467.52
573.349	8525.6
573.71	8567.18
574.071	8552.94
574.432	8672.03
574.794	8801.29
575.155	8793.16
575.516	8822.08
575.877	8842.65
576.238	8973.94
576.599	9008.52
576.96	9036.32
577.32	9161.28
577.681	9191.11
578.042	9253.94
578.403	9378.45
578.763	9434.95
579.124	9514.04
579.485	9667.94
579.845	9711.78
580.206	9862.06
580.566	9835.39
580.927	10000.36
581.287	10186.34
581.648	10273.12
582.008	10405.55
582.368	10558.76
582.728	10660
583.089	10755.14
583.449	10912.65
583.809	11148.8
584.169	11290.04
584.529	11351.74
584.889	11675.34
585.249	11716.02
585.609	11873.53
585.969	12156.23
586.329	12286.4
586.688	12465.83
587.048	12703.56
587.408	12800.74
587.768	13124.8
588.127	13341.51
588.487	13559.59
588.846	13744.89
589.206	13974.94
589.565	14238.89
589.925	14445.89
590.284	14614.25
590.643	14931.53
591.003	15261.24
591.362	15465.75
591.721	15721.34
592.08	16017.38
592.44	16242.45
592.799	16493.52
593.158	16781.2
593.517	17122.43
593.876	17387.06
594.235	17580.95
594.593	17915.18
594.952	18174.38
595.311	18426.13
595.67	18667.02
596.029	19120.57
596.387	19356.27
596.746	19748.12
597.104	19832.42
597.463	20155.8
597.822	20586.52
598.18	20725.5
598.538	20965.95
598.897	21439.38
599.255	21551.47
599.613	22013.15
599.972	22170.21
600.33	22582.17
600.688	22645
601.046	23158.66
601.404	23489.95
601.762	23700.11
602.12	23982.36
602.478	24256.93
602.836	24511.39
603.194	24675.9
603.552	24940.08
603.91	25021.43
604.268	25456.45
604.625	25667.97
604.983	25994.74
605.341	26153.83
605.698	26456.65
606.056	26721.95
606.413	26962.62
606.771	27199.23
607.128	27338.21
607.485	27427.92
607.843	27839.21
608.2	28238.07
608.557	28419.08
608.914	28544.28
609.272	28819.3
609.629	29169.57
609.986	29465.61
610.343	29458.6
610.7	29897.91
611.057	30047.29
611.414	30074.86
611.771	30374.06
612.127	30688.85
612.484	30713.94
612.841	30932.24
613.198	30978.56
613.554	31319.35
613.911	31718.88
614.267	31586.68
614.624	31797.07
614.98	32040.91
615.337	32450.84
615.693	32362.93
616.05	32414.46
616.406	32731.29
616.762	32837.5
617.118	32909.81
617.475	33100.77
617.831	33281.55
618.187	33457.37
618.543	33631.83
618.899	33853.97
619.255	33990.24
619.611	34015.09
619.967	34386.61
620.323	34456.44
620.678	34488.08
621.034	34328.08
621.39	34622.54
621.746	34589.09
622.101	35005.8
622.457	34799.03
622.812	35012.58
623.168	35168.74
623.523	35160.6
623.879	35601.49
624.234	35332.12
624.589	35432.68
624.945	35594.49
625.3	35703.19
625.655	35605.11
626.01	35869.06
626.365	35904.99
626.72	35849.17
627.075	35915.38
627.43	35995.38
627.785	36048.94
628.14	36148.82
628.495	36260.01
628.85	36257.75
629.205	36293.45
629.559	36462.94
629.914	36372.55
630.269	36468.36
630.623	36422.94
630.978	36335.94
631.332	36596.95
631.687	36619.09
632.041	36596.27
632.396	36679.21
632.75	36542.94
633.104	36685.53
633.459	36539.77
633.813	36553.33
634.167	36628.81
634.521	36573.45
634.875	36660.45
635.229	36679.66
635.583	36659.32
635.937	36615.7
636.291	36554.24
636.645	36629.94
636.999	36564.41
637.352	36904.74
637.706	36410.29
638.06	36833.78
638.413	36540.23
638.767	36506.1
639.121	36652.77
639.474	36565.76
639.828	36681.01
640.181	36599.66
640.534	36669.94
640.888	36714.68
641.241	36330.06
641.594	36531.41
641.947	36651.86
642.301	36557.4
642.654	36623.61
643.007	36688.02
643.36	36579.32
643.713	36560.34
644.066	36682.14
644.419	36412.55
644.771	36159.67
645.124	35890.75
645.477	35868.83
645.83	35662.28
646.182	35534.15
646.535	35505.45
646.888	35584.32
647.24	35434.72
647.593	35520.37
647.945	35377.32
648.298	35340.26
648.65	35256.64
649.002	35146.82
649.355	35295.96
649.707	35372.12
650.059	35531.21
650.411	35856.18
650.763	35952.9
651.115	36283.51
651.467	36175.26
651.819	36164.42
652.171	36079.9
652.523	36226.56
652.875	36252.1
653.227	35952.44
653.578	36190.86
653.93	36011.2
654.282	35927.13
654.633	35865.44
654.985	36020.24
655.337	35985.44
655.688	35956.06
656.039	36042.84
656.391	35802.17
656.742	35852.56
657.094	35899.56
657.445	35991.99
657.796	35949.51
658.147	35865.89
658.498	35792.9
658.849	35993.8
659.2	35853.01
659.551	35818.21
659.902	35900.24
660.253	35832
660.604	35896.4
660.955	35725.56
661.306	35829.06
661.656	35730.98
662.007	35763.07
662.358	35853.92
662.708	35795.16
663.059	35745.9
663.409	35452.8
663.76	35790.64
664.11	35678.33
664.461	35829.96
664.811	35723.75
665.161	35803.3
665.511	35588.84
665.862	35712.22
666.212	35808.49
666.562	35894.59
666.912	35705.45
667.262	35632.9
667.612	35610.76
667.962	35802.62
668.312	35722.39
668.662	35779.12
669.011	35780.47
669.361	35704.77
669.711	35538.9
670.06	35624.32
670.41	35543.87
670.76	35490.99
671.109	35696.41
671.459	35454.38
671.808	35549.97
672.157	35604.21
672.507	35415.06
672.856	35272.01
673.205	35459.12
673.554	35591.55
673.904	35374.15
674.253	35544.55
674.602	35414.61
674.951	34905.47
675.3	34777.33
675.649	35440.37
675.998	35294.38
676.346	35405.79
676.695	35415.51
677.044	35175.97
677.393	35304.55
677.741	35325.79
678.09	35249.64
678.438	35065.24
678.787	35179.81
679.135	35164.67
679.484	34927.61
679.832	35065.24
680.181	34939.59
680.529	35048.06
680.877	35052.58
681.225	34841.29
681.573	35048.06
681.922	34765.58
682.27	34648.75
682.618	34770.1
682.966	34624.8
683.314	34787.28
683.661	34619.82
684.009	34540.73
684.357	34434.29
684.705	34355.65
685.053	34422.99
685.4	34363.56
685.748	34178.93
686.095	34216.67
686.443	34187.52
686.79	34022.55
687.138	34097.35
687.485	34118.14
687.832	33939.84
688.18	33940.97
688.527	33741.43
688.874	33836.12
689.221	33708.89
689.568	33622.56
689.915	33625.73
690.262	33582.79
690.609	33348.9
690.956	33258.5
691.303	33289.24
691.65	33235.68
691.997	33234.32
692.344	33024.39
692.69	33062.35
693.037	33022.13
693.383	32801.34
693.73	32926.31
694.077	32637.05
694.423	32769.25
694.769	32559.99
695.116	32585.98
695.462	32366.1
695.808	32343.95
696.155	32406.55
696.501	32062.15
696.847	32161.58
697.193	31988.71
697.539	32088.82
697.885	31805.21
698.231	31707.81
698.577	31679.79
698.923	31578.55
699.269	31467.82
699.614	31285.67
699.96	31285.9
700.306	31400.02
700.651	31144.66
700.997	31112.57
701.342	31011.11
701.688	30931.11
702.033	30865.57
702.379	30948.96
702.724	30691.11
703.069	30716.88
703.415	30565.92
703.76	30472.81
704.105	30525.02
704.45	30392.14
704.795	30243.89
705.14	30305.59
705.485	30173.39
705.83	30136.78
706.175	30120.73
706.52	29904.47
706.865	29821.53
707.209	29891.59
707.554	29699.73
707.899	29853.17
708.243	29576.57
708.588	29622.44
708.932	29439.4
709.277	29377.02
709.621	29504.03
709.966	29161.44
710.31	29333.86
710.654	29064.49
710.998	29072.85
711.342	29105.17
711.687	28989.24
712.031	28839.19
712.375	28759.64
712.719	28989.24
713.063	28890.03
713.407	28761.22
713.75	28631.06
714.094	28718.74
714.438	28550.83
714.782	28580.89
715.125	28428.57
715.469	28362.59
715.812	28322.81
716.156	28233.33
716.499	28196.04
716.843	28241.23
717.186	28107.23
717.53	28140.67
717.873	28090.73
718.216	27934.8
718.559	28035.82
718.902	27733.45
719.246	27772.55
719.589	27633.12
719.932	27583.63
720.275	27662.04
720.617	27558.77
720.96	27557.86
721.303	27540.69
721.646	27562.61
721.989	27379.34
722.331	27409.39
722.674	27361.48
723.016	27371.65
723.359	27230.41
723.701	27377.3
724.044	27081.94
724.386	27001.49
724.729	27208.72
725.071	26920.59
725.413	27065.45
725.755	27007.37
726.097	26890.08
726.439	26792.69
726.782	26866.13
727.124	26872.46
727.465	26695.96
727.807	26716.76
728.149	26639.02
728.491	26663.2
728.833	26694.61
729.175	26551.79
729.516	26502.3
729.858	26381.85
730.199	26428.63
730.541	26397.44
730.882	26337.78
731.224	26458.46
731.565	26220.27
731.906	26314.51
732.248	26131.23
732.589	26086.04
732.93	26008.53
733.271	25977.79
733.612	26000.39
733.953	26085.36
734.294	25990.45
734.635	25827.51
734.976	25955.42
735.317	25769.44
735.658	25746.84
735.999	25757.68
736.339	25808.98
736.68	25822.09
737.021	25665.26
737.361	25544.13
737.702	25717.46
738.042	25548.65
738.383	25500.06
738.723	25676.1
739.063	25461.87
739.404	25611.25
739.744	25450.57
740.084	25309.11
740.424	25398.6
740.764	25241.54
741.104	25434.98
741.444	25219.62
741.784	25205.61
742.124	25255.1
742.464	25146.63
742.804	25158.15
743.143	25024.14
743.483	25125.38
743.823	24918.84
744.162	24887.2
744.502	25034.09
744.841	24856.69
745.181	25034.99
745.52	24866.63
745.86	24847.43
746.199	24822.57
746.538	24781.66
746.877	24726.52
747.216	24821.44
747.556	24790.7
747.895	24616.47
748.234	24623.25
748.573	24513.88
748.911	24482.46
749.25	24466.42
749.589	24379.87
749.928	24436.59
750.267	24438.62
750.605	24351.85
750.944	24350.94
751.283	24104.85
751.621	24301.23
751.96	24119.08
752.298	24142.36
752.636	24159.31
752.975	24002.7
753.313	23854.01
753.651	23987.11
753.989	23848.36
754.327	23888.81
754.666	23775.36
755.004	23745.31
755.342	23737.85
755.679	23681.35
756.017	23577.4
756.355	23715.25
756.693	23506.22
757.031	23463.96
757.368	23510.51
757.706	23354.13
758.044	23379.67
758.381	23323.4
758.719	23278.2
759.056	23226
759.394	23199.33
759.731	22967.48
760.068	23111.65
760.405	22877.31
760.743	22889.29
761.08	22906.01
761.417	22768.38
761.754	22770.42
762.091	22761.15
762.428	22480.71
762.765	22501.05
763.102	22654.72
763.438	22545.57
763.775	22319.81
764.112	22407.72
764.449	22350.54
764.785	22286.82
765.122	22113.03
765.458	22073.26
765.795	22030.55
766.131	21972.25
766.467	21802.31
766.804	21843.21
767.14	21748.3
767.476	21679.83
767.812	21601.41
768.148	21733.16
768.485	21461.07
768.821	21497.23
769.157	21375.65
769.492	21343.34
769.828	21213.62
770.164	21036.23
770.5	20947.87
770.836	20996.68
771.171	20868.55
771.507	20852.95
771.842	20677.14
772.178	20699.96
772.513	20646.18
772.849	20633.3
773.184	20514.21
773.519	20509.01
773.855	20346.75
774.19	20320.54
774.525	20139.75
774.86	20232.18
775.195	20143.14
775.53	20027.67
775.865	19919.42
776.2	19806.65
776.535	19711.52
776.87	19760.1
777.205	19491.63
777.539	19556.49
777.874	19581.8
778.209	19305.2
778.543	19376.16
778.878	19181.36
779.212	19223.39
779.547	19133
779.881	19219.1
780.215	18970.74
780.55	18993.79
780.884	18919.45
781.218	18782.27
781.552	18862.95
781.886	18815.27
782.22	18621.6
782.554	18578.66
782.888	18450.53
783.222	18436.97
783.556	18341.38
783.889	18254.15
784.223	18217.09
784.557	18099.35
784.89	18168.51
785.224	18020.03
785.557	17948.62
785.891	17850.77
786.224	17746.37
786.558	17796.09
786.891	17616.66
787.224	17610.1
787.557	17511.8
787.891	17517.67
788.224	17497.34
788.557	17469.31
788.89	17395.42
789.223	17413.04
789.556	17202.43
789.888	17174.18
790.221	17081.08
790.554	16972.38
790.887	16992.49
791.219	16975.09
791.552	16894.64
791.884	16721.54
792.217	16718.83
792.549	16702.78
792.882	16609.9
793.214	16561.77
793.546	16501.88
793.879	16379.85
794.211	16302.34
794.543	16276.8
794.875	16273.41
795.207	16328.1
795.539	16200.87
795.871	16253.08
796.203	16045.85
796.535	15997.94
796.867	15976.7
797.198	15893.99
797.53	15926.98
797.862	15797.49
798.193	15820.09
798.525	15708.23
798.856	15698.06
799.188	15580.32
799.519	15536.71
799.85	15475.02
800.182	15461.68
800.513	15408.13
800.844	15303.72
801.175	15411.97
801.506	15298.98
801.837	15263.72
802.168	15203.39
802.499	15157.51
802.83	15116.38
803.161	15086.1
803.491	15061.02
803.822	15037.74
804.153	14936.73
804.483	14810.85
804.814	14771.98
805.145	14781.7
805.475	14802.04
805.805	14736.28
806.136	14639.56
806.466	14687.69
806.796	14587.36
807.126	14556.17
807.457	14501.48
807.787	14499.22
808.117	14408.15
808.447	14322.73
808.777	14440.02
809.107	14304.43
809.436	14272.34
809.766	14279.79
810.096	14230.08
810.426	14110.53
810.755	14233.02
811.085	14127.93
811.414	14066.24
811.744	13958.67
812.073	13900.59
812.403	13930.88
812.732	13894.49
813.061	13819.24
813.39	13706.48
813.719	13753.71
814.049	13852.46
814.378	13687.49
814.707	13666.48
815.036	13699.47
815.365	13616.99
815.693	13599.36
816.022	13532.7
816.351	13546.93
816.68	13412.7
817.008	13451.12
817.337	13343.55
817.665	13271.01
817.994	13325.47
818.322	13251.57
818.651	13219.03
818.979	13205.92
819.307	13238.01
819.636	13161.86
819.964	13113.72
820.292	13175.19
820.62	13068.3
820.948	13065.59
821.276	13150.56
821.604	13069.43
821.932	13082.54
822.259	13024.91
822.587	13092.93
822.915	12999.15
823.243	13066.72
823.57	13035.53
823.898	12974.07
824.225	12961.18
824.553	12990.34
824.88	13009.54
825.207	13003.44
825.535	13010.45
825.862	13053.61
826.189	12956.66
826.516	13075.31
826.843	12936.33
827.17	13049.09
827.497	13015.65
827.824	13005.7
828.151	12980.17
828.478	13014.06
828.805	12992.82
829.131	12914.18
829.458	12951.02
829.785	12932.48
830.111	12934.52
830.438	12980.62
830.764	13041.86
831.09	12989.21
831.417	12855.42
831.743	12958.25
832.069	12968.87
832.395	12861.3
832.722	12967.96
833.048	12928.64
833.374	12915.99
833.7	12862.2
834.026	12743.79
834.351	12900.62
834.677	12805.93
835.003	12809.32
835.329	12873.96
835.654	12772.72
835.98	12726.61
836.306	12745.37
836.631	12749.21
836.956	12727.97
837.282	12760.29
837.607	12674.64
837.932	12632.38
838.258	12619.72
838.583	12593.96
838.908	12570.01
839.233	12544.7
839.558	12506.73
839.883	12534.08
840.208	12426.28
840.533	12447.07
840.858	12522.55
841.182	12438.03
841.507	12472.38
841.832	12379.51
842.156	12305.61
842.481	12402.33
842.805	12277.36
843.13	12217.02
843.454	12207.31
843.778	12222.45
844.103	12218.38
844.427	12151.94
844.751	12134.77
845.075	12101.09
845.399	12109.91
845.723	11951.49
846.047	12050.25
846.371	11936.8
846.695	11924.6
847.019	11812.74
847.343	11745.62
847.666	11674.21
847.99	11648.68
848.313	11701.78
848.637	11553.54
848.96	11532.97
849.284	11510.15
849.607	11473.09
849.931	11418.4
850.254	11335.69
850.577	11289.82
850.9	11266.77
851.223	11213.66
851.546	11104.06
851.869	11094.79
852.192	11127.11
852.515	11031.07
852.838	10986.55
853.161	10965.3
853.483	10922.59
853.806	10875.36
854.129	10813.44
854.451	10862.03
854.774	10858.87
855.096	10731.41
855.419	10699.78
855.741	10699.78
856.063	10627.01
856.385	10612.55
856.708	10521.7
857.03	10587.91
857.352	10635.14
857.674	10516.96
857.996	10410.29
858.318	10434.02
858.64	10443.06
858.961	10401.7
859.283	10342.95
859.605	10268.83
859.926	10271.54
860.248	10251.88
860.57	10227.02
860.891	10262.72
861.212	10149.28
861.534	10111.77
861.855	10112.9
862.176	10154.03
862.498	10129.85
862.819	10134.37
863.14	10100.92
863.461	10033.13
863.782	9992.9
864.103	9994.93
864.424	9960.81
864.745	10012.56
865.065	9934.6
865.386	9917.42
865.707	9910.42
866.027	9890.76
866.348	9867.93
866.668	9823.19
866.989	9899.8
867.309	9745
867.63	9770.76
867.95	9735.51
868.27	9741.61
868.59	9731.67
868.91	9744.55
869.23	9660.93
869.55	9567.6
869.87	9674.49
870.19	9592.23
870.51	9658.9
870.83	9671.1
871.15	9602.18
871.469	9613.25
871.789	9613.48
872.109	9512.69
872.428	9480.37
872.748	9540.03
873.067	9494.84
873.386	9530.31
873.706	9499.35
874.025	9461.84
874.344	9362.41
874.663	9414.84
874.982	9402.41
875.301	9405.57
875.62	9427.27
875.939	9349.75
876.258	9365.8
876.577	9261.62
876.896	9324.44
877.214	9302.75
877.533	9286.03
877.852	9342.3
878.17	9291.9
878.489	9289.64
878.807	9309.76
879.125	9208.74
879.444	9235.41
879.762	9222.07
880.08	9185.46
880.398	9155.18
880.716	9140.95
881.034	9083.09
881.352	9131.68
881.67	9130.55
881.988	9115.86
882.306	9039.03
882.624	9066.6
882.941	8992.02
883.259	8931.69
883.577	8944.12
883.894	8919.03
884.212	8908.86
884.529	8897.34
884.846	8851.01
885.164	8964.68
885.481	8761.75
885.798	8846.26
886.115	8737.79
886.432	8797.45
886.75	8736.44
887.067	8782.31
887.383	8638.59
887.7	8705.93
888.017	8678.81
888.334	8684.01
888.651	8659.6
888.967	8621.41
889.284	8597.68
889.6	8602.43
889.917	8533.96
890.233	8500.28
890.55	8476.1
890.866	8472.72
891.182	8455.99
891.498	8373.28
891.815	8382.32
892.131	8338.93
892.447	8390.23
892.763	8274.75
893.079	8291.7
893.395	8274.53
893.71	8206.28
894.026	8198.37
894.342	8171.71
894.657	8174.42
894.973	8110.46
895.289	8153.18
895.604	8103.01
895.92	8029.56
896.235	8043.12
896.55	7997.25
896.865	7976.46
897.181	7908.21
897.496	8010.35
897.811	7964.25
898.126	7939.17
898.441	7853.07
898.756	7793.64
899.071	7774.65
899.386	7730.14
899.7	7710.93
900.015	7685.39
900.33	7626.86
900.644	7640.65
900.959	7672.74
901.273	7648.33
901.588	7533.53
901.902	7575.56
902.216	7529.69
902.531	7506.19
902.845	7496.24
903.159	7423.25
903.473	7390.94
903.787	7406.98
904.101	7296.25
904.415	7354.78
904.729	7303.71
905.042	7318.85
905.356	7254.44
905.67	7212.18
905.984	7192.97
906.297	7231.39
906.611	7131.51
906.924	7129.93
907.237	7109.14
907.551	7119.98
907.864	7070.49
908.177	7069.36
908.491	7034.79
908.804	7002.7
909.117	6969.03
909.43	6894.45
909.743	6816.71
910.056	6819.43
910.368	6840.44
910.681	6774.68
910.994	6790.27
911.307	6763.61
911.619	6680.22
911.932	6685.42
912.244	6651.52
912.557	6679.32
912.869	6630.5
913.181	6630.28
913.494	6625.98
913.806	6494.91
914.118	6505.31
914.43	6494.91
914.742	6515.25
915.054	6439.55
915.366	6427.57
915.678	6360
915.99	6399.32
916.302	6350.74
916.613	6291.53
916.925	6268.25
917.236	6262.15
917.548	6209.95
917.859	6169.5
918.171	6204.53
918.482	6148.48
918.794	6167.46
919.105	6089.27
919.416	6102.83
919.727	6023.97
920.038	6025.55
920.349	6029.62
920.66	5935.61
920.971	5922.73
921.282	5909.84
921.593	5861.03
921.903	5830.52
922.214	5785.1
922.525	5818.77
922.835	5771.54
923.146	5760.7
923.456	5736.52
923.767	5736.74
924.077	5734.48
924.387	5669.17
924.697	5638.44
925.008	5622.17
925.318	5640.02
925.628	5562.96
925.938	5525.67
926.248	5484.09
926.558	5507.37
926.867	5456.07
927.177	5434.38
927.487	5448.61
927.796	5418.33
928.106	5377.43
928.416	5404.55
928.725	5361.16
929.034	5326.81
929.344	5322.97
929.653	5312.12
929.962	5254.95
930.271	5221.5
930.581	5242.29
930.89	5183.54
931.199	5140.6
931.508	5166.14
931.817	5178.34
932.125	5115.06
932.434	5080.49
932.743	5032.81
933.051	4996.87
933.36	5118.45
933.669	5008.63
933.977	5002.3
934.286	4971.11
934.594	4936.99
934.902	4863.54
935.21	4870.55
935.519	4879.59
935.827	4932.7
936.135	4819.93
936.443	4814.05
936.751	4765.47
937.059	4758.46
937.367	4711.01
937.674	4717.56
937.982	4732.02
938.29	4708.29
938.597	4627.39
938.905	4658.58
939.213	4635.98
939.52	4586.49
939.827	4667.62
940.135	4578.35
940.442	4583.55
940.749	4502.42
941.056	4512.82
941.363	4499.03
941.67	4491.12
941.977	4453.84
942.284	4412.48
942.591	4422.43
942.898	4393.05
943.205	4425.59
943.511	4374.97
943.818	4340.62
944.125	4276.89
944.431	4294.52
944.738	4293.84
945.044	4255.2
945.35	4287.97
945.657	4237.8
945.963	4256.55
946.269	4203.45
946.575	4146.28
946.881	4172.72
947.187	4178.14
947.493	4071.47
947.799	4106.95
948.105	4097.46
948.41	4062.66
948.716	4038.48
949.022	4028.99
949.327	4035.54
949.633	4026.28
949.938	3959.16
950.244	3962.78
950.549	3971.82
950.854	3946.51
951.16	3940.18
951.465	3896.56
951.77	3890.91
952.075	3860.41
952.38	3885.94
952.685	3861.54
952.99	3799.62
953.294	3810.24
953.599	3799.39
953.904	3772.95
954.209	3714.42
954.513	3747.42
954.818	3713.07
955.122	3719.85
955.426	3701.32
955.731	3706.74
956.035	3662.22
956.339	3589.91
956.643	3645.27
956.948	3623.35
957.252	3578.38
957.556	3553.3
957.86	3558.27
958.163	3560.75
958.467	3564.14
958.771	3530.02
959.075	3527.31
959.378	3490.93
959.682	3498.83
959.985	3489.8
960.289	3463.58
960.592	3422.23
960.896	3397.82
961.199	3410.93
961.502	3386.3
961.805	3372.06
962.108	3359.86
962.411	3383.36
962.714	3353.75
963.017	3279.63
963.32	3341.32
963.623	3283.47
963.926	3275.11
964.228	3248.9
964.531	3226.53
964.833	3262.23
965.136	3182.68
965.438	3214.55
965.741	3203.02
966.043	3161.44
966.345	3165.51
966.648	3164.15
966.95	3159.86
967.252	3113.31
967.554	3108.79
967.856	3163.93
968.158	3067.66
968.46	3069.24
968.761	3051.61
969.063	3045.06
969.365	3029.69
969.666	3042.35
969.968	3027.66
970.269	2972.75
970.571	2983.82
970.872	2978.62
971.174	2963.93
971.475	2948.79
971.776	2941.56
972.077	2927.55
972.378	2889.36
972.679	2875.8
972.98	2871.05
973.281	2878.96
973.582	2843.03
973.883	2836.71
974.183	2807.78
974.484	2806.65
974.785	2793.54
975.085	2766.2
975.386	2769.81
975.686	2797.16
975.986	2773.43
976.287	2760.77
976.587	2703.83
976.887	2723.04
977.187	2717.84
977.487	2683.49
977.787	2729.59
978.087	2646.43
978.387	2633.09
978.687	2683.49
978.987	2648.69
979.286	2621.12
979.586	2642.59
979.885	2601.46
980.185	2567.33
980.484	2577.5
980.784	2612.08
981.083	2573.21
981.382	2544.74
981.682	2525.53
981.981	2525.75
982.28	2502.48
982.579	2522.82
982.878	2516.49
983.177	2464.29
983.475	2456.15
983.774	2448.24
984.073	2432.42
984.372	2434.46
984.67	2415.7
984.969	2416.83
985.267	2429.26
985.566	2379.54
985.864	2386.1
986.162	2368.92
986.461	2377.51
986.759	2392.2
987.057	2344.29
987.355	2319.66
987.653	2346.1
987.951	2311.97
988.249	2314.68
988.547	2299.54
988.844	2287.12
989.142	2249.38
989.44	2270.84
989.737	2247.79
990.035	2265.87
990.332	2228.13
990.63	2221.13
990.927	2232.65
991.224	2224.07
991.521	2186.78
991.819	2154.24
992.116	2195.59
992.413	2150.4
992.71	2151.98
993.006	2150.62
993.303	2129.38
993.6	2170.51
993.897	2102.49
994.193	2108.36
994.49	2118.53
994.787	2088.93
995.083	2096.61
995.379	2073.11
995.676	2040.79
995.972	2081.92
996.268	2033.34
996.565	2006.44
996.861	2032.21
997.157	2016.61
997.453	2043.51
997.749	1988.14
998.044	1979.55
998.34	1984.3
998.636	1939.33
998.932	1952.66
999.227	1932.55
999.523	1937.75
999.818	1930.97
1000.114	1929.38
1000.409	1898.42
1000.704	1885.77
1001	1884.19
1001.295	1875.6
1001.59	1902.27
1001.885	1876.28
1002.18	1821.59
1002.475	1808.94
1002.77	1829.05
1003.065	1821.36
1003.359	1777.07
1003.654	1786.11
1003.949	1802.38
1004.243	1781.82
1004.538	1758.09
1004.832	1777.07
1005.127	1736.85
1005.421	1761.03
1005.715	1723.97
1006.009	1722.16
1006.304	1739.56
1006.598	1707.47
1006.892	1679.45
1007.186	1689.84
1007.48	1676.74
1007.773	1672.44
1008.067	1654.82
1008.361	1648.94
1008.655	1647.13
1008.948	1577.98
1009.242	1639.9
1009.535	1592.44
1009.829	1592.44
1010.122	1587.25
1010.415	1610.75
1010.708	1574.82
1011.001	1532.56
1011.295	1533.46
1011.588	1546.34
1011.881	1533.24
1012.173	1544.54
1012.466	1503.41
1012.759	1494.37
1013.052	1508.38
1013.344	1514.71
1013.637	1492.79
1013.93	1483.75
1014.222	1506.57
1014.514	1460.92
1014.807	1450.07
1015.099	1443.52
1015.391	1434.03
1015.683	1427.25
1015.976	1448.04
1016.268	1416.86
1016.56	1417.53
1016.851	1404.88
1017.143	1392.45
1017.435	1365.33
1017.727	1379.34
1018.018	1401.04
1018.31	1355.16
1018.602	1343.86
1018.893	1340.02
1019.185	1318.33
1019.476	1346.35
1019.767	1329.17
1020.058	1307.71
1020.35	1311.32
1020.641	1304.32
1020.932	1320.36
1021.223	1262.51
1021.514	1294.15
1021.804	1264.32
1022.095	1262.51
1022.386	1234.71
1022.677	1239.23
1022.967	1206.47
1023.258	1203.75
1023.548	1208.95
1023.839	1196.52
1024.129	1215.05
1024.419	1208.5
1024.709	1208.73
1025	1158.56
1025.29	1145.68
1025.58	1177.54
1025.87	1167.14
1026.16	1160.14
1026.449	1146.81
1026.739	1155.39
1027.029	1114.04
1027.319	1125.79
1027.608	1112.23
1027.898	1127.82
1028.187	1088.28
1028.477	1078.79
1028.766	1071.33
1029.055	1080.82
1029.344	1092.8
1029.634	1062.74
1029.923	1055.28
1030.212	1058.45
1030.501	1053.48
1030.79	1034.04
1031.078	1047.6
1031.367	1037.66
1031.656	1023.19
1031.945	1017.32
1032.233	1007.83
1032.522	1029.97
1032.81	1006.92
1033.099	1020.93
1033.387	1008.28
1033.675	961.5
1033.963	963.76
1034.251	960.14
1034.54	956.3
1034.828	961.27
1035.116	944.1
1035.403	957.43
1035.691	944.55
1035.979	922.41
1036.267	934.83
1036.554	910.2
1036.842	927.15
1037.129	898.45
1037.417	898.45
1037.704	912.91
1037.992	880.82
1038.279	902.07
1038.566	888.51
1038.853	888.51
1039.14	888.51
