Data from hue_140_FLMS001491_00079.txt Node
Date: Tue Feb 07 16:56:24 GMT 2017
User: dcchb
Spectrometer: FLMS00149
Trigger mode: 0
Integration Time (sec): 2.000000E-2
Scans to average: 10
Electric dark correction enabled: true
Nonlinearity correction enabled: false
Boxcar width: 0
XAxis mode: Wavelengths
Number of Pixels in Spectrum: 2048
>>>>>Begin Spectral Data<<<<<
341.393	-8.94
341.776	-8.94
342.16	-8.94
342.543	-65.89
342.927	-58.43
343.31	-87.58
343.693	-70.41
344.077	-61.82
344.46	-65.89
344.843	-83.74
345.226	-28.15
345.61	-33.12
345.993	-8.04
346.376	3.26
346.759	30.83
347.142	26.54
347.525	57.72
347.908	51.17
348.291	64.5
348.674	97.72
349.057	106.99
349.44	118.74
349.823	156.48
350.206	163.94
350.588	205.74
350.971	219.53
351.354	213.43
351.737	231.28
352.119	244.39
352.502	263.14
352.884	271.96
353.267	267.21
353.65	297.04
354.032	287.55
354.414	299.3
354.797	303.37
355.179	325.51
355.562	307.89
355.944	316.02
356.326	318.51
356.709	326.19
357.091	339.07
357.473	349.02
357.855	346.08
358.238	347.43
358.62	335.68
359.002	368.45
359.384	325.51
359.766	330.03
360.148	332.75
360.53	344.72
360.912	339.3
361.294	343.82
361.676	325.97
362.057	331.62
362.439	313.76
362.821	328.9
363.203	307.66
363.584	331.62
363.966	309.02
364.348	324.38
364.729	322.8
365.111	316.02
365.493	327.1
365.874	301.56
366.256	298.17
366.637	315.12
367.019	322.35
367.4	334.55
367.781	314.67
368.163	316.93
368.544	311.28
368.925	310.15
369.306	311.5
369.688	318.73
370.069	305.63
370.45	322.12
370.831	299.75
371.212	321.45
371.593	293.65
371.974	347.66
372.355	309.47
372.736	318.51
373.117	330.49
373.498	328.23
373.879	302.69
374.26	312.18
374.641	309.24
375.021	300.2
375.402	308.57
375.783	328.23
376.163	317.6
376.544	318.51
376.925	324.61
377.305	326.19
377.686	321.67
378.066	347.21
378.447	335.23
378.827	332.75
379.208	326.19
379.588	353.31
379.968	336.59
380.349	333.42
380.729	324.61
381.109	341.56
381.489	317.6
381.87	351.73
382.25	348.79
382.63	367.55
383.01	351.5
383.39	338.17
383.77	352.41
384.15	332.52
384.53	352.63
384.91	325.74
385.29	351.05
385.67	357.83
386.049	355.12
386.429	355.12
386.809	360.99
387.189	356.7
387.568	365.74
387.948	355.12
388.328	363.03
388.707	370.03
389.087	358.06
389.466	370.48
389.846	364.16
390.225	374.1
390.605	376.81
390.984	367.09
391.363	390.15
391.743	355.8
392.122	362.58
392.501	378.62
392.881	400.31
393.26	370.03
393.639	384.5
394.018	360.77
394.397	382.69
394.776	381.33
395.155	358.28
395.534	415.46
395.913	398.73
396.292	407.55
396.671	390.37
397.05	393.76
397.429	405.96
397.808	408.68
398.186	404.83
398.565	431.73
398.944	402.57
399.323	388.79
399.701	397.38
400.08	398.28
400.458	414.78
400.837	426.3
401.215	438.51
401.594	397.83
401.972	415.68
402.351	415
402.729	420.65
403.107	433.76
403.486	424.04
403.864	429.92
404.242	428.11
404.62	432.4
404.999	428.11
405.377	435.57
405.755	406.87
406.133	438.05
406.511	450.71
406.889	426.53
407.267	459.3
407.645	439.86
408.023	442.8
408.401	452.52
408.779	454.32
409.156	461.33
409.534	462.23
409.912	446.64
410.29	466.53
410.667	467.66
411.045	461.56
411.422	452.74
411.8	478.5
412.178	469.69
412.555	492.74
412.933	484.61
413.31	483.48
413.687	482.8
414.065	496.81
414.442	502.46
414.819	496.81
415.197	496.81
415.574	499.75
415.951	514.66
416.328	522.8
416.705	508.33
417.082	521.44
417.46	524.6
417.837	527.99
418.214	527.77
418.591	522.12
418.967	539.07
419.344	538.16
419.721	543.36
420.098	528.67
420.475	543.14
420.852	551.5
421.228	544.27
421.605	561.44
421.982	573.87
422.358	564.38
422.735	559.41
423.111	572.97
423.488	579.74
423.864	586.07
424.241	591.72
424.617	604.38
424.994	584.26
425.37	586.07
425.746	598.28
426.123	595.79
426.499	607.77
426.875	608.44
427.251	621.55
427.627	647.09
428.003	639.4
428.379	633.08
428.756	634.43
429.132	633.08
429.507	659.97
429.883	659.06
430.259	657.71
430.635	650.48
431.011	684.83
431.387	684.6
431.763	681.89
432.138	694.54
432.514	688.44
432.89	684.37
433.265	713.53
433.641	715.11
434.016	705.62
434.392	709.68
434.767	727.99
435.143	732.28
435.518	736.12
435.894	746.07
436.269	732.28
436.644	777.03
437.02	767.31
437.395	753.75
437.77	801.89
438.145	782.9
438.52	800.98
438.895	799.4
439.271	787.2
439.646	794.65
440.021	788.33
440.395	820.42
440.77	843.92
441.145	855.67
441.52	857.25
441.895	818.83
442.27	854.09
442.645	832.62
443.019	849.34
443.394	856.35
443.769	859.29
444.143	854.54
444.518	901.54
444.892	879.62
445.267	866.29
445.641	889.57
446.016	890.24
446.39	872.84
446.764	899.06
447.139	899.96
447.513	908.55
447.887	906.52
448.262	931.15
448.636	904.48
449.01	939.51
449.384	928.21
449.758	962.33
450.132	974.54
450.506	960.53
450.88	983.58
451.254	985.84
451.628	977.02
452.002	967.08
452.376	1005.72
452.75	979.28
453.123	1022.67
453.497	1034.87
453.871	1022.9
454.244	1045.95
454.618	1052.27
454.992	1071.94
455.365	1067.64
455.739	1098.15
456.112	1096.12
456.486	1113.97
456.859	1139.73
457.232	1146.51
457.606	1148.54
457.979	1166.4
458.352	1193.74
458.725	1205.49
459.099	1232.83
459.472	1217.47
459.845	1234.87
460.218	1243
460.591	1287.97
460.964	1264.02
461.337	1272.16
461.71	1333.4
462.083	1332.04
462.456	1336.56
462.829	1348.31
463.201	1390.8
463.574	1363
463.947	1375.88
464.32	1394.86
464.692	1424.69
465.065	1473.28
465.438	1466.28
465.81	1496.1
466.183	1536.1
466.555	1529.55
466.928	1544.69
467.3	1589.89
467.672	1596.89
468.045	1658.13
468.417	1664.69
468.789	1697.46
469.161	1719.38
469.534	1704.46
469.906	1742.88
470.278	1799.83
470.65	1805.25
471.022	1865.59
471.394	1898.13
471.766	1929.99
472.138	1951.91
472.51	2020.61
472.882	2034.85
473.253	2056.99
473.625	2130.89
473.997	2184.67
474.369	2202.75
474.74	2219.48
475.112	2262.64
475.484	2357.78
475.855	2383.99
476.227	2424.67
476.598	2529.75
476.97	2548.28
477.341	2620.59
477.713	2680.93
478.084	2753.02
478.455	2840.93
478.827	2882.06
479.198	3037.76
479.569	3024.65
479.94	3160.92
480.311	3203.86
480.682	3274.36
481.053	3389.61
481.424	3480.23
481.795	3554.13
482.166	3673.67
482.537	3765.42
482.908	3896.27
483.279	3944.85
483.65	4034.12
484.021	4193.21
484.391	4291.51
484.762	4362.02
485.133	4451.06
485.503	4536.93
485.874	4686.98
486.244	4792.52
486.615	4900.31
486.985	5054.66
487.356	5182.56
487.726	5327.42
488.097	5456
488.467	5561.99
488.837	5724.69
489.207	5832.04
489.578	5971.47
489.948	6098.24
490.318	6250.33
490.688	6296.66
491.058	6515.86
491.428	6633.37
491.798	6797.21
492.168	7017.99
492.538	7066.35
492.908	7224.32
493.278	7304.31
493.648	7460.47
494.017	7559.9
494.387	7780.69
494.757	7860.46
495.126	7997.18
495.496	8115.37
495.866	8218.87
496.235	8407.79
496.605	8523.26
496.974	8608.46
497.344	8733.2
497.713	8865.18
498.082	8981.56
498.452	9085.96
498.821	9163.25
499.19	9284.6
499.559	9380.64
499.928	9497.7
500.298	9581.09
500.667	9728.43
501.036	9774.08
501.405	9950.12
501.774	9963.9
502.143	10165.26
502.512	10167.29
502.88	10408.19
503.249	10304.91
503.618	10459.94
503.987	10560.95
504.356	10633.04
504.724	10693.15
505.093	10735.86
505.462	10921.17
505.83	10999.13
506.199	11132.01
506.567	11262.18
506.936	11160.03
507.304	11368.39
507.672	11400.7
508.041	11473.92
508.409	11555.73
508.777	11627.82
509.145	11748.04
509.514	11759.79
509.882	11884.31
510.25	11865.1
510.618	11901.71
510.986	11963.4
511.354	12000.46
511.722	12138.99
512.09	12240.45
512.458	12222.38
512.826	12349.83
513.193	12318.65
513.561	12314.35
513.929	12504.85
514.297	12607.68
514.664	12625.3
515.032	12712.76
515.4	12755.7
515.767	12782.14
516.135	12812.42
516.502	12750.5
516.869	12987.78
517.237	12938.97
517.604	12884.28
517.972	13019.87
518.339	13014.67
518.706	13067.1
519.073	13030.94
519.44	13146.87
519.808	13254.21
520.175	13181
520.542	13344.15
520.909	13281.11
521.276	13270.94
521.643	13350.26
522.009	13444.49
522.376	13482.68
522.743	13482
523.11	13525.84
523.477	13640.87
523.843	13702.11
524.21	13744.37
524.577	13746.63
524.943	13844.48
525.31	13866.17
525.676	13920.41
526.043	13887.42
526.409	13874.54
526.776	14082.89
527.142	14041.76
527.508	13974.87
527.874	14107.07
528.241	14093.06
528.607	14115.43
528.973	14130.8
529.339	14116.11
529.705	14200.4
530.071	14228.43
530.437	14150.69
530.803	14155.66
531.169	14173.51
531.535	14196.11
531.901	14217.8
532.267	14139.84
532.632	14171.7
532.998	14165.83
533.364	14273.17
533.73	14147.52
534.095	14211.93
534.461	14139.39
534.826	14101.42
535.192	14185.49
535.557	14171.25
535.923	14122.21
536.288	14115.89
536.653	14111.59
537.019	14016.91
537.384	14112.95
537.749	14050.12
538.114	14059.16
538.479	14030.01
538.845	14055.55
539.21	13857.36
539.575	13939.17
539.94	13924.7
540.305	13947.3
540.67	13859.85
541.034	13821.43
541.399	13806.52
541.764	13754.77
542.129	13743.69
542.494	13713.41
542.858	13745.5
543.223	13685.61
543.587	13701.43
543.952	13599.06
544.316	13625.73
544.681	13576.01
545.045	13656.91
545.41	13529.23
545.774	13533.53
546.138	13507.09
546.503	13428.9
546.867	13466.19
547.231	13445.17
547.595	13402.91
547.959	13419.86
548.324	13294.44
548.688	13308.22
549.052	13343.02
549.416	13251.28
549.779	13298.73
550.143	13254.21
550.507	13198.17
550.871	13166.31
551.235	13080.43
551.599	13233.2
551.962	13132.18
552.326	13093.09
552.689	13162.24
553.053	13069.36
553.417	13015.35
553.78	13152.97
554.143	12962.02
554.507	13035.91
554.87	12981.68
555.234	13045.86
555.597	12917.73
555.96	12948.91
556.323	13012.19
556.686	12930.83
557.05	12920.66
557.413	12895.58
557.776	12901.68
558.139	12962.47
558.502	12876.14
558.865	12856.94
559.228	12945.75
559.59	12887.9
559.953	12907.33
560.316	13005.18
560.679	12958.63
561.041	12963.15
561.404	12963.15
561.767	13046.99
562.129	12953.88
562.492	12986.88
562.854	12920.21
563.217	12969.25
563.579	12945.3
563.941	13050.6
564.304	13084.05
564.666	13074.78
565.028	13071.85
565.39	13021
565.753	13099.42
566.115	13041.56
566.477	13059.42
566.839	13116.36
567.201	13239.3
567.563	13068.46
567.925	13185.74
568.287	13231.39
568.648	13220.99
569.01	13172.18
569.372	13272.29
569.734	13128.79
570.095	13316.81
570.457	13285.63
570.819	13299.64
571.18	13277.72
571.542	13357.26
571.903	13336.7
572.265	13408.33
572.626	13355.23
572.987	13397.49
573.349	13320.43
573.71	13379.18
574.071	13427.32
574.432	13509.57
574.794	13488.11
575.155	13423.93
575.516	13385.74
575.877	13540.53
576.238	13451.5
576.599	13484.94
576.96	13455.79
577.32	13455.11
577.681	13557.03
578.042	13597.26
578.403	13484.94
578.763	13489.69
579.124	13509.8
579.485	13561.78
579.845	13543.02
580.206	13564.71
580.566	13526.52
580.927	13555
581.287	13560.87
581.648	13470.71
582.008	13526.75
582.368	13539.63
582.728	13515.45
583.089	13532.4
583.449	13524.04
583.809	13522.68
584.169	13521.33
584.529	13487.65
584.889	13525.62
585.249	13399.75
585.609	13433.42
585.969	13523.13
586.329	13540.76
586.688	13527.65
587.048	13512.06
587.408	13426.41
587.768	13478.39
588.127	13452.85
588.487	13412.4
588.846	13493.08
589.206	13326.3
589.565	13360.2
589.925	13420.31
590.284	13414.21
590.643	13365.4
591.003	13388.22
591.362	13484.49
591.721	13351.84
592.08	13401.33
592.44	13398.62
592.799	13348.45
593.158	13351.84
593.517	13311.61
593.876	13332.18
594.235	13352.74
594.593	13312.29
594.952	13341.67
595.311	13251.95
595.67	13289.01
596.029	13298.96
596.387	13364.95
596.746	13408.56
597.104	13303.03
597.463	13277.49
597.822	13372.18
598.18	13307.77
598.538	13268.9
598.897	13307.55
599.255	13228.23
599.613	13459.41
599.972	13333.31
600.33	13322.46
600.688	13266.64
601.046	13291.5
601.404	13375.11
601.762	13304.38
602.12	13330.14
602.478	13337.6
602.836	13368.56
603.194	13309.35
603.552	13268
603.91	13242.24
604.268	13309.35
604.625	13251.73
604.983	13349.58
605.341	13249.02
605.698	13289.69
606.056	13315.91
606.413	13303.93
606.771	13420.54
607.128	13350.03
607.485	13183.48
607.843	13279.52
608.2	13338.05
608.557	13290.6
608.914	13358.84
609.272	13440.2
609.629	13374.21
609.986	13468.22
610.343	13363.59
610.7	13427.32
611.057	13439.97
611.414	13422.8
611.771	13424.83
612.127	13474.77
612.484	13518.61
612.841	13507.54
613.198	13498.5
613.554	13428.22
613.911	13599.29
614.267	13574.88
614.624	13511.61
614.98	13587.09
615.337	13637.71
615.693	13664.15
616.05	13570.36
616.406	13658.27
616.762	13588.89
617.118	13591.83
617.475	13573.75
617.831	13627.54
618.187	13608.78
618.543	13626.86
618.899	13663.92
619.255	13635.67
619.611	13631.83
619.967	13736.46
620.323	13721.09
620.678	13686.29
621.034	13692.85
621.39	13661.43
621.746	13574.66
622.101	13758.61
622.457	13707.31
622.812	13761.77
623.168	13752.73
623.523	13779.62
623.879	13797.48
624.234	13684.71
624.589	13761.54
624.945	13740.75
625.3	13782.56
625.655	13733.07
626.01	13789.57
626.365	13737.59
626.72	13658.5
627.075	13723.13
627.43	13785.27
627.785	13674.32
628.14	13704.37
628.495	13713.18
628.85	13678.38
629.205	13671.83
629.559	13687.2
629.914	13695.11
630.269	13749.34
630.623	13667.31
630.978	13640.19
631.332	13709.79
631.687	13702.56
632.041	13593.87
632.396	13619.4
632.75	13460.54
633.104	13533.75
633.459	13517.71
633.813	13451.72
634.167	13474.09
634.521	13405.62
634.875	13515
635.229	13398.62
635.583	13336.47
635.937	13319.07
636.291	13379.18
636.645	13310.71
636.999	13289.01
637.352	13351.16
637.706	13226.19
638.06	13266.19
638.413	13271.84
638.767	13242.24
639.121	13254.89
639.474	13236.59
639.828	13202.01
640.181	13231.62
640.534	13168.11
640.888	13189.13
641.241	13145.74
641.594	13153.65
641.947	13298.05
642.301	13226.19
642.654	13193.65
643.007	13134.89
643.36	13143.48
643.713	13150.04
644.066	13190.94
644.419	13077.5
644.771	12995.46
645.124	12914.34
645.477	12827.56
645.83	12872.08
646.182	12732.87
646.535	12750.5
646.888	12776.49
647.24	12632.76
647.593	12708.69
647.945	12823.72
648.298	12701.69
648.65	12659.2
649.002	12637.28
649.355	12666.21
649.707	12619.2
650.059	12719.54
650.411	12894.22
650.763	12838.41
651.115	13018.74
651.467	12970.15
651.819	12945.07
652.171	12977.16
652.523	12898.52
652.875	12873.21
653.227	12941
653.578	12917.5
653.93	12966.54
654.282	12880.21
654.633	12867.11
654.985	12915.47
655.337	12940.32
655.688	12911.85
656.039	12950.72
656.391	12880.66
656.742	12952.07
657.094	12901.45
657.445	12970.15
657.796	12845.18
658.147	12971.51
658.498	12928.35
658.849	12947.33
659.2	12948.23
659.551	12857.39
659.902	12969.93
660.253	12927.67
660.604	12945.97
660.955	12926.09
661.306	12888.12
661.656	12947.56
662.007	13013.54
662.358	12905.97
662.708	12942.36
663.059	13001.11
663.409	12831.17
663.76	12968.57
664.11	12911.17
664.461	12963.15
664.811	12990.27
665.161	12976.71
665.511	12969.25
665.862	13000.66
666.212	12970.61
666.562	13007.89
666.912	12916.82
667.262	12968.12
667.612	12927.44
667.962	12995.01
668.312	12947.78
668.662	12930.15
669.011	12979.64
669.361	13000.89
669.711	12881.12
670.06	12908.69
670.41	12849.03
670.76	12880.21
671.109	12887.44
671.459	12933.32
671.808	12892.19
672.157	12900.32
672.507	12778.75
672.856	12756.15
673.205	12839.54
673.554	12846.09
673.904	12817.84
674.253	12859.87
674.602	12911.4
674.951	12592.76
675.3	12589.82
675.649	12745.75
675.998	12812.19
676.346	12796.82
676.695	12879.08
677.044	12692.19
677.393	12761.35
677.741	12804.96
678.09	12773.77
678.438	12607.9
678.787	12661.69
679.135	12750.5
679.484	12651.07
679.832	12622.59
680.181	12622.82
680.529	12668.47
680.877	12590.95
681.225	12560.9
681.573	12594.12
681.922	12520.67
682.27	12528.13
682.618	12504.4
682.966	12483.39
683.314	12483.84
683.661	12410.62
684.009	12362.94
684.357	12337.63
684.705	12232.55
685.053	12278.19
685.4	12267.12
685.748	12209.04
686.095	12204.07
686.443	12172.21
686.79	12117.75
687.138	12158.88
687.485	12077.07
687.832	12191.87
688.18	12073.45
688.527	12019.9
688.874	11945.77
689.221	11982.61
689.568	11947.81
689.915	11898.09
690.262	11922.95
690.609	11841.6
690.956	11800.24
691.303	11818.55
691.65	11679.34
691.997	11748.49
692.344	11652
692.69	11690.19
693.037	11687.25
693.383	11610.42
693.73	11578.78
694.077	11469.4
694.423	11481.6
694.769	11490.64
695.116	11299.24
695.462	11388.5
695.808	11294.04
696.155	11338.56
696.501	11190.31
696.847	11302.63
697.193	11174.95
697.539	11132.91
697.885	11111.45
698.231	11046.81
698.577	11084.55
698.923	11012.46
699.269	10971.34
699.614	10894.73
699.96	10894.73
700.306	10926.14
700.651	10806.59
700.997	10745.35
701.342	10692.7
701.688	10744.9
702.033	10607.5
702.379	10654.06
702.724	10569.76
703.069	10657.67
703.415	10466.94
703.76	10493.61
704.105	10406.6
704.45	10451.12
704.795	10440.28
705.14	10339.49
705.485	10313.73
705.83	10318.92
706.175	10281.18
706.52	10226.5
706.865	10173.62
707.209	10171.81
707.554	10176.55
707.899	10100.85
708.243	10085.48
708.588	10116.9
708.932	9938.37
709.277	9998.48
709.621	9967.97
709.966	9946.5
710.31	9986.73
710.654	9851.37
710.998	9980.18
711.342	9956.9
711.687	9875.09
712.031	9854.98
712.375	9776.79
712.719	9741.76
713.063	9843.68
713.407	9812.27
713.75	9752.84
714.094	9706.74
714.438	9656.34
714.782	9657.47
715.125	9608.43
715.469	9636.23
715.812	9548.1
716.156	9612.73
716.499	9541.09
716.843	9621.54
717.186	9520.75
717.53	9535.44
717.873	9641.2
718.216	9481.21
718.559	9444.37
718.902	9442.79
719.246	9397.37
719.589	9454.09
719.932	9337.71
720.275	9407.54
720.617	9357.37
720.96	9307.42
721.303	9324.15
721.646	9340.64
721.989	9296.8
722.331	9281.89
722.674	9316.46
723.016	9293.41
723.359	9302.68
723.701	9255.45
724.044	9245.51
724.386	9251.83
724.729	9292.06
725.071	9231.49
725.413	9219.29
725.755	9181.78
726.097	9149.69
726.439	9179.74
726.782	9171.38
727.124	9296.58
727.465	9135.23
727.807	9165.06
728.149	9069.46
728.491	9103.36
728.833	9174.09
729.175	9069.92
729.516	9090.93
729.858	9062.46
730.199	9099.07
730.541	9036.7
730.882	9051.39
731.224	9118.28
731.565	9011.61
731.906	9070.14
732.248	9007.55
732.589	9062.23
732.93	9089.8
733.271	9072.63
733.612	9040.99
733.953	9071.5
734.294	9037.83
734.635	9021.56
734.976	9069.24
735.317	9016.58
735.658	8994.66
735.999	9083.25
736.339	9055.45
736.68	9038.73
737.021	9008.22
737.361	9034.21
737.702	9152.4
738.042	9066.75
738.383	9047.54
738.723	9089.58
739.063	9051.61
739.404	9090.03
739.744	9094.77
740.084	9113.31
740.424	9113.98
740.764	9098.84
741.104	9211.83
741.444	9215.68
741.784	9150.37
742.124	9170.71
742.464	9187.43
742.804	9219.52
743.143	9165.96
743.483	9203.25
743.823	9242.57
744.162	9231.04
744.502	9285.96
744.841	9322.11
745.181	9339.97
745.52	9334.99
745.86	9384.71
746.199	9361.43
746.538	9465.61
746.877	9598.26
747.216	9538.83
747.556	9611.15
747.895	9573.86
748.234	9678.71
748.573	9667.42
748.911	9736.57
749.25	9806.62
749.589	9821.54
749.928	9967.75
750.267	10019.95
750.605	10057.69
750.944	10114.41
751.283	10216.1
751.621	10299.26
751.96	10368.87
752.298	10365.7
752.636	10557.34
752.975	10596.43
753.313	10693.6
753.651	10804.33
753.989	10880.49
754.327	10953.48
754.666	11093.59
755.004	11197.77
755.342	11381.72
755.679	11516.63
756.017	11507.59
756.355	11738.77
756.693	11870.75
757.031	11965.21
757.368	12097.86
757.706	12213.79
758.044	12356.38
758.381	12465.31
758.719	12700.56
759.056	12854.9
759.394	13025.52
759.731	13058.51
760.068	13227.1
760.405	13356.58
760.743	13515.68
761.08	13701.43
761.417	13859.17
761.754	13989.11
762.091	14131.93
762.428	14345.26
762.765	14389.33
763.102	14573.05
763.438	14799.71
763.775	14900.72
764.112	15088.06
764.449	15354.27
764.785	15348.4
765.122	15475.62
765.458	15612.34
765.795	15836.29
766.131	15952
766.467	16027.93
766.804	16160.58
767.14	16295.94
767.476	16448.03
767.812	16590.4
768.148	16753.56
768.485	16724.18
768.821	16849.15
769.157	17066.32
769.492	17074
769.828	17254.33
770.164	17331.62
770.5	17396.93
770.836	17576.13
771.171	17530.03
771.507	17729.8
771.842	17706.98
772.178	17895.22
772.513	17937.25
772.849	18047.76
773.184	18053.41
773.519	18191.03
773.855	18190.36
774.19	18322.78
774.525	18334.76
774.86	18409.11
775.195	18531.36
775.53	18471.48
775.865	18563.45
776.2	18623.34
776.535	18552.61
776.87	18713.51
777.205	18714.18
777.539	18754.18
777.874	18816.78
778.209	18758.7
778.543	18691.36
778.878	18773.39
779.212	18819.94
779.547	18765.48
779.881	18821.07
780.215	18866.27
780.55	18933.61
780.884	18852.48
781.218	18914.4
781.552	18921.86
781.886	18861.3
782.22	18862.2
782.554	18782.88
782.888	18756.67
783.222	18734.07
783.556	18674.86
783.889	18735.43
784.223	18544.47
784.557	18731.13
784.89	18673.28
785.224	18683
785.557	18638.25
785.891	18602.32
786.224	18569.78
786.558	18629.67
786.891	18556.67
787.224	18505.83
787.557	18491.82
787.891	18487.07
788.224	18466.96
788.557	18492.27
788.89	18511.93
789.223	18518.48
789.556	18396.9
789.888	18397.36
790.221	18394.19
790.554	18217.02
790.887	18262.9
791.219	18259.28
791.552	18163.69
791.884	18105.39
792.217	18181.77
792.549	18101.32
792.882	18007.76
793.214	17948.33
793.546	18031.72
793.879	17867.88
794.211	17816.81
794.543	17855.9
794.875	17836.24
795.207	17933.41
795.539	17775.22
795.871	17772.06
796.203	17613.42
796.535	17537.04
796.867	17542.46
797.198	17537.72
797.53	17558.73
797.862	17431.73
798.193	17461.33
798.525	17295.92
798.856	17402.81
799.188	17137.73
799.519	17114.68
799.85	17016.83
800.182	17156.94
800.513	17196.48
800.844	16965.75
801.175	17168.91
801.506	17015.47
801.837	16993.32
802.168	17002.82
802.499	16950.39
802.83	16832.65
803.161	16794.01
803.491	16776.38
803.822	16733.9
804.153	16662.94
804.483	16643.73
804.814	16559.89
805.145	16527.35
805.475	16530.51
805.805	16402.38
806.136	16515.6
806.466	16427.92
806.796	16384.53
807.126	16263.4
807.457	16295.26
807.787	16308.14
808.117	16244.87
808.447	16257.3
808.777	16180.01
809.107	16103.4
809.436	16170.97
809.766	16035.61
810.096	15987.02
810.426	15977.31
810.755	15994.48
811.085	15980.24
811.414	15915.39
811.744	15758.78
812.073	15859.79
812.403	15851.66
812.732	15716.75
813.061	15771.89
813.39	15641.04
813.719	15656.86
814.049	15727.59
814.378	15568.73
814.707	15539.58
815.036	15555.62
815.365	15457.09
815.693	15370.32
816.022	15368.73
816.351	15331
816.68	15291.22
817.008	15315.85
817.337	15197.89
817.665	15208.29
817.994	15184.56
818.322	15242.41
818.651	15102.3
818.979	15080.83
819.307	15155.86
819.636	15028.63
819.964	15090.1
820.292	15144.56
820.62	15007.84
820.948	14928.97
821.276	15087.39
821.604	14987.05
821.932	14994.96
822.259	15026.6
822.587	14956.77
822.915	14896.43
823.243	14994.05
823.57	15009.65
823.898	14936.43
824.225	14929.2
824.553	14915.41
824.88	14995.41
825.207	14990.44
825.535	14905.47
825.862	14947.05
826.189	14880.61
826.516	15038.35
826.843	15035.41
827.17	15012.13
827.497	15028.63
827.824	15042.19
828.151	15064.56
828.478	15025.24
828.805	15065.69
829.131	15006.48
829.458	15065.01
829.785	14954.51
830.111	14998.8
830.438	15042.19
830.764	15007.39
831.09	14989.08
831.417	14915.41
831.743	15047.84
832.069	15011.68
832.395	14995.41
832.722	14949.99
833.048	14912.48
833.374	14889.88
833.7	14829.77
834.026	14841.74
834.351	14969.42
834.677	14879.26
835.003	14878.58
835.329	14860.5
835.654	14899.59
835.98	14771.46
836.306	14781.18
836.631	14755.19
836.956	14766.49
837.282	14822.08
837.607	14716.55
837.932	14663.44
838.258	14729.66
838.583	14604.46
838.908	14563.33
839.233	14618.25
839.558	14494.86
839.883	14542.09
840.208	14416.89
840.533	14517.68
840.858	14437.46
841.182	14441.75
841.507	14323.56
841.832	14320.63
842.156	14360.4
842.481	14291.93
842.805	14312.72
843.13	14272.04
843.454	14260.06
843.778	14198.6
844.103	14186.62
844.427	14102.33
844.751	14129.44
845.075	14125.15
845.399	14038.15
845.723	13945.27
846.047	13976.68
846.371	13886.74
846.695	13940.07
847.019	13699.4
847.343	13726.29
847.666	13710.92
847.99	13658.04
848.313	13587.31
848.637	13544.15
848.96	13478.61
849.284	13516.35
849.607	13376.7
849.931	13324.04
850.254	13304.61
850.577	13135.57
850.9	13128.79
851.223	13109.13
851.546	12966.31
851.869	12924.73
852.192	13064.39
852.515	12866.88
852.838	12874.34
853.161	12748.69
853.483	12786.43
853.806	12713.44
854.129	12695.81
854.451	12639.54
854.774	12564.06
855.096	12526.32
855.419	12412.88
855.741	12418.98
856.063	12447.46
856.385	12392.32
856.708	12412.88
857.03	12278.87
857.352	12251.08
857.674	12243.39
857.996	12164.98
858.318	12175.6
858.64	12097.86
858.961	12129.95
859.283	12048.37
859.605	11921.82
859.926	12030.52
860.248	11971.31
860.57	11927.69
860.891	11962.95
861.212	11839.56
861.534	11817.42
861.855	11786
862.176	11779.9
862.498	11760.24
862.819	11796.62
863.14	11726.8
863.461	11730.86
863.782	11649.06
864.103	11658.78
864.424	11613.35
864.745	11695.84
865.065	11641.6
865.386	11539.46
865.707	11534.48
866.027	11600.25
866.348	11474.6
866.668	11482.73
866.989	11479.35
867.309	11375.62
867.63	11455.84
867.95	11386.92
868.27	11348.95
868.59	11358.22
868.91	11372
869.23	11298.56
869.55	11234.61
869.87	11355.73
870.19	11207.49
870.51	11333.81
870.83	11255.85
871.15	11173.59
871.469	11228.05
871.789	11223.76
872.109	11217.21
872.428	11142.86
872.748	11125
873.067	11053.82
873.386	11127.49
873.706	11120.26
874.025	11034.84
874.344	11038.68
874.663	11096.76
874.982	10973.82
875.301	10955.97
875.62	11007.04
875.939	10942.41
876.258	10931.79
876.577	10940.38
876.896	10883.2
877.214	10874.84
877.533	10916.87
877.852	10846.59
878.17	10830.32
878.489	10881.39
878.807	10853.37
879.125	10807.95
879.444	10771.34
879.762	10764.56
880.08	10793.04
880.398	10673.04
880.716	10685.02
881.034	10647.73
881.352	10634.85
881.67	10635.98
881.988	10563.66
882.306	10547.39
882.624	10565.7
882.941	10523.21
883.259	10467.17
883.577	10479.37
883.894	10438.47
884.212	10475.53
884.529	10400.96
884.846	10396.89
885.164	10393.5
885.481	10378.13
885.798	10358.92
886.115	10211.36
886.432	10249.77
886.75	10221.75
887.067	10218.81
887.383	10234.86
887.7	10237.8
888.017	10168.87
888.334	10144.92
888.651	10111.92
888.967	10143.33
889.284	9988.08
889.6	10011.14
889.917	9977.69
890.233	9954.64
890.55	9851.37
890.866	9978.59
891.182	9815.89
891.498	9813.17
891.815	9747.41
892.131	9789.22
892.447	9744.48
892.763	9696.79
893.079	9734.31
893.395	9650.69
893.71	9615.21
894.026	9576.8
894.342	9557.14
894.657	9494.09
894.973	9592.16
895.289	9450.02
895.604	9497.25
895.92	9367.99
896.235	9321.21
896.55	9359.63
896.865	9304.26
897.181	9274.21
897.496	9275.79
897.811	9242.57
898.126	9145.85
898.441	9154.66
898.756	9126.19
899.071	9064.95
899.386	9047.77
899.7	9016.58
900.015	8932.75
900.33	8971.16
900.644	8879.87
900.959	8880.77
901.273	8863.82
901.588	8823.14
901.902	8793.31
902.216	8746.76
902.531	8660.44
902.845	8743.15
903.159	8696.14
903.473	8585.18
903.787	8573.21
904.101	8550.16
904.415	8542.25
904.729	8497.05
905.042	8472.42
905.356	8406.88
905.67	8384.96
905.984	8437.62
906.297	8411.63
906.611	8333.89
906.924	8319.88
907.237	8237.17
907.551	8167.12
907.864	8220.22
908.177	8165.31
908.491	8149.04
908.804	8087.57
909.117	8029.04
909.43	7988.36
909.743	7984.75
910.056	8019.1
910.368	7895.03
910.681	7836.5
910.994	7860.91
911.307	7795.37
911.619	7769.39
911.932	7769.61
912.244	7693.46
912.557	7702.27
912.869	7649.84
913.181	7659.56
913.494	7648.49
913.806	7542.95
914.118	7545.44
914.43	7488.94
914.742	7493.24
915.054	7429.73
915.366	7444.2
915.678	7422.28
915.99	7319.23
916.302	7255.95
916.613	7228.38
916.925	7207.82
917.236	7196.29
917.548	7171.66
917.859	7201.94
918.171	7129.4
918.482	7086.01
918.794	7072.68
919.105	7057.99
919.416	6976.64
919.727	6990.88
920.038	6951.1
920.349	6932.12
920.66	6926.02
920.971	6901.61
921.282	6901.84
921.593	6806.02
921.903	6794.27
922.214	6764.89
922.525	6751.79
922.835	6683.76
923.146	6698.23
923.456	6646.93
923.767	6575.75
924.077	6588.17
924.387	6531.9
924.697	6542.07
925.008	6506.82
925.318	6484.45
925.628	6490.1
925.938	6456.65
926.248	6424.56
926.558	6405.13
926.867	6375.52
927.177	6338.92
927.487	6330.78
927.796	6253.04
928.106	6290.33
928.416	6271.57
928.725	6254.85
929.034	6170.11
929.344	6120.84
929.653	6159.03
929.962	6080.84
930.271	6020.96
930.581	6088.3
930.89	6050.11
931.199	5990
931.508	6023.44
931.817	5978.47
932.125	5962.65
932.434	5940.96
932.743	5886.72
933.051	5874.75
933.36	5882.2
933.669	5811.02
933.977	5762.66
934.286	5820.06
934.594	5733.96
934.902	5688.54
935.21	5711.36
935.519	5678.82
935.827	5663.45
936.135	5565.6
936.443	5577.13
936.751	5571.93
937.059	5572.16
937.367	5530.35
937.674	5548.2
937.982	5457.13
938.29	5415.55
938.597	5484.7
938.905	5362.22
939.213	5388.88
939.52	5369.68
939.827	5382.1
940.135	5272.05
940.442	5281.32
940.749	5302.78
941.056	5262.79
941.363	5236.57
941.67	5184.82
941.977	5200.41
942.284	5124.71
942.591	5142.56
942.898	5162.45
943.205	5077.71
943.511	5098.72
943.818	5062.11
944.125	5047.65
944.431	5042.68
944.738	5018.72
945.044	4975.11
945.35	4950.93
945.657	4933.08
945.963	4910.03
946.269	4905.28
946.575	4943.92
946.881	4825.73
947.187	4798.62
947.493	4787.32
947.799	4776.92
948.105	4759.97
948.41	4740.09
948.716	4765.4
949.022	4695.12
949.327	4709.58
949.633	4669.13
949.938	4636.59
950.244	4608.11
950.549	4580.54
950.854	4548.68
951.16	4577.38
951.465	4562.92
951.77	4523.82
952.075	4501.45
952.38	4498.51
952.685	4516.36
952.99	4465.29
953.294	4455.8
953.599	4364.73
953.904	4366.76
954.209	4389.59
954.513	4393.43
954.818	4329.93
955.122	4356.14
955.426	4342.58
955.731	4282.92
956.035	4268.46
956.339	4240.21
956.643	4227.33
956.948	4190.27
957.252	4170.61
957.556	4184.85
957.86	4141.23
958.163	4136.71
958.467	4105.08
958.771	4126.32
959.075	4065.53
959.378	4071.86
959.682	4054.46
959.985	4024.4
960.289	3992.31
960.592	4000.22
960.896	3954.8
961.199	3963.38
961.502	3924.52
961.805	3901.69
962.108	3905.53
962.411	3875.03
962.714	3865.53
963.017	3855.82
963.32	3842.94
963.623	3842.48
963.926	3795.93
964.228	3757.06
964.531	3768.59
964.833	3707.8
965.136	3739.21
965.438	3701.47
965.741	3717.06
966.043	3695.82
966.345	3666.22
966.648	3658.99
966.95	3659.89
967.252	3640
967.554	3601.13
967.856	3612.89
968.158	3581.02
968.46	3579.67
968.761	3567.24
969.063	3517.29
969.365	3515.71
969.666	3530.18
969.968	3494.47
970.269	3453.34
970.571	3463.96
970.872	3479.56
971.174	3419.22
971.475	3420.35
971.776	3402.95
972.077	3386.22
972.378	3395.72
972.679	3335.38
972.98	3362.95
973.281	3364.98
973.582	3315.72
973.883	3291.09
974.183	3270.3
974.484	3282.95
974.785	3236.62
975.085	3273.69
975.386	3260.8
975.686	3227.81
975.986	3237.53
976.287	3179.45
976.587	3143.97
976.887	3132.45
977.187	3156.17
977.487	3147.36
977.787	3130.86
978.087	3121.37
978.387	3086.12
978.687	3064.2
978.987	3064.88
979.286	3096.97
979.586	3090.64
979.885	3008.61
980.185	3031.88
980.484	3005.9
980.784	2996.63
981.083	2959.12
981.382	2972.22
981.682	2923.86
981.981	2940.81
982.28	2893.58
982.579	2911.89
982.878	2882.06
983.177	2859.23
983.475	2891.77
983.774	2845.22
984.073	2785.11
984.372	2796.41
984.67	2828.27
984.969	2828.5
985.267	2775.62
985.566	2765.9
985.864	2748.28
986.162	2747.15
986.461	2712.8
986.759	2684.55
987.057	2669.86
987.355	2667.15
987.653	2682.74
987.951	2692.91
988.249	2637.09
988.547	2659.46
988.844	2642.52
989.142	2641.84
989.44	2597.32
989.737	2577.43
990.035	2562.74
990.332	2559.58
990.63	2543.53
990.927	2525.91
991.224	2531.11
991.521	2554.38
991.819	2546.7
992.116	2489.3
992.413	2461.5
992.71	2490.65
993.006	2471.45
993.303	2451.33
993.6	2438.23
993.897	2440.03
994.193	2438.68
994.49	2398.91
994.787	2387.83
995.083	2391.9
995.379	2399.58
995.676	2320.49
995.972	2344.9
996.268	2388.96
996.565	2339.25
996.861	2338.12
997.157	2328.85
997.453	2302.41
997.749	2268.29
998.044	2263.32
998.34	2262.41
998.636	2268.51
998.932	2224.67
999.227	2235.29
999.523	2206.59
999.818	2209.31
1000.114	2183.32
1000.409	2202.53
1000.704	2184.22
1001	2143.55
1001.295	2141.51
1001.59	2137.44
1001.885	2151.91
1002.18	2101.96
1002.475	2082.53
1002.77	2085.02
1003.065	2086.37
1003.359	2065.36
1003.654	2044.56
1003.949	2077.78
1004.243	2038.92
1004.538	2041.85
1004.832	1987.84
1005.127	1978.35
1005.421	1977.9
1005.715	1957.34
1006.009	1963.21
1006.304	1980.84
1006.598	1937.9
1006.892	1907.62
1007.186	1907.39
1007.48	1912.59
1007.773	1886.83
1008.067	1889.77
1008.361	1843.67
1008.655	1854.97
1008.948	1866.26
1009.242	1828.53
1009.535	1829.66
1009.829	1811.35
1010.122	1826.94
1010.415	1825.81
1010.708	1807.51
1011.001	1767.06
1011.295	1750.79
1011.588	1747.62
1011.881	1758.7
1012.173	1752.37
1012.466	1715.76
1012.759	1753.27
1013.052	1730.45
1013.344	1706.49
1013.637	1677.79
1013.93	1717.79
1014.222	1673.5
1014.514	1648.19
1014.807	1648.87
1015.099	1652.48
1015.391	1635.08
1015.683	1625.82
1015.976	1576.78
1016.268	1586.05
1016.56	1607.74
1016.851	1603.22
1017.143	1586.5
1017.435	1552.6
1017.727	1547.4
1018.018	1534.07
1018.31	1536.33
1018.602	1546.27
1018.893	1513.73
1019.185	1486.84
1019.476	1496.1
1019.767	1472.15
1020.058	1480.96
1020.35	1474.18
1020.641	1441.19
1020.932	1464.92
1021.223	1426.95
1021.514	1446.84
1021.804	1425.37
1022.095	1402.32
1022.386	1396.67
1022.677	1392.6
1022.967	1368.42
1023.258	1396.22
1023.548	1374.3
1023.839	1373.85
1024.129	1355.09
1024.419	1344.02
1024.709	1336.79
1025	1330.69
1025.29	1302.89
1025.58	1305.83
1025.87	1274.87
1026.16	1250.91
1026.449	1307.86
1026.739	1255.21
1027.029	1272.38
1027.319	1241.65
1027.608	1234.87
1027.898	1224.02
1028.187	1223.12
1028.477	1222.21
1028.766	1239.16
1029.055	1201.42
1029.344	1212.5
1029.634	1206.17
1029.923	1163.91
1030.212	1152.38
1030.501	1156.45
1030.79	1154.19
1031.078	1128.88
1031.367	1137.02
1031.656	1131.14
1031.945	1145.38
1032.233	1130.46
1032.522	1128.88
1032.81	1112.39
1033.099	1087.98
1033.387	1111.93
1033.675	1112.39
1033.963	1075.55
1034.251	1100.41
1034.54	1059.73
1034.828	1057.92
1035.116	1051.37
1035.403	1080.07
1035.691	1049.56
1035.979	1013.63
1036.267	1017.7
1036.554	1021.31
1036.842	1030.81
1037.129	1015.67
1037.417	995.1
1037.704	977.02
1037.992	986.06
1038.279	970.47
1038.566	970.92
1038.853	970.92
1039.14	970.92
