Data from hue_270_FLMS001491_00066.txt Node
Date: Tue Feb 07 15:57:33 GMT 2017
User: dcchb
Spectrometer: FLMS00149
Trigger mode: 0
Integration Time (sec): 2.000000E-2
Scans to average: 10
Electric dark correction enabled: true
Nonlinearity correction enabled: false
Boxcar width: 0
XAxis mode: Wavelengths
Number of Pixels in Spectrum: 2048
>>>>>Begin Spectral Data<<<<<
341.393	-7.15
341.776	-7.15
342.16	-7.15
342.543	-40.82
342.927	-74.49
343.31	-71.1
343.693	-69.74
344.077	-56.64
344.46	-37.65
344.843	-54.38
345.226	-45.34
345.61	-27.49
345.993	-26.36
346.376	-7.15
346.759	15.9
347.142	23.36
347.525	41.21
347.908	62.23
348.291	71.5
348.674	76.69
349.057	104.94
349.44	117.6
349.823	148.33
350.206	153.08
350.588	176.13
350.971	207.08
351.354	212.51
351.737	229.46
352.119	249.8
352.502	256.35
352.884	260.19
353.267	250.7
353.65	273.3
354.032	297.48
354.414	291.38
354.797	318.72
355.179	329.79
355.562	312.62
355.944	320.75
356.326	332.73
356.709	323.24
357.091	324.6
357.473	328.21
357.855	337.03
358.238	327.31
358.62	352.62
359.002	344.03
359.384	335.67
359.766	327.31
360.148	337.93
360.53	330.92
360.912	318.95
361.294	325.27
361.676	313.97
362.057	303.81
362.439	338.61
362.821	314.43
363.203	314.65
363.584	344.48
363.966	331.6
364.348	308.78
364.729	316.01
365.111	318.72
365.493	304.71
365.874	302.68
366.256	299.74
366.637	326.63
367.019	311.71
367.4	311.94
367.781	319.17
368.163	305.39
368.544	296.57
368.925	329.12
369.306	305.16
369.688	309
370.069	292.05
370.45	317.36
370.831	304.26
371.212	307.65
371.593	320.75
371.974	294.54
372.355	321.66
372.736	288.66
373.117	322.56
373.498	286.18
373.879	318.04
374.26	329.57
374.641	304.94
375.021	316.91
375.402	307.2
375.783	323.01
376.163	321.43
376.544	321.66
376.925	321.21
377.305	328.89
377.686	325.95
378.066	313.3
378.447	334.77
378.827	350.13
379.208	329.57
379.588	338.61
379.968	316.91
380.349	327.76
380.729	320.3
381.109	323.47
381.489	313.52
381.87	325.95
382.25	327.99
382.63	331.38
383.01	329.57
383.39	337.7
383.77	342.22
384.15	330.7
384.53	349.68
384.91	344.71
385.29	338.83
385.67	328.21
386.049	352.62
386.429	351.71
386.809	346.06
387.189	366.63
387.568	362.34
387.948	349
388.328	343.58
388.707	340.64
389.087	366.63
389.466	367.98
389.846	367.08
390.225	355.78
390.605	357.82
390.984	368.89
391.363	367.31
391.743	365.27
392.122	360.53
392.501	341.77
392.881	381.54
393.26	376.57
393.639	380.87
394.018	382
394.397	382.45
394.776	389.23
395.155	392.39
395.534	400.75
395.913	391.49
396.292	388.78
396.671	391.71
397.05	417.93
397.429	386.29
397.808	396.68
398.186	395.55
398.565	393.97
398.944	410.02
399.323	421.09
399.701	394.65
400.08	398.27
400.458	438.49
400.837	437.14
401.215	419.28
401.594	405.05
401.972	415.89
402.351	412.5
402.729	429.68
403.107	429.9
403.486	451.82
403.864	431.71
404.242	439.17
404.62	439.17
404.999	459.96
405.377	441.2
405.755	457.47
406.133	435.1
406.511	472.39
406.889	468.1
407.267	461.54
407.645	481.88
408.023	477.81
408.401	480.75
408.779	490.47
409.156	492.5
409.534	492.28
409.912	506.96
410.29	525.04
410.667	517.81
411.045	516.68
411.422	510.13
411.8	533.63
412.178	546.96
412.555	542.9
412.933	557.58
413.31	570.01
413.687	571.37
414.065	574.08
414.442	568.88
414.819	590.13
415.197	597.13
415.574	555.55
415.951	605.94
416.328	617.47
416.705	616.57
417.082	610.46
417.46	631.48
417.837	612.05
418.214	616.57
418.591	648.88
418.967	635.55
419.344	626.96
419.721	666.51
420.098	669.67
420.475	637.13
420.852	691.59
421.228	665.15
421.605	690.91
421.982	738.82
422.358	738.6
422.735	729.11
423.111	728.2
423.488	755.09
423.864	765.26
424.241	750.12
424.617	761.42
424.994	779.5
425.37	786.28
425.746	798.48
426.123	807.07
426.499	818.14
426.875	839.38
427.251	845.94
427.627	851.81
428.003	875.32
428.379	900.4
428.756	863.79
429.132	901.3
429.507	909.21
429.883	914.19
430.259	925.26
430.635	910.8
431.011	911.25
431.387	944.69
431.763	971.81
432.138	989.66
432.514	964.58
432.89	987.86
433.265	1040.06
433.641	1049.32
434.016	1065.14
434.392	1083.67
434.767	1069.44
435.143	1090.23
435.518	1076.89
435.894	1123.22
436.269	1141.3
436.644	1159.38
437.02	1162.54
437.395	1154.4
437.77	1213.61
438.145	1217.23
438.52	1242.76
438.895	1245.7
439.271	1247.51
439.646	1297.45
440.021	1307.4
440.395	1314.85
440.77	1287.96
441.145	1315.3
441.52	1340.61
441.895	1335.64
442.27	1369.31
442.645	1382.65
443.019	1418.8
443.394	1398.92
443.769	1398.24
444.143	1381.07
444.518	1399.6
444.892	1432.82
445.267	1438.92
445.641	1466.49
446.016	1448.41
446.39	1473.72
446.764	1493.38
447.139	1504
447.513	1484.57
447.887	1496.32
448.262	1539.48
448.636	1517.11
449.01	1557.33
449.384	1584.68
449.758	1569.54
450.132	1569.76
450.506	1577.44
450.88	1617.44
451.254	1596.65
451.628	1606.82
452.002	1628.97
452.376	1639.36
452.75	1682.75
453.123	1685.01
453.497	1680.72
453.871	1693.37
454.244	1726.59
454.618	1724.11
454.992	1728.85
455.365	1748.51
455.739	1772.47
456.112	1792.13
456.486	1812.92
456.859	1830.77
457.232	1855.63
457.606	1832.13
457.979	1871.9
458.352	1869.41
458.725	1946.47
459.099	1884.1
459.472	1958.45
459.845	1954.16
460.218	1966.59
460.591	1990.54
460.964	1985.8
461.337	2003.42
461.71	2063.31
462.083	2077.32
462.456	2117.77
462.829	2108.73
463.201	2138.79
463.574	2149.63
463.947	2144.44
464.32	2185.11
464.692	2223.3
465.065	2225.34
465.438	2236.41
465.81	2283.41
466.183	2278.22
466.555	2337.65
466.928	2310.76
467.3	2317.09
467.672	2375.84
468.045	2404.77
468.417	2446.57
468.789	2404.32
469.161	2466.69
469.534	2515.27
469.906	2549.4
470.278	2540.58
470.65	2586.01
471.022	2629.17
471.394	2657.87
471.766	2645.44
472.138	2683.63
472.51	2752.55
472.882	2780.35
473.253	2774.93
473.625	2810.86
473.997	2890.63
474.369	2865.32
474.74	2896.05
475.112	2946
475.484	2992.77
475.855	3013.79
476.227	3096.73
476.598	3123.17
476.97	3127.46
477.341	3211.07
477.713	3237.29
478.084	3224.18
478.455	3283.16
478.827	3342.37
479.198	3404.74
479.569	3396.61
479.94	3501.46
480.311	3463.04
480.682	3555.25
481.053	3633.89
481.424	3633.21
481.795	3673.89
482.166	3712.76
482.537	3762.02
482.908	3826.42
483.279	3860.32
483.65	3902.13
484.021	3964.73
484.391	3988.23
484.762	3997.72
485.133	4066.42
485.503	4098.73
485.874	4177.6
486.244	4240.65
486.615	4275.23
486.985	4347.09
487.356	4333.53
487.726	4348.67
488.097	4436.8
488.467	4458.5
488.837	4553.86
489.207	4561.09
489.578	4609.23
489.948	4656.69
490.318	4713.18
490.688	4734.65
491.058	4740.75
491.428	4887.19
491.798	4870.24
492.168	4969.67
492.538	4946.17
492.908	5007.86
493.278	5038.37
493.648	5053.06
494.017	5087.18
494.387	5099.61
494.757	5204.92
495.126	5192.04
495.496	5172.38
495.866	5231.59
496.235	5253.73
496.605	5281.75
496.974	5318.14
497.344	5369.66
497.713	5341.41
498.082	5426.38
498.452	5401.98
498.821	5440.85
499.19	5468.64
499.559	5516.55
499.928	5557.23
500.298	5572.37
500.667	5600.84
501.036	5612.59
501.405	5622.76
501.774	5625.7
502.143	5651.91
502.512	5748.18
502.88	5695.98
503.249	5702.31
503.618	5734.85
503.987	5740.27
504.356	5731.91
504.724	5787.28
505.093	5798.8
505.462	5850.33
505.83	5836.99
506.199	5894.62
506.567	5917.67
506.936	5885.81
507.304	6012.58
507.672	5974.62
508.041	6030.21
508.409	6034.28
508.777	6051
509.145	6106.14
509.514	6085.35
509.882	6087.83
510.25	6087.83
510.618	6057.33
510.986	6087.61
511.354	6191.11
511.722	6164.44
512.09	6222.52
512.458	6194.72
512.826	6259.13
513.193	6235.4
513.561	6317.43
513.929	6327.38
514.297	6319.24
514.664	6311.11
515.032	6345.45
515.4	6347.71
515.767	6367.6
516.135	6381.84
516.502	6328.73
516.869	6447.6
517.237	6481.04
517.604	6402.85
517.972	6532.79
518.339	6483.98
518.706	6443.53
519.073	6516.98
519.44	6460.03
519.808	6511.78
520.175	6541.38
520.542	6597.2
520.909	6582.06
521.276	6570.76
521.643	6590.19
522.009	6638.33
522.376	6628.16
522.743	6616.63
523.11	6708.38
523.477	6709.29
523.843	6735.95
524.21	6753.81
524.577	6811.88
524.943	6811.88
525.31	6813.46
525.676	6899.11
526.043	6930.98
526.409	6921.48
526.776	6966
527.142	6970.97
527.508	6972.33
527.874	7056.4
528.241	7029.28
528.607	7048.49
528.973	7053.01
529.339	7040.58
529.705	7053.46
530.071	7096.85
530.437	7059.11
530.803	7221.14
531.169	7155.83
531.535	7194.92
531.901	7149.95
532.267	7212.55
532.632	7201.93
532.998	7278.76
533.364	7220.91
533.73	7225.88
534.095	7350.4
534.461	7260.23
534.826	7390.4
535.192	7260.01
535.557	7415.03
535.923	7336.62
536.288	7404.86
536.653	7364.86
537.019	7344.07
537.384	7401.7
537.749	7339.78
538.114	7374.58
538.479	7390.85
538.845	7414.81
539.21	7418.19
539.575	7438.53
539.94	7399.21
540.305	7417.29
540.67	7475.59
541.034	7462.71
541.399	7488.25
541.764	7500.23
542.129	7490.96
542.494	7534.58
542.858	7477.63
543.223	7570.28
543.587	7582.71
543.952	7542.71
544.316	7579.09
544.681	7592.88
545.045	7650.51
545.41	7544.52
545.774	7575.03
546.138	7629.26
546.503	7595.14
546.867	7592.43
547.231	7575.03
547.595	7638.3
547.959	7670.84
548.324	7626.32
548.688	7582.94
549.052	7652.31
549.416	7691.86
549.779	7664.06
550.143	7627
550.507	7736.38
550.871	7694.12
551.235	7652.31
551.599	7727.79
551.962	7714.01
552.326	7775.25
552.689	7803.27
553.053	7784.29
553.417	7690.28
553.78	7822.7
554.143	7776.38
554.507	7859.54
554.87	7832.2
555.234	7854.12
555.597	7824.51
555.96	7869.71
556.323	7930.72
556.686	7848.01
557.05	7946.32
557.413	7944.51
557.776	7969.59
558.139	7935.92
558.502	7965.07
558.865	7970.04
559.228	7957.16
559.59	8049.82
559.953	8095.92
560.316	8179.98
560.679	8115.8
561.041	8173.88
561.404	8226.54
561.767	8279.42
562.129	8204.61
562.492	8297.27
562.854	8257.27
563.217	8311.05
563.579	8278.29
563.941	8378.85
564.304	8365.97
564.666	8429.92
565.028	8460.43
565.39	8459.07
565.753	8462.46
566.115	8539.75
566.477	8486.64
566.839	8520.76
567.201	8537.94
567.563	8616.36
567.925	8662.91
568.287	8646.86
568.648	8747.65
569.01	8763.24
569.372	8819.51
569.734	8786.52
570.095	8873.3
570.457	8863.13
570.819	8850.7
571.18	8922.79
571.542	8923.92
571.903	8934.31
572.265	8932.73
572.626	8994.65
572.987	9024.48
573.349	9093.4
573.71	9015.21
574.071	9125.27
574.432	9105.61
574.794	9231.71
575.155	9185.15
575.516	9162.56
575.877	9223.8
576.238	9230.35
576.599	9285.26
576.96	9270.58
577.32	9354.19
577.681	9426.05
578.042	9424.02
578.403	9447.07
578.763	9440.06
579.124	9481.87
579.485	9452.04
579.845	9554.41
580.206	9570.68
580.566	9584.92
580.927	9623.33
581.287	9730.45
581.648	9640.51
582.008	9729.77
582.368	9699.94
582.728	9772.71
583.089	9762.54
583.449	9807.96
583.809	9797.79
584.169	9806.61
584.529	9861.52
584.889	9908.52
585.249	9921.41
585.609	9922.99
585.969	9992.14
586.329	10023.78
586.688	9967.05
587.048	10030.33
587.408	10073.27
587.768	10099.93
588.127	10075.75
588.487	10140.16
588.846	10221.74
589.206	10165.24
589.565	10253.15
589.925	10300.38
590.284	10261.51
590.643	10308.97
591.003	10362.3
591.362	10349.87
591.721	10424.22
592.08	10341.96
592.44	10427.83
592.799	10435.29
593.158	10465.12
593.517	10440.26
593.876	10508.06
594.235	10483.42
594.593	10541.73
594.952	10579.24
595.311	10584.21
595.67	10509.41
596.029	10687.26
596.387	10657.66
596.746	10680.03
597.104	10717.32
597.463	10655.4
597.822	10750.76
598.18	10749.86
598.538	10695.85
598.897	10727.26
599.255	10701.72
599.613	10894.04
599.972	10870.08
600.33	10788.95
600.688	10791.21
601.046	10912.79
601.404	10904.66
601.762	10791.89
602.12	10913.7
602.478	10984.65
602.836	10995.5
603.194	10905.79
603.552	10973.81
603.91	10900.36
604.268	10974.26
604.625	10882.06
604.983	10998.21
605.341	11019.23
605.698	11020.81
606.056	11024.65
606.413	10996.86
606.771	11013.35
607.128	11001.83
607.485	11028.5
607.843	10971.77
608.2	11101.94
608.557	11086.8
608.914	11129.74
609.272	11124.09
609.629	11157.31
609.986	11187.81
610.343	11083.86
610.7	11278.43
611.057	11176.74
611.414	11240.24
611.771	11230.98
612.127	11371.09
612.484	11206.8
612.841	11238.21
613.198	11207.93
613.554	11282.27
613.911	11372.89
614.267	11388.26
614.624	11327.7
614.98	11344.42
615.337	11338.77
615.693	11395.72
616.05	11364.76
616.406	11440.91
616.762	11379.22
617.118	11322.05
617.475	11397.98
617.831	11444.76
618.187	11440.91
618.543	11420.12
618.899	11509.84
619.255	11451.76
619.611	11458.54
619.967	11466.68
620.323	11542.61
620.678	11493.79
621.034	11458.99
621.39	11397.98
621.746	11425.55
622.101	11578.76
622.457	11506.67
622.812	11500.57
623.168	11533.34
623.523	11546.9
623.879	11555.71
624.234	11519.1
624.589	11482.72
624.945	11515.26
625.3	11576.05
625.655	11496.51
626.01	11497.41
626.365	11493.79
626.72	11491.53
627.075	11537.63
627.43	11558.88
627.785	11495.38
628.14	11550.29
628.495	11528.6
628.85	11526.34
629.205	11483.85
629.559	11575.15
629.914	11488.37
630.269	11393.68
630.623	11426.45
630.978	11438.88
631.332	11532.21
631.687	11438.2
632.041	11444.76
632.396	11471.65
632.75	11356.62
633.104	11421.48
633.459	11369.28
633.813	11319.56
634.167	11346.91
634.521	11282.73
634.875	11322.05
635.229	11258.32
635.583	11292.44
635.937	11321.14
636.291	11232.56
636.645	11253.57
636.999	11207.25
637.352	11253.35
637.706	11181.03
638.06	11183.07
638.413	11207.7
638.767	11180.81
639.121	11210.19
639.474	11158.89
639.828	11119.11
640.181	11235.72
640.534	11222.39
640.888	11105.78
641.241	11141.49
641.594	11049.06
641.947	11085.67
642.301	11102.62
642.654	11127.48
643.007	11147.59
643.36	11043.41
643.713	11046.8
644.066	10980.36
644.419	11036.86
644.771	10893.58
645.124	10870.08
645.477	10812.91
645.83	10803.87
646.182	10612.91
646.535	10657.43
646.888	10727.71
647.24	10631.9
647.593	10693.59
647.945	10685
648.298	10627.15
648.65	10636.19
649.002	10591.9
649.355	10632.57
649.707	10651.1
650.059	10660.82
650.411	10812
650.763	10860.14
651.115	10943.3
651.467	10864.88
651.819	10859.69
652.171	10893.81
652.523	10837.99
652.875	10921.15
653.227	10780.37
653.578	10887.93
653.93	10767.03
654.282	10835.28
654.633	10764.1
654.985	10783.76
655.337	10815.85
655.688	10775.39
656.039	10845.9
656.391	10735.85
656.742	10815.85
657.094	10790.54
657.445	10889.52
657.796	10830.08
658.147	10833.02
658.498	10779.46
658.849	10875.51
659.2	10814.04
659.551	10805
659.902	10854.94
660.253	10827.37
660.604	10844.77
660.955	10787.82
661.306	10884.32
661.656	10750.31
662.007	10819.69
662.358	10881.38
662.708	10792.8
663.059	10866.92
663.409	10826.24
663.76	10842.74
664.11	10802.74
664.461	10832.79
664.811	10838.67
665.161	10788.73
665.511	10777.2
665.862	10798.22
666.212	10824.21
666.562	10797.99
666.912	10859.23
667.262	10865.34
667.612	10761.84
667.962	10849.07
668.312	10851.1
668.662	10932.23
669.011	10818.56
669.361	10780.59
669.711	10805.68
670.06	10819.69
670.41	10795.96
670.76	10783.98
671.109	10830.76
671.459	10794.38
671.808	10760.71
672.157	10857.2
672.507	10748.05
672.856	10681.16
673.205	10750.76
673.554	10689.07
673.904	10729.75
674.253	10689.3
674.602	10682.52
674.951	10555.51
675.3	10506.7
675.649	10688.62
675.998	10649.75
676.346	10701.05
676.695	10736.53
677.044	10624.66
677.393	10586.7
677.741	10652.01
678.09	10649.52
678.438	10608.39
678.787	10567.94
679.135	10591.9
679.484	10467.61
679.832	10521.84
680.181	10527.72
680.529	10535.17
680.877	10494.72
681.225	10447.72
681.573	10529.98
681.922	10439.81
682.27	10332.47
682.618	10416.08
682.966	10312.36
683.314	10413.37
683.661	10337.44
684.009	10287.5
684.357	10312.81
684.705	10258.35
685.053	10312.36
685.4	10277.1
685.748	10132.02
686.095	10188.52
686.443	10216.99
686.79	10116.88
687.138	10170.21
687.485	10172.25
687.832	10093.15
688.18	10118.69
688.527	10054.74
688.874	10040.27
689.221	9993.49
689.568	9973.16
689.915	10014.06
690.262	9885.7
690.609	9917.79
690.956	9870.79
691.303	9834.18
691.65	9788.98
691.997	9766.61
692.344	9670.56
692.69	9721.64
693.037	9759.6
693.383	9681.19
693.73	9732.03
694.077	9509.67
694.423	9526.16
694.769	9528.42
695.116	9558.03
695.462	9480.06
695.808	9470.8
696.155	9505.6
696.501	9366.84
696.847	9396.67
697.193	9285.72
697.539	9351.48
697.885	9242.33
698.231	9276.23
698.577	9259.28
698.923	9208.2
699.269	9182.44
699.614	9115.33
699.96	9091.6
700.306	9066.74
700.651	9094.53
700.997	9083.69
701.342	9035.55
701.688	8958.27
702.033	8925.27
702.379	8957.59
702.724	8869.23
703.069	8906.29
703.415	8805.28
703.76	8868.33
704.105	8730.7
704.45	8730.48
704.795	8707.65
705.14	8648.22
705.485	8693.64
705.83	8666.3
706.175	8656.81
706.52	8540.43
706.865	8562.57
707.209	8599.18
707.554	8512.63
707.899	8514.89
708.243	8459.75
708.588	8436.93
708.932	8421.78
709.277	8393.99
709.621	8400.77
709.966	8351.5
710.31	8351.73
710.654	8270.83
710.998	8316.93
711.342	8307.89
711.687	8239.42
712.031	8274.67
712.375	8140.44
712.719	8183.37
713.063	8228.57
713.407	8203.71
713.75	8142.47
714.094	8144.28
714.438	8090.27
714.782	8126.42
715.125	8070.38
715.469	8095.69
715.812	8055.92
716.156	8043.26
716.499	8048.91
716.843	8055.92
717.186	7967.56
717.53	8012.08
717.873	8012.98
718.216	7964.62
718.559	7970.04
718.902	7929.59
719.246	7905.41
719.589	7880.56
719.932	7831.74
720.275	7878.97
720.617	7861.35
720.96	7838.75
721.303	7841.23
721.646	7837.17
721.989	7805.76
722.331	7875.13
722.674	7868.8
723.016	7859.54
723.359	7838.75
723.701	7837.84
724.044	7794.68
724.386	7772.76
724.729	7758.98
725.071	7731.41
725.413	7813.89
725.755	7781.12
726.097	7700.45
726.439	7633.33
726.782	7740.22
727.124	7738.86
727.465	7710.62
727.807	7727.79
728.149	7747.68
728.491	7701.58
728.833	7703.84
729.175	7631.07
729.516	7674.23
729.858	7628.58
730.199	7709.49
730.541	7635.36
730.882	7633.78
731.224	7647.79
731.565	7597.17
731.906	7585.65
732.248	7642.82
732.589	7589.72
732.93	7579.77
733.271	7606.44
733.612	7567.34
733.953	7652.31
734.294	7668.58
734.635	7627.68
734.976	7629.94
735.317	7614.8
735.658	7620.68
735.999	7578.87
736.339	7575.7
736.68	7560.79
737.021	7589.49
737.361	7590.39
737.702	7664.52
738.042	7644.86
738.383	7636.95
738.723	7608.47
739.063	7627.91
739.404	7687.57
739.744	7655.7
740.084	7648.7
740.424	7685.53
740.764	7661.8
741.104	7657.74
741.444	7670.84
741.784	7669.04
742.124	7673.56
742.464	7731.86
742.804	7713.1
743.143	7751.75
743.483	7756.04
743.823	7715.14
744.162	7750.84
744.502	7758.98
744.841	7778.86
745.181	7817.73
745.52	7831.29
745.86	7880.33
746.199	7827
746.538	7951.97
746.877	7945.86
747.216	8026.54
747.556	8019.08
747.895	8056.37
748.234	8042.36
748.573	8094.11
748.911	8142.24
749.25	8197.16
749.589	8231.05
749.928	8259.98
750.267	8371.39
750.605	8432.18
750.944	8431.5
751.283	8518.73
751.621	8570.03
751.96	8649.8
752.298	8769.8
752.636	8851.6
752.975	8920.75
753.313	8969.79
753.651	9128.88
753.989	9132.73
754.327	9270.12
754.666	9315.09
755.004	9435.77
755.342	9555.99
755.679	9609.55
756.017	9696.78
756.355	9813.84
756.693	9913.5
757.031	10034.85
757.368	10212.25
757.706	10313.03
758.044	10452.92
758.381	10638.45
758.719	10663.53
759.056	10908.5
759.394	11029.17
759.731	11131.09
760.068	11206.8
760.405	11334.93
760.743	11557.75
761.08	11682.94
761.417	11807.01
761.754	11941.92
762.091	12145.08
762.428	12213.55
762.765	12348.23
763.102	12572.41
763.438	12719.3
763.775	12853.53
764.112	13008.56
764.449	13222.11
764.785	13305.95
765.122	13434.08
765.458	13561.99
765.795	13755.88
766.131	13912.04
766.467	13952.03
766.804	14138.92
767.14	14310.22
767.476	14413.04
767.812	14599.47
768.148	14747.95
768.485	14826.81
768.821	14912.69
769.157	15068.39
769.492	15119.69
769.828	15287.82
770.164	15251.89
770.5	15375.05
770.836	15593.12
771.171	15670.41
771.507	15814.13
771.842	15896.16
772.178	15905.88
772.513	16063.39
772.849	16191.07
773.184	16160.11
773.519	16303.38
773.855	16326.66
774.19	16489.14
774.525	16565.75
774.86	16623.15
775.195	16624.96
775.53	16708.8
775.865	16743.15
776.2	16761.45
776.535	16791.28
776.87	16823.82
777.205	16946.31
777.539	16933.2
777.874	17055.68
778.209	16951.05
778.543	17057.94
778.878	16978.62
779.212	17117.37
779.547	17120.76
779.881	17209.58
780.215	17171.61
780.55	17216.81
780.884	17241.44
781.218	17232.4
781.552	17417.71
781.886	17230.37
782.22	17273.98
782.554	17207.32
782.888	17351.49
783.222	17229.46
783.556	17218.39
783.889	17270.59
784.223	17083.93
784.557	17179.52
784.89	17276.24
785.224	17228.33
785.557	17156.7
785.891	17113.99
786.224	17193.3
786.558	17220.65
786.891	17099.52
787.224	17113.99
787.557	17015.46
787.891	17014.78
788.224	17071.73
788.557	17046.87
788.89	17078.51
789.223	17137.26
789.556	17014.1
789.888	17074.44
790.221	16959.86
790.554	16880.54
790.887	16976.81
791.219	16856.82
791.552	16825.18
791.884	16845.07
792.217	16803.71
792.549	16811.85
792.882	16707.44
793.214	16687.33
793.546	16786.08
793.879	16563.27
794.211	16568.91
794.543	16583.6
794.875	16602.36
795.207	16665.41
795.539	16538.86
795.871	16555.13
796.203	16377.73
796.535	16412.08
796.867	16341.8
797.198	16243.05
797.53	16434.45
797.862	16288.92
798.193	16182.03
798.525	16240.34
798.856	16193.11
799.188	16078.31
799.519	16054.35
799.85	15968.48
800.182	16116.72
800.513	16059.78
800.844	15900.91
801.175	15950.17
801.506	15968.25
801.837	15838.99
802.168	15827.47
802.499	15806.22
802.83	15692.55
803.161	15712.21
803.491	15680.12
803.822	15735.72
804.153	15596.74
804.483	15489.62
804.814	15395.39
805.145	15513.12
805.475	15442.62
805.805	15377.76
806.136	15421.37
806.466	15389.06
806.796	15366.46
807.126	15240.14
807.457	15280.81
807.787	15209.85
808.117	15190.19
808.447	15159.91
808.777	15154.04
809.107	15095.06
809.436	15070.42
809.766	15109.29
810.096	15043.53
810.426	15017.32
810.755	15036.3
811.085	15065.9
811.414	14961.5
811.744	14895.51
812.073	14773.71
812.403	14819.81
812.732	14761.5
813.061	14786.36
813.39	14693.26
813.719	14753.14
814.049	14770.09
814.378	14637.67
814.707	14568.74
815.036	14617.55
815.365	14553.37
815.693	14408.75
816.022	14484.68
816.351	14487.39
816.68	14345.7
817.008	14378.24
817.337	14332.59
817.665	14293.04
817.994	14299.82
818.322	14299.37
818.651	14218.92
818.979	14232.03
819.307	14258.69
819.636	14158.81
819.964	14131.24
820.292	14182.99
820.62	14185.7
820.948	14126.72
821.276	14200.16
821.604	14098.92
821.932	14192.48
822.259	14189.09
822.587	14157.9
822.915	14130.11
823.243	14108.87
823.57	14086.72
823.898	14112.26
824.225	13982.54
824.553	14073.39
824.88	14131.69
825.207	14082.88
825.535	14032.71
825.862	14129.66
826.189	14043.78
826.516	14156.77
826.843	14167.62
827.17	14229.99
827.497	14168.3
827.824	14175.98
828.151	14168.53
828.478	14099.38
828.805	14191.12
829.131	14180.05
829.458	14118.58
829.785	14133.5
830.111	14159.49
830.438	14118.58
830.764	14161.07
831.09	14115.87
831.417	14034.52
831.743	14149.32
832.069	14093.05
832.395	14115.19
832.722	14161.29
833.048	14124.91
833.374	14067.96
833.7	14033.61
834.026	13965.59
834.351	14061.41
834.677	13970.34
835.003	14005.59
835.329	14004.01
835.654	14008.3
835.98	13993.39
836.306	14004.69
836.631	13917.01
836.956	13916.1
837.282	13926.95
837.607	13921.3
837.932	13941.64
838.258	13860.06
838.583	13889.21
838.908	13810.12
839.233	13834.75
839.558	13827.97
839.883	13719.05
840.208	13696.9
840.533	13682.89
840.858	13747.97
841.182	13656.22
841.507	13680.63
841.832	13572.38
842.156	13547.75
842.481	13521.31
842.805	13525.83
843.13	13440.86
843.454	13507.53
843.778	13477.47
844.103	13401.09
844.427	13350.47
844.751	13399.51
845.075	13364.71
845.399	13263.69
845.723	13215.33
846.047	13229.79
846.371	13040.42
846.695	13177.59
847.019	13116.12
847.343	12977.14
847.666	12884.94
847.99	12832.06
848.313	12837.94
848.637	12720.88
848.96	12746.42
849.284	12741.67
849.607	12640.2
849.931	12545.52
850.254	12517.27
850.577	12413.77
850.9	12330.38
851.223	12387.78
851.546	12322.92
851.869	12239.31
852.192	12334.68
852.515	12185.3
852.838	12145.3
853.161	12157.05
853.483	12094.46
853.806	11974.46
854.129	12086.09
854.451	11970.62
854.774	11952.31
855.096	11880
855.419	11931.75
855.741	11850.39
856.063	11705.54
856.385	11763.17
856.708	11646.78
857.03	11658.54
857.352	11741.24
857.674	11630.74
857.996	11556.62
858.318	11475.04
858.64	11401.14
858.961	11418.54
859.283	11380.12
859.605	11367.02
859.926	11349.16
860.248	11355.94
860.57	11345.55
860.891	11319.79
861.212	11236.63
861.534	11225.33
861.855	11179.23
862.176	11230.75
862.498	11204.54
862.819	11147.36
863.14	11138.55
863.461	11080.7
863.782	11067.82
864.103	11054.03
864.424	10974.26
864.745	11031.66
865.065	10938.55
865.386	10951.44
865.707	10913.92
866.027	10883.41
866.348	10908.95
866.668	10957.08
866.989	10888.84
867.309	10760.93
867.63	10822.85
867.95	10804.55
868.27	10739.92
868.59	10746.24
868.91	10743.53
869.23	10753.02
869.55	10700.59
869.87	10777.2
870.19	10708.28
870.51	10660.82
870.83	10654.04
871.15	10613.82
871.469	10562.52
871.789	10646.81
872.109	10572.46
872.428	10560.71
872.748	10562.52
873.067	10550.09
873.386	10487.27
873.706	10510.09
874.025	10438.91
874.344	10419.7
874.663	10495.85
874.982	10415.63
875.301	10473.03
875.62	10376.76
875.939	10353.94
876.258	10364.33
876.577	10365.69
876.896	10313.03
877.214	10252.24
877.533	10332.69
877.852	10293.15
878.17	10273.03
878.489	10376.76
878.807	10215.18
879.125	10172.02
879.444	10216.54
879.762	10225.8
880.08	10209.08
880.398	10118.24
880.716	10135.64
881.034	10116.2
881.352	9988.07
881.67	10037.33
881.988	10074.4
882.306	9973.83
882.624	9979.94
882.941	9938.35
883.259	9932.93
883.577	9937
883.894	9919.37
884.212	9868.53
884.529	9868.07
884.846	9745.14
885.164	9760.96
885.481	9840.73
885.798	9761.18
886.115	9654.52
886.432	9692.94
886.75	9678.02
887.067	9666.05
887.383	9621.07
887.7	9592.6
888.017	9543.79
888.334	9556.67
888.651	9520.74
888.967	9504.47
889.284	9501.76
889.6	9461.76
889.917	9365.49
890.233	9348.54
890.55	9351.48
890.866	9332.04
891.182	9301.54
891.498	9247.3
891.815	9288.43
892.131	9196.91
892.447	9228.77
892.763	9163.69
893.079	9173.18
893.395	9136.34
893.71	9144.93
894.026	9072.39
894.342	9049.11
894.657	9007.98
894.973	8998.72
895.289	8970.7
895.604	8933.86
895.92	8928.44
896.235	8844.15
896.55	8824.26
896.865	8839.17
897.181	8744.04
897.496	8792.4
897.811	8706.52
898.126	8676.24
898.441	8699.07
898.756	8615.45
899.071	8533.19
899.386	8636.92
899.7	8540.65
900.015	8466.3
900.33	8408.45
900.644	8366.42
900.959	8404.61
901.273	8406.42
901.588	8400.54
901.902	8309.24
902.216	8343.82
902.531	8254.56
902.845	8229.47
903.159	8176.82
903.473	8144.05
903.787	8056.82
904.101	8051.4
904.415	8077.16
904.729	8111.51
905.042	7990.16
905.356	7984.06
905.67	7939.31
905.984	7925.75
906.297	7940.67
906.611	7840.33
906.924	7860.9
907.237	7823.61
907.551	7768.47
907.864	7731.41
908.177	7670.84
908.491	7650.51
908.804	7624.07
909.117	7566.89
909.43	7549.94
909.743	7539.32
910.056	7579.55
910.368	7455.71
910.681	7494.35
910.994	7428.14
911.307	7355.6
911.619	7311.76
911.932	7328.71
912.244	7256.62
912.557	7262.49
912.869	7235.6
913.181	7206.45
913.494	7147.24
913.806	7138.43
914.118	7096.17
914.43	7034.25
914.742	7079.67
915.054	7018.43
915.366	6965.55
915.678	6941.37
915.99	6912.22
916.302	6836.06
916.613	6878.55
916.925	6843.97
917.236	6876.29
917.548	6775.5
917.859	6796.52
918.171	6714.48
918.482	6711.09
918.794	6670.42
919.105	6702.06
919.416	6606.69
919.727	6613.47
920.038	6614.37
920.349	6514.94
920.66	6527.6
920.971	6585.45
921.282	6498.67
921.593	6408.73
921.903	6400.14
922.214	6394.72
922.525	6391.1
922.835	6353.14
923.146	6290.99
923.456	6281.73
923.767	6209.86
924.077	6250.99
924.387	6185.01
924.697	6241.5
925.008	6161.96
925.318	6178.45
925.628	6170.54
925.938	6128.74
926.248	6049.87
926.558	6030.89
926.867	5989.31
927.177	6011.9
927.487	5929.65
927.796	5966.26
928.106	5932.36
928.416	5888.52
928.725	5902.53
929.034	5823.43
929.344	5869.53
929.653	5796.77
929.962	5795.19
930.271	5797.67
930.581	5750.67
930.89	5692.14
931.199	5672.48
931.508	5656.21
931.817	5638.58
932.125	5625.7
932.434	5579.37
932.743	5494.63
933.051	5521.3
933.36	5495.76
933.669	5502.31
933.977	5486.72
934.286	5488.08
934.594	5438.36
934.902	5442.88
935.21	5361.98
935.519	5321.3
935.827	5376.44
936.135	5279.72
936.443	5317.23
936.751	5288.08
937.059	5236.33
937.367	5234.52
937.674	5196.56
937.982	5189.33
938.29	5184.81
938.597	5154.3
938.905	5072.95
939.213	5099.39
939.52	5065.26
939.827	5108.43
940.135	5047.41
940.442	5007.18
940.749	5067.52
941.056	5007.64
941.363	4916.57
941.67	4910.92
941.977	4896
942.284	4884.25
942.591	4904.59
942.898	4792.05
943.205	4835.89
943.511	4818.04
943.818	4778.49
944.125	4798.83
944.431	4766.06
944.738	4726.97
945.044	4693.52
945.35	4672.05
945.657	4661.21
945.963	4648.32
946.269	4634.31
946.575	4633.18
946.881	4580.98
947.187	4591.6
947.493	4528.78
947.799	4587.31
948.105	4560.42
948.41	4500.76
948.716	4455.33
949.022	4483.58
949.327	4472.06
949.633	4397.03
949.938	4378.05
950.244	4392.29
950.549	4352.74
950.854	4350.03
951.16	4312.97
951.465	4301.67
951.77	4288.11
952.075	4240.2
952.38	4279.75
952.685	4241.1
952.99	4211.5
953.294	4182.8
953.599	4162.01
953.904	4128.34
954.209	4131.73
954.513	4142.12
954.818	4065.74
955.122	4076.14
955.426	4034.1
955.731	4041.79
956.035	4029.81
956.339	4041.33
956.643	4029.36
956.948	3952.52
957.252	3972.18
957.556	3934.22
957.86	3973.77
958.163	3923.82
958.467	3865.07
958.771	3873.2
959.075	3843.15
959.378	3820.32
959.682	3838.63
959.985	3801.57
960.289	3754.34
960.592	3818.52
960.896	3741.68
961.199	3768.35
961.502	3740.1
961.805	3668.91
962.108	3708.69
962.411	3716.82
962.714	3672.3
963.017	3630.5
963.32	3646.09
963.623	3598.41
963.926	3622.81
964.228	3617.16
964.531	3580.33
964.833	3562.7
965.136	3568.58
965.438	3530.84
965.741	3527.22
966.043	3491.29
966.345	3549.37
966.648	3486.32
966.95	3460.11
967.252	3465.3
967.554	3422.37
967.856	3398.64
968.158	3409.71
968.46	3393.67
968.761	3402.26
969.063	3357.74
969.365	3355.02
969.666	3284.74
969.968	3315.7
970.269	3275.03
970.571	3271.64
970.872	3256.72
971.174	3247.68
971.475	3260.79
971.776	3254.24
972.077	3245.2
972.378	3164.3
972.679	3178.98
972.98	3152.32
973.281	3138.53
973.582	3169.04
973.883	3153.22
974.183	3124.07
974.484	3101.7
974.785	3075.03
975.085	3063.06
975.386	3051.98
975.686	3041.13
975.986	3006.56
976.287	2993.23
976.587	3004.07
976.887	3010.85
977.187	2993.68
977.487	2973.11
977.787	2930.63
978.087	2941.7
978.387	2930.63
978.687	2913
978.987	2870.52
979.286	2865.09
979.586	2890.4
979.885	2858.54
980.185	2837.75
980.484	2830.52
980.784	2848.15
981.083	2777.64
981.382	2794.36
981.682	2759.11
981.981	2771.31
982.28	2787.58
982.579	2751.88
982.878	2719.34
983.177	2678.21
983.475	2725.89
983.774	2665.55
984.073	2654.93
984.372	2703.29
984.67	2694.03
984.969	2619.9
985.267	2642.95
985.566	2622.39
985.864	2592.33
986.162	2599.56
986.461	2573.58
986.759	2591.2
987.057	2569.96
987.355	2535.39
987.653	2545.33
987.951	2540.81
988.249	2518.21
988.547	2515.05
988.844	2495.16
989.142	2499.23
989.44	2435.5
989.737	2473.92
990.035	2431.66
990.332	2428.72
990.63	2466.01
990.927	2404.77
991.224	2384.43
991.521	2406.35
991.819	2425.78
992.116	2377.42
992.413	2349.63
992.71	2331.1
993.006	2332.45
993.303	2304.66
993.6	2305.56
993.897	2315.5
994.193	2293.36
994.49	2311.44
994.787	2276.41
995.083	2291.32
995.379	2240.7
995.676	2250.2
995.972	2233.02
996.268	2190.99
996.565	2207.94
996.861	2182.4
997.157	2197.99
997.453	2195.73
997.749	2154.83
998.044	2157.99
998.34	2129.29
998.636	2110.76
998.932	2126.58
999.227	2122.51
999.523	2103.53
999.818	2045.23
1000.114	2063.31
1000.409	2072.35
1000.704	2044.55
1001	2052.69
1001.295	2052.01
1001.59	2028.51
1001.885	2026.7
1002.18	2000.26
1002.475	1965.46
1002.77	1990.77
1003.065	1964.33
1003.359	1936.53
1003.654	1934.5
1003.949	1958.68
1004.243	1921.62
1004.538	1916.87
1004.832	1913.48
1005.127	1886.59
1005.421	1863.99
1005.715	1892.69
1006.009	1838
1006.304	1840.26
1006.598	1869.64
1006.892	1824.44
1007.186	1793.48
1007.48	1805.24
1007.773	1808.17
1008.067	1782.18
1008.361	1776.76
1008.655	1725.69
1008.948	1740.15
1009.242	1762.3
1009.535	1732.92
1009.829	1734.95
1010.122	1745.12
1010.415	1687.72
1010.708	1731.34
1011.001	1674.84
1011.295	1676.2
1011.588	1669.19
1011.881	1641.4
1012.173	1664.45
1012.466	1640.72
1012.759	1642.98
1013.052	1625.13
1013.344	1628.74
1013.637	1596.88
1013.93	1598.69
1014.222	1581.29
1014.514	1588.97
1014.807	1567.28
1015.099	1556.2
1015.391	1527.05
1015.683	1541.51
1015.976	1504.45
1016.268	1511.46
1016.56	1511.23
1016.851	1518.91
1017.143	1486.83
1017.435	1516.43
1017.727	1455.87
1018.018	1433.27
1018.31	1471.91
1018.602	1442.98
1018.893	1466.94
1019.185	1436.88
1019.476	1415.41
1019.767	1420.61
1020.058	1393.27
1020.35	1382.2
1020.641	1381.97
1020.932	1370.9
1021.223	1372.7
1021.514	1364.12
1021.804	1367.51
1022.095	1360.73
1022.386	1318.02
1022.677	1306.72
1022.967	1316.89
1023.258	1314.17
1023.548	1292.71
1023.839	1307.62
1024.129	1283.67
1024.419	1268.75
1024.709	1276.44
1025	1273.72
1025.29	1233.05
1025.58	1250.67
1025.87	1204.35
1026.16	1237.11
1026.449	1215.42
1026.739	1186.49
1027.029	1222.2
1027.319	1217.68
1027.608	1201.18
1027.898	1165.25
1028.187	1192.82
1028.477	1157.57
1028.766	1165.93
1029.055	1134.52
1029.344	1122.09
1029.634	1153.95
1029.923	1155.08
1030.212	1091.58
1030.501	1089.77
1030.79	1093.62
1031.078	1098.13
1031.367	1103.11
1031.656	1070.11
1031.945	1068.76
1032.233	1065.82
1032.522	1067.85
1032.81	1051.58
1033.099	1052.71
1033.387	1057.46
1033.675	1048.42
1033.963	1025.14
1034.251	1031.24
1034.54	1023.56
1034.828	973.62
1035.116	985.37
1035.403	997.8
1035.691	971.36
1035.979	984.47
1036.267	980.4
1036.554	986.73
1036.842	950.34
1037.129	975.2
1037.417	941.53
1037.704	940.62
1037.992	962.09
1038.279	945.37
1038.566	918.48
1038.853	918.48
1039.14	918.48
