Data from hue_120_FLMS001491_00074.txt Node
Date: Tue Feb 07 16:59:57 GMT 2017
User: dcchb
Spectrometer: FLMS00149
Trigger mode: 0
Integration Time (sec): 2.000000E-2
Scans to average: 10
Electric dark correction enabled: true
Nonlinearity correction enabled: false
Boxcar width: 0
XAxis mode: Wavelengths
Number of Pixels in Spectrum: 2048
>>>>>Begin Spectral Data<<<<<
341.393	-26.93
341.776	-26.93
342.16	-26.93
342.543	-71.45
342.927	-71.68
343.31	-71.68
343.693	-72.36
344.077	-69.42
344.46	-58.12
344.843	-53.83
345.226	-61.51
345.61	-16.99
345.993	-8.63
346.376	-16.99
346.759	-4.79
347.142	31.37
347.525	50.13
347.908	53.29
348.291	84.02
348.674	100.75
349.057	114.76
349.44	122.89
349.823	157.92
350.206	150.91
350.588	186.17
350.971	200.4
351.354	200.86
351.737	255.09
352.119	266.62
352.502	259.84
352.884	277.01
353.267	287.41
353.65	295.32
354.032	288.76
354.414	304.13
354.797	307.07
355.179	324.47
355.562	305.71
355.944	338.71
356.326	344.58
356.709	333.73
357.091	340.29
357.473	326.28
357.855	333.96
358.238	320.18
358.62	360.63
359.002	346.16
359.384	343
359.766	350.46
360.148	338.71
360.53	339.16
360.912	332.38
361.294	315.66
361.676	304.58
362.057	321.08
362.439	331.25
362.821	336.67
363.203	312.72
363.584	344.36
363.966	310.23
364.348	323.11
364.729	314.3
365.111	327.18
365.493	312.94
365.874	331.02
366.256	327.86
366.637	317.46
367.019	339.84
367.4	334.86
367.781	334.19
368.163	327.86
368.544	329.67
368.925	312.04
369.306	326.73
369.688	326.28
370.069	307.97
370.45	310.01
370.831	323.79
371.212	288.31
371.593	326.05
371.974	309.1
372.355	317.01
372.736	333.51
373.117	324.69
373.498	341.42
373.879	308.88
374.26	323.11
374.641	319.27
375.021	313.17
375.402	330.12
375.783	312.04
376.163	343.45
376.544	330.57
376.925	324.69
377.305	342.1
377.686	343.23
378.066	332.38
378.447	324.92
378.827	336.67
379.208	338.71
379.588	328.31
379.968	350.46
380.349	313.4
380.729	354.98
381.109	347.29
381.489	338.71
381.87	338.48
382.25	341.42
382.63	354.52
383.01	358.82
383.39	350.46
383.77	361.3
384.15	339.38
384.53	343.9
384.91	363.34
385.29	349.33
385.67	361.08
386.049	382.77
386.429	363.34
386.809	371.47
387.189	374.41
387.568	375.54
387.948	371.7
388.328	371.7
388.707	375.54
389.087	343.9
389.466	411.25
389.846	387.74
390.225	383
390.605	381.87
390.984	372.38
391.363	370.57
391.743	391.36
392.122	389.55
392.501	370.57
392.881	398.82
393.26	397.91
393.639	389.55
394.018	387.74
394.397	394.98
394.776	388.2
395.155	395.88
395.534	398.37
395.913	413.05
396.292	426.84
396.671	404.92
397.05	383.22
397.429	400.63
397.808	397.46
398.186	398.59
398.565	395.65
398.944	402.21
399.323	394.52
399.701	438.14
400.08	414.41
400.458	397.69
400.837	419.38
401.215	424.58
401.594	428.65
401.972	420.29
402.351	445.37
402.729	419.16
403.107	455.99
403.486	447.4
403.864	438.14
404.242	432.04
404.62	435.43
404.999	432.26
405.377	441.98
405.755	435.2
406.133	466.61
406.511	460.96
406.889	447.86
407.267	455.31
407.645	470.45
408.023	455.09
408.401	489.44
408.779	469.55
409.156	464.8
409.534	481.07
409.912	476.56
410.29	507.51
410.667	514.29
411.045	499.83
411.422	494.86
411.8	511.36
412.178	503.45
412.555	527.4
412.933	495.09
413.31	518.81
413.687	523.33
414.065	523.11
414.442	517.01
414.819	525.59
415.197	533.28
415.574	540.06
415.951	531.47
416.328	516.55
416.705	543.9
417.082	543.67
417.46	530.34
417.837	548.42
418.214	561.98
418.591	572.37
418.967	577.34
419.344	561.98
419.721	590.68
420.098	566.04
420.475	590.68
420.852	594.29
421.228	577.57
421.605	602.43
421.982	579.83
422.358	617.79
422.735	602.88
423.111	607.4
423.488	621.64
423.864	619.15
424.241	620.05
424.617	619.6
424.994	618.47
425.37	615.08
425.746	614.4
426.123	629.55
426.499	648.75
426.875	654.4
427.251	637.23
427.627	683.33
428.003	651.47
428.379	662.99
428.756	678.13
429.132	677.45
429.507	684.01
429.883	674.74
430.259	696.89
430.635	702.76
431.011	696.89
431.387	716.32
431.763	701.18
432.138	740.73
432.514	734.4
432.89	731.92
433.265	763.55
433.641	742.09
434.016	747.28
434.392	759.94
434.767	754.97
435.143	782.08
435.518	771.46
435.894	794.29
436.269	800.61
436.644	824.34
437.02	805.59
437.395	812.82
437.77	821.4
438.145	853.49
438.52	823.44
438.895	824.12
439.271	841.97
439.646	855.53
440.021	905.92
440.395	894.85
440.77	898.47
441.145	900.72
441.52	873.38
441.895	918.8
442.27	896.21
442.645	912.02
443.019	946.15
443.394	926.03
443.769	919.93
444.143	946.37
444.518	952.7
444.892	934.17
445.267	944.11
445.641	938.24
446.016	975.53
446.39	949.09
446.764	985.02
447.139	968.52
447.513	975.98
447.887	991.57
448.262	995.19
448.636	975.3
449.01	987.95
449.384	1021.17
449.758	1018.91
450.132	1056.2
450.506	1046.26
450.88	1048.74
451.254	1046.48
451.628	1065.24
452.002	1085.35
452.376	1093.49
452.75	1061.62
453.123	1100.27
453.497	1112.24
453.871	1104.11
454.244	1142.3
454.618	1156.54
454.992	1161.28
455.365	1171.68
455.739	1197.44
456.112	1223.65
456.486	1212.58
456.859	1210.1
457.232	1235.63
457.606	1240.83
457.979	1253.48
458.352	1285.35
458.725	1308.62
459.099	1317.44
459.472	1323.54
459.845	1346.36
460.218	1355.4
460.591	1406.47
460.964	1390.2
461.337	1402.41
461.71	1438.79
462.083	1457.55
462.456	1431.78
462.829	1473.82
463.201	1512.46
463.574	1510.43
463.947	1528.28
464.32	1569.18
464.692	1583.42
465.065	1613.02
465.438	1627.71
465.81	1634.94
466.183	1659.58
466.555	1718.78
466.928	1695.73
467.3	1697.31
467.672	1733.47
468.045	1807.59
468.417	1794.26
468.789	1855.5
469.161	1867.93
469.534	1922.17
469.906	1977.53
470.278	1972.79
470.65	1999.91
471.022	2034.48
471.394	2094.14
471.766	2112.44
472.138	2167.36
472.51	2205.32
472.882	2238.32
473.253	2293
473.625	2332.78
473.997	2405.32
474.369	2428.37
474.74	2446.67
475.112	2521.7
475.484	2579.1
475.855	2630.62
476.227	2702.03
476.598	2749.94
476.97	2828.36
477.341	2890.96
477.713	2961.69
478.084	3010.05
478.455	3120.33
478.827	3189.48
479.198	3287.1
479.569	3363.26
479.94	3454.33
480.311	3494.1
480.682	3614.33
481.053	3783.13
481.424	3839.4
481.795	3914.43
482.166	4098.61
482.537	4112.62
482.908	4205.5
483.279	4341.31
483.65	4491.36
484.021	4613.62
484.391	4692.72
484.762	4769.1
485.133	4888.64
485.503	5031.69
485.874	5229.88
486.244	5276.2
486.615	5452.24
486.985	5555.52
487.356	5714.16
487.726	5794.38
488.097	5928.84
488.467	6077.54
488.837	6296.52
489.207	6418.09
489.578	6576.96
489.948	6696.73
490.318	6839.55
490.688	6951.87
491.058	7107.12
491.428	7272.08
491.798	7445.19
492.168	7652.64
492.538	7761.34
492.908	7918.62
493.278	8047.88
493.648	8136.24
494.017	8366.52
494.387	8485.84
494.757	8609.67
495.126	8819.84
495.496	8834.53
495.866	8984.13
496.235	9154.52
496.605	9260.73
496.974	9412.59
497.344	9583.66
497.713	9703.66
498.082	9758.12
498.452	9926.25
498.821	10070.88
499.19	10138
499.559	10263.19
499.928	10411.66
500.298	10477.87
500.667	10621.37
501.036	10699.11
501.405	10873.12
501.774	10912.89
502.143	11077.63
502.512	11127.35
502.88	11280.79
503.249	11259.77
503.618	11455.7
503.987	11450.28
504.356	11568.69
504.724	11638.97
505.093	11641.69
505.462	11805.52
505.83	11938.63
506.199	12058.62
506.567	12243.25
506.936	12218.17
507.304	12355.11
507.672	12396.24
508.041	12499.52
508.409	12611.6
508.777	12653.86
509.145	12783.8
509.514	12749.68
509.882	12888.66
510.25	12907.41
510.618	12965.27
510.986	13031.93
511.354	13093.85
511.722	13228.31
512.09	13351.92
512.458	13353.5
512.826	13512.14
513.193	13497.23
513.561	13547.62
513.929	13609.09
514.297	13704.23
514.664	13809.54
515.032	13821.29
515.4	13824.23
515.767	13890.89
516.135	13974.05
516.502	13867.84
516.869	14083.66
517.237	14142.86
517.604	14035.52
517.972	14187.83
518.339	14251.56
518.706	14233.26
519.073	14301.05
519.44	14368.62
519.808	14409.52
520.175	14429.41
520.542	14583.75
520.909	14677.09
521.276	14576.07
521.643	14658.33
522.009	14764.99
522.376	14684.77
522.743	14795.73
523.11	14825.1
523.477	14930.41
523.843	14979
524.21	15135.83
524.577	15150.97
524.943	15122.5
525.31	15266.67
525.676	15298.54
526.043	15263.96
526.409	15358.42
526.776	15391.87
527.142	15357.07
527.508	15436.84
527.874	15558.87
528.241	15433.68
528.607	15430.06
528.973	15543.96
529.339	15417.18
529.705	15668.25
530.071	15653.11
530.437	15640.9
530.803	15665.53
531.169	15674.57
531.535	15669.38
531.901	15625.99
532.267	15670.73
532.632	15715.7
532.998	15702.82
533.364	15711.41
533.73	15736.72
534.095	15722.93
534.461	15809.26
534.826	15827.11
535.192	15685.87
535.557	15765.64
535.923	15707.79
536.288	15755.25
536.653	15706.21
537.019	15534.01
537.384	15540.11
537.749	15612.65
538.114	15659.88
538.479	15570.62
538.845	15569.27
539.21	15632.77
539.575	15470.74
539.94	15520.23
540.305	15549.61
540.67	15456.95
541.034	15483.84
541.399	15462.6
541.764	15379.67
542.129	15342.61
542.494	15395.03
542.858	15358.2
543.223	15336.5
543.587	15332.66
543.952	15267.35
544.316	15202.95
544.681	15141.93
545.045	15244.53
545.41	15202.72
545.774	15176.51
546.138	15152.33
546.503	15076.4
546.867	15062.61
547.231	15026
547.595	15045.89
547.959	15013.57
548.324	14873.24
548.688	14964.31
549.052	14953.46
549.416	14931.77
549.779	14859.68
550.143	14949.85
550.507	14883.41
550.871	14812.9
551.235	14787.59
551.599	14875.95
551.962	14687.93
552.326	14788.5
552.689	14749.85
553.053	14571.55
553.417	14638.44
553.78	14821.94
554.143	14617.88
554.507	14736.97
554.87	14644.09
555.234	14781.72
555.597	14581.5
555.96	14569.29
556.323	14668.5
556.686	14585.11
557.05	14633.7
557.413	14631.21
557.776	14590.53
558.139	14616.07
558.502	14635.96
558.865	14654.26
559.228	14658.1
559.59	14597.31
559.953	14642.96
560.316	14731.32
560.679	14598.9
561.041	14680.93
561.404	14722.73
561.767	14700.81
562.129	14718.44
562.492	14777.42
562.854	14727.93
563.217	14710.31
563.579	14723.19
563.941	14851.32
564.304	14746.46
564.666	14866.01
565.028	14822.39
565.39	14739.23
565.753	14874.14
566.115	14870.53
566.477	14898.77
566.839	14889.96
567.201	15022.39
567.563	14958.43
567.925	15052.67
568.287	15033.69
568.648	15023.07
569.01	15065.78
569.372	15037.3
569.734	15019.9
570.095	15118.66
570.457	15099.67
570.819	15133.57
571.18	15084.31
571.542	15208.6
571.903	15133.12
572.265	15226.68
572.626	15371.76
572.987	15245.21
573.349	15253.34
573.71	15379.89
574.071	15307.8
574.432	15295.37
574.794	15386.22
575.155	15366.33
575.516	15288.6
575.877	15372.21
576.238	15379.89
576.599	15411.98
576.96	15377.63
577.32	15351.87
577.681	15437.29
578.042	15457.18
578.403	15481.13
578.763	15509.83
579.124	15465.77
579.485	15529.49
579.845	15511.87
580.206	15481.58
580.566	15493.34
580.927	15412.43
581.287	15568.81
581.648	15399.33
582.008	15484.52
582.368	15460.79
582.728	15474.35
583.089	15414.92
583.449	15421.02
583.809	15434.13
584.169	15506.44
584.529	15406.56
584.889	15491.98
585.249	15403.85
585.609	15280.91
585.969	15485.2
586.329	15339.67
586.688	15448.36
587.048	15321.59
587.408	15349.61
587.768	15282.95
588.127	15382.6
588.487	15363.62
588.846	15445.88
589.206	15232.1
589.565	15344.19
589.925	15346.22
590.284	15292.21
590.643	15325.2
591.003	15318.42
591.362	15393.45
591.721	15343.73
592.08	15248.6
592.44	15375.37
592.799	15391.19
593.158	15313
593.517	15211.76
593.876	15350.51
594.235	15364.07
594.593	15336.28
594.952	15374.92
595.311	15217.64
595.67	15289.95
596.029	15381.7
596.387	15324.75
596.746	15353.45
597.104	15271.42
597.463	15307.58
597.822	15360.23
598.18	15236.62
598.538	15251.99
598.897	15370.63
599.255	15101.93
599.613	15406.11
599.972	15253.12
600.33	15270.97
600.688	15223.06
601.046	15211.08
601.404	15294.92
601.762	15246.56
602.12	15285.88
602.478	15261.7
602.836	15326.11
603.194	15225.77
603.552	15190.29
603.91	15182.38
604.268	15307.13
604.625	15220.12
604.983	15259.67
605.341	15228.48
605.698	15267.35
606.056	15293.11
606.413	15335.6
606.771	15365.88
607.128	15413.79
607.485	15334.7
607.843	15262.38
608.2	15396.61
608.557	15414.24
608.914	15277.75
609.272	15468.03
609.629	15527.23
609.986	15471.87
610.343	15459.66
610.7	15522.71
611.057	15449.49
611.414	15452.66
611.771	15479.78
612.127	15547.57
612.484	15513.67
612.841	15562.49
613.198	15448.14
613.554	15548.25
613.911	15605.42
614.267	15528.59
614.624	15471.64
614.98	15600.45
615.337	15620.79
615.693	15651.07
616.05	15628.47
616.406	15726.1
616.762	15637.96
617.118	15604.52
617.475	15628.47
617.831	15683.84
618.187	15733.1
618.543	15756.38
618.899	15762.93
619.255	15770.62
619.611	15742.37
619.967	15822.82
620.323	15758.64
620.678	15808.36
621.034	15717.96
621.39	15612.88
621.746	15699.43
622.101	15869.37
622.457	15747.57
622.812	15712.99
623.168	15793.89
623.523	15828.69
623.879	15839.99
624.234	15769.49
624.589	15799.32
624.945	15774.91
625.3	15792.08
625.655	15797.73
626.01	15855.59
626.365	15822.82
626.72	15743.27
627.075	15825.08
627.43	15731.07
627.785	15718.19
628.14	15795.93
628.495	15767.68
628.85	15754.12
629.205	15733.1
629.559	15764.97
629.914	15708.47
630.269	15764.51
630.623	15636.16
630.978	15658.3
631.332	15728.13
631.687	15767.23
632.041	15628.93
632.396	15689.94
632.75	15632.09
633.104	15629.38
633.459	15494.01
633.813	15591.19
634.167	15534.01
634.521	15596.16
634.875	15526.1
635.229	15562.94
635.583	15412.66
635.937	15449.72
636.291	15388.48
636.645	15403.17
636.999	15407.46
637.352	15408.37
637.706	15280.01
638.06	15372.43
638.413	15387.12
638.767	15249.27
639.121	15400
639.474	15241.14
639.828	15225.32
640.181	15241.82
640.534	15306.22
640.888	15179.67
641.241	15186.68
641.594	15144.19
641.947	15128.6
642.301	15127.7
642.654	15182.84
643.007	15211.31
643.36	15181.93
643.713	15110.97
644.066	15268.26
644.419	15116.85
644.771	15048.38
645.124	14854.71
645.477	14858.55
645.83	14736.52
646.182	14701.04
646.535	14598.9
646.888	14590.31
647.24	14556.41
647.593	14616.07
647.945	14594.38
648.298	14608.84
648.65	14458.33
649.002	14475.06
649.355	14529.07
649.707	14470.54
650.059	14597.31
650.411	14887.02
650.763	14824.43
651.115	14956.85
651.467	14938.77
651.819	14978.09
652.171	14849.28
652.523	14803.41
652.875	14913.92
653.227	14840.02
653.578	14864.2
653.93	14893.58
654.282	14800.25
654.633	14807.93
654.985	14861.94
655.337	14906.68
655.688	14823.52
656.039	14933.8
656.391	14833.92
656.742	14849.74
657.094	14935.84
657.445	14864.2
657.796	14866.69
658.147	14746.24
658.498	14887.25
658.849	14882.05
659.2	14892.9
659.551	14830.3
659.902	14956.4
660.253	14924.08
660.604	14940.58
660.955	14858.55
661.306	14937.64
661.656	14931.09
662.007	15017.42
662.358	14877.53
662.708	14837.53
663.059	14918.21
663.409	14749.63
663.76	14940.13
664.11	14907.59
664.461	15007.47
664.811	14944.88
665.161	14877.76
665.511	14876.63
665.862	14959.79
666.212	14931.99
666.562	14975.84
666.912	14975.16
667.262	14962.73
667.612	14922.28
667.962	14911.2
668.312	14949.62
668.662	14892.45
669.011	14983.07
669.361	14800.02
669.711	14855.84
670.06	14809.96
670.41	14801.83
670.76	14829.17
671.109	14859.23
671.459	14822.17
671.808	14817.42
672.157	14792.56
672.507	14783.98
672.856	14784.65
673.205	14841.83
673.554	14876.4
673.904	14720.93
674.253	14839.12
674.602	14785.11
674.951	14564.55
675.3	14505.11
675.649	14686.35
675.998	14626.47
676.346	14665.33
676.695	14717.31
677.044	14602.96
677.393	14679.35
677.741	14567.26
678.09	14624.66
678.438	14526.13
678.787	14559.12
679.135	14579.91
679.484	14525.23
679.832	14569.29
680.181	14471.22
680.529	14469.86
680.877	14376.53
681.225	14436.41
681.573	14518.9
681.922	14348.05
682.27	14395.06
682.618	14362.07
682.966	14330.88
683.314	14327.49
683.661	14297.43
684.009	14226.25
684.357	14214.95
684.705	14181.73
685.053	14209.3
685.4	14152.81
685.748	14046.14
686.095	14052.47
686.443	13955.75
686.79	14066.48
687.138	14071.45
687.485	14027.84
687.832	13902.64
688.18	13951.91
688.527	13867.84
688.874	13781.74
689.221	13680.28
689.568	13794.4
689.915	13737.68
690.262	13752.82
690.609	13687.28
690.956	13609.77
691.303	13586.95
691.65	13536.55
691.997	13498.81
692.344	13446.38
692.69	13395.99
693.037	13370.68
693.383	13254.75
693.73	13200.06
694.077	13255.2
694.423	13171.59
694.769	13189.67
695.116	13112.16
695.462	13164.58
695.808	13018.6
696.155	13048.2
696.501	12933.63
696.847	12913.06
697.193	12828.77
697.539	12936.34
697.885	12798.49
698.231	12717.82
698.577	12636.91
698.923	12721.43
699.269	12643.92
699.614	12581.55
699.96	12465.17
700.306	12474.21
700.651	12492.06
700.997	12397.82
701.342	12404.38
701.688	12328.9
702.033	12249.13
702.379	12282.57
702.724	12131.84
703.069	12176.13
703.415	12019.75
703.76	12089.36
704.105	12040.32
704.45	11999.42
704.795	11932.98
705.14	11882.13
705.485	11886.42
705.83	11828.57
706.175	11838.97
706.52	11772.08
706.865	11741.34
707.209	11732.3
707.554	11714.45
707.899	11640.56
708.243	11534.12
708.588	11572.99
708.932	11495.47
709.277	11464.97
709.621	11512.42
709.966	11443.05
710.31	11451.41
710.654	11419.54
710.998	11346.78
711.342	11389.49
711.687	11319.21
712.031	11268.36
712.375	11261.58
712.719	11237.18
713.063	11235.82
713.407	11171.64
713.75	11127.57
714.094	11222.26
714.438	11078.99
714.782	11091.19
715.125	11078.31
715.469	11059.55
715.812	11042.61
716.156	11026.56
716.499	10951.99
716.843	10999.44
717.186	10860.69
717.53	10896.39
717.873	10853.91
718.216	10897.52
718.559	10913.57
718.902	10730.07
719.246	10835.38
719.589	10818.88
719.932	10764.87
720.275	10793.57
720.617	10774.82
720.96	10774.82
721.303	10729.84
721.646	10765.78
721.989	10721.94
722.331	10775.04
722.674	10732.1
723.016	10680.35
723.359	10703.18
723.701	10696.4
724.044	10665.44
724.386	10592.9
724.729	10584.99
725.071	10606.68
725.413	10581.37
725.755	10648.04
726.097	10549.28
726.439	10474.71
726.782	10546.35
727.124	10623.63
727.465	10490.08
727.807	10513.35
728.149	10546.8
728.491	10480.59
728.833	10554.71
729.175	10504.99
729.516	10464.77
729.858	10476.52
730.199	10545.44
730.541	10436.29
730.882	10414.6
731.224	10467.03
731.565	10416.41
731.906	10420.47
732.248	10451.43
732.589	10355.39
732.93	10380.48
733.271	10320.36
733.612	10409.18
733.953	10397.42
734.294	10346.35
734.635	10368.72
734.976	10329.18
735.317	10384.32
735.658	10373.02
735.999	10347.26
736.339	10359.23
736.68	10351.55
737.021	10329.63
737.361	10342.28
737.702	10410.76
738.042	10348.61
738.383	10408.27
738.723	10445.56
739.063	10315.62
739.404	10352.68
739.744	10357.88
740.084	10366.24
740.424	10431.55
740.764	10323.3
741.104	10451.21
741.444	10376.41
741.784	10464.99
742.124	10458.67
742.464	10425.45
742.804	10472.9
743.143	10523.75
743.483	10465.22
743.823	10506.12
744.162	10512
744.502	10542.51
744.841	10592.45
745.181	10655.95
745.52	10573.24
745.86	10669.06
746.199	10715.16
746.538	10704.76
746.877	10785.21
747.216	10898.2
747.556	10881.48
747.895	10986.11
748.234	10962.16
748.573	11122.38
748.911	11083.06
749.25	11175.93
749.589	11179.1
749.928	11267.23
750.267	11410.96
750.605	11350.17
750.944	11510.62
751.283	11496.38
751.621	11658.86
751.96	11724.85
752.298	11845.97
752.636	11934.33
752.975	11902.47
753.313	12028.79
753.651	12174.1
753.989	12250.48
754.327	12380.65
754.666	12400.54
755.004	12620.64
755.342	12701.32
755.679	12854.08
756.017	12885.95
756.355	13123.45
756.693	13200.06
757.031	13404.58
757.368	13372.04
757.706	13607.74
758.044	13684.34
758.381	13957.78
758.719	14021.28
759.056	14176.31
759.394	14333.14
759.731	14497.88
760.068	14626.69
760.405	14832.11
760.743	14905.1
761.08	15110.75
761.417	15351.42
761.754	15304.19
762.091	15562.03
762.428	15699.88
762.765	15785.53
763.102	16022.81
763.438	16123.38
763.775	16294.67
764.112	16492.41
764.449	16643.36
764.785	16812.17
765.122	16895.78
765.458	16999.74
765.795	17248.32
766.131	17331.48
766.467	17547.29
766.804	17596.56
767.14	17728.08
767.476	17893.05
767.812	18013.5
768.148	18190.67
768.485	18241.29
768.821	18361.06
769.157	18396.31
769.492	18579.58
769.828	18751.55
770.164	18642.18
770.5	18920.36
770.836	18914.26
771.171	19003.53
771.507	19056.63
771.842	19082.62
772.178	19333.69
772.513	19343.4
772.849	19359.22
773.184	19353.57
773.519	19567.8
773.855	19497.07
774.19	19566.67
774.525	19685.99
774.86	19814.58
775.195	19784.52
775.53	19859.1
775.865	19863.62
776.2	19801.92
776.535	19761.7
776.87	19875.82
777.205	19834.46
777.539	19830.4
777.874	20017.96
778.209	19954.69
778.543	19859.1
778.878	20012.76
779.212	19973.9
779.547	20007.79
779.881	20119.88
780.215	20072.2
780.55	20137.28
780.884	20022.71
781.218	20068.58
781.552	20100.9
781.886	20088.69
782.22	20083.27
782.554	20109.71
782.888	19912.2
783.222	19940.9
783.556	19940.9
783.889	20005.53
784.223	19769.38
784.557	19919.89
784.89	19890.96
785.224	19791.3
785.557	19824.97
785.891	19817.52
786.224	19724.86
786.558	19806.22
786.891	19724.64
787.224	19613.91
787.557	19573.45
787.891	19600.57
788.224	19629.27
788.557	19655.03
788.89	19634.02
789.223	19648.71
789.556	19493
789.888	19434.7
790.221	19360.13
790.554	19235.16
790.887	19298.66
791.219	19339.34
791.552	19229.06
791.884	19109.29
792.217	19111.55
792.549	19089.85
792.882	19022.73
793.214	18944.32
793.546	19034.49
793.879	18900.48
794.211	18865.68
794.543	18814.15
794.875	18811.21
795.207	18919.91
795.539	18837.43
795.871	18795.62
796.203	18542.75
796.535	18577.1
796.867	18565.12
797.198	18531
797.53	18543.88
797.862	18453.48
798.193	18448.29
798.525	18383.2
798.856	18440.38
799.188	18198.8
799.519	18135.53
799.85	18056.88
800.182	18147.5
800.513	18219.14
800.844	17965.81
801.175	18022.76
801.506	18019.37
801.837	17943.67
802.168	17909.32
802.499	17922.2
802.83	17700.51
803.161	17792.71
803.491	17755.2
803.822	17765.37
804.153	17596.33
804.483	17518.59
804.814	17517.46
805.145	17472.94
805.475	17475.66
805.805	17390.01
806.136	17337.81
806.466	17415.09
806.796	17380.29
807.126	17230.47
807.457	17179.84
807.787	17188.21
808.117	17112.05
808.447	17095.55
808.777	17132.16
809.107	17022.33
809.436	16926.52
809.766	16937.82
810.096	16801.78
810.426	16818.95
810.755	16860.31
811.085	16804.26
811.414	16792.06
811.744	16658.73
812.073	16644.72
812.403	16546.87
812.732	16575.79
813.061	16600.65
813.39	16428.9
813.719	16485.4
814.049	16524.95
814.378	16484.27
814.707	16426.87
815.036	16437.94
815.365	16348
815.693	16195.01
816.022	16251.28
816.351	16184.16
816.68	16136.93
817.008	16185.75
817.337	16025.3
817.665	16000.89
817.994	16080.66
818.322	16127.67
818.651	15942.82
818.979	15882.48
819.307	15948.01
819.636	15823.95
819.964	15828.92
820.292	15929.26
820.62	15888.81
820.948	15839.54
821.276	15842.93
821.604	15717.28
821.932	15824.85
822.259	15813.1
822.587	15796.38
822.915	15772.65
823.243	15828.24
823.57	15838.86
823.898	15777.4
824.225	15742.37
824.553	15752.09
824.88	15817.85
825.207	15804.51
825.535	15769.71
825.862	15823.5
826.189	15711.41
826.516	15836.6
826.843	15842.7
827.17	15836.15
827.497	15703.27
827.824	15809.03
828.151	15864.63
828.478	15784.85
828.805	15821.69
829.131	15790.95
829.458	15760.45
829.785	15655.14
830.111	15738.98
830.438	15813.55
830.764	15818.75
831.09	15841.57
831.417	15655.59
831.743	15849.03
832.069	15768.81
832.395	15702.37
832.722	15805.19
833.048	15679.32
833.374	15667.34
833.7	15543.96
834.026	15648.59
834.351	15704.4
834.677	15617.17
835.003	15659.43
835.329	15635.7
835.654	15646.33
835.98	15552.54
836.306	15611.3
836.631	15525.88
836.956	15605.65
837.282	15566.1
837.607	15538.76
837.932	15521.81
838.258	15471.19
838.583	15506.67
838.908	15430.06
839.233	15417.41
839.558	15335.37
839.883	15292.66
840.208	15336.5
840.533	15347.12
840.858	15264.19
841.182	15300.8
841.507	15232.55
841.832	15170.18
842.156	15088.83
842.481	15154.36
842.805	15051.99
843.13	15027.13
843.454	15002.95
843.778	14883.86
844.103	14862.17
844.427	14882.28
844.751	14867.14
845.075	14817.42
845.399	14781.49
845.723	14838.44
846.047	14750.3
846.371	14556.86
846.695	14589.86
847.019	14608.39
847.343	14373.82
847.666	14326.81
847.99	14324.1
848.313	14320.94
848.637	14171.11
848.96	14095.86
849.284	14131.11
849.607	14098.57
849.931	13999.36
850.254	13920.72
850.577	13889.76
850.9	13821.52
851.223	13756.43
851.546	13676.43
851.869	13592.37
852.192	13627.17
852.515	13478.93
852.838	13450.23
853.161	13503.11
853.483	13401.19
853.806	13352.83
854.129	13392.6
854.451	13242.1
854.774	13252.04
855.096	13213.62
855.419	13084.81
855.741	13101.31
856.063	13059.5
856.385	13029.67
856.708	12966.62
857.03	12960.29
857.352	12929.56
857.674	12849.34
857.996	12811.15
858.318	12774.09
858.64	12778.83
858.961	12761.2
859.283	12702.45
859.605	12727.31
859.926	12600.08
860.248	12553.07
860.57	12575.45
860.891	12572.06
861.212	12423.81
861.534	12496.35
861.855	12377.49
862.176	12354.44
862.498	12419.97
862.819	12331.16
863.14	12311.5
863.461	12291.61
863.782	12261.33
864.103	12327.54
864.424	12283.25
864.745	12328
865.065	12131.16
865.386	12138.4
865.707	12109.02
866.027	12134.1
866.348	12092.97
866.668	12137.04
866.989	12116.02
867.309	11978.17
867.63	12066.53
867.95	11997.83
868.27	11920.55
868.59	11936.37
868.91	11965.07
869.23	11909.02
869.55	11854.56
869.87	11892.75
870.19	11907.44
870.51	11921
870.83	11946.54
871.15	11826.31
871.469	11805.52
871.789	11805.52
872.109	11803.72
872.428	11669.48
872.748	11689.37
873.067	11726.88
873.386	11737.28
873.706	11718.52
874.025	11630.39
874.344	11647.11
874.663	11624.06
874.982	11584.96
875.301	11553.78
875.62	11512.88
875.939	11497.73
876.258	11532.99
876.577	11458.64
876.896	11467.68
877.214	11453.89
877.533	11405.76
877.852	11363.73
878.17	11424.97
878.489	11368.02
878.807	11375.48
879.125	11330.28
879.444	11384.07
879.762	11285.08
880.08	11352.43
880.398	11236.27
880.716	11274.01
881.034	11206.22
881.352	11137.52
881.67	11138.2
881.988	11191.75
882.306	11115.37
882.624	11094.81
882.941	10961.48
883.259	10983.17
883.577	11005.77
883.894	10931.42
884.212	10970.06
884.529	10904.08
884.846	10923.51
885.164	10822.27
885.481	10836.51
885.798	10794.7
886.115	10692.33
886.432	10742.95
886.75	10679
887.067	10745.44
887.383	10676.29
887.7	10684.65
888.017	10623.63
888.334	10695.04
888.651	10596.97
888.967	10627.47
889.284	10515.84
889.6	10477.42
889.917	10445.11
890.233	10474.94
890.55	10403.75
890.866	10429.74
891.182	10372.57
891.498	10304.77
891.815	10277.88
892.131	10266.81
892.447	10253.02
892.763	10191.78
893.079	10244.43
893.395	10216.64
893.71	10185.9
894.026	10180.25
894.342	10079.92
894.657	10047.38
894.973	9953.82
895.289	9981.39
895.604	9929.19
895.92	9862.52
896.235	9827.27
896.55	9844.44
896.865	9824.11
897.181	9775.75
897.496	9769.64
897.811	9709.53
898.126	9671.34
898.441	9614.17
898.756	9645.35
899.071	9585.69
899.386	9556.99
899.7	9440.84
900.015	9383.89
900.33	9422.76
900.644	9390.45
900.959	9382.76
901.273	9379.37
901.588	9199.04
901.902	9235.42
902.216	9191.58
902.531	9208.98
902.845	9171.24
903.159	9121.53
903.473	9085.14
903.787	9037.91
904.101	9000.85
904.415	8966.28
904.729	8937.8
905.042	8882.89
905.356	8869.33
905.67	8827.75
905.984	8827.52
906.297	8826.62
906.611	8748.43
906.924	8736.23
907.237	8679.96
907.551	8642.22
907.864	8602.9
908.177	8561.54
908.491	8570.35
908.804	8523.58
909.117	8420.75
909.43	8430.92
909.743	8351.38
910.056	8314.77
910.368	8311.6
910.681	8299.4
910.994	8264.15
911.307	8185.05
911.619	8202.45
911.932	8127.65
912.244	8079.97
912.557	8091.27
912.869	8021.67
913.181	8038.84
913.494	7966.53
913.806	7928.34
914.118	7935.79
914.43	7864.16
914.742	7874.1
915.054	7858.73
915.366	7826.19
915.678	7759.98
915.99	7712.52
916.302	7683.15
916.613	7663.03
916.925	7614.45
917.236	7680.66
917.548	7519.31
917.859	7581.23
918.171	7504.39
918.482	7422.81
918.794	7409.03
919.105	7435.47
919.416	7295.13
919.727	7377.16
920.038	7337.62
920.349	7281.12
920.66	7223.04
920.971	7305.53
921.282	7210.84
921.593	7155.93
921.903	7074.8
922.214	7076.83
922.525	7099.21
922.835	7031.86
923.146	7016.5
923.456	6990.28
923.767	6948.93
924.077	6969.04
924.387	6937.63
924.697	6836.16
925.008	6896.05
925.318	6858.76
925.628	6819.21
925.938	6810.4
926.248	6769.27
926.558	6766.56
926.867	6707.35
927.177	6655.6
927.487	6624.87
927.796	6549.84
928.106	6519.33
928.416	6513.91
928.725	6528.37
929.034	6470.52
929.344	6526.11
929.653	6511.42
929.962	6397.3
930.271	6384.87
930.581	6317.31
930.89	6291.32
931.199	6313.24
931.508	6330.41
931.817	6256.74
932.125	6225.1
932.434	6189.85
932.743	6152.79
933.051	6129.06
933.36	6141.49
933.669	6133.58
933.977	6098.55
934.286	6063.3
934.594	6052.91
934.902	6045.67
935.21	6003.64
935.519	5927.26
935.827	5953.25
936.135	5861.95
936.443	5853.59
936.751	5824.89
937.059	5797.55
937.367	5786.25
937.674	5766.36
937.982	5742.41
938.29	5692.92
938.597	5707.6
938.905	5653.59
939.213	5680.71
939.52	5668.96
939.827	5661.96
940.135	5565.01
940.442	5543.99
940.749	5520.04
941.056	5511.23
941.363	5467.16
941.67	5490.43
941.977	5423.54
942.284	5390.1
942.591	5412.47
942.898	5346.94
943.205	5355.3
943.511	5330.44
943.818	5287.28
944.125	5295.19
944.431	5266.94
944.738	5240.05
945.044	5161.63
945.35	5198.47
945.657	5115.53
945.963	5160.05
946.269	5126.38
946.575	5144
946.881	5035.76
947.187	5051.8
947.493	5023.1
947.799	5000.96
948.105	4961.18
948.41	4927.06
948.716	4946.27
949.022	4908.53
949.327	4950.11
949.633	4917.57
949.938	4865.82
950.244	4883.22
950.549	4812.49
950.854	4818.36
951.16	4806.38
951.465	4734.97
951.77	4755.76
952.075	4701.98
952.38	4664.47
952.685	4707.4
952.99	4657.69
953.294	4652.94
953.599	4657.46
953.904	4598.25
954.209	4569.1
954.513	4571.14
954.818	4551.93
955.122	4502.21
955.426	4508.31
955.731	4490.91
956.035	4504.7
956.339	4454.76
956.643	4424.02
956.948	4403.01
957.252	4384.25
957.556	4361.42
957.86	4351.93
958.163	4286.17
958.467	4316.91
958.771	4323.01
959.075	4268.32
959.378	4230.81
959.682	4268.77
959.985	4212.05
960.289	4212.5
960.592	4218.38
960.896	4177.7
961.199	4141.77
961.502	4150.13
961.805	4138.61
962.108	4072.62
962.411	4083.01
962.714	4026.74
963.017	4023.58
963.32	4051.38
963.623	3997.14
963.926	4007.54
964.228	3981.55
964.531	3923.02
964.833	3932.96
965.136	3902.91
965.438	3863.81
965.741	3916.92
966.043	3873.53
966.345	3868.78
966.648	3891.61
966.95	3841.89
967.252	3780.88
967.554	3744.94
967.856	3798.5
968.158	3708.33
968.46	3732.51
968.761	3721.89
969.063	3719.86
969.365	3687.77
969.666	3676.92
969.968	3633.31
970.269	3650.71
970.571	3624.95
970.872	3609.13
971.174	3629.69
971.475	3564.61
971.776	3535.23
972.077	3552.86
972.378	3571.16
972.679	3489.13
972.98	3524.84
973.281	3482.8
973.582	3475.12
973.883	3434.22
974.183	3436.93
974.484	3412.75
974.785	3403.48
975.085	3408.91
975.386	3396.7
975.686	3352.41
975.986	3362.13
976.287	3356.03
976.587	3329.36
976.887	3296.14
977.187	3288.01
977.487	3266.54
977.787	3232.19
978.087	3241.68
978.387	3248.46
978.687	3235.58
978.987	3197.39
979.286	3218.4
979.586	3168.69
979.885	3186.54
980.185	3187.22
980.484	3116.49
980.784	3093.44
981.083	3105.41
981.382	3077.84
981.682	3070.61
981.981	3045.08
982.28	3052.98
982.579	3011.18
982.878	3047.56
983.177	3015.02
983.475	3013.66
983.774	3003.49
984.073	2985.19
984.372	2929.37
984.67	2952.42
984.969	2949.03
985.267	2922.59
985.566	2907.9
985.864	2924.4
986.162	2849.15
986.461	2875.36
986.759	2874.46
987.057	2809.15
987.355	2823.39
987.653	2832.88
987.951	2810.51
988.249	2790.62
988.547	2792.43
988.844	2760.11
989.142	2772.09
989.44	2710.17
989.737	2707.23
990.035	2734.57
990.332	2717.85
990.63	2709.04
990.927	2697.51
991.224	2649.38
991.521	2657.97
991.819	2660.23
992.116	2639.66
992.413	2607.57
992.71	2596.27
993.006	2608.25
993.303	2569.16
993.6	2552.88
993.897	2553.11
994.193	2545.43
994.49	2524.64
994.787	2526.67
995.083	2509.04
995.379	2477.86
995.676	2465.43
995.972	2454.13
996.268	2458.65
996.565	2436.05
996.861	2429.27
997.157	2421.14
997.453	2391.76
997.749	2392.44
998.044	2394.47
998.34	2370.74
998.636	2329.16
998.932	2345.43
999.227	2301.14
999.523	2306.56
999.818	2311.31
1000.114	2300.91
1000.409	2289.61
1000.704	2256.4
1001	2248.26
1001.295	2257.75
1001.59	2222.95
1001.885	2205.32
1002.18	2166.45
1002.475	2172.33
1002.77	2199.45
1003.065	2148.15
1003.359	2149.96
1003.654	2159.45
1003.949	2141.82
1004.243	2077.87
1004.538	2102.5
1004.832	2085.1
1005.127	2112.9
1005.421	2077.42
1005.715	2090.3
1006.009	2050.53
1006.304	2042.62
1006.598	2015.5
1006.892	2015.5
1007.186	1998.78
1007.48	2006.01
1007.773	1960.36
1008.067	1957.87
1008.361	1943.41
1008.655	1960.13
1008.948	1933.01
1009.242	1928.95
1009.535	1890.76
1009.829	1901.6
1010.122	1919.68
1010.415	1870.19
1010.708	1882.17
1011.001	1858.89
1011.295	1844.2
1011.588	1827.93
1011.881	1845.56
1012.173	1805.79
1012.466	1798.33
1012.759	1805.11
1013.052	1799.46
1013.344	1785.45
1013.637	1763.53
1013.93	1772.57
1014.222	1744.09
1014.514	1743.87
1014.807	1705
1015.099	1683.3
1015.391	1741.38
1015.683	1680.37
1015.976	1677.43
1016.268	1675.62
1016.56	1662.96
1016.851	1657.54
1017.143	1628.39
1017.435	1653.02
1017.727	1632.23
1018.018	1601.72
1018.31	1621.84
1018.602	1582.29
1018.893	1599.24
1019.185	1582.97
1019.476	1576.41
1019.767	1549.52
1020.058	1529.41
1020.35	1564.44
1020.641	1498.45
1020.932	1494.38
1021.223	1514.27
1021.514	1480.82
1021.804	1458.22
1022.095	1468.17
1022.386	1463.42
1022.677	1450.09
1022.967	1427.94
1023.258	1412.35
1023.548	1426.13
1023.839	1436.3
1024.129	1412.35
1024.419	1373.93
1024.709	1410.99
1025	1380.03
1025.29	1363.76
1025.58	1357.21
1025.87	1336.87
1026.16	1334.16
1026.449	1339.36
1026.739	1341.17
1027.029	1309.75
1027.319	1310.43
1027.608	1297.1
1027.898	1283.09
1028.187	1284.44
1028.477	1283.54
1028.766	1251.22
1029.055	1240.6
1029.344	1251.45
1029.634	1250.55
1029.923	1253.26
1030.212	1235.41
1030.501	1195.86
1030.79	1220.94
1031.078	1233.37
1031.367	1226.37
1031.656	1183.88
1031.945	1190.43
1032.233	1185.24
1032.522	1168.97
1032.81	1168.06
1033.099	1163.54
1033.387	1147.5
1033.675	1126.26
1033.963	1135.07
1034.251	1125.35
1034.54	1120.15
1034.828	1092.36
1035.116	1112.92
1035.403	1112.7
1035.691	1060.72
1035.979	1089.42
1036.267	1069.76
1036.554	1058.69
1036.842	1057.1
1037.129	1031.12
1037.417	1049.65
1037.704	1046.48
1037.992	1007.39
1038.279	1025.92
1038.566	1009.65
1038.853	1009.65
1039.14	1009.65
