Data from hue_330_FLMS001491_26.txt Node
Date: Mon Feb 06 15:45:10 GMT 2017
User: dcchb
Spectrometer: FLMS00149
Trigger mode: 0
Integration Time (sec): 2.000000E-2
Scans to average: 10
Electric dark correction enabled: true
Nonlinearity correction enabled: false
Boxcar width: 0
XAxis mode: Wavelengths
Number of Pixels in Spectrum: 2048
>>>>>Begin Spectral Data<<<<<
341.393	-15.61
341.776	-15.61
342.16	-15.61
342.543	-48.83
342.927	-54.93
343.31	-77.3
343.693	-63.74
344.077	-58.54
344.46	-75.49
344.843	-74.14
345.226	-46.34
345.61	-19.22
345.993	-13.8
346.376	-4.53
346.759	13.54
347.142	32.08
347.525	49.02
347.908	46.09
348.291	73.88
348.674	102.36
349.057	116.14
349.44	135.58
349.823	143.71
350.206	151.39
350.588	162.92
350.971	193.2
351.354	204.95
351.737	247.44
352.119	247.21
352.502	263.93
352.884	263.03
353.267	276.14
353.65	273.88
354.032	292.63
354.414	293.09
354.797	324.72
355.179	296.7
355.562	323.37
355.944	326.98
356.326	322.69
356.709	329.24
357.091	325.85
357.473	329.47
357.855	338.28
358.238	325.18
358.62	340.77
359.002	313.88
359.384	340.54
359.766	341.9
360.148	319.53
360.53	313.42
360.912	326.98
361.294	325.63
361.676	319.07
362.057	345.74
362.439	329.69
362.821	315.68
363.203	323.82
363.584	343.03
363.966	329.92
364.348	315.46
364.729	312.52
365.111	298.74
365.493	314.78
365.874	294.67
366.256	298.28
366.637	316.14
367.019	296.02
367.4	303.71
367.781	292.86
368.163	317.94
368.544	322.46
368.925	318.17
369.306	310.49
369.688	306.64
370.069	289.92
370.45	287.66
370.831	311.84
371.212	306.19
371.593	303.93
371.974	291.73
372.355	291.73
372.736	308
373.117	305.74
373.498	303.71
373.879	292.63
374.26	305.29
374.641	312.75
375.021	303.71
375.402	329.47
375.783	321.79
376.163	328.79
376.544	323.37
376.925	307.1
377.305	319.07
377.686	324.27
378.066	322.24
378.447	326.08
378.827	322.01
379.208	321.11
379.588	337.15
379.968	334.44
380.349	326.53
380.729	315.01
381.109	316.36
381.489	316.81
381.87	343.71
382.25	327.21
382.63	316.36
383.01	324.95
383.39	330.15
383.77	336.47
384.15	330.82
384.53	344.16
384.91	346.87
385.29	328.34
385.67	331.05
386.049	369.69
386.429	334.21
386.809	344.16
387.189	339.41
387.568	346.42
387.948	355.91
388.328	345.51
388.707	337.6
389.087	368.34
389.466	344.84
389.846	345.97
390.225	364.95
390.605	359.75
390.984	342.58
391.363	341.45
391.743	339.64
392.122	372.63
392.501	367.89
392.881	363.37
393.26	380.99
393.639	378.96
394.018	352.97
394.397	371.73
394.776	343.93
395.155	385.51
395.534	365.63
395.913	388.68
396.292	371.05
396.671	376.7
397.05	364.95
397.429	365.85
397.808	377.15
398.186	401.11
398.565	375.34
398.944	374.21
399.323	385.74
399.701	371.05
400.08	386.19
400.458	379.86
400.837	399.75
401.215	369.92
401.594	405.62
401.972	413.31
402.351	397.26
402.729	387.09
403.107	387.55
403.486	401.33
403.864	399.3
404.242	399.98
404.62	405.85
404.999	431.39
405.377	411.5
405.755	408.79
406.133	424.38
406.511	441.1
406.889	450.14
407.267	439.52
407.645	438.39
408.023	437.26
408.401	450.37
408.779	439.75
409.156	425.06
409.534	451.05
409.912	456.47
410.29	463.7
410.667	447.21
411.045	471.84
411.422	492.63
411.8	491.72
412.178	479.52
412.555	498.73
412.933	496.7
413.31	497.15
413.687	496.02
414.065	531.72
414.442	515.9
414.819	533.53
415.197	553.42
415.574	547.99
415.951	550.48
416.328	543.02
416.705	555
417.082	541.89
417.46	555.9
417.837	587.77
418.214	574.89
418.591	601.78
418.967	574.21
419.344	593.87
419.721	582.57
420.098	607.65
420.475	612.85
420.852	597.71
421.228	636.81
421.605	606.98
421.982	633.19
422.358	641.1
422.735	642.45
423.111	630.03
423.488	650.36
423.864	659.4
424.241	650.59
424.617	687.88
424.994	684.04
425.37	670.25
425.746	675.45
426.123	698.05
426.499	698.72
426.875	685.84
427.251	707.31
427.627	725.84
428.003	724.26
428.379	736.24
428.756	747.54
429.132	731.04
429.507	728.33
429.883	764.71
430.259	755.9
430.635	775.33
431.011	763.13
431.387	776.46
431.763	803.35
432.138	796.12
432.514	825.95
432.89	805.39
433.265	844.48
433.641	833.64
434.016	850.81
434.392	847.42
434.767	850.13
435.143	870.47
435.518	878.83
435.894	870.92
436.269	901.66
436.644	903.92
437.02	910.24
437.395	913.41
437.77	947.08
438.145	924.26
438.52	950.02
438.895	961.32
439.271	956.57
439.646	980.53
440.021	963.58
440.395	973.07
440.77	961.99
441.145	983.69
441.52	1020.07
441.895	1014.2
442.27	1004.03
442.645	1046.06
443.019	1016.68
443.394	1017.13
443.769	1020.75
444.143	1010.58
444.518	1044.48
444.892	1053.74
445.267	1053.07
445.641	1056.68
446.016	1040.64
446.39	1057.13
446.764	1059.39
447.139	1057.81
447.513	1056.46
447.887	1080.86
448.262	1095.1
448.636	1089.9
449.01	1089.22
449.384	1101.2
449.758	1075.66
450.132	1086.28
450.506	1102.33
450.88	1101.65
451.254	1115.21
451.628	1129
452.002	1130.8
452.376	1140.07
452.75	1143.23
453.123	1165.15
453.497	1163.35
453.871	1184.14
454.244	1204.93
454.618	1199.5
454.992	1179.16
455.365	1215.77
455.739	1215.1
456.112	1205.15
456.486	1272.04
456.859	1263.23
457.232	1267.52
457.606	1269.33
457.979	1260.29
458.352	1282.44
458.725	1300.97
459.099	1295.09
459.472	1334.19
459.845	1320.18
460.218	1321.31
460.591	1324.24
460.964	1325.83
461.337	1360.4
461.71	1353.85
462.083	1407.63
462.456	1389.33
462.829	1385.26
463.201	1400.63
463.574	1411.93
463.947	1439.72
464.32	1454.64
464.692	1452.83
465.065	1483.56
465.438	1482.43
465.81	1499.16
466.183	1493.96
466.555	1536.22
466.928	1551.13
467.3	1576.44
467.672	1583
468.045	1589.77
468.417	1614.41
468.789	1619.83
469.161	1632.26
469.534	1656.67
469.906	1689.66
470.278	1699.38
470.65	1705.7
471.022	1691.92
471.394	1757
471.766	1748.19
472.138	1752.48
472.51	1768.3
472.882	1854.17
473.253	1821.41
473.625	1865.02
473.997	1898.92
474.369	1871.12
474.74	1888.3
475.112	1927.62
475.484	1950.9
475.855	1996.09
476.227	1954.06
476.598	2048.75
476.97	2042.64
477.341	2070.44
477.713	2141.17
478.084	2093.72
478.455	2156.99
478.827	2178.69
479.198	2213.26
479.569	2226.14
479.94	2281.96
480.311	2297.78
480.682	2341.62
481.053	2368.96
481.424	2426.81
481.795	2421.17
482.166	2449.64
482.537	2456.42
482.908	2526.7
483.279	2499.13
483.65	2589.97
484.021	2608.5
484.391	2656.87
484.762	2658.22
485.133	2705
485.503	2724.66
485.874	2775.28
486.244	2759.24
486.615	2800.59
486.985	2857.76
487.356	2916.29
487.726	2932.34
488.097	2983.18
488.467	3002.84
488.837	3022.05
489.207	3066.8
489.578	3079.9
489.948	3086.46
490.318	3140.02
490.688	3147.7
491.058	3218.66
491.428	3241.71
491.798	3252.56
492.168	3334.59
492.538	3342.27
492.908	3358.09
493.278	3355.15
493.648	3406.9
494.017	3413.68
494.387	3458.88
494.757	3499.1
495.126	3519.22
495.496	3518.76
495.866	3506.11
496.235	3558.99
496.605	3577.07
496.974	3651.64
497.344	3647.35
497.713	3695.93
498.082	3703.17
498.452	3729.61
498.821	3722.83
499.19	3728.93
499.559	3756.27
499.928	3771.64
500.298	3779.55
500.667	3830.62
501.036	3807.57
501.405	3849.15
501.774	3861.13
502.143	3894.57
502.512	3888.92
502.88	3918.07
503.249	3922.82
503.618	3946.32
503.987	3940.9
504.356	3995.81
504.724	3981.35
505.093	3988.13
505.462	4006.89
505.83	3999.43
506.199	4054.12
506.567	4080.33
506.936	4097.28
507.304	4154.9
507.672	4101.12
508.041	4152.19
508.409	4145.41
508.777	4173.21
509.145	4190.38
509.514	4166.2
509.882	4220.67
510.25	4231.96
510.618	4258.86
510.986	4243.94
511.354	4307.44
511.722	4290.04
512.09	4321.91
512.458	4355.35
512.826	4370.27
513.193	4335.92
513.561	4370.27
513.929	4401.23
514.297	4421.56
514.664	4375.69
515.032	4450.72
515.4	4466.31
515.767	4482.13
516.135	4485.97
516.502	4499.3
516.869	4518.06
517.237	4506.76
517.604	4514.67
517.972	4577.94
518.339	4594.22
518.706	4553.54
519.073	4598.96
519.44	4552.18
519.808	4596.48
520.175	4649.13
520.542	4648.45
520.909	4711.5
521.276	4648
521.643	4748.34
522.009	4749.47
522.376	4766.19
522.743	4718.51
523.11	4819.52
523.477	4859.97
523.843	4813.64
524.21	4832.4
524.577	4911.95
524.943	4868.33
525.31	4913.75
525.676	4929.57
526.043	4963.7
526.409	4959.18
526.776	5023.58
527.142	4992.17
527.508	5047.54
527.874	5072.85
528.241	5119.85
528.607	5095.9
528.973	5173.86
529.339	5130.02
529.705	5231.49
530.071	5271.26
530.437	5231.71
530.803	5254.54
531.169	5311.48
531.535	5296.8
531.901	5287.76
532.267	5355.55
532.632	5365.72
532.998	5415.89
533.364	5430.35
533.73	5391.48
534.095	5481.88
534.461	5477.58
534.826	5508.54
535.192	5564.13
535.557	5548.54
535.923	5584.47
536.288	5613.17
536.653	5657.69
537.019	5603.68
537.384	5634.87
537.749	5618.82
538.114	5712.6
538.479	5683.9
538.845	5715.09
539.21	5694.3
539.575	5790.12
539.94	5792.6
540.305	5859.49
540.67	5858.59
541.034	5857.68
541.399	5879.83
541.764	5913.05
542.129	5965.48
542.494	5943.56
542.858	5970.9
543.223	6011.58
543.587	6054.06
543.952	6067.62
544.316	6077.79
544.681	6075.53
545.045	6099.03
545.41	6134.51
545.774	6170.67
546.138	6167.06
546.503	6237.79
546.867	6172.48
547.231	6268.07
547.595	6280.95
547.959	6333.6
548.324	6343.55
548.688	6359.82
549.052	6372.7
549.416	6408.4
549.779	6414.05
550.143	6428.97
550.507	6457.22
550.871	6527.72
551.235	6486.14
551.599	6579.47
551.962	6559.36
552.326	6592.58
552.689	6608.85
553.053	6555.52
553.417	6604.33
553.78	6652.69
554.143	6599.36
554.507	6653.14
554.87	6687.72
555.234	6747.15
555.597	6754.84
555.96	6790.99
556.323	6816.53
556.686	6741.28
557.05	6886.36
557.413	6839.81
557.776	6897.88
558.139	6863.31
558.502	6931.78
558.865	6918.45
559.228	6997.54
559.59	7013.36
559.953	7034.83
560.316	7037.31
560.679	7036.19
561.041	7102.85
561.404	7087.71
561.767	7155.05
562.129	7118.44
562.492	7158.22
562.854	7155.28
563.217	7144.2
563.579	7198.44
563.941	7273.24
564.304	7268.27
564.666	7317.31
565.028	7302.84
565.39	7332.9
565.753	7383.97
566.115	7429.4
566.477	7413.8
566.839	7403.86
567.201	7444.31
567.563	7448.15
567.925	7545.78
568.287	7579.45
568.648	7592.78
569.01	7618.99
569.372	7662.38
569.734	7623.29
570.095	7731.08
570.457	7779.22
570.819	7750.52
571.18	7786
571.542	7846.11
571.903	7851.98
572.265	7964.75
572.626	7962.26
572.987	7926.33
573.349	8043.62
573.71	8081.36
574.071	8140.34
574.432	8150.28
574.794	8301.24
575.155	8262.82
575.516	8282.25
575.877	8380.33
576.238	8406.09
576.599	8574.68
576.96	8586.43
577.32	8618.29
577.681	8744.84
578.042	8845.4
578.403	8810.83
578.763	8951.84
579.124	8984.83
579.485	9164.04
579.845	9317.93
580.206	9389.34
580.566	9407.65
580.927	9548.44
581.287	9720.63
581.648	9843.57
582.008	9982.77
582.368	10061.64
582.728	10203.79
583.089	10384.8
583.449	10452.14
583.809	10739.14
584.169	10896.87
584.529	10966.03
584.889	11246.7
585.249	11434.49
585.609	11473.36
585.969	11823.86
586.329	11981.14
586.688	12156.5
587.048	12452.31
587.408	12640.78
587.768	12907.22
588.127	13026.54
588.487	13257.49
588.846	13611.83
589.206	13665.16
589.565	14061.76
589.925	14324.58
590.284	14469.89
590.643	14730.9
591.003	15054.73
591.362	15389.41
591.721	15525.68
592.08	15835.5
592.44	16184.42
592.799	16460.12
593.158	16612.66
593.517	16957.96
593.876	17254.22
594.235	17476.81
594.593	17794.09
594.952	18054.43
595.311	18306.62
595.67	18695.54
596.029	19049.65
596.387	19317.67
596.746	19616.65
597.104	19737.32
597.463	20057.09
597.822	20353.35
598.18	20678.99
598.538	20920.34
598.897	21305.41
599.255	21507.44
599.613	22082.34
599.972	22149.23
600.33	22354.2
600.688	22587.64
601.046	22993.96
601.404	23429.2
601.762	23568.63
602.12	23975.85
602.478	24150.76
602.836	24395.5
603.194	24604.08
603.552	24908.48
603.91	24981.48
604.268	25461.46
604.625	25509.37
604.983	25958.85
605.341	25960.89
605.698	26412.4
606.056	26731.26
606.413	26789.34
606.771	27169.67
607.128	27394.97
607.485	27499.83
607.843	27741.18
608.2	28009.87
608.557	28491.89
608.914	28514.49
609.272	28733.47
609.629	28940.92
609.986	29432.66
610.343	29273.57
610.7	29813.21
611.057	29778.64
611.414	30029.25
611.771	30098.4
612.127	30536.58
612.484	30660.2
612.841	30871.72
613.198	30918.04
613.554	31168.43
613.911	31468.09
614.267	31591.47
614.624	31786.04
614.98	31795.99
615.337	32209.31
615.693	32179.7
616.05	32321.17
616.406	32592.58
616.762	32677.54
617.118	32912.57
617.475	32963.41
617.831	33113.01
618.187	33375.83
618.543	33369.5
618.899	33777.4
619.255	33670.51
619.611	33802.03
619.967	34124.74
620.323	34203.83
620.678	34196.15
621.034	34232.31
621.39	34379.87
621.746	34424.17
622.101	34844.27
622.457	34651.5
622.812	34815.12
623.168	35017.82
623.523	35091.04
623.879	35256.46
624.234	35082.91
624.589	35414.42
624.945	35399.96
625.3	35524.7
625.655	35555.44
626.01	35665.04
626.365	36004.24
626.72	35779.84
627.075	35803.34
627.43	36009.43
627.785	35919.72
628.14	35961.98
628.495	36139.6
628.85	36034.74
629.205	36072.03
629.559	36279.48
629.914	36193.38
630.269	36295.08
630.623	36264.8
630.978	36324
631.332	36496.88
631.687	36653.71
632.041	36573.49
632.396	36608.97
632.75	36450.33
633.104	36477.44
633.459	36460.5
633.813	36471.57
634.167	36403.1
634.521	36508.18
634.875	36593.83
635.229	36554.28
635.583	36477.44
635.937	36554.5
636.291	36582.98
636.645	36699.81
636.999	36580.49
637.352	36780.71
637.706	36425.24
638.06	36680.38
638.413	36492.36
638.767	36579.82
639.121	36628.4
639.474	36428.18
639.828	36498.91
640.181	36552.25
640.534	36569.87
640.888	36447.16
641.241	36360.39
641.594	36403.55
641.947	36568.74
642.301	36401.06
642.654	36525.35
643.007	36453.49
643.36	36602.41
643.713	36475.41
644.066	36682.64
644.419	36303.66
644.771	36178.24
645.124	35851.92
645.477	35956.78
645.83	35596.34
646.182	35425.04
646.535	35379.39
646.888	35513.18
647.24	35269.57
647.593	35501.43
647.945	35548.66
648.298	35202
648.65	35190.25
649.002	35079.97
649.355	35342.79
649.707	35218.49
650.059	35303.92
650.411	35815.32
650.763	35887.86
651.115	36273.16
651.467	36133.05
651.819	36164.46
652.171	36132.37
652.523	35944.58
652.875	35956.1
653.227	35883.11
653.578	36221.18
653.93	36142.54
654.282	35931.47
654.633	35919.95
654.985	36019.38
655.337	35958.81
655.688	36029.55
656.039	36034.97
656.391	35724.92
656.742	35821.42
657.094	35843.79
657.445	35885.37
657.796	35917.01
658.147	35790.91
658.498	35749.1
658.849	35811.25
659.2	35712.95
659.551	35439.96
659.902	35862.32
660.253	35705.71
660.604	35826.39
660.955	35590.24
661.306	35804.69
661.656	35678.82
662.007	35719.72
662.358	35786.84
662.708	35693.28
663.059	35693.74
663.409	35440.64
663.76	35763.79
664.11	35618.71
664.461	35859.16
664.811	35790.68
665.161	35683.12
665.511	35518.37
665.862	35705.71
666.212	35682.89
666.562	35813.28
666.912	35729.89
667.262	35618.48
667.612	35712.04
667.962	35636.56
668.312	35555.21
668.662	35754.98
669.011	35668.65
669.361	35686.51
669.711	35490.8
670.06	35552.72
670.41	35400.64
670.76	35510.69
671.109	35484.7
671.459	35420.07
671.808	35423.24
672.157	35531.71
672.507	35243.58
672.856	35473.18
673.205	35379.85
673.554	35492.84
673.904	35487.19
674.253	35618.71
674.602	35493.52
674.951	34933.08
675.3	34705.97
675.649	35291.94
675.998	35344.14
676.346	35283.13
676.695	35406.96
677.044	35149.57
677.393	35254.43
677.741	35312.28
678.09	35207.87
678.438	35041.32
678.787	35154.54
679.135	35254.2
679.484	35007.2
679.832	35092.85
680.181	34897.83
680.529	35015.34
680.877	34895.34
681.225	34863.02
681.573	35136.24
681.922	34813.31
682.27	34723.37
682.618	34740.32
682.966	34604.05
683.314	34706.42
683.661	34708.45
684.009	34609.7
684.357	34407.89
684.705	34342.36
685.053	34388.01
685.4	34383.04
685.748	34173.1
686.095	34231.18
686.443	33922.71
686.79	34045.42
687.138	33978.53
687.485	34264.17
687.832	33922.94
688.18	34019.88
688.527	33783.05
688.874	33774.01
689.221	33703.73
689.568	33588.93
689.915	33549.39
690.262	33466.68
690.609	33418.77
690.956	33311.88
691.303	33299.22
691.65	33173.12
691.997	33182.16
692.344	32985.79
692.69	33056.52
693.037	33101.04
693.383	32760.03
693.73	32915.28
694.077	32543.99
694.423	32807.03
694.769	32492.24
695.116	32508.28
695.462	32525.23
695.808	32402.52
696.155	32390.77
696.501	32254.73
696.847	32178.8
697.193	32002.53
697.539	32165.92
697.885	31849.32
698.231	31779.26
698.577	31784.23
698.923	31686.16
699.269	31631.92
699.614	31330.24
699.96	31299.73
700.306	31434.19
700.651	31217.02
700.997	31137.92
701.342	31173.18
701.688	31226.06
702.033	30967.31
702.379	30951.49
702.724	30933.41
703.069	30931.38
703.415	30570.71
703.76	30756.24
704.105	30632.63
704.45	30468.34
704.795	30316.02
705.14	30277.38
705.485	30353.54
705.83	30085.52
706.175	30232.19
706.52	30060.66
706.865	29886.21
707.209	29881.91
707.554	29892.53
707.899	29888.24
708.243	29687.57
708.588	29673.78
708.932	29483.73
709.277	29560.34
709.621	29508.14
709.966	29266.33
710.31	29370.29
710.654	29137.52
710.998	29164.64
711.342	29215.04
711.687	29133.68
712.031	29008.71
712.375	28896.85
712.719	29002.61
713.063	28861.6
713.407	28928.49
713.75	28844.43
714.094	28686.24
714.438	28598.1
714.782	28556.52
715.125	28551.55
715.469	28570.31
715.812	28254.61
716.156	28258.68
716.499	28217.55
716.843	28336.19
717.186	28141.39
717.53	28293.93
717.873	28220.49
718.216	28024.11
718.559	28099.13
718.902	27704.34
719.246	27936.65
719.589	27752.93
719.932	27671.12
720.275	27597.45
720.617	27692.59
720.96	27694.17
721.303	27700.95
721.646	27561.3
721.989	27342.09
722.331	27472.26
722.674	27422.09
723.016	27409.21
723.359	27348.42
723.701	27404.01
724.044	27278.14
724.386	27183.23
724.729	27265.48
725.071	27204.69
725.413	27094.87
725.755	27124.02
726.097	26982.33
726.439	26933.51
726.782	26975.77
727.124	26940.75
727.465	26847.87
727.807	26817.13
728.149	26718.61
728.491	26632.51
728.833	26733.29
729.175	26607.42
729.516	26573.3
729.858	26604.94
730.199	26546.18
730.541	26506.18
730.882	26442.68
731.224	26389.8
731.565	26372.17
731.906	26190.26
732.248	26269.8
732.589	26185.29
732.93	26165.85
733.271	26112.29
733.612	26162.46
733.953	26114.1
734.294	26005.18
734.635	26013.77
734.976	26052.86
735.317	25832.53
735.658	25952.52
735.999	25874.33
736.339	25778.52
736.68	25790.49
737.021	25717.73
737.361	25625.07
737.702	25742.81
738.042	25726.09
738.383	25673.89
738.723	25660.33
739.063	25535.36
739.404	25669.59
739.744	25496.04
740.084	25416.94
740.424	25432.99
740.764	25534.91
741.104	25537.62
741.444	25378.08
741.784	25168.59
742.124	25267.57
742.464	25322.48
742.804	25181.24
743.143	25130.4
743.483	25159.1
743.823	24927.92
744.162	25062.15
744.502	25102.83
744.841	24930.18
745.181	25076.61
745.52	24906.68
745.86	24933.12
746.199	24855.15
746.538	24797.53
746.877	24806.79
747.216	24777.41
747.556	24700.81
747.895	24719.56
748.234	24625.78
748.573	24618.55
748.911	24501.71
749.25	24569.51
749.589	24333.58
749.928	24417.87
750.267	24345.56
750.605	24308.27
750.944	24367.48
751.283	24239.12
751.621	24186.47
751.96	24113.02
752.298	24158.9
752.636	24064.44
752.975	23949.19
753.313	23945.8
753.651	24016.98
753.989	23862.18
754.327	23869.41
754.666	23641.4
755.004	23612.47
755.342	23648.18
755.679	23684.56
756.017	23518.46
756.355	23561.4
756.693	23444.12
757.031	23400.73
757.368	23406.15
757.706	23311.69
758.044	23208.42
758.381	23332.03
758.719	23113.28
759.056	23198.7
759.394	22977.46
759.731	22955.09
760.068	22980.17
760.405	22847.07
760.743	22694.76
761.08	22885.26
761.417	22704.7
761.754	22605.04
762.091	22678.71
762.428	22542.9
762.765	22350.36
763.102	22387.87
763.438	22325.27
763.775	22183.36
764.112	22220.42
764.449	22205.73
764.785	22115.34
765.122	21908.11
765.458	21788.57
765.795	21776.14
766.131	21883.7
766.467	21695.91
766.804	21569.36
767.14	21473.32
767.476	21478.07
767.812	21335.7
768.148	21392.42
768.485	21266.32
768.821	21189.49
769.157	21096.61
769.492	21170.5
769.828	21061.13
770.164	20860.68
770.5	20732.32
770.836	20885.09
771.171	20678.09
771.507	20626.11
771.842	20462.95
772.178	20552.89
772.513	20378.21
772.849	20408.04
773.184	20266.8
773.519	20333.46
773.855	20112.9
774.19	20098.21
774.525	19973.7
774.86	20069.97
775.195	19909.97
775.53	19905.45
775.865	19714.5
776.2	19603.31
776.535	19456.42
776.87	19533.94
777.205	19356.77
777.539	19305.69
777.874	19357.89
778.209	19197.45
778.543	19096.88
778.878	18992.48
779.212	19010.56
779.547	18953.61
779.881	18997.23
780.215	18776.22
780.55	18805.82
780.884	18695.99
781.218	18626.84
781.552	18622.77
781.886	18580.74
782.22	18452.83
782.554	18324.25
782.888	18225.5
783.222	18115.89
783.556	18022.34
783.889	18043.13
784.223	17960.87
784.557	17962.68
784.89	17987.99
785.224	17832.51
785.557	17728.56
785.891	17682.23
786.224	17610.6
786.558	17722.68
786.891	17506.87
787.224	17415.35
787.557	17274.33
787.891	17331.06
788.224	17342.13
788.557	17347.1
788.89	17304.39
789.223	17147.11
789.556	16958.18
789.888	17021.69
790.221	16923.83
790.554	16884.29
790.887	16872.31
791.219	16677.29
791.552	16742.14
791.884	16536.05
792.217	16522.49
792.549	16510.29
792.882	16339.44
793.214	16339.22
793.546	16362.49
793.879	16197.98
794.211	16145.55
794.543	16228.71
794.875	16103.97
795.207	16069.17
795.539	16090.41
795.871	16032.56
796.203	15828.27
796.535	15793.69
796.867	15816.75
797.198	15771.1
797.53	15795.73
797.862	15614.72
798.193	15624.21
798.525	15517.54
798.856	15611.1
799.188	15344.22
799.519	15274.39
799.85	15274.61
800.182	15265.57
800.513	15319.58
800.844	15084.79
801.175	15189.19
801.506	15268.06
801.837	15031.46
802.168	15002.98
802.499	15012.92
802.83	14918.01
803.161	14822.65
803.491	14850.22
803.822	14760.95
804.153	14771.35
804.483	14675.08
804.814	14621.75
805.145	14564.57
805.475	14613.39
805.805	14528.19
806.136	14482.77
806.466	14374.52
806.796	14472.83
807.126	14266.5
807.457	14239.16
807.787	14290.68
808.117	14214.75
808.447	14160.07
808.777	14211.59
809.107	14147.41
809.436	14134.76
809.766	14054.98
810.096	14005.04
810.426	13949.45
810.755	13972.95
811.085	13953.74
811.414	14033.74
811.744	13883.24
812.073	13747.42
812.403	13771.6
812.732	13696.57
813.061	13643.47
813.39	13604.6
813.719	13570.48
814.049	13609.35
814.378	13605.73
814.707	13530.7
815.036	13453.19
815.365	13385.62
815.693	13243.03
816.022	13356.92
816.351	13267.43
816.68	13254.33
817.008	13208
817.337	13196.02
817.665	13088
817.994	13162.35
818.322	13141.11
818.651	13071.96
818.979	12994.22
819.307	13097.27
819.636	12984.05
819.964	12890.95
820.292	12975.92
820.62	13021.79
820.948	12947.89
821.276	12932.3
821.604	12853.66
821.932	12887.78
822.259	12862.7
822.587	12902.25
822.915	12868.57
823.243	12868.8
823.57	12871.74
823.898	12852.98
824.225	12802.14
824.553	12801.01
824.88	12806.88
825.207	12850.72
825.535	12776.83
825.862	12837.39
826.189	12835.35
826.516	12928.01
826.843	12840.1
827.17	12854.11
827.497	12842.81
827.824	12830.61
828.151	12810.95
828.478	12822.47
828.805	12852.08
829.131	12765.3
829.458	12810.95
829.785	12723.49
830.111	12743.38
830.438	12761.91
830.764	12739.76
831.09	12863.6
831.417	12797.16
831.743	12767.33
832.069	12741.35
832.395	12702.25
832.722	12752.87
833.048	12680.56
833.374	12677.62
833.7	12673.32
834.026	12650.95
834.351	12684.62
834.677	12624.51
835.003	12598.98
835.329	12612.31
835.654	12683.95
835.98	12617.28
836.306	12557.85
836.631	12530.05
836.956	12602.82
837.282	12626.77
837.607	12481.24
837.932	12502.71
838.258	12518.98
838.583	12463.84
838.908	12419.55
839.233	12358.3
839.558	12336.38
839.883	12368.02
840.208	12317.63
840.533	12351.98
840.858	12315.59
841.182	12192.43
841.507	12298.65
841.832	12139.33
842.156	12203.05
842.481	12223.39
842.805	12150.85
843.13	12124.19
843.454	12034.25
843.778	12041.03
844.103	12065.21
844.427	11962.84
844.751	12033.12
845.075	11990.41
845.399	11956.06
845.723	11824.99
846.047	11869.05
846.371	11737.76
846.695	11702.28
847.019	11643.52
847.343	11646.23
847.666	11530.76
847.99	11506.12
848.313	11476.29
848.637	11388.16
848.96	11391.78
849.284	11351.33
849.607	11273.59
849.931	11249.18
850.254	11205.79
850.577	11143.87
850.9	10981.84
851.223	11043.09
851.546	11008.51
851.869	10929.64
852.192	10959.47
852.515	10842.19
852.838	10874.05
853.161	10865.46
853.483	10757.22
853.806	10667.05
854.129	10732.36
854.451	10658.46
854.774	10591.57
855.096	10522.65
855.419	10571.91
855.741	10524.23
856.063	10418.24
856.385	10485.36
856.708	10449.65
857.03	10379.15
857.352	10412.37
857.674	10355.42
857.996	10338.92
858.318	10335.99
858.64	10267.06
858.961	10185.25
859.283	10185.93
859.605	10130.79
859.926	10165.59
860.248	10077.91
860.57	10105.03
860.891	10121.3
861.212	10012.15
861.534	10041.08
861.855	10069.33
862.176	9997.92
862.498	9970.57
862.819	9973.96
863.14	9896.67
863.461	9881.99
863.782	9801.76
864.103	9858.03
864.424	9872.04
864.745	9852.16
865.065	9719.5
865.386	9784.14
865.707	9754.98
866.027	9752.5
866.348	9708.21
866.668	9698.04
866.989	9649.68
867.309	9653.07
867.63	9612.84
867.95	9587.53
868.27	9571.03
868.59	9550.24
868.91	9548.66
869.23	9533.97
869.55	9574.88
869.87	9592.05
870.19	9473.64
870.51	9576.23
870.83	9578.49
871.15	9401.55
871.469	9456.01
871.789	9434.54
872.109	9378.5
872.428	9381.21
872.748	9412.62
873.067	9410.36
873.386	9432.96
873.706	9376.91
874.025	9318.84
874.344	9275.22
874.663	9267.31
874.982	9276.8
875.301	9289.91
875.62	9228.9
875.939	9230.03
876.258	9236.35
876.577	9242
876.896	9110.25
877.214	9205.39
877.533	9146.86
877.852	9167.65
878.17	9153.42
878.489	9081.78
878.807	9217.14
879.125	9098.96
879.444	9051.27
879.762	9065.74
880.08	9091.95
880.398	8960.43
880.716	9016.7
881.034	8914.78
881.352	8982.35
881.67	8912.97
881.988	9023.48
882.306	8906.19
882.624	8836.36
882.941	8865.06
883.259	8847.89
883.577	8840.88
883.894	8830.04
884.212	8835.69
884.529	8798.17
884.846	8732.41
885.164	8716.14
885.481	8700.77
885.798	8693.32
886.115	8684.73
886.432	8641.79
886.75	8592.75
887.067	8577.61
887.383	8604.05
887.7	8654.45
888.017	8550.72
888.334	8576.26
888.651	8473.21
888.967	8490.84
889.284	8380.1
889.6	8405.87
889.917	8371.52
890.233	8395.25
890.55	8306.21
890.866	8374.68
891.182	8295.36
891.498	8290.62
891.815	8219.88
892.131	8238.64
892.447	8280.22
892.763	8229.15
893.079	8137.85
893.395	8178.08
893.71	8111.64
894.026	8125.87
894.342	8164.06
894.657	8027.12
894.973	8036.16
895.289	8018.53
895.604	7967.69
895.92	7887.01
896.235	7895.82
896.55	7987.12
896.865	7909.83
897.181	7904.18
897.496	7823.28
897.811	7790.06
898.126	7796.39
898.441	7698.99
898.756	7759.56
899.071	7630.75
899.386	7648.15
899.7	7559.34
900.015	7565.44
900.33	7522.5
900.644	7557.75
900.959	7506
901.273	7487.25
901.588	7413.58
901.902	7398.44
902.216	7391.43
902.531	7367.7
902.845	7337.65
903.159	7273.69
903.473	7309.62
903.787	7232.56
904.101	7213.58
904.415	7222.62
904.729	7235.95
905.042	7195.95
905.356	7100.36
905.67	7087.94
905.984	7073.02
906.297	7118.22
906.611	7004.1
906.924	7018.78
907.237	7011.78
907.551	6945.11
907.864	6960.93
908.177	6892.91
908.491	6918.22
908.804	6906.47
909.117	6874.38
909.43	6844.33
909.743	6765.23
910.056	6749.41
910.368	6711
910.681	6697.44
910.994	6652.01
911.307	6653.14
911.619	6574.5
911.932	6623.54
912.244	6571.34
912.557	6533.37
912.869	6529.53
913.181	6491.34
913.494	6456.54
913.806	6407.05
914.118	6417.67
914.43	6375.64
914.742	6362.3
915.054	6286.83
915.366	6347.16
915.678	6265.81
915.99	6227.17
916.302	6183.55
916.613	6207.51
916.925	6123.44
917.236	6149.43
917.548	6172.03
917.859	6074.18
918.171	6076.66
918.482	6068.98
918.794	5971.35
919.105	5997.57
919.416	5952.82
919.727	5951.92
920.038	5976.78
920.349	5881.41
920.66	5861.98
920.971	5869.21
921.282	5778.37
921.593	5793.73
921.903	5799.83
922.214	5719.61
922.525	5741.53
922.835	5706.95
923.146	5664.47
923.456	5655.88
923.767	5599.61
924.077	5594.19
924.387	5576.56
924.697	5590.8
925.008	5529.33
925.318	5556.9
925.628	5528.65
925.938	5529.78
926.248	5455.66
926.558	5410.47
926.867	5397.36
927.177	5368.88
927.487	5331.82
927.796	5282.11
928.106	5294.31
928.416	5266.29
928.725	5306.29
929.034	5242.79
929.344	5238.04
929.653	5205.05
929.962	5144.26
930.271	5160.75
930.581	5167.08
930.89	5116.01
931.199	5033.75
931.508	5026.52
931.817	5044.6
932.125	5031.49
932.434	5053.19
932.743	4971.15
933.051	4999.63
933.36	4972.74
933.669	4884.83
933.977	4902
934.286	4893.87
934.594	4863.13
934.902	4807.54
935.21	4796.7
935.519	4786.53
935.827	4812.97
936.135	4770.26
936.443	4709.47
936.751	4674.67
937.059	4670.15
937.367	4654.33
937.674	4616.59
937.982	4641.22
938.29	4654.33
938.597	4647.1
938.905	4541.79
939.213	4541.34
939.52	4540.66
939.827	4537.95
940.135	4459.98
940.442	4469.47
940.749	4484.84
941.056	4484.16
941.363	4415.69
941.67	4454.11
941.977	4379.08
942.284	4371.62
942.591	4351.51
942.898	4314.67
943.205	4325.52
943.511	4275.13
943.818	4254.56
944.125	4263.83
944.431	4239.65
944.738	4216.37
945.044	4209.59
945.35	4196.71
945.657	4131.4
945.963	4159.42
946.269	4128.01
946.575	4128.46
946.881	4059.99
947.187	4119.43
947.493	4046.21
947.799	4062.03
948.105	4016.6
948.41	4014.8
948.716	4004.63
949.022	3977.51
949.327	4000.78
949.633	3928.7
949.938	3911.75
950.244	3944.74
950.549	3885.08
950.854	3868.13
951.16	3842.82
951.465	3826.1
951.77	3858.87
952.075	3822.71
952.38	3779.77
952.685	3815.93
952.99	3775.25
953.294	3760.56
953.599	3726.44
953.904	3683.96
954.209	3662.26
954.513	3677.4
954.818	3618.2
955.122	3650.74
955.426	3632.43
955.731	3632.66
956.035	3577.29
956.339	3580
956.643	3561.25
956.948	3561.47
957.252	3538.65
957.556	3559.44
957.86	3535.49
958.163	3541.81
958.467	3517.41
958.771	3481.7
959.075	3496.17
959.378	3445.32
959.682	3425.43
959.985	3411.65
960.289	3335.94
960.592	3368.48
960.896	3341.59
961.199	3391.31
961.502	3302.27
961.805	3307.24
962.108	3270.63
962.411	3281.71
962.714	3257.98
963.017	3268.6
963.32	3272.67
963.623	3239.22
963.926	3217.75
964.228	3220.24
964.531	3187.02
964.833	3197.64
965.136	3167.81
965.438	3156.51
965.741	3170.07
966.043	3118.32
966.345	3050.08
966.648	3133.91
966.95	3066.12
967.252	3087.81
967.554	3065.67
967.856	3039.68
968.158	3015.73
968.46	3012.34
968.761	3014.14
969.063	2952.45
969.365	2997.87
969.666	2969.63
969.968	2938.21
970.269	2960.13
970.571	2929.4
970.872	2935.05
971.174	2918.1
971.475	2902.73
971.776	2869.06
972.077	2872
972.378	2856.41
972.679	2859.35
972.98	2850.31
973.281	2807.14
973.582	2784.32
973.883	2830.42
974.183	2782.29
974.484	2796.97
974.785	2757.2
975.085	2761.95
975.386	2757.2
975.686	2750.2
975.986	2729.41
976.287	2709.29
976.587	2688.05
976.887	2671.33
977.187	2678.79
977.487	2658
977.787	2610.54
978.087	2647.15
978.387	2581.16
978.687	2601.5
978.987	2571.44
979.286	2604.89
979.586	2569.41
979.885	2546.36
980.185	2529.18
980.484	2546.36
980.784	2515.63
981.083	2502.07
981.382	2500.26
981.682	2499.81
981.981	2496.64
982.28	2483.76
982.579	2478.56
982.878	2482.18
983.177	2435.4
983.475	2466.59
983.774	2461.62
984.073	2445.35
984.372	2388.4
984.67	2372.8
984.969	2364.67
985.267	2361.51
985.566	2346.36
985.864	2388.4
986.162	2338
986.461	2331
986.759	2317.44
987.057	2300.49
987.355	2271.11
987.653	2305.01
987.951	2294.61
988.249	2249.42
988.547	2246.71
988.844	2245.12
989.142	2220.94
989.44	2225.01
989.737	2220.94
990.035	2238.35
990.332	2192.7
990.63	2185.24
990.927	2194.28
991.224	2156.99
991.521	2166.03
991.819	2147.05
992.116	2138.01
992.413	2136.65
992.71	2154.96
993.006	2116.09
993.303	2090.78
993.6	2105.69
993.897	2074.73
994.193	2078.35
994.49	2050.1
994.787	2046.03
995.083	2051.46
995.379	2064.34
995.676	2069.54
995.972	2018.46
996.268	1991.57
996.565	1992.93
996.861	2007.84
997.157	1980.05
997.453	1966.26
997.749	1965.13
998.044	1953.61
998.34	1934.17
998.636	1923.1
998.932	1916.32
999.227	1930.1
999.523	1906.6
999.818	1865.93
1000.114	1868.41
1000.409	1868.19
1000.704	1836.1
1001	1854.4
1001.295	1852.37
1001.59	1842.42
1001.885	1837.45
1002.18	1829.09
1002.475	1767.17
1002.77	1801.97
1003.065	1788.64
1003.359	1802.65
1003.654	1763.78
1003.949	1765.36
1004.243	1748.41
1004.538	1723.56
1004.832	1731.92
1005.127	1712.48
1005.421	1715.87
1005.715	1726.04
1006.009	1723.1
1006.304	1696.44
1006.598	1705.93
1006.892	1660.96
1007.186	1633.39
1007.48	1646.5
1007.773	1652.37
1008.067	1613.5
1008.361	1615.08
1008.655	1618.7
1008.948	1584.8
1009.242	1569.89
1009.535	1624.12
1009.829	1556.33
1010.122	1581.19
1010.415	1574.41
1010.708	1559.27
1011.001	1517.69
1011.295	1533.05
1011.588	1539.61
1011.881	1495.09
1012.173	1521.75
1012.466	1496.67
1012.759	1485.14
1013.052	1476.78
1013.344	1462.77
1013.637	1485.82
1013.93	1444.24
1014.222	1449.44
1014.514	1435.88
1014.807	1461.87
1015.099	1427.97
1015.391	1414.86
1015.683	1450.8
1015.976	1420.51
1016.268	1389.78
1016.56	1412.38
1016.851	1392.49
1017.143	1364.7
1017.435	1374.19
1017.727	1338.03
1018.018	1337.13
1018.31	1345.49
1018.602	1340.52
1018.893	1363.11
1019.185	1308.88
1019.476	1298.26
1019.767	1303.91
1020.058	1324.02
1020.35	1281.31
1020.641	1229.11
1020.932	1278.37
1021.223	1246.05
1021.514	1230.91
1021.804	1246.73
1022.095	1224.13
1022.386	1238.15
1022.677	1222.78
1022.967	1192.27
1023.258	1207.64
1023.548	1214.64
1023.839	1185.72
1024.129	1201.08
1024.419	1195.43
1024.709	1190.69
1025	1153.18
1025.29	1156.34
1025.58	1127.64
1025.87	1140.07
1026.16	1127.64
1026.449	1129.67
1026.739	1121.54
1027.029	1126.51
1027.319	1119.96
1027.608	1105.95
1027.898	1091.03
1028.187	1096
1028.477	1076.79
1028.766	1068.43
1029.055	1084.7
1029.344	1074.99
1029.634	1057.36
1029.923	1034.53
1030.212	1038.83
1030.501	1010.35
1030.79	1015.33
1031.078	1039.96
1031.367	1015.55
1031.656	988.66
1031.945	978.72
1032.233	979.85
1032.522	962.9
1032.81	998.15
1033.099	987.53
1033.387	976.91
1033.675	975.1
1033.963	951.15
1034.251	955.67
1034.54	939.62
1034.828	937.14
1035.116	924.26
1035.403	925.16
1035.691	902.56
1035.979	937.14
1036.267	895.33
1036.554	914.31
1036.842	902.56
1037.129	889.68
1037.417	901.88
1037.704	874.77
1037.992	871.38
1038.279	889.68
1038.566	865.5
1038.853	865.5
1039.14	865.5
