Data from hue_170_FLMS001491_00059.txt Node
Date: Tue Feb 07 16:48:54 GMT 2017
User: dcchb
Spectrometer: FLMS00149
Trigger mode: 0
Integration Time (sec): 2.000000E-2
Scans to average: 10
Electric dark correction enabled: true
Nonlinearity correction enabled: false
Boxcar width: 0
XAxis mode: Wavelengths
Number of Pixels in Spectrum: 2048
>>>>>Begin Spectral Data<<<<<
341.393	13.16
341.776	13.16
342.16	13.16
342.543	-65.03
342.927	-58.02
343.31	-71.81
343.693	-69.77
344.077	-76.1
344.46	-33.16
344.843	-41.75
345.226	-54.86
345.61	-9.43
345.993	-25.48
346.376	-1.07
346.759	3.45
347.142	20.62
347.525	44.58
347.908	45.25
348.291	61.3
348.674	101.07
349.057	107.17
349.44	114.86
349.823	138.81
350.206	179.71
350.588	204.57
350.971	206.83
351.354	222.88
351.737	254.51
352.119	253.16
352.502	259.26
352.884	266.26
353.267	289.99
353.65	298.58
354.032	323.66
354.414	290.44
354.797	308.97
355.179	309.65
355.562	319.82
355.944	316.21
356.326	321.4
356.709	347.84
357.091	348.3
357.473	364.57
357.855	353.95
358.238	330.9
358.62	328.64
359.002	346.71
359.384	341.29
359.766	331.35
360.148	327.73
360.53	339.48
360.912	330.9
361.294	346.94
361.676	337.22
362.057	315.3
362.439	341.06
362.821	321.63
363.203	353.72
363.584	330.22
363.966	339.71
364.348	334.28
364.729	344.68
365.111	318.01
365.493	334.74
365.874	321.86
366.256	329.99
366.637	341.74
367.019	316.88
367.4	337.9
367.781	315.3
368.163	314.85
368.544	316.66
368.925	328.86
369.306	314.4
369.688	314.62
370.069	323.44
370.45	301.52
370.831	328.86
371.212	307.85
371.593	327.51
371.974	327.51
372.355	310.33
372.736	307.17
373.117	315.3
373.498	335.64
373.879	331.12
374.26	300.61
374.641	315.08
375.021	306.94
375.402	327.96
375.783	330.44
376.163	319.14
376.544	329.54
376.925	320.73
377.305	327.05
377.686	338.8
378.066	346.26
378.447	337.9
378.827	323.66
379.208	312.36
379.588	348.07
379.968	344.91
380.349	338.8
380.729	329.09
381.109	337.9
381.489	337.9
381.87	324.34
382.25	338.8
382.63	311.46
383.01	325.47
383.39	347.62
383.77	346.26
384.15	357.79
384.53	351.46
384.91	340.39
385.29	350.33
385.67	358.01
386.049	356.66
386.429	359.37
386.809	347.39
387.189	358.01
387.568	349.65
387.948	353.49
388.328	359.14
388.707	361.18
389.087	362.76
389.466	354.4
389.846	370.89
390.225	374.28
390.605	368.63
390.984	358.01
391.363	377.9
391.743	365.24
392.122	371.35
392.501	381.06
392.881	392.81
393.26	375.87
393.639	374.28
394.018	361.63
394.397	374.51
394.776	384.91
395.155	394.17
395.534	381.29
395.913	367.5
396.292	377.9
396.671	401.4
397.05	404.11
397.429	395.07
397.808	391.01
398.186	394.17
398.565	397.79
398.944	410.44
399.323	404.11
399.701	414.28
400.08	422.19
400.458	415.86
400.837	394.85
401.215	411.12
401.594	404.34
401.972	398.01
402.351	432.36
402.729	421.97
403.107	413.6
403.486	418.35
403.864	416.99
404.242	428.07
404.62	431.01
404.999	448.86
405.377	449.99
405.755	450.44
406.133	433.27
406.511	430.55
406.889	442.3
407.267	449.99
407.645	465.35
408.023	462.87
408.401	467.61
408.779	471.68
409.156	452.7
409.534	491.34
409.912	493.15
410.29	482.08
410.667	476.65
411.045	495.18
411.422	496.77
411.8	511.91
412.178	521.4
412.555	543.55
412.933	512.36
413.31	517.56
413.687	516.65
414.065	548.52
414.442	559.59
414.819	530.44
415.197	553.04
415.574	566.6
415.951	553.04
416.328	597.1
416.705	576.09
417.082	535.41
417.46	560.04
417.837	560.49
418.214	574.5
418.591	575.18
418.967	616.09
419.344	602.98
419.721	629.19
420.098	627.61
420.475	609.53
420.852	615.63
421.228	642.53
421.605	654.95
421.982	645.92
422.358	659.25
422.735	666.03
423.111	652.69
423.488	681.39
423.864	653.6
424.241	660.6
424.617	705.12
424.994	713.03
425.37	718.46
425.746	699.93
426.123	721.85
426.499	715.52
426.875	732.24
427.251	712.58
427.627	751.45
428.003	734.5
428.379	750.77
428.756	770.21
429.132	777.21
429.507	798.91
429.883	775.63
430.259	773.6
430.635	824.22
431.011	821.73
431.387	826.93
431.763	811.56
432.138	829.87
432.514	856.53
432.89	865.12
433.265	875.51
433.641	915.06
434.016	889.52
434.392	915.29
434.767	919.81
435.143	919.81
435.518	912.12
435.894	948.73
436.269	931.78
436.644	993.02
437.02	981.27
437.395	991.22
437.77	986.25
438.145	1026.24
438.52	1050.2
438.895	1030.31
439.271	1036.64
439.646	1095.85
440.021	1063.31
440.395	1089.97
440.77	1076.19
441.145	1095.62
441.52	1126.58
441.895	1121.38
442.27	1118.45
442.645	1134.26
443.019	1139.46
443.394	1167.26
443.769	1180.82
444.143	1170.87
444.518	1203.19
444.892	1199.8
445.267	1214.26
445.641	1186.92
446.016	1221.04
446.39	1227.59
446.764	1235.73
447.139	1221.27
447.513	1272.11
447.887	1234.6
448.262	1258.1
448.636	1297.42
449.01	1275.96
449.384	1306.24
449.758	1318.67
450.132	1343.07
450.506	1330.64
450.88	1361.15
451.254	1387.36
451.628	1360.25
452.002	1402.28
452.376	1389.85
452.75	1425.1
453.123	1400.47
453.497	1450.19
453.871	1488.6
454.244	1471.43
454.618	1513.24
454.992	1515.27
455.365	1501.03
455.739	1543.07
456.112	1589.62
456.486	1604.53
456.859	1574.48
457.232	1617.64
457.606	1609.05
457.979	1667.58
458.352	1689.96
458.725	1701.48
459.099	1730.41
459.472	1733.57
459.845	1760.01
460.218	1764.3
460.591	1793.46
460.964	1791.65
461.337	1850.63
461.71	1884.75
462.083	1905.09
462.456	1932.89
462.829	1936.73
463.201	1992.55
463.574	2011.3
463.947	2002.04
464.32	2070.06
464.692	2111.41
465.065	2063.73
465.438	2127.23
465.81	2166.1
466.183	2190.96
466.555	2237.51
466.928	2267.12
467.3	2253.78
467.672	2328.13
468.045	2367.9
468.417	2411.07
468.789	2404.51
469.161	2431.4
469.534	2500.56
469.906	2552.08
470.278	2603.15
470.65	2627.56
471.022	2679.53
471.394	2752.07
471.766	2758.4
472.138	2860.09
472.51	2902.58
472.882	2983.48
473.253	2994.78
473.625	3056.25
473.997	3150.93
474.369	3166.98
474.74	3230.93
475.112	3307.09
475.484	3370.59
475.855	3461.21
476.227	3503.47
476.598	3615.1
476.97	3638.6
477.341	3801.99
477.713	3810.35
478.084	3906.85
478.455	4003.34
478.827	4067.97
479.198	4235.2
479.569	4255.76
479.94	4423.89
480.311	4442.88
480.682	4604
481.053	4721.06
481.424	4846.26
481.795	4928.51
482.166	5020.49
482.537	5110.2
482.908	5238.34
483.279	5318.79
483.65	5478.78
484.021	5627.03
484.391	5716.97
484.762	5802.16
485.133	5846.23
485.503	5981.82
485.874	6228.37
486.244	6272.89
486.615	6496.61
486.985	6601.24
487.356	6714.46
487.726	6747
488.097	7029.93
488.467	7019.98
488.837	7295.23
489.207	7377.04
489.578	7539.75
489.948	7643.47
490.318	7803.69
490.688	7837.36
491.058	8015.66
491.428	8180.86
491.798	8303.57
492.168	8499.04
492.538	8543.79
492.908	8658.36
493.278	8946.94
493.648	8891.8
494.017	9028.75
494.387	9115.97
494.757	9301.28
495.126	9371.34
495.496	9412.01
495.866	9605.91
496.235	9630.54
496.605	9794.83
496.974	9911.89
497.344	10004.99
497.713	10101.26
498.082	10158.43
498.452	10339.9
498.821	10372.21
499.19	10437.75
499.559	10587.35
499.928	10694.01
500.298	10717.97
500.667	10842.03
501.036	10862.37
501.405	10948.24
501.774	11017.39
502.143	11145.53
502.512	11181.46
502.88	11238.86
503.249	11339.19
503.618	11411.06
503.987	11415.58
504.356	11474.56
504.724	11574.67
505.093	11600.88
505.462	11656.7
505.83	11753.65
506.199	11827.54
506.567	11975.56
506.936	11984.83
507.304	12110.25
507.672	12071.15
508.041	12093.07
508.409	12163.58
508.777	12290.35
509.145	12391.6
509.514	12412.39
509.882	12382.78
510.25	12450.8
510.618	12502.55
510.986	12553.17
511.354	12646.5
511.722	12773.73
512.09	12838.81
512.458	12783.9
512.826	12876.33
513.193	12936.89
513.561	12934.63
513.929	12961.75
514.297	13068.19
514.664	13075.87
515.032	13164
515.4	13206.49
515.767	13202.87
516.135	13234.51
516.502	13126.72
516.869	13327.84
517.237	13377.78
517.604	13321.74
517.972	13399.93
518.339	13480.15
518.706	13384.56
519.073	13398.8
519.44	13491.45
519.808	13571
520.175	13557.89
520.542	13662.75
520.909	13698.45
521.276	13616.2
521.643	13738.45
522.009	13770.32
522.376	13871.78
522.743	13811.67
523.11	13940.03
523.477	13944.77
523.843	14064.09
524.21	14045.56
524.577	14111.78
524.943	14106.8
525.31	14070.87
525.676	14212.11
526.043	14204.88
526.409	14254.6
526.776	14290.98
527.142	14261.83
527.508	14323.52
527.874	14409.17
528.241	14389.96
528.607	14315.84
528.973	14465.89
529.339	14319.45
529.705	14425.44
530.071	14524.19
530.437	14451.2
530.803	14348.38
531.169	14419.56
531.535	14396.06
531.901	14356.74
532.267	14368.94
532.632	14434.48
532.998	14392.9
533.364	14430.64
533.73	14341.15
534.095	14372.79
534.461	14380.7
534.826	14461.15
535.192	14366.46
535.557	14369.4
535.923	14305.67
536.288	14283.52
536.653	14243.98
537.019	14189.51
537.384	14171.21
537.749	14234.26
538.114	14236.29
538.479	14122.17
538.845	14159.23
539.21	14050.76
539.575	14061.38
539.94	14070.2
540.305	14063.19
540.67	14009.41
541.034	13831.33
541.399	13951.33
541.764	13959.01
542.129	13917.88
542.494	13869.52
542.858	13802.63
543.223	13746.81
543.587	13846.7
543.952	13743.65
544.316	13674.73
544.681	13598.79
545.045	13670.88
545.41	13621.85
545.774	13566.25
546.138	13553.15
546.503	13453.71
546.867	13490.1
547.231	13419.82
547.595	13378.24
547.959	13393.38
548.324	13318.58
548.688	13241.52
549.052	13280.61
549.416	13187.96
549.779	13168.52
550.143	13138.24
550.507	13190.9
550.871	13131.69
551.235	13101.18
551.599	13143.67
551.962	13054.18
552.326	13058.7
552.689	13064.57
553.053	12970.79
553.417	12989.32
553.78	13018.25
554.143	12902.77
554.507	12880.4
554.87	12917.68
555.234	12961.75
555.597	12809.44
555.96	12857.35
556.323	12836.56
556.686	12797.46
557.05	12794.3
557.413	12780.51
557.776	12773.05
558.139	12746.61
558.502	12764.47
558.865	12725.15
559.228	12767.86
559.59	12768.99
559.953	12730.12
560.316	12790
560.679	12823.9
561.041	12779.38
561.404	12723.79
561.767	12834.07
562.129	12783.9
562.492	12796.33
562.854	12775.31
563.217	12778.03
563.579	12767.4
563.941	12759.95
564.304	12770.12
564.666	12778.48
565.028	12817.35
565.39	12809.44
565.753	12811.7
566.115	12836.78
566.477	12814.18
566.839	12879.94
567.201	12876.33
567.563	12790.45
567.925	12888.98
568.287	12776.44
568.648	12912.26
569.01	12867.29
569.372	12957.46
569.734	12950.22
570.095	12883.56
570.457	13014.86
570.819	12933.28
571.18	12861.87
571.542	13067.06
571.903	12935.99
572.265	12975.53
572.626	13101.63
572.987	13034.06
573.349	13089.2
573.71	12987.29
574.071	13038.58
574.432	13102.99
574.794	13147.96
575.155	13148.19
575.516	13013.95
575.877	13095.98
576.238	13120.39
576.599	13093.5
576.96	13155.64
577.32	13076.77
577.681	13146.6
578.042	13229.31
578.403	13229.31
578.763	13141.41
579.124	13174.63
579.485	13195.19
579.845	13212.59
580.206	13224.57
580.566	13146.83
580.927	13166.49
581.287	13197
581.648	13114.97
582.008	13191.8
582.368	13145.93
582.728	13073.16
583.089	13070.9
583.449	13125.81
583.809	13111.35
584.169	13143.67
584.529	13070.67
584.889	13155.19
585.249	13025.7
585.609	12993.16
585.969	13123.1
586.329	13023.89
586.688	13028.41
587.048	13062.99
587.408	13021.64
587.768	12994.52
588.127	12999.04
588.487	12937.34
588.846	13024.12
589.206	12917
589.565	12987.74
589.925	13010.56
590.284	12885.37
590.643	12945.7
591.003	12879.72
591.362	12937.57
591.721	12889.66
592.08	12943.22
592.44	12934.63
592.799	12933.73
593.158	12960.85
593.517	12878.36
593.876	12899.38
594.235	12823
594.593	12970.34
594.952	12913.39
595.311	12888.98
595.67	12905.71
596.029	12961.98
596.387	12916.33
596.746	12901.41
597.104	12921.75
597.463	12872.49
597.822	12903.9
598.18	12847.85
598.538	12794.97
598.897	12894.63
599.255	12876.1
599.613	12975.76
599.972	12859.38
600.33	12783.9
600.688	12798.36
601.046	12775.99
601.404	12902.32
601.762	12831.13
602.12	12792.71
602.478	12886.05
602.836	12890.34
603.194	12797.23
603.552	12775.54
603.91	12770.34
604.268	12823.67
604.625	12731.47
604.983	12854.18
605.341	12714.52
605.698	12827.29
606.056	12843.56
606.413	12876.1
606.771	12919.04
607.128	12900.96
607.485	12805.37
607.843	12871.36
608.2	12845.59
608.557	12888.31
608.914	12898.7
609.272	12868.64
609.629	12934.41
609.986	12991.13
610.343	12849.21
610.7	13021.41
611.057	12998.36
611.414	12948.87
611.771	12900.96
612.127	12949.32
612.484	12979.6
612.841	13001.75
613.198	12958.36
613.554	13074.29
613.911	13059.6
614.267	13093.5
614.624	13015.53
614.98	13081.52
615.337	13054.18
615.693	13039.71
616.05	13032.48
616.406	13110.22
616.762	13130.11
617.118	13067.96
617.475	13107.73
617.831	13060.5
618.187	13102.76
618.543	13134.63
618.899	13156.09
619.255	13090.79
619.611	13131.91
619.967	13240.84
620.323	13169.65
620.678	13150.67
621.034	13146.15
621.39	13165.36
621.746	13070.22
622.101	13286.26
622.457	13190.9
622.812	13191.57
623.168	13157.9
623.523	13222.31
623.879	13217.79
624.234	13194.51
624.589	13198.13
624.945	13266.15
625.3	13172.59
625.655	13187.73
626.01	13198.13
626.365	13178.02
626.72	13201.97
627.075	13228.64
627.43	13167.85
627.785	13123.33
628.14	13131.91
628.495	13169.43
628.85	13126.04
629.205	13132.82
629.559	13225.25
629.914	13093.72
630.269	13159.03
630.623	13074.06
630.978	13083.78
631.332	13063.67
631.687	13053.5
632.041	12951.35
632.396	12970.11
632.75	12933.28
633.104	13023.89
633.459	12998.36
633.813	13009.88
634.167	12953.16
634.521	12932.15
634.875	12878.36
635.229	12865.25
635.583	12829.78
635.937	12837.46
636.291	12830
636.645	12853.73
636.999	12778.25
637.352	12840.85
637.706	12744.58
638.06	12687.86
638.413	12740.06
638.767	12723.56
639.121	12653.51
639.474	12691.25
639.828	12598.82
640.181	12691.47
640.534	12668.42
640.888	12666.39
641.241	12688.99
641.594	12654.19
641.947	12731.02
642.301	12589.56
642.654	12649.44
643.007	12617.58
643.36	12585.94
643.713	12594.98
644.066	12568.09
644.419	12554.53
644.771	12524.25
645.124	12406.28
645.477	12346.4
645.83	12258.04
646.182	12200.64
646.535	12168.78
646.888	12225.5
647.24	12153.64
647.593	12166.74
647.945	12163.58
648.298	12074.77
648.65	12082.45
649.002	12103.24
649.355	12172.39
649.707	12187.98
650.059	12287.42
650.411	12406.51
650.763	12466.85
651.115	12475.43
651.467	12470.69
651.819	12440.86
652.171	12450.35
652.523	12371.71
652.875	12424.36
653.227	12374.87
653.578	12371.03
653.93	12465.49
654.282	12370.13
654.633	12299.17
654.985	12309.56
655.337	12481.08
655.688	12426.62
656.039	12485.15
656.391	12392.5
656.742	12409.22
657.094	12396.79
657.445	12387.08
657.796	12415.1
658.147	12401.76
658.498	12455.55
658.849	12450.12
659.2	12390.01
659.551	12340.97
659.902	12461.65
660.253	12463.23
660.604	12431.37
660.955	12406.28
661.306	12397.47
661.656	12513.4
662.007	12413.74
662.358	12426.17
662.708	12547.3
663.059	12473.85
663.409	12359.73
663.76	12469.79
664.11	12531.03
664.461	12457.58
664.811	12463.91
665.161	12480.41
665.511	12457.36
665.862	12489.9
666.212	12512.27
666.562	12499.61
666.912	12461.88
667.262	12499.16
667.612	12444.48
667.962	12452.84
668.312	12457.36
668.662	12528.54
669.011	12449.45
669.361	12428.66
669.711	12414.19
670.06	12455.32
670.41	12422.55
670.76	12316.34
671.109	12533.74
671.459	12327.87
671.808	12413.74
672.157	12410.58
672.507	12330.35
672.856	12330.81
673.205	12369.45
673.554	12454.87
673.904	12328.32
674.253	12429.56
674.602	12365.61
674.951	12193.86
675.3	12126.97
675.649	12335.33
675.998	12311.6
676.346	12253.52
676.695	12335.55
677.044	12238.38
677.393	12249.45
677.741	12270.24
678.09	12167.87
678.438	12223.46
678.787	12112.28
679.135	12169.23
679.484	12127.2
679.832	12132.62
680.181	12046.75
680.529	12137.14
680.877	12024.83
681.225	12023.24
681.573	12133.97
681.922	12078.61
682.27	11970.82
682.618	12061.66
682.966	11979.85
683.314	11909.57
683.661	12033.19
684.009	11902.34
684.357	11937.37
684.705	11861.67
685.053	11882
685.4	11844.26
685.748	11763.14
686.095	11760.2
686.443	11697.38
686.79	11698.96
687.138	11739.63
687.485	11695.34
687.832	11567.44
688.18	11641.56
688.527	11523.82
688.874	11603.59
689.221	11539.87
689.568	11479.75
689.915	11474.33
690.262	11411.96
690.609	11403.6
690.956	11266.65
691.303	11245.64
691.65	11252.64
691.997	11277.5
692.344	11192.98
692.69	11176.49
693.037	11119.99
693.383	11036.83
693.73	11078.64
694.077	11025.08
694.423	11022.37
694.769	10934.46
695.116	10942.59
695.462	10851.07
695.808	10911.63
696.155	10913.22
696.501	10749.83
696.847	10750.28
697.193	10680
697.539	10695.59
697.885	10629.16
698.231	10640.23
698.577	10550.29
698.923	10543.28
699.269	10496.28
699.614	10443.85
699.96	10376.73
700.306	10385.77
700.651	10359.56
700.997	10309.39
701.342	10251.99
701.688	10187.59
702.033	10209.28
702.379	10203.86
702.724	10139.9
703.069	10100.81
703.415	10010.19
703.76	10074.59
704.105	10045.67
704.45	9992.34
704.795	9920.93
705.14	9985.56
705.485	9902.85
705.83	9769.07
706.175	9897.2
706.52	9814.71
706.865	9703.76
707.209	9732.23
707.554	9718.22
707.899	9767.94
708.243	9616.98
708.588	9636.19
708.932	9588.73
709.277	9501.28
709.621	9560.94
709.966	9462.86
710.31	9533.82
710.654	9397.1
710.998	9361.17
711.342	9423.09
711.687	9303.09
712.031	9390.54
712.375	9343.77
712.719	9363.2
713.063	9314.84
713.407	9299.92
713.75	9202.53
714.094	9233.03
714.438	9266.71
714.782	9186.03
715.125	9200.72
715.469	9211.79
715.812	9086.6
716.156	9109.42
716.499	9063.32
716.843	9102.42
717.186	9076.43
717.53	9120.72
717.873	9056.77
718.216	9108.07
718.559	9055.86
718.902	8942.42
719.246	8955.98
719.589	8980.39
719.932	8910.1
720.275	8920.27
720.617	8939.48
720.96	8918.47
721.303	8869.43
721.646	8948.3
721.989	8858.13
722.331	8889.31
722.674	8871.69
723.016	8924.57
723.359	8860.16
723.701	8899.48
724.044	8841.41
724.386	8856.09
724.729	8861.97
725.071	8755.76
725.413	8808.19
725.755	8838.92
726.097	8801.63
726.439	8706.04
726.782	8723.44
727.124	8724.12
727.465	8777.68
727.807	8699.26
728.149	8789.43
728.491	8651.58
728.833	8735.19
729.175	8684.12
729.516	8714.86
729.858	8655.42
730.199	8719.83
730.541	8641.86
730.882	8685.93
731.224	8711.24
731.565	8651.81
731.906	8639.6
732.248	8631.02
732.589	8674.63
732.93	8676.21
733.271	8649.55
733.612	8641.19
733.953	8648.64
734.294	8669.66
734.635	8644.35
734.976	8645.7
735.317	8660.17
735.658	8628.98
735.999	8644.12
736.339	8704.01
736.68	8630.11
737.021	8645.48
737.361	8665.59
737.702	8670.79
738.042	8652.03
738.383	8659.72
738.723	8686.61
739.063	8701.97
739.404	8713.05
739.744	8692.26
740.084	8671.92
740.424	8701.52
740.764	8758.92
741.104	8788.3
741.444	8791.01
741.784	8802.54
742.124	8874.17
742.464	8864.91
742.804	8878.69
743.143	8822.65
743.483	8835.98
743.823	8875.98
744.162	8829.65
744.502	8998.92
744.841	8971.35
745.181	9018.35
745.52	8982.87
745.86	9037.78
746.199	9082.53
746.538	9108.07
746.877	9219.02
747.216	9216.99
747.556	9281.62
747.895	9331.34
748.234	9355.29
748.573	9338.57
748.911	9418.79
749.25	9571.33
749.589	9587.83
749.928	9673.02
750.267	9721.83
750.605	9752.34
750.944	9907.82
751.283	9877.99
751.621	9995.27
751.96	10044.54
752.298	10160.47
752.636	10293.57
752.975	10298.99
753.313	10391.87
753.651	10545.09
753.989	10571.3
754.327	10752.99
754.666	10797.51
755.004	11032.31
755.342	11098.97
755.679	11239.31
756.017	11327.89
756.355	11454.67
756.693	11573.76
757.031	11719.52
757.368	11871.38
757.706	11991.83
758.044	12093.07
758.381	12279.96
758.719	12430.01
759.056	12630.23
759.394	12796.1
759.731	12852.83
760.068	13081.97
760.405	13238.35
760.743	13400.16
761.08	13588.4
761.417	13667.04
761.754	13886.02
762.091	14108.16
762.428	14134.6
762.765	14355.39
763.102	14627.47
763.438	14697.3
763.775	14778.65
764.112	14939.1
764.449	15183.84
764.785	15289.37
765.122	15338.18
765.458	15538.63
765.795	15719.64
766.131	15875.8
766.467	15968
766.804	16203.25
767.14	16219.74
767.476	16376.58
767.812	16510.36
768.148	16643.91
768.485	16732.72
768.821	16887.3
769.157	17038.03
769.492	17095.88
769.828	17252.48
770.164	17270.56
770.5	17376.55
770.836	17588.07
771.171	17548.52
771.507	17686.37
771.842	17732.92
772.178	17838.46
772.513	17945.57
772.849	18010.66
773.184	17972.24
773.519	18097.21
773.855	18197.77
774.19	18259.24
774.525	18355.96
774.86	18519.57
775.195	18555.05
775.53	18496.29
775.865	18537.2
776.2	18527.7
776.535	18612.22
776.87	18620.58
777.205	18662.84
777.539	18648.61
777.874	18804.76
778.209	18662.16
778.543	18705.78
778.878	18783.29
779.212	18770.64
779.547	18870.97
779.881	18837.53
780.215	18736.29
780.55	18877.53
780.884	18890.86
781.218	18868.94
781.552	18927.24
781.886	18959.11
782.22	18912.33
782.554	18910.29
782.888	18810.41
783.222	18756.4
783.556	18782.84
783.889	18867.36
784.223	18683.41
784.557	18677.31
784.89	18757.08
785.224	18597.99
785.557	18635.5
785.891	18663.97
786.224	18662.16
786.558	18714.37
786.891	18634.59
787.224	18534.94
787.557	18576.52
787.891	18488.61
788.224	18531.77
788.557	18621.04
788.89	18515.95
789.223	18509.17
789.556	18303.98
789.888	18410.87
790.221	18412
790.554	18243.42
790.887	18247.03
791.219	18233.93
791.552	18183.99
791.884	18183.08
792.217	18123.2
792.549	18093.82
792.882	18014.95
793.214	18052.69
793.546	17933.37
793.879	17848.63
794.211	17805.92
794.543	17977.89
794.875	17815.86
795.207	17998.91
795.539	17838.46
795.871	17871.23
796.203	17741.51
796.535	17678.91
796.867	17620.38
797.198	17551.23
797.53	17564.11
797.862	17384.68
798.193	17517.79
798.525	17400.05
798.856	17428.3
799.188	17250.22
799.519	17192.6
799.85	17240.73
800.182	17198.93
800.513	17138.81
800.844	16989.67
801.175	17170.45
801.506	17153.73
801.837	17095.2
802.168	17022.43
802.499	16987.41
802.83	16826.28
803.161	16891.82
803.491	16878.71
803.822	16892.04
804.153	16797.13
804.483	16688.66
804.814	16708.09
805.145	16650.01
805.475	16718.49
805.805	16601.88
806.136	16594.42
806.466	16585.61
806.796	16478.49
807.126	16368.67
807.457	16372.96
807.787	16388.55
808.117	16313.3
808.447	16162.12
808.777	16332.51
809.107	16221.55
809.436	16086.41
809.766	16151.72
810.096	16060.88
810.426	16003.03
810.755	16055.23
811.085	16059.3
811.414	16033.53
811.744	15854.1
812.073	15927.55
812.403	15869.92
812.732	15842.58
813.061	15803.71
813.39	15734.56
813.719	15803.26
814.049	15741.34
814.378	15784.5
814.707	15689.14
815.036	15581.34
815.365	15538.18
815.693	15350.16
816.022	15443.49
816.351	15525.75
816.68	15308.58
817.008	15376.6
817.337	15198.3
817.665	15271.07
817.994	15276.49
818.322	15255.25
818.651	15174.35
818.979	15094.57
819.307	15226.77
819.636	15165.53
819.964	15085.31
820.292	15206.66
820.62	15065.88
820.948	15134.8
821.276	15134.8
821.604	15105.65
821.932	15055.48
822.259	15118.98
822.587	15109.49
822.915	15040.79
823.243	15150.62
823.57	14945.2
823.898	15065.65
824.225	14988.36
824.553	15043.28
824.88	15073.33
825.207	15133.67
825.535	15077.4
825.862	15182.26
826.189	15013.9
826.516	15107.23
826.843	15116.5
827.17	15133.22
827.497	15186.55
827.824	15160.34
828.151	15108.81
828.478	15101.81
828.805	15100.45
829.131	15133.67
829.458	15108.59
829.785	15049.15
830.111	15088.47
830.438	15094.57
830.764	15118.76
831.09	15132.54
831.417	15023.62
831.743	15085.08
832.069	15024.52
832.395	15044.18
832.722	15026.55
833.048	15000.11
833.374	15069.26
833.7	14923.73
834.026	14962.37
834.351	15038.53
834.677	14927.12
835.003	15005.09
835.329	15040.34
835.654	14887.8
835.98	14878.76
836.306	14929.61
836.631	14862.72
836.956	14792.89
837.282	14897.97
837.607	14779.1
837.932	14820.23
838.258	14794.7
838.583	14711.76
838.908	14773
839.233	14821.59
839.558	14678.99
839.883	14574.14
840.208	14572.55
840.533	14568.26
840.858	14480.13
841.182	14581.37
841.507	14479
841.832	14468.83
842.156	14445.78
842.481	14432.9
842.805	14376.85
843.13	14377.08
843.454	14382.73
843.778	14255.5
844.103	14250.76
844.427	14139.12
844.751	14220.47
845.075	14180.93
845.399	14099.12
845.723	14005.34
846.047	13976.19
846.371	13941.38
846.695	13864.1
847.019	13820.03
847.343	13805.57
847.666	13655.97
847.99	13654.16
848.313	13666.14
848.637	13571.68
848.96	13554.73
849.284	13500.49
849.607	13444.9
849.931	13434.73
850.254	13321.97
850.577	13251.91
850.9	13159.94
851.223	13181.18
851.546	13091.92
851.869	12986.83
852.192	13122.42
852.515	12943.44
852.838	12912.03
853.161	12844.24
853.483	12876.33
853.806	12722.43
854.129	12696.22
854.451	12596.79
854.774	12646.96
855.096	12609.22
855.419	12554.75
855.741	12591.82
856.063	12494.87
856.385	12475.66
856.708	12386.62
857.03	12330.58
857.352	12335.33
857.674	12317.25
857.996	12309.11
858.318	12136.69
858.64	12209.68
858.961	12154.99
859.283	12190.7
859.605	12029.12
859.926	12034.54
860.248	12040.87
860.57	11980.76
860.891	12037.71
861.212	11975.33
861.534	11950.48
861.855	11816.47
862.176	11916.13
862.498	11771.27
862.819	11885.17
863.14	11783.02
863.461	11767.2
863.782	11754.55
864.103	11724.49
864.424	11747.54
864.745	11759.75
865.065	11634.55
865.386	11598.85
865.707	11579.19
866.027	11612.18
866.348	11546.87
866.668	11588.45
866.989	11509.36
867.309	11440.21
867.63	11462.13
867.95	11550.71
868.27	11412.41
868.59	11406.54
868.91	11373.77
869.23	11414.67
869.55	11361.11
869.87	11319.76
870.19	11346.65
870.51	11321.11
870.83	11376.71
871.15	11292.41
871.469	11275.69
871.789	11298.74
872.109	11248.8
872.428	11152.08
872.748	11170.84
873.067	11115.24
873.386	11215.81
873.706	11193.89
874.025	11101.23
874.344	11045.42
874.663	11008.13
874.982	11046.55
875.301	11168.12
875.62	11053.55
875.939	11022.14
876.258	11010.61
876.577	10992.76
876.896	10958.41
877.214	10912.31
877.533	10934.46
877.852	10931.52
878.17	10914.8
878.489	10906.44
878.807	10873.44
879.125	10844.07
879.444	10872.99
879.762	10779.21
880.08	10789.83
880.398	10758.87
880.716	10748.02
881.034	10731.3
881.352	10735.82
881.67	10703.73
881.988	10668.02
882.306	10652.88
882.624	10627.12
882.941	10562.26
883.259	10509.16
883.577	10505.99
883.894	10495.37
884.212	10468.93
884.529	10589.38
884.846	10352.78
885.164	10443.17
885.481	10302.84
885.798	10373.57
886.115	10401.14
886.432	10320.46
886.75	10358.65
887.067	10254.93
887.383	10228.49
887.7	10276.17
888.017	10269.62
888.334	10214.7
888.651	10119.79
888.967	10189.39
889.284	10099.68
889.6	10120.92
889.917	10003.64
890.233	9972.9
890.55	10027.59
890.866	9989.62
891.182	9932.22
891.498	9849.29
891.815	9790.53
892.131	9811.55
892.447	9784.43
892.763	9810.65
893.079	9741.95
893.395	9777.65
893.71	9665.11
894.026	9703.3
894.342	9601.61
894.657	9523.42
894.973	9575.4
895.289	9615.62
895.604	9485.23
895.92	9420.83
896.235	9393.26
896.55	9425.35
896.865	9373.6
897.181	9313.71
897.496	9362.97
897.811	9337.89
898.126	9241.17
898.441	9150.55
898.756	9113.49
899.071	9144
899.386	9169.08
899.7	9061.06
900.015	9032.36
900.33	8943.78
900.644	8927.51
900.959	8969.31
901.273	8892.03
901.588	8819.71
901.902	8838.02
902.216	8796.44
902.531	8736.55
902.845	8784.23
903.159	8688.42
903.473	8635.31
903.787	8592.82
904.101	8582.66
904.415	8568.19
904.729	8543.33
905.042	8529.55
905.356	8470.57
905.67	8463.56
905.984	8372.94
906.297	8338.59
906.611	8350.8
906.924	8326.39
907.237	8297.69
907.551	8296.34
907.864	8267.41
908.177	8177.92
908.491	8195.1
908.804	8136.79
909.117	8060.41
909.43	8014.99
909.743	8033.52
910.056	7956.23
910.368	7916.46
910.681	7981.77
910.994	7904.26
911.307	7952.39
911.619	7790.59
911.932	7795.11
912.244	7818.38
912.557	7802.79
912.869	7703.81
913.181	7623.13
913.494	7693.87
913.806	7606.41
914.118	7566.41
914.43	7560.99
914.742	7497.26
915.054	7484.83
915.366	7500.2
915.678	7406.19
915.99	7378.62
916.302	7355.8
916.613	7313.76
916.925	7313.31
917.236	7331.62
917.548	7236.02
917.859	7218.62
918.171	7128.46
918.482	7167.1
918.794	7109.47
919.105	7161.45
919.416	7082.13
919.727	7049.14
920.038	6983.6
920.349	6980.89
920.66	6955.35
920.971	6962.13
921.282	6907.67
921.593	6836.03
921.903	6868.12
922.214	6834.68
922.525	6760.1
922.835	6791.52
923.146	6729.37
923.456	6730.73
923.767	6699.09
924.077	6649.83
924.387	6593.1
924.697	6617.28
925.008	6565.31
925.318	6584.29
925.628	6535.03
925.938	6528.02
926.248	6415.03
926.558	6467.68
926.867	6415.71
927.177	6390.62
927.487	6445.99
927.796	6351.08
928.106	6269.5
928.416	6261.81
928.725	6283.06
929.034	6238.54
929.344	6202.15
929.653	6210.06
929.962	6151.99
930.271	6132.55
930.581	6085.32
930.89	6063.85
931.199	6013.91
931.508	6009.62
931.817	6008.71
932.125	5987.24
932.434	5966.68
932.743	5912.67
933.051	5891.88
933.36	5813.46
933.669	5832.22
933.977	5791.77
934.286	5836.06
934.594	5776.85
934.902	5739.34
935.21	5692.56
935.519	5725.1
935.827	5669.51
936.135	5694.14
936.443	5572.79
936.751	5565.56
937.059	5636.29
937.367	5527.82
937.674	5541.38
937.982	5537.09
938.29	5476.07
938.597	5527.37
938.905	5398.56
939.213	5425.68
939.52	5395.62
939.827	5374.6
940.135	5348.84
940.442	5354.27
940.749	5338.67
941.056	5270.2
941.363	5259.13
941.67	5248.05
941.977	5229.3
942.284	5156.53
942.591	5139.36
942.898	5154.27
943.205	5163.08
943.511	5140.94
943.818	5100.26
944.125	5050.77
944.431	5097.78
944.738	5027.27
945.044	5046.25
945.35	4994.95
945.657	4981.17
945.963	4982.98
946.269	4865.47
946.575	4947.95
946.881	4870.66
947.187	4839.25
947.493	4780.95
947.799	4867.95
948.105	4794.96
948.41	4755.19
948.716	4783.21
949.022	4760.84
949.327	4752.02
949.633	4674.06
949.938	4690.55
950.244	4681.06
950.549	4619.14
950.854	4622.31
951.16	4570.78
951.465	4571.24
951.77	4536.21
952.075	4517.9
952.38	4501.41
952.685	4526.27
952.99	4425.25
953.294	4451.92
953.599	4439.71
953.904	4411.01
954.209	4376.89
954.513	4392.48
954.818	4325.14
955.122	4341.41
955.426	4355.65
955.731	4312.26
956.035	4274.97
956.339	4246.27
956.643	4275.65
956.948	4212.6
957.252	4205.6
957.556	4207.18
957.86	4204.92
958.163	4133.96
958.467	4123.79
958.771	4149.78
959.075	4126.95
959.378	4115.43
959.682	4064.81
959.985	4047.86
960.289	4041.98
960.592	4009.44
960.896	4024.58
961.199	3994.53
961.502	3962.21
961.805	3928.09
962.108	3909.11
962.411	3918.15
962.714	3902.55
963.017	3875.43
963.32	3851.48
963.623	3819.84
963.926	3801.31
964.228	3843.57
964.531	3805.38
964.833	3777.13
965.136	3735.55
965.438	3756.12
965.741	3698.04
966.043	3716.57
966.345	3725.83
966.648	3668.89
966.95	3715.67
967.252	3638.83
967.554	3635.22
967.856	3625.5
968.158	3600.41
968.46	3552.05
968.761	3555.44
969.063	3561.54
969.365	3522.22
969.666	3533.97
969.968	3495.11
970.269	3497.14
970.571	3494.43
970.872	3497.82
971.174	3448.33
971.475	3421.44
971.776	3430.7
972.077	3431.15
972.378	3387.76
972.679	3375.56
972.98	3380.08
973.281	3365.84
973.582	3341.66
973.883	3310.25
974.183	3307.54
974.484	3263.7
974.785	3276.58
975.085	3263.47
975.386	3249.46
975.686	3239.52
975.986	3222.8
976.287	3197.26
976.587	3178.96
976.887	3172.85
977.187	3161.56
977.487	3101.67
977.787	3142.8
978.087	3085.17
978.387	3067.09
978.687	3108.45
978.987	3096.92
979.286	3060.54
979.586	3040.65
979.885	3025.51
980.185	3033.42
980.484	3049.02
980.784	2999.07
981.083	2983.93
981.382	2981.22
981.682	2981.67
981.981	2941.45
982.28	2897.83
982.579	2910.49
982.878	2891.73
983.177	2862.13
983.475	2851.96
983.774	2880.66
984.073	2865.74
984.372	2803.15
984.67	2825.07
984.969	2799.53
985.267	2789.81
985.566	2812.41
985.864	2772.41
986.162	2769.93
986.461	2753.66
986.759	2737.39
987.057	2753.43
987.355	2682.02
987.653	2722.7
987.951	2661.91
988.249	2651.74
988.547	2648.8
988.844	2639.54
989.142	2684.73
989.44	2652.87
989.737	2619.42
990.035	2598.86
990.332	2590.72
990.63	2602.7
990.927	2604.06
991.224	2566.54
991.521	2510.27
991.819	2540.1
992.116	2518.63
992.413	2524.51
992.71	2513.21
993.006	2516.83
993.303	2447.45
993.6	2469.14
993.897	2453.33
994.193	2453.78
994.49	2453.78
994.787	2397.06
995.083	2421.24
995.379	2417.17
995.676	2394.34
995.972	2375.81
996.268	2359.77
996.565	2323.39
996.861	2339.43
997.157	2352.76
997.453	2310.96
997.749	2300.11
998.044	2236.38
998.34	2277.51
998.636	2264.18
998.932	2208.36
999.227	2240.45
999.523	2223.5
999.818	2232.77
1000.114	2201.58
1000.409	2194.35
1000.704	2175.59
1001	2158.42
1001.295	2149.15
1001.59	2145.76
1001.885	2122.26
1002.18	2127.68
1002.475	2123.84
1002.77	2134.92
1003.065	2091.07
1003.359	2084.52
1003.654	2094.92
1003.949	2047.01
1004.243	2077.97
1004.538	2014.47
1004.832	2042.26
1005.127	2038.87
1005.421	2008.37
1005.715	1961.36
1006.009	1964.98
1006.304	1961.81
1006.598	1946.45
1006.892	1912.77
1007.186	1918.2
1007.48	1947.58
1007.773	1925.2
1008.067	1897.18
1008.361	1875.04
1008.655	1878.88
1008.948	1849.05
1009.242	1854.7
1009.535	1833.91
1009.829	1831.19
1010.122	1808.82
1010.415	1821.03
1010.708	1750.97
1011.001	1796.85
1011.295	1782.16
1011.588	1787.13
1011.881	1742.84
1012.173	1736.28
1012.466	1754.13
1012.759	1736.28
1013.052	1722.72
1013.344	1720.69
1013.637	1719.33
1013.93	1713.01
1014.222	1675.49
1014.514	1701.25
1014.807	1681.37
1015.099	1654.7
1015.391	1646.57
1015.683	1642.27
1015.976	1629.84
1016.268	1618.55
1016.56	1611.77
1016.851	1584.2
1017.143	1563.41
1017.435	1556.63
1017.727	1569.05
1018.018	1542.39
1018.31	1531.77
1018.602	1530.86
1018.893	1513.46
1019.185	1513.69
1019.476	1505.33
1019.767	1513.01
1020.058	1493.8
1020.35	1491.09
1020.641	1423.07
1020.932	1447.02
1021.223	1443.41
1021.514	1433.01
1021.804	1425.33
1022.095	1416.06
1022.386	1409.51
1022.677	1389.62
1022.967	1407.93
1023.258	1362.96
1023.548	1386.01
1023.839	1357.08
1024.129	1359.12
1024.419	1346.46
1024.709	1334.94
1025	1317.54
1025.29	1296.97
1025.58	1328.16
1025.87	1292.68
1026.16	1275.28
1026.449	1291.55
1026.739	1246.58
1027.029	1284.32
1027.319	1287.25
1027.608	1246.13
1027.898	1266.69
1028.187	1216.97
1028.477	1273.24
1028.766	1208.84
1029.055	1189.4
1029.344	1206.13
1029.634	1224.66
1029.923	1183.08
1030.212	1184.21
1030.501	1165.68
1030.79	1154.38
1031.078	1154.15
1031.367	1171.78
1031.656	1141.27
1031.945	1136.98
1032.233	1120.25
1032.522	1138.78
1032.81	1109.86
1033.099	1103.53
1033.387	1081.38
1033.675	1103.3
1033.963	1080.03
1034.251	1082.29
1034.54	1070.31
1034.828	1075.51
1035.116	1042.06
1035.403	1048.84
1035.691	1047.71
1035.979	1046.58
1036.267	1028.96
1036.554	1014.72
1036.842	1011.56
1037.129	1009.3
1037.417	1001.61
1037.704	989.86
1037.992	980.6
1038.279	974.27
1038.566	984.66
1038.853	984.66
1039.14	984.66
