Data from hue_20_FLMS001491_55.txt Node
Date: Mon Feb 06 15:34:19 GMT 2017
User: dcchb
Spectrometer: FLMS00149
Trigger mode: 0
Integration Time (sec): 2.000000E-2
Scans to average: 10
Electric dark correction enabled: true
Nonlinearity correction enabled: false
Boxcar width: 0
XAxis mode: Wavelengths
Number of Pixels in Spectrum: 2048
>>>>>Begin Spectral Data<<<<<
341.393	8.88
341.776	8.88
342.16	8.88
342.543	-52.81
342.927	-48.29
343.31	-57.78
343.693	-69.08
344.077	-71.11
344.46	-49.19
344.843	-67.72
345.226	-42.64
345.61	-27.5
345.993	-25.92
346.376	14.08
346.759	1.65
347.142	4.36
347.525	35.32
347.908	64.7
348.291	71.48
348.674	101.99
349.057	117.36
349.44	133.4
349.823	143.34
350.206	165.94
350.588	198.48
350.971	226.28
351.354	220.86
351.737	239.16
352.119	244.58
352.502	233.96
352.884	276.67
353.267	287.97
353.65	291.14
354.032	307.86
354.414	326.62
354.797	321.64
355.179	329.33
355.562	323.68
355.944	336.78
356.326	332.04
356.709	344.69
357.091	337.01
357.473	347.86
357.855	340.4
358.238	336.11
358.62	350.57
359.002	332.72
359.384	353.28
359.766	339.72
360.148	345.37
360.53	333.4
360.912	319.16
361.294	345.37
361.676	360.74
362.057	341.08
362.439	338.14
362.821	340.63
363.203	333.4
363.584	324.81
363.966	341.98
364.348	325.71
364.729	312.38
365.111	315.77
365.493	317.58
365.874	329.55
366.256	332.94
366.637	297.46
367.019	314.64
367.4	320.97
367.781	331.36
368.163	342.66
368.544	326.84
368.925	314.19
369.306	323.9
369.688	327.29
370.069	342.43
370.45	308.54
370.831	309.22
371.212	318.93
371.593	308.76
371.974	338.37
372.355	301.53
372.736	314.64
373.117	323.9
373.498	338.59
373.879	335.88
374.26	320.97
374.641	325.94
375.021	321.19
375.402	333.17
375.783	332.04
376.163	314.19
376.544	339.5
376.925	347.18
377.305	326.39
377.686	327.07
378.066	333.17
378.447	339.27
378.827	334.53
379.208	328.65
379.588	338.59
379.968	344.69
380.349	343.34
380.729	340.17
381.109	345.82
381.489	366.16
381.87	342.66
382.25	323.68
382.63	339.72
383.01	344.02
383.39	338.82
383.77	348.08
384.15	349.21
384.53	354.19
384.91	364.35
385.29	351.47
385.67	381.08
386.049	357.8
386.429	341.76
386.809	364.13
387.189	371.81
387.568	356.22
387.948	357.35
388.328	380.4
388.707	350.57
389.087	357.8
389.466	396.22
389.846	391.7
390.225	357.8
390.605	379.27
390.984	355.99
391.363	375.65
391.743	361.87
392.122	379.95
392.501	373.17
392.881	379.27
393.26	388.76
393.639	391.92
394.018	379.04
394.397	393.05
394.776	383.11
395.155	384.92
395.534	391.47
395.913	405.94
396.292	393.73
396.671	372.04
397.05	399.38
397.429	390.12
397.808	400.51
398.186	389.21
398.565	383.34
398.944	373.17
399.323	403.68
399.701	405.26
400.08	391.25
400.458	402.77
400.837	413.85
401.215	402.09
401.594	423.79
401.972	417.46
402.351	433.73
402.729	407.07
403.107	429.21
403.486	430.79
403.864	434.64
404.242	458.59
404.62	437.8
404.999	412.72
405.377	415.2
405.755	422.66
406.133	451.58
406.511	454.97
406.889	461.53
407.267	454.52
407.645	429.44
408.023	447.74
408.401	454.3
408.779	457.46
409.156	469.21
409.534	489.55
409.912	472.6
410.29	457.91
410.667	475.09
411.045	460.62
411.422	494.52
411.8	484.35
412.178	495.88
412.555	487.29
412.933	510.57
413.31	493.84
413.687	467.4
414.065	499.27
414.442	490.91
414.819	501.75
415.197	529.77
415.574	528.19
415.951	522.32
416.328	534.97
416.705	520.51
417.082	527.97
417.46	533.62
417.837	525.71
418.214	525.03
418.591	525.71
418.967	541.53
419.344	573.39
419.721	547.4
420.098	545.82
420.475	555.54
420.852	565.48
421.228	567.29
421.605	577.46
421.982	574.52
422.358	581.3
422.735	547.63
423.111	562.32
423.488	589.66
423.864	578.36
424.241	603.67
424.617	591.02
424.994	598.92
425.37	574.29
425.746	597.12
426.123	602.31
426.499	601.41
426.875	609.09
427.251	620.17
427.627	618.36
428.003	612.03
428.379	623.56
428.756	636.21
429.132	634.18
429.507	642.09
429.883	644.8
430.259	626.49
430.635	674.4
431.011	668.53
431.387	682.09
431.763	708.07
432.138	698.81
432.514	679.15
432.89	698.36
433.265	697.23
433.641	723.67
434.016	709.43
434.392	733.38
434.767	717.34
435.143	732.03
435.518	759.15
435.894	734.29
436.269	766.83
436.644	745.14
437.02	759.6
437.395	756.66
437.77	771.58
438.145	763.89
438.52	766.15
438.895	803.89
439.271	765.47
439.646	803.67
440.021	823.33
440.395	836.21
440.77	810.22
441.145	808.41
441.52	817.45
441.895	843.66
442.27	841.86
442.645	859.26
443.019	829.88
443.394	842.53
443.769	877.79
444.143	841.86
444.518	892.7
444.892	844.34
445.267	885.02
445.641	880.27
446.016	862.19
446.39	897
446.764	915.75
447.139	878.47
447.513	906.94
447.887	899.03
448.262	926.6
448.636	941.29
449.01	935.41
449.384	922.08
449.758	954.4
450.132	952.81
450.506	927.96
450.88	912.81
451.254	962.08
451.628	961.63
452.002	921.63
452.376	969.76
452.75	993.49
453.123	1007.05
453.497	1007.28
453.871	1016.32
454.244	1038.46
454.618	1043.43
454.992	1074.62
455.365	1035.07
455.739	1082.98
456.112	1070.32
456.486	1083.21
456.859	1077.56
457.232	1128.4
457.606	1118.69
457.979	1138.57
458.352	1138.35
458.725	1169.31
459.099	1132.7
459.472	1189.42
459.845	1179.93
460.218	1167.72
460.591	1218.12
460.964	1207.04
461.337	1230.32
461.71	1241.62
462.083	1265.35
462.456	1263.54
462.829	1263.31
463.201	1311.22
463.574	1306.93
463.947	1319.58
464.32	1329.53
464.692	1346.7
465.065	1379.02
465.438	1383.76
465.81	1384.67
466.183	1410.65
466.555	1438.22
466.928	1456.76
467.3	1444.55
467.672	1453.14
468.045	1535.17
468.417	1485.46
468.789	1508.51
469.161	1526.36
469.534	1574.49
469.906	1595.96
470.278	1598.67
470.65	1629.18
471.022	1648.84
471.394	1667.6
471.766	1703.98
472.138	1740.36
472.51	1744.43
472.882	1763.64
473.253	1790.08
473.625	1812
473.997	1845.45
474.369	1874.82
474.74	1884.54
475.112	1884.99
475.484	1978.78
475.855	1984.2
476.227	2006.12
476.598	2055.38
476.97	2071.2
477.341	2104.65
477.713	2151.43
478.084	2150.75
478.455	2287.92
478.827	2250.41
479.198	2327.24
479.569	2333.34
479.94	2412.44
480.311	2427.8
480.682	2485.43
481.053	2530.63
481.424	2594.8
481.795	2622.6
482.166	2658.53
482.537	2701.69
482.908	2783.05
483.279	2781.69
483.65	2860.56
484.021	2895.59
484.391	2923.38
484.762	2951.18
485.133	2971.97
485.503	3078.86
485.874	3100.78
486.244	3153.43
486.615	3195.69
486.985	3261
487.356	3287.44
487.726	3268.91
488.097	3420.32
488.467	3402.24
488.837	3500.77
489.207	3570.82
489.578	3611.5
489.948	3674.78
490.318	3729.24
490.688	3717.71
491.058	3797.48
491.428	3865.05
491.798	3862.79
492.168	3958.84
492.538	3986.18
492.908	4028.21
493.278	4093.52
493.648	4114.76
494.017	4152.28
494.387	4174.65
494.757	4232.5
495.126	4298.94
495.496	4246.06
495.866	4327.19
496.235	4364.02
496.605	4444.7
496.974	4468.2
497.344	4526.51
497.713	4480.86
498.082	4612.83
498.452	4649.67
498.821	4630.46
499.19	4665.03
499.559	4729.21
499.928	4788.19
500.298	4815.31
500.667	4853.28
501.036	4832.03
501.405	4855.54
501.774	4868.42
502.143	4902.31
502.512	4969.21
502.88	5008.53
503.249	4967.85
503.618	5048.07
503.987	5093.95
504.356	5052.14
504.724	5084.91
505.093	5108.64
505.462	5190.22
505.83	5173.27
506.199	5264.56
506.567	5289.65
506.936	5300.27
507.304	5328.97
507.672	5350.89
508.041	5384.79
508.409	5428.85
508.777	5439.7
509.145	5487.84
509.514	5469.31
509.882	5531.45
510.25	5556.31
510.618	5559.02
510.986	5570.09
511.354	5619.36
511.722	5731.67
512.09	5654.16
512.458	5777.32
512.826	5747.94
513.193	5817.09
513.561	5815.28
513.929	5879.46
514.297	5893.25
514.664	5844.89
515.032	5889.63
515.4	5972.12
515.767	5999.69
516.135	6033.36
516.502	5962.4
516.869	6100.02
517.237	6097.99
517.604	6053.92
517.972	6151.32
518.339	6217.08
518.706	6203.07
519.073	6218.89
519.44	6232.9
519.808	6386.34
520.175	6275.61
520.542	6397.87
520.909	6362.84
521.276	6395.61
521.643	6484.87
522.009	6486.23
522.376	6539.33
522.743	6536.62
523.11	6630.63
523.477	6677.18
523.843	6688.93
524.21	6773.23
524.577	6764.41
524.943	6778.65
525.31	6884.86
525.676	6889.61
526.043	6974.58
526.409	6980.45
526.776	6981.13
527.142	7038.76
527.508	7100.45
527.874	7088.47
528.241	7162.14
528.607	7179.09
528.973	7281.24
529.339	7256.6
529.705	7276.49
530.071	7374.34
530.437	7410.95
530.803	7484.85
531.169	7464.51
531.535	7466.54
531.901	7526.65
532.267	7616.82
532.632	7632.86
532.998	7610.04
533.364	7643.26
533.73	7715.12
534.095	7794.44
534.461	7769.13
534.826	7808
535.192	7864.27
535.557	7893.87
535.923	7880.77
536.288	7961.44
536.653	8037.37
537.019	8001.44
537.384	8051.84
537.749	8105.39
538.114	8057.71
538.479	8137.48
538.845	8106.52
539.21	8147.88
539.575	8200.08
539.94	8193.53
540.305	8295.9
540.67	8310.36
541.034	8327.76
541.399	8367.99
541.764	8317.14
542.129	8403.92
542.494	8419.96
542.858	8490.92
543.223	8529.79
543.587	8544.48
543.952	8513.75
544.316	8576.12
544.681	8645.94
545.045	8654.76
545.41	8688.66
545.774	8780.18
546.138	8800.52
546.503	8789.22
546.867	8838.48
547.231	8918.93
547.595	8875.09
547.959	8957.8
548.324	8996.67
548.688	8961.64
549.052	8964.35
549.416	9076.22
549.779	9065.14
550.143	9112.37
550.507	9176.78
550.871	9233.05
551.235	9208.64
551.599	9230.79
551.962	9272.82
552.326	9360.5
552.689	9331.58
553.053	9353.95
553.417	9391.01
553.78	9487.28
554.143	9390.33
554.507	9425.59
554.87	9513.04
555.234	9533.38
555.597	9527.05
555.96	9575.41
556.323	9635.07
556.686	9608.63
557.05	9742.41
557.413	9796.42
557.776	9757.55
558.139	9851.34
558.502	9841.39
558.865	9927.27
559.228	9900.38
559.59	9952.13
559.953	9930.66
560.316	10051.78
560.679	9996.19
561.041	10131.1
561.404	10205.23
561.767	10207.49
562.129	10221.95
562.492	10355.28
562.854	10284.09
563.217	10247.26
563.579	10367.93
563.941	10428.27
564.304	10457.2
564.666	10445.67
565.028	10560.47
565.39	10574.71
565.753	10558.66
566.115	10633.92
566.477	10745.78
566.839	10670.3
567.201	10776.06
567.563	10749.62
567.925	10841.14
568.287	10863.06
568.648	10960.46
569.01	11005.2
569.372	10957.3
569.734	10961.82
570.095	11152.32
570.457	11144.18
570.819	11140.34
571.18	11259.89
571.542	11307.8
571.903	11263.05
572.265	11359.09
572.626	11450.17
572.987	11458.53
573.349	11508.92
573.71	11531.52
574.071	11573.78
574.432	11658.3
574.794	11739.42
575.155	11696.71
575.516	11770.83
575.877	11894
576.238	11983.26
576.599	12033.88
576.96	12135.34
577.32	12173.54
577.681	12248.79
578.042	12342.57
578.403	12435.68
578.763	12437.71
579.124	12606.74
579.485	12632.51
579.845	12759.28
580.206	12818.49
580.566	12910.01
580.927	13020.07
581.287	13232.49
581.648	13272.04
582.008	13424.8
582.368	13512.71
582.728	13723.55
583.089	13778.24
583.449	13926.94
583.809	14076.54
584.169	14232.92
584.529	14337.32
584.889	14608.05
585.249	14707.48
585.609	14815.73
585.969	15034.93
586.329	15134.59
586.688	15497.52
587.048	15537.97
587.408	15816.83
587.768	15971.85
588.127	16135.47
588.487	16371.62
588.846	16783.81
589.206	16787.43
589.565	17102.45
589.925	17428.54
590.284	17583.79
590.643	17846.38
591.003	18269.87
591.362	18366.82
591.721	18640.94
592.08	18845.22
592.44	19236.17
592.799	19512.33
593.158	19778.53
593.517	20001.58
593.876	20322.93
594.235	20516.59
594.593	20886.53
594.952	21208.55
595.311	21360.64
595.67	21640.41
596.029	22103.9
596.387	22363.1
596.746	22727.83
597.104	22839.47
597.463	23099.12
597.822	23479.91
598.18	23826.79
598.538	23974.58
598.897	24470.61
599.255	24492.31
599.613	25243.7
599.972	25395.56
600.33	25708.1
600.688	25775.66
601.046	26253.84
601.404	26537
601.762	26852.92
602.12	27151.45
602.478	27503.53
602.836	27729.29
603.194	27857.64
603.552	28263.73
603.91	28332.43
604.268	28643.84
604.625	28887.45
604.983	29477.94
605.341	29445.4
605.698	29812.62
606.056	30217.36
606.413	30320.63
606.771	30628.87
607.128	30946.83
607.485	31092.13
607.843	31277.67
608.2	31657.09
608.557	31929.63
608.914	32095.95
609.272	32503.62
609.629	32724.86
609.986	33004.85
610.343	33046.66
610.7	33497.04
611.057	33752.18
611.414	33876.24
611.771	33975
612.127	34309.9
612.484	34516.68
612.841	34758.25
613.198	34784.92
613.554	35126.83
613.911	35482.98
614.267	35516.65
614.624	35605.91
614.98	35818.79
615.337	36208.84
615.693	36271.43
616.05	36331.09
616.406	36744.87
616.762	36602.72
617.118	36813.57
617.475	37018.08
617.831	37205.87
618.187	37486.32
618.543	37470.05
618.899	37796.36
619.255	37919.75
619.611	37910.26
619.967	38244.49
620.323	38442.45
620.678	38393.19
621.034	38421.66
621.39	38567.64
621.746	38705.27
622.101	39130.79
622.457	38861.42
622.812	39068.42
623.168	39183.45
623.523	39504.34
623.879	39597
624.234	39390.67
624.589	39723.32
624.945	39810.78
625.3	39877.67
625.655	40053.93
626.01	39963.99
626.365	39999.47
626.72	40156.98
627.075	40147.72
627.43	40120.6
627.785	40206.7
628.14	40360.82
628.495	40425.45
628.85	40436.07
629.205	40427.03
629.559	40704.76
629.914	40573.92
630.269	40720.81
630.623	40607.14
630.978	40556.07
631.332	40822.27
631.687	40973.23
632.041	40821.82
632.396	40973.23
632.75	40913.35
633.104	40854.82
633.459	40704.31
633.813	40910.18
634.167	40871.09
634.521	40854.14
634.875	40928.49
635.229	40956.73
635.583	40808.94
635.937	40772.56
636.291	40805.55
636.645	40972.33
636.999	40840.35
637.352	40907.02
637.706	40637.19
638.06	40894.81
638.413	40834.7
638.767	40725.1
639.121	40850.75
639.474	40638.1
639.828	40714.03
640.181	40806.68
640.534	40728.27
640.888	40723.97
641.241	40639.91
641.594	40680.13
641.947	40815.27
642.301	40757.64
642.654	40740.02
643.007	40678.55
643.36	40815.27
643.713	40665.22
644.066	40795.61
644.419	40711.99
644.771	40252.57
645.124	40069.3
645.477	40023.2
645.83	39798.12
646.182	39587.28
646.535	39462.31
646.888	39613.27
647.24	39456.66
647.593	39621.85
647.945	39625.47
648.298	39300.51
648.65	39378.92
649.002	39176.44
649.355	39488.52
649.707	39476.55
650.059	39499.82
650.411	40013.26
650.763	39986.14
651.115	40270.88
651.467	40236.53
651.819	40253.02
652.171	40231.56
652.523	40242.63
652.875	40149.07
653.227	40041.5
653.578	40411.89
653.93	40186.81
654.282	40133.25
654.633	39836.31
654.985	40124.21
655.337	39980.04
655.688	40070.43
656.039	40215.74
656.391	39845.12
656.742	40011.45
657.094	40042.41
657.445	39955.18
657.796	40011.9
658.147	39916.31
658.498	40017.32
658.849	39966.93
659.2	39848.51
659.551	39784.11
659.902	40054.61
660.253	39909.76
660.604	39883.32
660.955	39688.29
661.306	39921.05
661.656	39818.46
662.007	39875.63
662.358	39693.26
662.708	39829.31
663.059	39954.27
663.409	39706.15
663.76	39785.92
664.11	39704.56
664.461	39861.85
664.811	39879.02
665.161	39740.27
665.511	39683.09
665.862	39842.64
666.212	39855.07
666.562	39904.78
666.912	39665.47
667.262	39737.78
667.612	39619.82
667.962	39657.56
668.312	39691.46
668.662	39813.49
669.011	39750.89
669.361	39659.37
669.711	39714.51
670.06	39630.22
670.41	39593.61
670.76	39423.21
671.109	39554.51
671.459	39609.88
671.808	39588.41
672.157	39624.11
672.507	39364.46
672.856	39355.87
673.205	39527.84
673.554	39572.14
673.904	39405.14
674.253	39614.62
674.602	39469.32
674.951	39041.08
675.3	38648.32
675.649	39211.47
675.998	39297.34
676.346	39420.28
676.695	39310.45
677.044	39135.76
677.393	39204.92
677.741	39237.91
678.09	39234.97
678.438	39051.93
678.787	39286.95
679.135	39147.97
679.484	38887.41
679.832	39144.35
680.181	38861.87
680.529	39000.85
680.877	38811.71
681.225	38886.51
681.573	39007.41
681.922	38689.22
682.27	38581.43
682.618	38593.18
682.966	38498.95
683.314	38576.46
683.661	38480.87
684.009	38299.63
684.357	38202
684.705	38285.84
685.053	38260.99
685.4	38307.99
685.748	38009.24
686.095	37987.09
686.443	37867.32
686.79	37856.48
687.138	37891.5
687.485	37881.79
687.832	37820.55
688.18	37758.17
688.527	37624.84
688.874	37546.88
689.221	37496.71
689.568	37327.45
689.915	37192.76
690.262	37306.89
690.609	37186.44
690.956	37051.3
691.303	36995.48
691.65	36824.87
691.997	36853.11
692.344	36536.29
692.69	36573.8
693.037	36614.48
693.383	36414.93
693.73	36494.48
694.077	36359.79
694.423	36294.71
694.769	36136.75
695.116	36061.95
695.462	36018.78
695.808	35905.12
696.155	36055.85
696.501	35722.75
696.847	35705.57
697.193	35465.35
697.539	35565.01
697.885	35375.41
698.231	35280.05
698.577	35273.72
698.923	35145.81
699.269	35123.67
699.614	34822.88
699.96	34848.42
700.306	34876.22
700.651	34725.94
700.997	34506.06
701.342	34426.51
701.688	34447.75
702.033	34287.08
702.379	34309
702.724	34207.53
703.069	34249.79
703.415	33793.31
703.76	33952.85
704.105	33855.45
704.45	33828.11
704.795	33627.89
705.14	33524.61
705.485	33651.84
705.83	33527.32
706.175	33363.04
706.52	33322.58
706.865	33244.85
707.209	33115.81
707.554	33064.06
707.899	33074.68
708.243	32931.41
708.588	32909.26
708.932	32643.28
709.277	32710.4
709.621	32692.77
709.966	32421.82
710.31	32549.05
710.654	32292.78
710.998	32324.64
711.342	32215.49
711.687	32192.9
712.031	32119.9
712.375	31963.07
712.719	31948.61
713.063	31926.46
713.407	31904.99
713.75	31811.89
714.094	31744.09
714.438	31607.38
714.782	31659.8
715.125	31544.1
715.469	31642.4
715.812	31463.2
716.156	31273.6
716.499	31337.33
716.843	31423.88
717.186	31098.01
717.53	31352.47
717.873	31247.61
718.216	31203.32
718.559	31011.23
718.902	30880.61
719.246	30985.02
719.589	30854.85
719.932	30765.14
720.275	30792.26
720.617	30653.28
720.96	30612.37
721.303	30626.38
721.646	30498.93
721.989	30373.28
722.331	30517.01
722.674	30410.34
723.016	30466.39
723.359	30344.13
723.701	30231.37
724.044	30152.5
724.386	29904.82
724.729	30156.34
725.071	30072.73
725.413	30006.97
725.755	29967.64
726.097	29850.59
726.439	29723.13
726.782	29684.71
727.124	29796.35
727.465	29783.92
727.807	29625.73
728.149	29538.73
728.491	29591.16
728.833	29677.48
729.175	29465.74
729.516	29420.31
729.858	29372.41
730.199	29380.09
730.541	29322.69
730.882	29358.17
731.224	29320.43
731.565	29104.62
731.906	29270.26
732.248	29214.22
732.589	28945.52
732.93	28966.54
733.271	28924.28
733.612	28959.99
733.953	28980.55
734.294	28896.94
734.635	28706.21
734.976	28748.47
735.317	28697.85
735.658	28624.85
735.999	28615.14
736.339	28597.96
736.68	28730.39
737.021	28578.3
737.361	28474.8
737.702	28597.51
738.042	28510.96
738.383	28422.6
738.723	28402.04
739.063	28291.53
739.404	28442.49
739.744	28261.02
740.084	28206.79
740.424	28304.86
740.764	28104.87
741.104	28220.8
741.444	27977.19
741.784	27959.79
742.124	27995.04
742.464	27913.69
742.804	27896.96
743.143	27877.3
743.483	27903.52
743.823	27776.06
744.162	27725.67
744.502	27780.81
744.841	27631.66
745.181	27771.09
745.52	27567.26
745.86	27614.94
746.199	27531.78
746.538	27539.91
746.877	27516.18
747.216	27418.11
747.556	27404.32
747.895	27269.64
748.234	27317.09
748.573	27209.75
748.911	27147.83
749.25	27222.41
749.589	27119.58
749.928	27087.04
750.267	27198.45
750.605	26998.46
750.944	26937.44
751.283	26989.87
751.621	26969.98
751.96	26821.29
752.298	26728.63
752.636	26924.79
752.975	26726.83
753.313	26652.03
753.651	26729.09
753.989	26624.23
754.327	26613.83
754.666	26378.81
755.004	26453.61
755.342	26446.61
755.679	26349.89
756.017	26287.52
756.355	26323.22
756.693	26170.46
757.031	26203
757.368	26099.05
757.706	25978.6
758.044	25921.65
758.381	25901.31
758.719	25877.58
759.056	25898.6
759.394	25708.32
759.731	25681.2
760.068	25597.59
760.405	25501.77
760.743	25447.31
761.08	25402.79
761.417	25282.12
761.754	25366.41
762.091	25302.91
762.428	25092.52
762.765	25037.15
763.102	25154.66
763.438	24841.23
763.775	24792.64
764.112	24863.15
764.449	24912.86
764.785	24676.03
765.122	24578.18
765.458	24588.12
765.795	24482.82
766.131	24394.23
766.467	24351.52
766.804	24177.06
767.14	24131.64
767.476	24252.54
767.812	24057.74
768.148	23922.83
768.485	23839.9
768.821	23796.96
769.157	23792.44
769.492	23682.16
769.828	23641.71
770.164	23492.11
770.5	23434.03
770.836	23435.84
771.171	23283.53
771.507	23133.47
771.842	22906.81
772.178	23042.63
772.513	22870.2
772.849	22905.01
773.184	22834.05
773.519	22893.03
773.855	22747.27
774.19	22516.31
774.525	22421.63
774.86	22486.26
775.195	22474.51
775.53	22354.74
775.865	22074.97
776.2	22124.69
776.535	21956.33
776.87	21990.9
777.205	21733.96
777.539	21676.56
777.874	21721.53
778.209	21614.19
778.543	21480.41
778.878	21384.37
779.212	21312.28
779.547	21164.71
779.881	21257.14
780.215	21061.66
780.55	21178.5
780.884	20987.32
781.218	21029.12
781.552	21014.66
781.886	20840.65
782.22	20764.95
782.554	20750.49
782.888	20484.96
783.222	20526.99
783.556	20357.5
783.889	20294.9
784.223	20221.91
784.557	20058.07
784.89	20050.16
785.224	20084.06
785.557	19909.15
785.891	19898.3
786.224	19876.16
786.558	19828.25
786.891	19626.9
787.224	19640.91
787.557	19521.59
787.891	19443.4
788.224	19370.86
788.557	19460.8
788.89	19276.17
789.223	19364.31
789.556	19188.04
789.888	19116.18
790.221	19010.64
790.554	18921.83
790.887	18951.66
791.219	18858.11
791.552	18876.86
791.884	18700.82
792.217	18672.35
792.549	18562.29
792.882	18402.07
793.214	18402.3
793.546	18356.65
793.879	18265.35
794.211	18153.49
794.543	18224.9
794.875	18115.53
795.207	18199.37
795.539	17939.71
795.871	18073.04
796.203	17918.7
796.535	17727.74
796.867	17744.46
797.198	17601.42
797.53	17615.65
797.862	17559.83
798.193	17601.87
798.525	17420.86
798.856	17481.87
799.188	17266.51
799.519	17195.55
799.85	17160.3
800.182	17131.82
800.513	17174.08
800.844	17088.43
801.175	17229.22
801.506	17052.05
801.837	16933.64
802.168	16932.73
802.499	16922.79
802.83	16835.33
803.161	16720.99
803.491	16749.01
803.822	16711.95
804.153	16646.41
804.483	16506.3
804.814	16469.69
805.145	16465.4
805.475	16359.41
805.805	16366.65
806.136	16395.35
806.466	16251.85
806.796	16216.37
807.126	16133.66
807.457	16057.5
807.787	16060.89
808.117	15992.42
808.447	15932.08
808.777	16018.63
809.107	15894.57
809.436	15837.85
809.766	15872.2
810.096	15800.11
810.426	15702.03
810.755	15687.12
811.085	15603.28
811.414	15662.03
811.744	15556.72
812.073	15534.13
812.403	15495.93
812.732	15379.1
813.061	15393.11
813.39	15316.73
813.719	15351.98
814.049	15355.37
814.378	15265.66
814.707	15242.16
815.036	15191.99
815.365	15182.72
815.693	15005.55
816.022	15040.81
816.351	14906.57
816.68	14843.3
817.008	14874.71
817.337	14802.39
817.665	14745.22
817.994	14753.81
818.322	14774.6
818.651	14593.81
818.979	14637.2
819.307	14703.41
819.636	14602.85
819.964	14547.48
820.292	14621.16
820.62	14547.71
820.948	14537.09
821.276	14502.51
821.604	14374.38
821.932	14434.95
822.259	14478.11
822.587	14440.14
822.915	14439.69
823.243	14481.72
823.57	14467.94
823.898	14458.45
824.225	14406.25
824.553	14385.91
824.88	14425.91
825.207	14436.53
825.535	14409.41
825.862	14425.45
826.189	14346.36
826.516	14427.94
826.843	14474.27
827.17	14412.57
827.497	14437.66
827.824	14432.69
828.151	14463.42
828.478	14415.28
828.805	14470.42
829.131	14415.96
829.458	14403.76
829.785	14349.75
830.111	14326.7
830.438	14469.75
830.764	14428.39
831.09	14376.87
831.417	14425
831.743	14388.62
832.069	14363.08
832.395	14227.04
832.722	14308.39
833.048	14292.12
833.374	14276.08
833.7	14243.31
834.026	14267.72
834.351	14207.38
834.677	14287.83
835.003	14213.48
835.329	14201.96
835.654	14171.22
835.98	14167.16
836.306	14130.77
836.631	14026.14
836.956	14113.6
837.282	14148.17
837.607	14007.39
837.932	14038.57
838.258	14017.33
838.583	13994.28
838.908	13945.01
839.233	13942.08
839.558	13924.22
839.883	13900.5
840.208	13841.51
840.533	13754.51
840.858	13740.73
841.182	13851.01
841.507	13752.03
841.832	13809.65
842.156	13653.04
842.481	13662.99
842.805	13629.99
843.13	13591.35
843.454	13574.18
843.778	13499.83
844.103	13576.44
844.427	13481.52
844.751	13493.28
845.075	13418.47
845.399	13382.09
845.723	13385.93
846.047	13402.2
846.371	13202.66
846.695	13248.99
847.019	13067.98
847.343	13044.93
847.666	12999.73
847.99	12930.58
848.313	12976
848.637	12847.87
848.96	12801.32
849.284	12783.92
849.607	12698.95
849.931	12702.79
850.254	12569.01
850.577	12541.44
850.9	12486.52
851.223	12459.86
851.546	12446.3
851.869	12286.08
852.192	12370.59
852.515	12229.81
852.838	12262.12
853.161	12208.11
853.483	12107.77
853.806	12057.15
854.129	12084.05
854.451	12071.62
854.774	11986.87
855.096	11892.19
855.419	11885.63
855.741	11863.26
856.063	11771.96
856.385	11814
856.708	11759.99
857.03	11741.68
857.352	11703.94
857.674	11673.21
857.996	11613.1
858.318	11543.04
858.64	11507.79
858.961	11574.68
859.283	11449.04
859.605	11407.68
859.926	11420.34
860.248	11377.62
860.57	11356.16
860.891	11314.35
861.212	11328.81
861.534	11272.54
861.855	11174.69
862.176	11216.72
862.498	11223.05
862.819	11242.49
863.14	11149.16
863.461	11072.55
863.782	11064.86
864.103	11077.29
864.424	11071.19
864.745	11122.94
865.065	10997.52
865.386	10840.92
865.707	10955.26
866.027	10961.14
866.348	10868.94
866.668	10895.38
866.989	10882.72
867.309	10812.44
867.63	10856.28
867.95	10800.01
868.27	10761.82
868.59	10732.44
868.91	10802.5
869.23	10745.1
869.55	10705.1
869.87	10706.23
870.19	10717.75
870.51	10790.3
870.83	10681.82
871.15	10636.18
871.469	10561.6
871.789	10627.81
872.109	10638.66
872.428	10560.02
872.748	10562.96
873.067	10595.72
873.386	10571.09
873.706	10521.6
874.025	10493.13
874.344	10484.31
874.663	10450.19
874.982	10473.47
875.301	10406.58
875.62	10350.98
875.939	10323.64
876.258	10374.94
876.577	10366.58
876.896	10331.1
877.214	10234.15
877.533	10240.93
877.852	10227.6
878.17	10339.01
878.489	10271.44
878.807	10224.21
879.125	10266.69
879.444	10292.91
879.762	10255.39
880.08	10228.95
880.398	10157.32
880.716	10076.87
881.034	10103.76
881.352	10064.44
881.67	10089.75
881.988	10011.78
882.306	10070.77
882.624	9997.32
882.941	9960.71
883.259	9938.79
883.577	9949.87
883.894	9945.35
884.212	9845.01
884.529	9885.91
884.846	9826.7
885.164	9853.37
885.481	9822.41
885.798	9821.06
886.115	9718.69
886.432	9731.57
886.75	9741.28
887.067	9711.68
887.383	9584.9
887.7	9631.91
888.017	9547.84
888.334	9664.68
888.651	9533.61
888.967	9552.14
889.284	9563.21
889.6	9446.38
889.917	9408.18
890.233	9426.72
890.55	9439.37
890.866	9349.88
891.182	9292.26
891.498	9416.55
891.815	9275.98
892.131	9275.08
892.447	9236.66
892.763	9223.1
893.079	9174.07
893.395	9160.06
893.71	9142.2
894.026	9128.64
894.342	9083.45
894.657	9053.84
894.973	9044.58
895.289	9073.96
895.604	8994.41
895.92	8911.25
896.235	8850.23
896.55	8884.36
896.865	8919.38
897.181	8858.59
897.496	8767.52
897.811	8802.1
898.126	8781.53
898.441	8753.96
898.756	8694.76
899.071	8617.25
899.386	8628.09
899.7	8534.99
900.015	8528.89
900.33	8492.73
900.644	8475.33
900.959	8453.41
901.273	8405.5
901.588	8383.35
901.902	8381.77
902.216	8327.99
902.531	8280.76
902.845	8284.15
903.159	8216.35
903.473	8219.74
903.787	8195.56
904.101	8165.96
904.415	8167.31
904.729	8052.97
905.042	8091.38
905.356	8051.38
905.67	8027.2
905.984	7973.42
906.297	7991.95
906.611	7913.31
906.924	7903.37
907.237	7894.78
907.551	7844.38
907.864	7803.71
908.177	7785.18
908.491	7749.25
908.804	7705.4
909.117	7681.9
909.43	7571.4
909.743	7574.56
910.056	7628.34
910.368	7527.56
910.681	7486.88
910.994	7508.8
911.307	7463.83
911.619	7404.85
911.932	7399.2
912.244	7340.22
912.557	7292.08
912.869	7302.93
913.181	7227.68
913.494	7321.91
913.806	7200.33
914.118	7172.76
914.43	7176.61
914.742	7098.42
915.054	7083.5
915.366	7065.87
915.678	7045.54
915.99	7017.97
916.302	6966.44
916.613	6922.6
916.925	6921.7
917.236	6957.18
917.548	6862.72
917.859	6876.05
918.171	6819.33
918.482	6776.16
918.794	6699.33
919.105	6745.43
919.416	6656.39
919.727	6678.77
920.038	6627.24
920.349	6577.98
920.66	6636.73
920.971	6582.27
921.282	6567.81
921.593	6501.37
921.903	6447.58
922.214	6497.53
922.525	6431.99
922.835	6406.23
923.146	6362.39
923.456	6339.79
923.767	6299.11
924.077	6330.53
924.387	6235.16
924.697	6255.73
925.008	6187.03
925.318	6208.04
925.628	6184.31
925.938	6119.01
926.248	6083.07
926.558	6031.78
926.867	6037.2
927.177	6019.57
927.487	6014.83
927.796	5915.62
928.106	5941.84
928.416	5938.22
928.725	5902.29
929.034	5868.16
929.344	5872.68
929.653	5913.81
929.962	5767.15
930.271	5781.61
930.581	5768.96
930.89	5744.78
931.199	5702.75
931.508	5664.1
931.817	5646.25
932.125	5655.97
932.434	5636.08
932.743	5561.28
933.051	5528.74
933.36	5550.43
933.669	5452.58
933.977	5514.73
934.286	5529.64
934.594	5448.97
934.902	5392.92
935.21	5380.49
935.519	5358.35
935.827	5364.45
936.135	5328.74
936.443	5285.13
936.751	5308.18
937.059	5263.44
937.367	5181.63
937.674	5196.54
937.982	5182.53
938.29	5180.95
938.597	5113.16
938.905	5105.25
939.213	5139.37
939.52	5067.51
939.827	5079.03
940.135	5024.35
940.442	5028.41
940.749	5000.17
941.056	5003.78
941.363	4956.78
941.67	4910.45
941.977	4916.55
942.284	4846.72
942.591	4856.89
942.898	4834.52
943.205	4809.44
943.511	4814.18
943.818	4804.69
944.125	4747.97
944.431	4763.79
944.738	4741.19
945.044	4712.94
945.35	4709.78
945.657	4674.75
945.963	4665.26
946.269	4594.3
946.575	4635.43
946.881	4593.62
947.187	4615.32
947.493	4551.14
947.799	4540.74
948.105	4504.13
948.41	4483.34
948.716	4485.38
949.022	4429.11
949.327	4477.02
949.633	4402.89
949.938	4371.71
950.244	4393.85
950.549	4365.61
950.854	4338.49
951.16	4336.91
951.465	4300.75
951.77	4326.06
952.075	4254.2
952.38	4230.92
952.685	4222.11
952.99	4239.73
953.294	4184.37
953.599	4124.48
953.904	4156.12
954.209	4124.93
954.513	4112.5
954.818	4122.9
955.122	4096.23
955.426	4066.18
955.731	4041.55
956.035	4073.64
956.339	4005.16
956.643	4008.55
956.948	3959.74
957.252	3947.31
957.556	3974.88
957.86	3906.86
958.163	3916.58
958.467	3925.17
958.771	3884.71
959.075	3879.52
959.378	3827.31
959.682	3811.95
959.985	3826.86
960.289	3797.94
960.592	3754.55
960.896	3751.61
961.199	3754.77
961.502	3762.91
961.805	3703.25
962.108	3686.53
962.411	3669.58
962.714	3670.03
963.017	3666.87
963.32	3647.88
963.623	3605.85
963.926	3617.6
964.228	3582.12
964.531	3581.9
964.833	3582.35
965.136	3525.4
965.438	3540.77
965.741	3469.81
966.043	3473.65
966.345	3470.71
966.648	3448.79
966.95	3462.13
967.252	3445.4
967.554	3434.33
967.856	3396.82
968.158	3369.25
968.46	3389.81
968.761	3355.91
969.063	3344.84
969.365	3313.2
969.666	3333.09
969.968	3338.29
970.269	3296.26
970.571	3293.54
970.872	3268.01
971.174	3230.72
971.475	3257.84
971.776	3231.85
972.077	3203.15
972.378	3199.08
972.679	3181.23
972.98	3156.15
973.281	3111.63
973.582	3122.02
973.883	3131.29
974.183	3091.97
974.484	3076.37
974.785	3053.78
975.085	3065.98
975.386	3069.59
975.686	3037.73
975.986	2997.28
976.287	2988.69
976.587	3028.92
976.887	3008.13
977.187	2983.27
977.487	2950.73
977.787	2946.89
978.087	2945.08
978.387	2930.62
978.687	2888.13
978.987	2861.46
979.286	2874.57
979.586	2879.09
979.885	2849.04
980.185	2829.37
980.484	2800
980.784	2822.37
981.083	2837.06
981.382	2764.07
981.682	2762.71
981.981	2797.29
982.28	2738.3
982.579	2757.06
982.878	2748.02
983.177	2724.74
983.475	2730.85
983.774	2704.18
984.073	2701.02
984.372	2694.01
984.67	2671.86
984.969	2681.81
985.267	2670.28
985.566	2597.06
985.864	2594.8
986.162	2592.54
986.461	2594.13
986.759	2625.09
987.057	2569.04
987.355	2545.99
987.653	2507.58
987.951	2508.71
988.249	2560.91
988.547	2513.9
988.844	2492.21
989.142	2479.78
989.44	2480.01
989.737	2453.34
990.035	2430.29
990.332	2471.42
990.63	2424.19
990.927	2452.21
991.224	2411.08
991.521	2402.04
991.819	2398.43
992.116	2400.69
992.413	2355.49
992.71	2351.65
993.006	2315.26
993.303	2345.77
993.6	2334.02
993.897	2308.48
994.193	2286.56
994.49	2276.85
994.787	2260.8
995.083	2282.04
995.379	2217.19
995.676	2254.25
995.972	2232.33
996.268	2202.05
996.565	2203.18
996.861	2170.41
997.157	2189.17
997.453	2179.67
997.749	2163.4
998.044	2136.96
998.34	2121.14
998.636	2150.97
998.932	2089.51
999.227	2135.38
999.523	2101.71
999.818	2096.06
1000.114	2076.85
1000.409	2065.55
1000.704	2052.45
1001	2104.65
1001.295	2061.71
1001.59	2037.08
1001.885	2032.11
1002.18	1985.78
1002.475	1987.36
1002.77	1975.84
1003.065	1973.8
1003.359	2000.92
1003.654	1958.66
1003.949	1942.17
1004.243	1942.39
1004.538	1934.26
1004.832	1912.56
1005.127	1905.33
1005.421	1892
1005.715	1886.35
1006.009	1870.76
1006.304	1841.6
1006.598	1878.21
1006.892	1826.01
1007.186	1821.27
1007.48	1793.24
1007.773	1823.07
1008.067	1828.72
1008.361	1814.03
1008.655	1763.64
1008.948	1788.05
1009.242	1748.05
1009.535	1758.89
1009.829	1755.96
1010.122	1756.86
1010.415	1736.97
1010.708	1697.88
1011.001	1698.56
1011.295	1696.52
1011.588	1697.2
1011.881	1657.65
1012.173	1656.52
1012.466	1668.05
1012.759	1635.96
1013.052	1656.07
1013.344	1641.61
1013.637	1600.48
1013.93	1612.23
1014.222	1588.5
1014.514	1571.78
1014.807	1590.09
1015.099	1547.37
1015.391	1558.9
1015.683	1549.41
1015.976	1518.45
1016.268	1543.08
1016.56	1516.64
1016.851	1522.52
1017.143	1518
1017.435	1505.57
1017.727	1493.59
1018.018	1479.58
1018.31	1466.92
1018.602	1465.57
1018.893	1489.07
1019.185	1440.94
1019.476	1447.26
1019.767	1408.62
1020.058	1405.01
1020.35	1399.81
1020.641	1386.93
1020.932	1376.98
1021.223	1386.7
1021.514	1375.4
1021.804	1341.28
1022.095	1369.98
1022.386	1362.29
1022.677	1352.35
1022.967	1334.05
1023.258	1341.96
1023.548	1315.06
1023.839	1301.05
1024.129	1269.19
1024.419	1295.4
1024.709	1269.42
1025	1294.05
1025.29	1273.26
1025.58	1245.46
1025.87	1238.23
1026.16	1227.16
1026.449	1255.4
1026.739	1222.64
1027.029	1218.57
1027.319	1212.24
1027.608	1211.34
1027.898	1201.17
1028.187	1203.2
1028.477	1185.12
1028.766	1184.67
1029.055	1145.13
1029.344	1162.3
1029.634	1147.16
1029.923	1110.32
1030.212	1111.45
1030.501	1127.27
1030.79	1120.27
1031.078	1117.33
1031.367	1106.48
1031.656	1090.21
1031.945	1095.18
1032.233	1059.7
1032.522	1088.86
1032.81	1055.41
1033.099	1071.45
1033.387	1063.09
1033.675	1056.09
1033.963	1020.16
1034.251	1043.43
1034.54	1021.06
1034.828	1022.87
1035.116	1029.87
1035.403	977.9
1035.691	1000.95
1035.979	991.23
1036.267	1020.16
1036.554	947.16
1036.842	994.85
1037.129	948.75
1037.417	975.41
1037.704	974.06
1037.992	972.93
1038.279	951.46
1038.566	962.53
1038.853	962.53
1039.14	962.53
