Data from hue_120_FLMS001491_00072.txt Node
Date: Tue Feb 07 16:59:57 GMT 2017
User: dcchb
Spectrometer: FLMS00149
Trigger mode: 0
Integration Time (sec): 2.000000E-2
Scans to average: 10
Electric dark correction enabled: true
Nonlinearity correction enabled: false
Boxcar width: 0
XAxis mode: Wavelengths
Number of Pixels in Spectrum: 2048
>>>>>Begin Spectral Data<<<<<
341.393	-5.04
341.776	-5.04
342.16	-5.04
342.543	-80.52
342.927	-71.71
343.31	-54.31
343.693	-97.92
344.077	-66.51
344.46	-66.28
344.843	-55.66
345.226	-45.04
345.61	-33.06
345.993	-19.73
346.376	-14.31
346.759	8.52
347.142	11.68
347.525	49.42
347.908	71.34
348.291	85.35
348.674	105.01
349.057	121.51
349.44	102.07
349.823	151.79
350.206	184.11
350.588	178.91
350.971	197.44
351.354	236.76
351.737	246.93
352.119	263.65
352.502	245.12
352.884	264.56
353.267	292.58
353.65	283.54
354.032	300.26
354.414	314.27
354.797	317.66
355.179	321.28
355.562	338.68
355.944	319.02
356.326	334.84
356.709	324.44
357.091	335.74
357.473	352.91
357.855	326.7
358.238	341.39
358.62	335.51
359.002	345.68
359.384	330.32
359.766	344.1
360.148	321.95
360.53	331.45
360.912	330.09
361.294	342.97
361.676	328.51
362.057	319.02
362.439	325.34
362.821	337.55
363.203	331.9
363.584	345.91
363.966	322.18
364.348	332.58
364.729	317.66
365.111	322.41
365.493	328.96
365.874	334.38
366.256	310.43
366.637	324.21
367.019	319.69
367.4	325.34
367.781	319.69
368.163	315.85
368.544	310.66
368.925	314.27
369.306	312.69
369.688	308.4
370.069	301.16
370.45	335.06
370.831	307.27
371.212	324.89
371.593	313.82
371.974	328.28
372.355	330.32
372.736	332.8
373.117	314.27
373.498	317.44
373.879	307.27
374.26	311.33
374.641	306.14
375.021	308.85
375.402	320.6
375.783	312.69
376.163	334.38
376.544	335.51
376.925	335.51
377.305	323.54
377.686	340.26
378.066	337.1
378.447	335.29
378.827	325.12
379.208	335.06
379.588	340.03
379.968	340.71
380.349	348.62
380.729	329.41
381.109	325.34
381.489	335.29
381.87	337.77
382.25	330.09
382.63	346.81
383.01	349.75
383.39	340.49
383.77	342.75
384.15	359.92
384.53	336.42
384.91	325.34
385.29	348.17
385.67	354.72
386.049	369.86
386.429	355.4
386.809	364.67
387.189	368.06
387.568	389.3
387.948	364.89
388.328	380.26
388.707	372.35
389.087	367.6
389.466	386.36
389.846	364.44
390.225	379.81
390.605	375.29
390.984	379.81
391.363	377.55
391.743	392.24
392.122	382.74
392.501	403.76
392.881	359.69
393.26	382.52
393.639	391.78
394.018	383.42
394.397	385.23
394.776	393.59
395.155	412.12
395.534	413.03
395.913	402.18
396.292	383.87
396.671	395.85
397.05	402.86
397.429	414.38
397.808	381.16
398.186	400.14
398.565	411.22
398.944	406.47
399.323	410.77
399.701	437.43
400.08	415.96
400.458	407.83
400.837	433.82
401.215	407.15
401.594	397.89
401.972	439.92
402.351	429.52
402.729	414.38
403.107	436.98
403.486	408.73
403.864	433.59
404.242	429.75
404.62	449.86
404.999	435.17
405.377	436.75
405.755	446.7
406.133	456.64
406.511	445.57
406.889	469.07
407.267	441.5
407.645	433.59
408.023	455.51
408.401	458.22
408.779	444.44
409.156	461.84
409.534	500.48
409.912	481.27
410.29	455.28
410.667	488.28
411.045	514.49
411.422	483.76
411.8	502.52
412.178	502.29
412.555	496.19
412.933	492.12
413.31	506.81
413.687	515.85
414.065	509.75
414.442	527.15
414.819	516.75
415.197	517.2
415.574	544.77
415.951	527.15
416.328	533.7
416.705	529.18
417.082	537.77
417.46	542.74
417.837	551.55
418.214	546.58
418.591	547.49
418.967	545.9
419.344	548.84
419.721	535.96
420.098	577.77
420.475	558.56
420.852	569.63
421.228	574.83
421.605	599.24
421.982	567.37
422.358	603.76
422.735	589.74
423.111	596.98
423.488	598.11
423.864	609.18
424.241	617.77
424.617	612.12
424.994	608.95
425.37	636.07
425.746	624.09
426.123	622.51
426.499	609.4
426.875	657.31
427.251	624.32
427.627	658.44
428.003	657.77
428.379	649.18
428.756	649.63
429.132	676.75
429.507	668.61
429.883	676.52
430.259	695.96
430.635	670.19
431.011	704.54
431.387	711.55
431.763	707.93
432.138	714.94
432.514	733.47
432.89	721.72
433.265	741.38
433.641	751.77
434.016	760.36
434.392	759.68
434.767	775.5
435.143	782.51
435.518	767.82
435.894	792.45
436.269	796.74
436.644	828.38
437.02	801.49
437.395	818.89
437.77	846.46
438.145	847.59
438.52	825.9
438.895	843.07
439.271	824.77
439.646	839.91
440.021	874.26
440.395	886.23
440.77	859.79
441.145	868.83
441.52	870.64
441.895	897.31
442.27	900.47
442.645	884.2
443.019	909.96
443.394	926.01
443.769	928.72
444.143	921.71
444.518	937.08
444.892	941.37
445.267	923.29
445.641	964.42
446.016	979.34
446.39	954.93
446.764	956.06
447.139	963.29
447.513	988.15
447.887	980.69
448.262	986.57
448.636	990.64
449.01	1024.99
449.384	1015.95
449.758	1015.27
450.132	1029.51
450.506	1053.91
450.88	1039.9
451.254	1047.59
451.628	1051.88
452.002	1069.51
452.376	1073.8
452.75	1105.21
453.123	1117.19
453.497	1115.15
453.871	1135.49
454.244	1156.96
454.618	1125.32
454.992	1149.5
455.365	1168.03
455.739	1171.2
456.112	1193.8
456.486	1232.67
456.859	1227.69
457.232	1261.37
457.606	1224.76
457.979	1271.08
458.352	1287.58
458.725	1295.26
459.099	1296.39
459.472	1333.68
459.845	1337.07
460.218	1340.23
460.591	1362.61
460.964	1374.81
461.337	1400.34
461.71	1427.46
462.083	1448.03
462.456	1481.02
462.829	1465.88
463.201	1503.62
463.574	1492.09
463.947	1506.1
464.32	1565.09
464.692	1567.35
465.065	1604.86
465.438	1592.43
465.81	1650.28
466.183	1673.56
466.555	1695.7
466.928	1711.52
467.3	1719.66
467.672	1738.19
468.045	1801.69
468.417	1786.55
468.789	1797.85
469.161	1857.73
469.534	1885.53
469.906	1903.83
470.278	1985.87
470.65	1994.23
471.022	2028.35
471.394	2064.96
471.766	2096.82
472.138	2139.08
472.51	2183.83
472.882	2231.96
473.253	2294.33
473.625	2326.87
473.997	2400.09
474.369	2438.74
474.74	2495.91
475.112	2560.99
475.484	2589.24
475.855	2651.61
476.227	2681.21
476.598	2756.02
476.97	2818.84
477.341	2880.76
477.713	2964.82
478.084	3019.29
478.455	3101.54
478.827	3250.24
479.198	3285.04
479.569	3312.38
479.94	3487.75
480.311	3531.59
480.682	3654.07
481.053	3748.98
481.424	3837.79
481.795	3901.52
482.166	4038.69
482.537	4146.49
482.908	4239.37
483.279	4381.74
483.65	4443.2
484.021	4597.55
484.391	4738.34
484.762	4830.99
485.133	4882.96
485.503	5007.03
485.874	5182.62
486.244	5261.03
486.615	5420.58
486.985	5537.64
487.356	5742.6
487.726	5804.75
488.097	5996.38
488.467	6036.15
488.837	6259.65
489.207	6406.54
489.578	6613.31
489.948	6763.82
490.318	6874.78
490.688	6961.1
491.058	7160.19
491.428	7305.95
491.798	7456.68
492.168	7610.35
492.538	7736.68
492.908	7920.17
493.278	8123.78
493.648	8119.26
494.017	8349.99
494.387	8451.01
494.757	8676.31
495.126	8772.81
495.496	8851.45
495.866	9035.62
496.235	9152.23
496.605	9241.95
496.974	9401.49
497.344	9542.96
497.713	9687.36
498.082	9735.49
498.452	9887.13
498.821	10085.31
499.19	10150.17
499.559	10362.59
499.928	10408.47
500.298	10474.68
500.667	10636.49
501.036	10653.43
501.405	10834.45
501.774	10899.3
502.143	11015.23
502.512	11136.81
502.88	11217.94
503.249	11242.8
503.618	11339.74
503.987	11442.34
504.356	11571.38
504.724	11610.47
505.093	11699.28
505.462	11807.75
505.83	11881.42
506.199	11996.45
506.567	12152.6
506.936	12254.75
507.304	12350.57
507.672	12462.43
508.041	12518.92
508.409	12581.29
508.777	12669.88
509.145	12707.84
509.514	12787.84
509.882	12887.05
510.25	12888.86
510.618	12984.9
510.986	12982.64
511.354	13141.05
511.722	13228.51
512.09	13315.51
512.458	13315.74
512.826	13472.12
513.193	13458.78
513.561	13484.77
513.929	13659.91
514.297	13693.35
514.664	13803.86
515.032	13761.38
515.4	13965.89
515.767	13890.86
516.135	14003.4
516.502	13903.52
516.869	14056.06
517.237	14122.95
517.604	14018.09
517.972	14134.47
518.339	14226.22
518.706	14180.8
519.073	14299.89
519.44	14338.54
519.808	14402.26
520.175	14342.83
520.542	14552.54
520.909	14583.5
521.276	14571.75
521.643	14613.78
522.009	14724.29
522.376	14765.19
522.743	14748.92
523.11	14845.41
523.477	14993.43
523.843	15062.81
524.21	15124.28
524.577	15173.77
524.943	15223.71
525.31	15232.75
525.676	15333.09
526.043	15262.13
526.409	15316.81
526.776	15453.08
527.142	15397.04
527.508	15387.77
527.874	15423.25
528.241	15391.16
528.607	15536.47
528.973	15494.21
529.339	15448.34
529.705	15652.63
530.071	15649.46
530.437	15611.27
530.803	15738.72
531.169	15641.55
531.535	15632.06
531.901	15572.63
532.267	15671.83
532.632	15677.26
532.998	15732.85
533.364	15692.62
533.73	15682
534.095	15714.77
534.461	15707.54
534.826	15679.74
535.192	15695.11
535.557	15691.72
535.923	15645.17
536.288	15618.05
536.653	15651.5
537.019	15595.9
537.384	15597.94
537.749	15608.56
538.114	15656.69
538.479	15529.24
538.845	15480.43
539.21	15560.88
539.575	15448.56
539.94	15456.92
540.305	15545.28
540.67	15424.16
541.034	15489.92
541.399	15465.29
541.764	15391.39
542.129	15344.61
542.494	15287.21
542.858	15345.97
543.223	15249.92
543.587	15306.19
543.952	15188.91
544.316	15273.43
544.681	15162.02
545.045	15201.34
545.41	15179.87
545.774	15131.73
546.138	15134.67
546.503	15097.84
546.867	14985.07
547.231	15122.7
547.595	15061.45
547.959	14960.44
548.324	14942.14
548.688	14886.32
549.052	14940.55
549.416	14884.51
549.779	14881.57
550.143	14891.52
550.507	14858.75
550.871	14783.5
551.235	14783.04
551.599	14827.56
551.962	14769.48
552.326	14747.11
552.689	14674.35
553.053	14715.25
553.417	14676.15
553.78	14856.04
554.143	14607.68
554.507	14685.42
554.87	14652.43
555.234	14757.73
555.597	14624.4
555.96	14614.91
556.323	14669.6
556.686	14578.76
557.05	14630.05
557.413	14600.45
557.776	14566.55
558.139	14632.54
558.502	14648.58
558.865	14643.16
559.228	14672.09
559.59	14630.51
559.953	14555.48
560.316	14755.47
560.679	14626.89
561.041	14690.16
561.404	14619.66
561.767	14629.6
562.129	14642.71
562.492	14803.38
562.854	14698.53
563.217	14660.33
563.579	14655.36
563.941	14759.77
564.304	14795.92
564.666	14859.2
565.028	14838.64
565.39	14868.24
565.753	14785.98
566.115	14913.66
566.477	14937.62
566.839	15001.34
567.201	14942.59
567.563	14936.94
567.925	14985.3
568.287	14915.02
568.648	14997.05
569.01	14982.13
569.372	15046.09
569.734	15059.87
570.095	14991.17
570.457	15186.2
570.819	15058.74
571.18	15059.42
571.542	15212.41
571.903	15163.15
572.265	15185.97
572.626	15222.58
572.987	15247.66
573.349	15202.69
573.71	15295.8
574.071	15274.1
574.432	15323.59
574.794	15322.69
575.155	15400.65
575.516	15331.73
575.877	15346.64
576.238	15360.88
576.599	15421.44
576.96	15384.38
577.32	15311.62
577.681	15364.5
578.042	15486.08
578.403	15366.76
578.763	15404.5
579.124	15405.17
579.485	15478.39
579.845	15442.24
580.206	15481.56
580.566	15320.88
580.927	15414.67
581.287	15440.43
581.648	15385.29
582.008	15460.09
582.368	15429.81
582.728	15386.42
583.089	15421.9
583.449	15502.8
583.809	15364.95
584.169	15463.93
584.529	15374.67
584.889	15545.06
585.249	15403.82
585.609	15387.1
585.969	15382.12
586.329	15436.36
586.688	15381.45
587.048	15324.27
587.408	15392.97
587.768	15365.18
588.127	15342.8
588.487	15300.09
588.846	15450.37
589.206	15237.04
589.565	15239.53
589.925	15295.12
590.284	15257.61
590.643	15353.42
591.003	15297.38
591.362	15319.07
591.721	15324.5
592.08	15241.56
592.44	15389.58
592.799	15292.86
593.158	15299.41
593.517	15251.28
593.876	15302.8
594.235	15224.84
594.593	15302.8
594.952	15252.86
595.311	15238.85
595.67	15209.92
596.029	15259.64
596.387	15325.4
596.746	15322.69
597.104	15184.16
597.463	15206.31
597.822	15286.53
598.18	15151.85
598.538	15218.96
598.897	15310.71
599.255	15069.36
599.613	15335.12
599.972	15246.76
600.33	15277.27
600.688	15108.68
601.046	15277.72
601.404	15284.95
601.762	15146.2
602.12	15285.86
602.478	15212.64
602.836	15315.01
603.194	15218.06
603.552	15189.81
603.91	15153.88
604.268	15285.18
604.625	15171.28
604.983	15254.22
605.341	15280.66
605.698	15322.46
606.056	15346.64
606.413	15319.75
606.771	15379.19
607.128	15357.04
607.485	15195.01
607.843	15291.5
608.2	15330.15
608.557	15415.12
608.914	15324.5
609.272	15457.6
609.629	15450.82
609.986	15454.89
610.343	15399.3
610.7	15545.96
611.057	15445.85
611.414	15415.34
611.771	15487.66
612.127	15552.29
612.484	15514.1
612.841	15451.27
613.198	15462.57
613.554	15496.7
613.911	15630.03
614.267	15568.11
614.624	15544.15
614.98	15502.35
615.337	15611.27
615.693	15604.49
616.05	15558.16
616.406	15683.13
616.762	15678.16
617.118	15544.83
617.475	15626.64
617.831	15691.04
618.187	15727.43
618.543	15661.66
618.899	15735.11
619.255	15794.99
619.611	15725.62
619.967	15770.59
620.323	15821.66
620.678	15726.75
621.034	15737.14
621.39	15687.43
621.746	15760.19
622.101	15924.71
622.457	15620.31
622.812	15742.11
623.168	15767.88
623.523	15776.46
623.879	15845.61
624.234	15685.39
624.589	15811.04
624.945	15768.33
625.3	15808.33
625.655	15694.66
626.01	15731.49
626.365	15844.26
626.72	15758.84
627.075	15749.35
627.43	15743.47
627.785	15671.16
628.14	15689.01
628.495	15731.72
628.85	15774.43
629.205	15667.77
629.559	15811.94
629.914	15653.3
630.269	15630.93
630.623	15613.53
630.978	15674.55
631.332	15650.82
631.687	15704.83
632.041	15624.15
632.396	15719.52
632.75	15599.52
633.104	15660.99
633.459	15484.49
633.813	15574.44
634.167	15456.92
634.521	15464.83
634.875	15574.44
635.229	15563.81
635.583	15393.42
635.937	15423.48
636.291	15390.26
636.645	15445.17
636.999	15356.81
637.352	15376.02
637.706	15327.89
638.06	15326.76
638.413	15378.96
638.767	15261.9
639.121	15325.63
639.474	15184.16
639.828	15235.46
640.181	15305.29
640.534	15256.48
640.888	15259.87
641.241	15081.11
641.594	15165.41
641.947	15218.29
642.301	15161.34
642.654	15084.73
643.007	15136.48
643.36	15085.18
643.713	15046.31
644.066	15119.08
644.419	15002.7
644.771	14944.85
645.124	14867.11
645.477	14877.5
645.83	14660.11
646.182	14621.69
646.535	14602.03
646.888	14654.69
647.24	14600.22
647.593	14590.96
647.945	14567.68
648.298	14517.51
648.65	14590.73
649.002	14461.92
649.355	14595.48
649.707	14489.04
650.059	14648.81
650.411	14868.01
650.763	14837.05
651.115	14877.05
651.467	14822.59
651.819	14889.71
652.171	14843.61
652.523	14839.54
652.875	14850.39
653.227	14793.66
653.578	14890.39
653.93	14824.85
654.282	14854
654.633	14837.51
654.985	14895.58
655.337	14853.1
655.688	14835.92
656.039	14907.56
656.391	14855.36
656.742	14849.71
657.094	14907.79
657.445	14866.43
657.796	14828.24
658.147	14823.95
658.498	14814
658.849	14902.14
659.2	14807.45
659.551	14802.03
659.902	14860.1
660.253	14890.61
660.604	14825.75
660.955	14830.05
661.306	14897.39
661.656	14869.37
662.007	14919.09
662.358	14865.08
662.708	14929.48
663.059	14903.49
663.409	14762.25
663.76	14927.67
664.11	14875.02
664.461	14942.59
664.811	14913.66
665.161	14848.58
665.511	14867.56
665.862	14929.48
666.212	14956.82
666.562	14888.8
666.912	14941.23
667.262	14952.08
667.612	14832.53
667.962	14871.4
668.312	14896.94
668.662	14948.01
669.011	14998.41
669.361	14861.23
669.711	14883.15
670.06	14816.94
670.41	14833.89
670.76	14812.42
671.109	14928.12
671.459	14854.23
671.808	14809.03
672.157	14799.54
672.507	14797.73
672.856	14692.65
673.205	14759.32
673.554	14756.6
673.904	14697.17
674.253	14798.18
674.602	14732.2
674.951	14491.98
675.3	14445.43
675.649	14713.89
675.998	14678.87
676.346	14622.6
676.695	14579.43
677.044	14569.04
677.393	14631.18
677.741	14640.67
678.09	14651.52
678.438	14571.07
678.787	14614.69
679.135	14616.49
679.484	14462.6
679.832	14582.37
680.181	14473.22
680.529	14415.14
680.877	14450.62
681.225	14410.4
681.573	14477.74
681.922	14382.38
682.27	14274.81
682.618	14372.43
682.966	14239.33
683.314	14303.51
683.661	14368.59
684.009	14182.16
684.357	14232.55
684.705	14187.13
685.053	14223.28
685.4	14123.63
685.748	14100.12
686.095	14038.88
686.443	13964.53
686.79	13931.99
687.138	14016.74
687.485	13895.38
687.832	13920.02
688.18	13939.45
688.527	13826.23
688.874	13810.19
689.221	13770.64
689.568	13659.68
689.915	13637.99
690.262	13704.43
690.609	13608.84
690.956	13584.88
691.303	13560.02
691.65	13541.49
691.997	13469.41
692.344	13407.26
692.69	13291.78
693.037	13339.24
693.383	13291.56
693.73	13295.4
694.077	13218.56
694.423	13185.57
694.769	13121.84
695.116	13111.9
695.462	13150.09
695.808	13034.61
696.155	12932.47
696.501	12851.12
696.847	12870.33
697.193	12825.58
697.539	12814.96
697.885	12740.61
698.231	12607.28
698.577	12671.91
698.923	12673.72
699.269	12616.55
699.614	12509.66
699.96	12483.67
700.306	12538.13
700.651	12419.04
700.997	12327.29
701.342	12372.94
701.688	12349.89
702.033	12258.82
702.379	12238.7
702.724	12197.12
703.069	12122.32
703.415	12075.54
703.76	12070.57
704.105	12033.74
704.45	11993.51
704.795	11907.64
705.14	11890.69
705.485	11856.34
705.83	11785.83
706.175	11806.4
706.52	11712.62
706.865	11677.59
707.209	11701.77
707.554	11661.77
707.899	11578.16
708.243	11561.89
708.588	11555.33
708.932	11498.61
709.277	11465.84
709.621	11458.84
709.966	11408.44
710.31	11407.99
710.654	11264.27
710.998	11365.51
711.342	11370.48
711.687	11326.64
712.031	11231.95
712.375	11233.76
712.719	11241.89
713.063	11188.11
713.407	11221.56
713.75	11122.12
714.094	11158.51
714.438	11025.85
714.782	11085.06
715.125	11076.02
715.469	11036.02
715.812	10973.88
716.156	10890.72
716.499	10990.83
716.843	10962.58
717.186	10829.7
717.53	10886.2
717.873	10864.73
718.216	10870.83
718.559	10829.02
718.902	10716.48
719.246	10836.71
719.589	10796.71
719.932	10771.85
720.275	10744.28
720.617	10753.54
720.96	10712.42
721.303	10697.05
721.646	10762.36
721.989	10713.32
722.331	10735.01
722.674	10653.89
723.016	10669.25
723.359	10652.76
723.701	10655.47
724.044	10601.23
724.386	10561.91
724.729	10599.88
725.071	10545.41
725.413	10628.58
725.755	10509.03
726.097	10523.72
726.439	10553.78
726.782	10507
727.124	10538.64
727.465	10444.63
727.807	10490.28
728.149	10419.77
728.491	10482.14
728.833	10519.65
729.175	10452.76
729.516	10481.46
729.858	10462.93
730.199	10436.27
730.541	10423.38
730.882	10429.03
731.224	10501.57
731.565	10394.91
731.906	10383.39
732.248	10338.64
732.589	10363.27
732.93	10324.4
733.271	10340
733.612	10350.39
733.953	10386.77
734.294	10365.08
734.635	10327.34
734.976	10387.68
735.317	10337.74
735.658	10344.52
735.999	10367.57
736.339	10307.45
736.68	10329.15
737.021	10405.31
737.361	10272.43
737.702	10281.01
738.042	10340.22
738.383	10328.25
738.723	10377.74
739.063	10297.51
739.404	10363.5
739.744	10433.33
740.084	10352.2
740.424	10380.9
740.764	10395.59
741.104	10362.82
741.444	10305.2
741.784	10378.64
742.124	10400.56
742.464	10363.95
742.804	10422.93
743.143	10495.92
743.483	10483.04
743.823	10418.64
744.162	10504.96
744.502	10537.28
744.841	10618.63
745.181	10673.32
745.52	10621.57
745.86	10678.74
746.199	10711.51
746.538	10720.78
746.877	10761.68
747.216	10822.24
747.556	10899.08
747.895	10969.81
748.234	10922.81
748.573	10966.65
748.911	11050.71
749.25	11127.55
749.589	11128
749.928	11252.51
750.267	11345.17
750.605	11403.47
750.944	11467.88
751.283	11466.52
751.621	11659.28
751.96	11643.01
752.298	11736.8
752.636	11918.94
752.975	11987.64
753.313	12093.17
753.651	12219.04
753.989	12210.91
754.327	12260.62
754.666	12410.45
755.004	12598.69
755.342	12680.05
755.679	12874.85
756.017	12924.56
756.355	13081.17
756.693	13162.52
757.031	13369.97
757.368	13442.06
757.706	13583.53
758.044	13767.48
758.381	13917.53
758.719	14059.9
759.056	14280.23
759.394	14458.53
759.731	14449.27
760.068	14585.99
760.405	14804.29
760.743	14949.82
761.08	15137.16
761.417	15238.4
761.754	15430.26
762.091	15593.87
762.428	15707.09
762.765	15877.48
763.102	16106.4
763.438	16178.04
763.775	16389.78
764.112	16506.39
764.449	16651.02
764.785	16772.6
765.122	16879.26
765.458	17027.05
765.795	17297.55
766.131	17423.2
766.467	17506.59
766.804	17687.6
767.14	17697.32
767.476	17905.22
767.812	17964.2
768.148	18221.6
768.485	18209.85
768.821	18307.92
769.157	18377.75
769.492	18528.93
769.828	18671.53
770.164	18693
770.5	18805.31
770.836	18940.45
771.171	18989.49
771.507	19082.82
771.842	19077.62
772.178	19274.45
772.513	19350.38
772.849	19421.34
773.184	19386.76
773.519	19585.18
773.855	19500.89
774.19	19631.05
774.525	19736.13
774.86	19764.38
775.195	19891.84
775.53	19882.34
775.865	19799.18
776.2	19850.03
776.535	19663.37
776.87	19898.16
777.205	19891.61
777.539	19860.88
777.874	20107.2
778.209	19900.42
778.543	19994.88
778.878	20004.83
779.212	20011.83
779.547	19985.17
779.881	20176.57
780.215	20019.06
780.55	20222.45
780.884	20085.95
781.218	20106.52
781.552	20158.27
781.886	20033.3
782.22	20074.88
782.554	20083.47
782.888	19948.11
783.222	19885.51
783.556	19842.8
783.889	19908.33
784.223	19801.44
784.557	19824.94
784.89	19869.69
785.224	19806.64
785.557	19809.35
785.891	19723.93
786.224	19662.46
786.558	19858.16
786.891	19697.72
787.224	19615.23
787.557	19529.81
787.891	19589.02
788.224	19567.1
788.557	19683.71
788.89	19534.33
789.223	19615.01
789.556	19528.91
789.888	19464.5
790.221	19459.53
790.554	19278.07
790.887	19375.47
791.219	19241.91
791.552	19222.47
791.884	19147.67
792.217	19246.2
792.549	19206.88
792.882	19073.1
793.214	18865.65
793.546	19074.23
793.879	18921.92
794.211	18838.76
794.543	18811.86
794.875	18806.44
795.207	18895.03
795.539	18782.03
795.871	18892.31
796.203	18696.39
796.535	18491.19
796.867	18613
797.198	18512.66
797.53	18488.48
797.862	18496.62
798.193	18434.25
798.525	18397.86
798.856	18488.03
799.188	18126.46
799.519	18177.76
799.85	18081.04
800.182	18130.07
800.513	18057.76
800.844	17983.41
801.175	18187.7
801.506	18052.11
801.837	17929.18
802.168	17875.84
802.499	17973.92
802.83	17810.53
803.161	17805.11
803.491	17752.91
803.822	17758.78
804.153	17617.55
804.483	17580.71
804.814	17418.23
805.145	17494.84
805.475	17454.16
805.805	17434.27
806.136	17401.96
806.466	17458
806.796	17372.58
807.126	17284.67
807.457	17147.95
807.787	17194.28
808.117	17177.78
808.447	17058.69
808.777	17088.52
809.107	16970.78
809.436	16955.42
809.766	17005.58
810.096	16717
810.426	16830
810.755	16805.82
811.085	16817.34
811.414	16847.85
811.744	16633.62
812.073	16578.25
812.403	16782.54
812.732	16564.47
813.061	16585.48
813.39	16434.53
813.719	16427.29
814.049	16509.55
814.378	16480.63
814.707	16482.21
815.036	16417.35
815.365	16318.37
815.693	16231.59
816.022	16204.7
816.351	16104.36
816.68	16137.13
817.008	16228.43
817.337	16064.37
817.665	15946.85
817.994	15995.44
818.322	15975.55
818.651	15910.7
818.979	15923.58
819.307	15945.72
819.636	15902.11
819.964	15826.86
820.292	15905.5
820.62	15899.17
820.948	15828.89
821.276	15857.59
821.604	15773.98
821.932	15802.23
822.259	15803.81
822.587	15783.92
822.915	15748.89
823.243	15778.72
823.57	15798.61
823.898	15798.38
824.225	15711.38
824.553	15730.36
824.88	15746.41
825.207	15886.74
825.535	15801.77
825.862	15845.39
826.189	15702.57
826.516	15793.41
826.843	15848.55
827.17	15772.62
827.497	15861.21
827.824	15792.73
828.151	15874.09
828.478	15766.29
828.805	15799.74
829.131	15718.84
829.458	15808.78
829.785	15722.91
830.111	15796.58
830.438	15759.74
830.764	15773.3
831.09	15766.52
831.417	15639.74
831.743	15710.25
832.069	15746.86
832.395	15701.21
832.722	15815.11
833.048	15646.07
833.374	15698.27
833.7	15560.42
834.026	15740.53
834.351	15693.98
834.677	15681.78
835.003	15696.92
835.329	15573.98
835.654	15570.59
835.98	15596.13
836.306	15635
836.631	15518.62
836.956	15680.42
837.282	15563.36
837.607	15560.42
837.932	15420.31
838.258	15520.2
838.583	15477.26
838.908	15352.07
839.233	15357.94
839.558	15406.08
839.883	15245.18
840.208	15272.3
840.533	15249.92
840.858	15207.89
841.182	15173.77
841.507	15202.47
841.832	15084.05
842.156	15111.62
842.481	15126.54
842.805	15132.64
843.13	14983.04
843.454	14976.71
843.778	14992.98
844.103	14871.18
844.427	14802.93
844.751	14830.5
845.075	14896.94
845.399	14769.03
845.723	14738.98
846.047	14686.55
846.371	14561.81
846.695	14583.73
847.019	14463.05
847.343	14380.79
847.666	14375.37
847.99	14291.31
848.313	14333.56
848.637	14173.12
848.96	14213.79
849.284	14134.47
849.607	14005.89
849.931	14045.44
850.254	13861.94
850.577	13837.08
850.9	13752.79
851.223	13702.85
851.546	13677.08
851.869	13644.99
852.192	13602.74
852.515	13423.31
852.838	13502.63
853.161	13490.87
853.483	13379.69
853.806	13461.95
854.129	13299.69
854.451	13304.66
854.774	13198.23
855.096	13202.75
855.419	13124.78
855.741	13155.52
856.063	12948.52
856.385	13040.26
856.708	13031
857.03	12939.93
857.352	12964.56
857.674	12859.03
857.996	12840.04
858.318	12721.4
858.64	12769.31
858.961	12724.79
859.283	12594.63
859.605	12591.01
859.926	12596.66
860.248	12620.39
860.57	12535.87
860.891	12490.9
861.212	12487.28
861.534	12429.89
861.855	12379.49
862.176	12461.3
862.498	12397.8
862.819	12389.43
863.14	12392.6
863.461	12264.01
863.782	12171.59
864.103	12193.51
864.424	12306.72
864.745	12228.99
865.065	12170.91
865.386	12104.92
865.707	12135.43
866.027	12104.92
866.348	12152.6
866.668	12039.16
866.989	12018.82
867.309	11983.34
867.63	12090.91
867.95	12046.62
868.27	11923.46
868.59	11976.34
868.91	11979.5
869.23	11889.11
869.55	11874.42
869.87	11942.67
870.19	11850.01
870.51	11836
870.83	11893.4
871.15	11749.9
871.469	11791.94
871.789	11817.02
872.109	11734.76
872.428	11605.27
872.748	11736.57
873.067	11746.06
873.386	11716.01
873.706	11725.27
874.025	11576.8
874.344	11560.98
874.663	11602.11
874.982	11597.14
875.301	11617.48
875.62	11550.59
875.939	11524.82
876.258	11478.5
876.577	11478.72
876.896	11463.36
877.214	11462
877.533	11463.58
877.852	11319.86
878.17	11399.63
878.489	11316.47
878.807	11383.58
879.125	11342.68
879.444	11314.89
879.762	11231.27
880.08	11285.06
880.398	11276.02
880.716	11204.15
881.034	11153.76
881.352	11214.55
881.67	11167.77
881.988	11161.67
882.306	11115.12
882.624	11072.18
882.941	10981.34
883.259	11008.23
883.577	10980.43
883.894	10947.89
884.212	10981.56
884.529	10880.32
884.846	10918.29
885.164	10856.59
885.481	10820.66
885.798	10880.55
886.115	10785.18
886.432	10832.41
886.75	10771.17
887.067	10770.95
887.383	10664.51
887.7	10696.15
888.017	10636.26
888.334	10645.53
888.651	10604.17
888.967	10499.31
889.284	10575.92
889.6	10463.16
889.917	10449.82
890.233	10487.56
890.55	10464.74
890.866	10400.11
891.182	10339.54
891.498	10311.75
891.815	10316.72
892.131	10339.32
892.447	10263.16
892.763	10164.86
893.079	10178.19
893.395	10144.75
893.71	10094.58
894.026	10081.7
894.342	10046.44
894.657	10080.57
894.973	9987.92
895.289	9908.82
895.604	9972.32
895.92	9850.07
896.235	9788.15
896.55	9860.91
896.865	9806.9
897.181	9761.25
897.496	9779.33
897.811	9707.24
898.126	9668.6
898.441	9628.38
898.756	9673.12
899.071	9542.96
899.386	9535.27
899.7	9483.07
900.015	9417.76
900.33	9334.83
900.644	9372.11
900.959	9397.42
901.273	9294.83
901.588	9284.21
901.902	9197.2
902.216	9204.89
902.531	9184.09
902.845	9143.64
903.159	9122.4
903.473	9033.14
903.787	8992.01
904.101	8881.73
904.415	8907.04
904.729	8945.46
905.042	8897.32
905.356	8873.82
905.67	8813.93
905.984	8800.15
906.297	8768.06
906.611	8720.38
906.924	8688.51
907.237	8720.83
907.551	8628.63
907.864	8540.72
908.177	8611.91
908.491	8569.87
908.804	8491.46
909.117	8401.97
909.43	8427.96
909.743	8318.58
910.056	8289.2
910.368	8315.19
910.681	8223.67
910.994	8280.16
911.307	8213.05
911.619	8162.43
911.932	8153.16
912.244	8058.7
912.557	8048.08
912.869	8006.5
913.181	8011.47
913.494	7971.7
913.806	7923.34
914.118	7911.81
914.43	7884.92
914.742	7887.63
915.054	7801.76
915.366	7799.5
915.678	7758.82
915.99	7690.8
916.302	7653.51
916.613	7598.15
916.925	7653.29
917.236	7587.3
917.548	7535.1
917.859	7499.39
918.171	7467.76
918.482	7436.8
918.794	7461.43
919.105	7431.37
919.416	7386.85
919.727	7359.96
920.038	7304.82
920.349	7209.23
920.66	7277.93
920.971	7247.87
921.282	7219.17
921.593	7193.41
921.903	7100.99
922.214	7045.62
922.525	7096.69
922.835	7057.14
923.146	6980.08
923.456	6964.94
923.767	6987.77
924.077	6968.11
924.387	6924.72
924.697	6868.22
925.008	6840.65
925.318	6800.88
925.628	6793.42
925.938	6762.01
926.248	6706.87
926.558	6730.83
926.867	6683.6
927.177	6649.7
927.487	6581.23
927.796	6592.3
928.106	6571.96
928.416	6572.86
928.725	6526.76
929.034	6495.58
929.344	6522.7
929.653	6481.57
929.962	6350.04
930.271	6341.68
930.581	6350.72
930.89	6327.22
931.199	6300.33
931.508	6267.11
931.817	6270.05
932.125	6265.98
932.434	6167.68
932.743	6126.32
933.051	6101.46
933.36	6131.52
933.669	6048.36
933.977	6063.72
934.286	6095.14
934.594	6061.69
934.902	6005.2
935.21	5966.1
935.519	5880
935.827	5924.75
936.135	5907.57
936.443	5835.71
936.751	5802.71
937.059	5802.49
937.367	5828.7
937.674	5806.56
937.982	5749.61
938.29	5763.85
938.597	5726.56
938.905	5621.02
939.213	5628.26
939.52	5599.33
939.827	5640.46
940.135	5523.4
940.442	5494.7
940.749	5535.83
941.056	5535.38
941.363	5482.05
941.67	5420.13
941.977	5387.13
942.284	5408.6
942.591	5328.15
942.898	5326.12
943.205	5352.56
943.511	5290.64
943.818	5298.1
944.125	5240.7
944.431	5235.72
944.738	5218.32
945.044	5181.04
945.35	5141.04
945.657	5128.61
945.963	5122.96
946.269	5059.01
946.575	5134.71
946.881	5024.88
947.187	5000.25
947.493	5014.26
947.799	4990.76
948.105	4939.91
948.41	4960.25
948.716	4969.29
949.022	4910.31
949.327	4905.34
949.633	4877.99
949.938	4898.33
950.244	4849.52
950.549	4808.39
950.854	4810.42
951.16	4775.62
951.465	4713.7
951.77	4689.52
952.075	4690.2
952.38	4686.13
952.685	4678
952.99	4603.88
953.294	4629.64
953.599	4562.97
953.904	4594.61
954.209	4548.28
954.513	4568.17
954.818	4550.54
955.122	4517.1
955.426	4499.02
955.731	4488.62
956.035	4478.23
956.339	4429.19
956.643	4476.42
956.948	4400.04
957.252	4369.53
957.556	4363.88
957.86	4353.94
958.163	4370.66
958.467	4331.79
958.771	4283.21
959.075	4311.68
959.378	4263.55
959.682	4203.21
959.985	4181.51
960.289	4196.2
960.592	4194.4
960.896	4143.1
961.199	4152.81
961.502	4151.46
961.805	4108.75
962.108	4087.51
962.411	4089.31
962.714	4086.15
963.017	4047.51
963.32	4031.91
963.623	4042.76
963.926	3963.67
964.228	3932.48
964.531	3922.54
964.833	3929.09
965.136	3919.37
965.438	3885.7
965.741	3840.05
966.043	3861.52
966.345	3850.68
966.648	3882.77
966.95	3826.72
967.252	3779.94
967.554	3784.24
967.856	3740.85
968.158	3733.16
968.46	3753.5
968.761	3698.59
969.063	3720.74
969.365	3659.04
969.666	3677.35
969.968	3631.02
970.269	3623.79
970.571	3604.58
970.872	3612.04
971.174	3555.09
971.475	3544.47
971.776	3573.17
972.077	3541.31
972.378	3549.21
972.679	3519.38
972.98	3483
973.281	3471.7
973.582	3469.67
973.883	3452.72
974.183	3441.65
974.484	3424.02
974.785	3368.65
975.085	3404.13
975.386	3440.06
975.686	3364.13
975.986	3337.69
976.287	3391.48
976.587	3284.59
976.887	3304.25
977.187	3313.74
977.487	3313.29
977.787	3261.76
978.087	3236.45
978.387	3217.92
978.687	3220.41
978.987	3158.04
979.286	3180.41
979.586	3196.23
979.885	3139.96
980.185	3146.97
980.484	3123.01
980.784	3115.1
981.083	3094.09
981.382	3052.5
981.682	3058.83
981.981	3083.46
982.28	3061.09
982.579	3027.65
982.878	3049.57
983.177	3017.7
983.475	3000.53
983.774	2985.16
984.073	2937.48
984.372	2903.81
984.67	2912.85
984.969	2926.86
985.267	2950.59
985.566	2898.61
985.864	2881.21
986.162	2873.3
986.461	2892.51
986.759	2835.11
987.057	2838.72
987.355	2814.77
987.653	2787.65
987.951	2781.78
988.249	2797.82
988.547	2766.64
988.844	2760.99
989.142	2749.69
989.44	2731.16
989.737	2678.28
990.035	2692.74
990.332	2678.05
990.63	2659.07
990.927	2673.76
991.224	2646.19
991.521	2641.44
991.819	2593.08
992.116	2600.31
992.413	2599.18
992.71	2602.35
993.006	2619.75
993.303	2584.27
993.6	2545.17
993.897	2498.85
994.193	2528.68
994.49	2525.51
994.787	2495.46
995.083	2485.97
995.379	2468.11
995.676	2476.47
995.972	2460.66
996.268	2444.16
996.565	2431.05
996.861	2414.56
997.157	2419.07
997.453	2405.74
997.749	2391.05
998.044	2351.96
998.34	2360.77
998.636	2347.66
998.932	2344.5
999.227	2308.8
999.523	2306.31
999.818	2291.85
1000.114	2267.67
1000.409	2261.79
1000.704	2256.59
1001	2236.93
1001.295	2226.09
1001.59	2230.61
1001.885	2196.03
1002.18	2163.49
1002.475	2179.31
1002.77	2176.14
1003.065	2177.27
1003.359	2154
1003.654	2137.05
1003.949	2131.85
1004.243	2119.2
1004.538	2097.28
1004.832	2094.11
1005.127	2089.37
1005.421	2083.72
1005.715	2064.96
1006.009	2045.3
1006.304	2033.1
1006.598	2047.33
1006.892	1998.75
1007.186	2050.04
1007.48	1998.97
1007.773	2027.45
1008.067	1996.04
1008.361	1959.88
1008.655	1929.6
1008.948	1929.6
1009.242	1953.32
1009.535	1908.35
1009.829	1938.86
1010.122	1889.37
1010.415	1879.88
1010.708	1904.96
1011.001	1854.34
1011.295	1851.41
1011.588	1819.99
1011.881	1829.49
1012.173	1822.48
1012.466	1792.65
1012.759	1776.61
1013.052	1774.35
1013.344	1777.51
1013.637	1761.92
1013.93	1758.98
1014.222	1735.25
1014.514	1725.31
1014.807	1702.26
1015.099	1722.6
1015.391	1685.76
1015.683	1707.23
1015.976	1688.47
1016.268	1674.24
1016.56	1633.11
1016.851	1632.88
1017.143	1638.3
1017.435	1643.05
1017.727	1620.23
1018.018	1609.38
1018.31	1593.56
1018.602	1575.93
1018.893	1575.26
1019.185	1576.84
1019.476	1577.06
1019.767	1530.51
1020.058	1546.78
1020.35	1528.48
1020.641	1533.22
1020.932	1513.11
1021.223	1513.79
1021.514	1488.7
1021.804	1481.25
1022.095	1457.07
1022.386	1489.38
1022.677	1445.99
1022.967	1442.15
1023.258	1423.62
1023.548	1414.81
1023.839	1423.17
1024.129	1411.42
1024.419	1398.76
1024.709	1390.4
1025	1375.26
1025.29	1361.48
1025.58	1359.89
1025.87	1354.24
1026.16	1356.28
1026.449	1345.2
1026.739	1309.05
1027.029	1309.73
1027.319	1278.77
1027.608	1293.68
1027.898	1295.04
1028.187	1266.56
1028.477	1282.83
1028.766	1275.15
1029.055	1258.65
1029.344	1234.25
1029.634	1237.18
1029.923	1263.62
1030.212	1215.72
1030.501	1204.87
1030.79	1209.16
1031.078	1212.33
1031.367	1215.72
1031.656	1190.63
1031.945	1187.92
1032.233	1168.03
1032.522	1173.01
1032.81	1145.89
1033.099	1151.09
1033.387	1126.68
1033.675	1129.84
1033.963	1141.14
1034.251	1113.8
1034.54	1115.38
1034.828	1066.12
1035.116	1051.65
1035.403	1079.45
1035.691	1083.97
1035.979	1073.8
1036.267	1058.88
1036.554	1047.13
1036.842	1054.59
1037.129	1068.15
1037.417	1024.76
1037.704	1023.63
1037.992	1028.15
1038.279	996.51
1038.566	1030.18
1038.853	1030.18
1039.14	1030.18
