Data from hue_190_FLMS001491_00065.txt Node
Date: Tue Feb 07 16:45:37 GMT 2017
User: dcchb
Spectrometer: FLMS00149
Trigger mode: 0
Integration Time (sec): 2.000000E-2
Scans to average: 10
Electric dark correction enabled: true
Nonlinearity correction enabled: false
Boxcar width: 0
XAxis mode: Wavelengths
Number of Pixels in Spectrum: 2048
>>>>>Begin Spectral Data<<<<<
341.393	-2.23
341.776	-2.23
342.16	-2.23
342.543	-85.62
342.927	-65.05
343.31	-74.32
343.693	-75.9
344.077	-69.35
344.46	-75.45
344.843	-42.46
345.226	-55.34
345.61	-33.42
345.993	-29.58
346.376	-6.75
346.759	13.81
347.142	31.89
347.525	53.59
347.908	56.52
348.291	96.3
348.674	99.91
349.057	110.53
349.44	125.22
349.823	124.54
350.206	178.55
350.588	224.88
350.971	195.96
351.354	234.37
351.737	235.73
352.119	255.16
352.502	259.23
352.884	284.54
353.267	277.54
353.65	309.17
354.032	294.26
354.414	306.23
354.797	319.79
355.179	308.95
355.562	322.28
355.944	320.25
356.326	333.35
356.709	334.26
357.091	341.04
357.473	351.88
357.855	357.08
358.238	337.87
358.62	339.23
359.002	338.78
359.384	331.77
359.766	319.34
360.148	320.92
360.53	324.09
360.912	325.44
361.294	345.78
361.676	326.12
362.057	340.58
362.439	349.17
362.821	323.86
363.203	333.35
363.584	337.42
363.966	302.17
364.348	312.34
364.729	315.95
365.111	333.35
365.493	329.96
365.874	318.66
366.256	299
366.637	307.36
367.019	296.52
367.4	302.62
367.781	299.91
368.163	299.68
368.544	297.65
368.925	317.31
369.306	314.37
369.688	296.97
370.069	285.9
370.45	311.66
370.831	313.01
371.212	306.91
371.593	320.02
371.974	303.75
372.355	300.59
372.736	306.23
373.117	322.05
373.498	316.86
373.879	303.75
374.26	304.2
374.641	307.82
375.021	316.4
375.402	319.12
375.783	307.82
376.163	331.09
376.544	321.38
376.925	324.99
377.305	333.35
377.686	338.32
378.066	303.07
378.447	320.25
378.827	333.58
379.208	333.35
379.588	341.94
379.968	336.52
380.349	328.38
380.729	325.44
381.109	329.74
381.489	330.19
381.87	321.38
382.25	323.41
382.63	329.29
383.01	320.92
383.39	327.25
383.77	316.4
384.15	343.07
384.53	339.23
384.91	334.48
385.29	341.26
385.67	345.33
386.049	325.67
386.429	342.39
386.809	355.73
387.189	364.09
387.568	339.91
387.948	362.5
388.328	356.86
388.707	336.74
389.087	361.37
389.466	351.66
389.846	348.04
390.225	343.52
390.605	350.3
390.984	378.78
391.363	348.95
391.743	373.58
392.122	339.68
392.501	353.47
392.881	366.35
393.26	363.41
393.639	379.23
394.018	399.79
394.397	371.32
394.776	383.52
395.155	370.19
395.534	387.81
395.913	371.32
396.292	372.45
396.671	377.87
397.05	366.12
397.429	393.46
397.808	379
398.186	386.01
398.565	395.27
398.944	386.91
399.323	391.88
399.701	377.87
400.08	388.49
400.458	394.82
400.837	407.25
401.215	400.92
401.594	414.25
401.972	411.77
402.351	399.57
402.729	407.93
403.107	408.83
403.486	426.46
403.864	415.16
404.242	426.23
404.62	423.97
404.999	426.68
405.377	435.95
405.755	440.47
406.133	450.86
406.511	439.79
406.889	453.35
407.267	477.08
407.645	465.55
408.023	473.46
408.401	468.49
408.779	468.04
409.156	470.98
409.534	491.54
409.912	495.38
410.29	508.04
410.667	497.19
411.045	489.96
411.422	522.27
411.8	534.48
412.178	555.95
412.555	552.1
412.933	566.12
413.31	560.24
413.687	580.13
414.065	575.15
414.442	572.89
414.819	615.83
415.197	584.19
415.574	625.1
415.951	602.5
416.328	617.19
416.705	630.97
417.082	619.45
417.46	624.42
417.837	641.82
418.214	671.42
418.591	673.91
418.967	675.94
419.344	712.78
419.721	683.17
420.098	713
420.475	733.12
420.852	710.97
421.228	760.23
421.605	777.18
421.982	748.48
422.358	775.6
422.735	799.1
423.111	808.14
423.488	821.25
423.864	824.19
424.241	859.89
424.617	873.23
424.994	875.49
425.37	890.63
425.746	889.04
426.123	911.19
426.499	899.89
426.875	929.95
427.251	938.99
427.627	971.98
428.003	949.38
428.379	1003.39
428.756	990.28
429.132	1014.01
429.507	1023.05
429.883	1025.31
430.259	1030.96
430.635	1049.94
431.011	1048.36
431.387	1087.46
431.763	1105.54
432.138	1117.96
432.514	1105.76
432.89	1159.32
433.265	1171.75
433.641	1195.93
434.016	1195.03
434.392	1232.09
434.767	1270.73
435.143	1290.16
435.518	1299.66
435.894	1318.64
436.269	1340.56
436.644	1374.23
437.02	1362.48
437.395	1405.64
437.77	1443.83
438.145	1420.33
438.52	1505.3
438.895	1503.94
439.271	1485.64
439.646	1561.12
440.021	1560.67
440.395	1576.03
440.77	1589.82
441.145	1621.23
441.52	1644.28
441.895	1646.31
442.27	1674.11
442.645	1668.46
443.019	1713.2
443.394	1723.6
443.769	1741.23
444.143	1746.87
444.518	1757.04
444.892	1768.57
445.267	1797.95
445.641	1815.12
446.016	1836.82
446.39	1868.45
446.764	1863.26
447.139	1863.48
447.513	1903.03
447.887	1926.08
448.262	1920.2
448.636	1924.05
449.01	1950.49
449.384	1986.42
449.758	2009.47
450.132	2035.23
450.506	2014.89
450.88	2069.8
451.254	2047.88
451.628	2096.02
452.002	2125.17
452.376	2139.86
452.75	2143.25
453.123	2146.64
453.497	2183.02
453.871	2205.85
454.244	2250.82
454.618	2253.08
454.992	2285.84
455.365	2332.17
455.739	2384.37
456.112	2396.8
456.486	2402.45
456.859	2416.01
457.232	2453.75
457.606	2481.54
457.979	2480.87
458.352	2564.71
458.725	2616.91
459.099	2629.34
459.472	2672.5
459.845	2674.08
460.218	2713.4
460.591	2738.26
460.964	2743.23
461.337	2796.11
461.71	2880.63
462.083	2886.96
462.456	2912.27
462.829	2908.88
463.201	2949.1
463.574	2943.68
463.947	3042.89
464.32	3113.84
464.692	3101.19
465.065	3138.48
465.438	3198.59
465.81	3238.81
466.183	3273.84
466.555	3379.6
466.928	3360.17
467.3	3373.27
467.672	3398.58
468.045	3497.56
468.417	3548.86
468.789	3563.55
469.161	3651.46
469.534	3703.43
469.906	3765.35
470.278	3755.41
470.65	3805.13
471.022	3870.43
471.394	3953.14
471.766	3998.79
472.138	4049.87
472.51	4159.24
472.882	4189.52
473.253	4227.04
473.625	4276.3
473.997	4385.22
474.369	4405.56
474.74	4451.66
475.112	4532.56
475.484	4640.81
475.855	4714.03
476.227	4756.97
476.598	4884.65
476.97	4937.75
477.341	5042.83
477.713	5102.72
478.084	5107.01
478.455	5242.83
478.827	5342.26
479.198	5482.6
479.569	5464.97
479.94	5666.55
480.311	5682.59
480.682	5852.08
481.053	5962.36
481.424	6069.47
481.795	6092.07
482.166	6198.74
482.537	6238.51
482.908	6418.84
483.279	6430.59
483.65	6576.8
484.021	6715.56
484.391	6835.78
484.762	6871.94
485.133	6874.42
485.503	7054.08
485.874	7124.59
486.244	7203.68
486.615	7360.06
486.985	7433.96
487.356	7547.85
487.726	7633.5
488.097	7778.13
488.467	7777.22
488.837	7917.33
489.207	8105.35
489.578	8186.48
489.948	8275.97
490.318	8360.94
490.688	8353.25
491.058	8487.04
491.428	8576.98
491.798	8622.85
492.168	8816.29
492.538	8910.3
492.908	8903.3
493.278	9049.51
493.648	9061.94
494.017	9173.57
494.387	9175.15
494.757	9287.02
495.126	9340.12
495.496	9396.17
495.866	9432.55
496.235	9635.71
496.605	9624.41
496.974	9704.63
497.344	9796.83
497.713	9728.81
498.082	9849.03
498.452	9895.59
498.821	9886.77
499.19	9950.5
499.559	10082.48
499.928	10079.99
500.298	10101.68
500.667	10216.93
501.036	10130.16
501.405	10248.35
501.774	10236.37
502.143	10279.08
502.512	10322.02
502.88	10425.97
503.249	10393.2
503.618	10487.44
503.987	10461.22
504.356	10515.01
504.724	10596.36
505.093	10545.74
505.462	10591.16
505.83	10609.47
506.199	10697.37
506.567	10795.9
506.936	10729.46
507.304	10841.55
507.672	10869.12
508.041	10904.37
508.409	10857.82
508.777	10941.89
509.145	11028.89
509.514	10962.23
509.882	11011.26
510.25	11014.2
510.618	11013.52
510.986	10987.99
511.354	11166.06
511.722	11166.29
512.09	11141.43
512.458	11197.7
512.826	11238.15
513.193	11130.58
513.561	11215.78
513.929	11229.56
514.297	11327.87
514.664	11308.21
515.032	11273.63
515.4	11373.74
515.767	11358.83
516.135	11354.76
516.502	11244.48
516.869	11409.9
517.237	11261.43
517.604	11361.54
517.972	11422.33
518.339	11491.48
518.706	11411.93
519.073	11397.02
519.44	11331.71
519.808	11498.93
520.175	11420.07
520.542	11533.28
520.909	11518.82
521.276	11328.54
521.643	11485.83
522.009	11571.7
522.376	11484.7
522.743	11470.69
523.11	11511.36
523.477	11566.05
523.843	11577.58
524.21	11649.21
524.577	11620.51
524.943	11608.76
525.31	11587.75
525.676	11649.89
526.043	11662.77
526.409	11597.01
526.776	11627.07
527.142	11572.15
527.508	11646.5
527.874	11647.41
528.241	11636.33
528.607	11568.99
528.973	11589.33
529.339	11620.29
529.705	11592.49
530.071	11569.89
530.437	11568.76
530.803	11578.71
531.169	11472.95
531.535	11468.2
531.901	11466.62
532.267	11392.72
532.632	11369.9
532.998	11389.56
533.364	11355.21
533.73	11231.37
534.095	11318.37
534.461	11341.88
534.826	11255.1
535.192	11191.82
535.557	11206.29
535.923	11089
536.288	11130.13
536.653	11085.16
537.019	11011.04
537.384	10959.51
537.749	10950.25
538.114	10882.45
538.479	10827.77
538.845	10863.7
539.21	10693.31
539.575	10700.54
539.94	10670.03
540.305	10765.62
540.67	10597.04
541.034	10522.01
541.399	10560.2
541.764	10549.13
542.129	10439.3
542.494	10416.7
542.858	10338.97
543.223	10202.7
543.587	10234.34
543.952	10122.93
544.316	10130.16
544.681	10090.61
545.045	10037.5
545.41	10008.13
545.774	9967
546.138	9886.55
546.503	9856.72
546.867	9811.07
547.231	9822.82
547.595	9787.12
547.959	9750.05
548.324	9607.91
548.688	9615.14
549.052	9622.6
549.416	9473
549.779	9463.73
550.143	9425.77
550.507	9420.12
550.871	9351.65
551.235	9331.99
551.599	9262.38
551.962	9247.69
552.326	9225.77
552.689	9210.18
553.053	9059.23
553.417	9077.76
553.78	9110.98
554.143	9037.08
554.507	8982.39
554.87	8942.62
555.234	8944.88
555.597	8860.36
555.96	8810.19
556.323	8790.98
556.686	8770.19
557.05	8752.34
557.413	8735.84
557.776	8711.21
558.139	8689.29
558.502	8608.62
558.865	8579.24
559.228	8574.94
559.59	8614.49
559.953	8602.74
560.316	8564.77
560.679	8560.48
561.041	8565.23
561.404	8483.2
561.767	8540.59
562.129	8452.69
562.492	8504.66
562.854	8424.44
563.217	8424.21
563.579	8455.4
563.941	8401.16
564.304	8418.11
564.666	8414.95
565.028	8435.96
565.39	8370.88
565.753	8423.54
566.115	8341.73
566.477	8403.65
566.839	8398.9
567.201	8445.46
567.563	8365.91
567.925	8378.57
568.287	8353.93
568.648	8383.31
569.01	8357.32
569.372	8384.67
569.734	8286.36
570.095	8335.18
570.457	8404.1
570.819	8401.62
571.18	8357.77
571.542	8359.13
571.903	8301.96
572.265	8394.61
572.626	8345.35
572.987	8292.24
573.349	8348.96
573.71	8345.12
574.071	8355.29
574.432	8316.87
574.794	8367.04
575.155	8354.84
575.516	8341.73
575.877	8301.73
576.238	8366.59
576.599	8302.41
576.96	8324.33
577.32	8320.26
577.681	8295.63
578.042	8301.73
578.403	8295.86
578.763	8280.94
579.124	8277.78
579.485	8281.62
579.845	8376.53
580.206	8301.5
580.566	8264.44
580.927	8225.57
581.287	8255.63
581.648	8164.11
582.008	8291.11
582.368	8238.46
582.728	8206.14
583.089	8196.42
583.449	8237.1
583.809	8192.13
584.169	8232.58
584.529	8147.61
584.889	8278.23
585.249	8110.32
585.609	8151.68
585.969	8193.26
586.329	8153.94
586.688	8196.2
587.048	8108.74
587.408	8107.16
587.768	8108.97
588.127	8102.19
588.487	8089.76
588.846	8135.86
589.206	8071.45
589.565	8027.84
589.925	8055.86
590.284	8062.64
590.643	8071.23
591.003	8047.05
591.362	8059.48
591.721	8060.38
592.08	8013.83
592.44	8082.98
592.799	8059.7
593.158	8043.88
593.517	8016.54
593.876	7982.64
594.235	7992.36
594.593	7975.19
594.952	8052.7
595.311	7981.97
595.67	7962.76
596.029	7943.1
596.387	7955.75
596.746	7960.27
597.104	7931.57
597.463	7930.67
597.822	7963.21
598.18	7921.4
598.538	7873.27
598.897	7979.25
599.255	7840.73
599.613	7960.95
599.972	7906.04
600.33	7923.44
600.688	7873.04
601.046	7898.35
601.404	7895.41
601.762	7880.27
602.12	7882.31
602.478	7864.91
602.836	7908.07
603.194	7854.74
603.552	7884.34
603.91	7872.59
604.268	7828.97
604.625	7854.96
604.983	7879.82
605.341	7779.03
605.698	7878.47
606.056	7911.91
606.413	7756.66
606.771	7892.93
607.128	7819.26
607.485	7829.88
607.843	7862.42
608.2	7848.86
608.557	7865.81
608.914	7809.99
609.272	7868.75
609.629	7872.36
609.986	7868.52
610.343	7823.33
610.7	7869.43
611.057	7845.25
611.414	7896.32
611.771	7907.39
612.127	7908.97
612.484	7953.27
612.841	7899.03
613.198	7910.55
613.554	7886.83
613.911	7964.11
614.267	7967.05
614.624	7827.17
614.98	7934.73
615.337	7984
615.693	7901.52
616.05	7955.75
616.406	7965.69
616.762	7939.71
617.118	7881.4
617.475	7925.47
617.831	7911.01
618.187	7872.59
618.543	7917.33
618.899	8006.82
619.255	7928.63
619.611	7942.42
619.967	7971.34
620.323	7969.99
620.678	7949.88
621.034	7994.17
621.39	8005.24
621.746	7939.25
622.101	8038.23
622.457	7927.05
622.812	7904
623.168	8014.05
623.523	8016.77
623.879	7953.49
624.234	7977.9
624.589	7948.07
624.945	7983.32
625.3	7996.2
625.655	7958.92
626.01	7944.9
626.365	7984
626.72	7976.32
627.075	7979.48
627.43	7930.89
627.785	7894.28
628.14	7917.79
628.495	7957.56
628.85	7925.02
629.205	7870.1
629.559	7943.55
629.914	7901.52
630.269	7901.74
630.623	7893.15
630.978	7869.43
631.332	7936.32
631.687	7841.4
632.041	7858.35
632.396	7851.57
632.75	7763.89
633.104	7859.48
633.459	7788.3
633.813	7783.33
634.167	7772.48
634.521	7778.58
634.875	7827.39
635.229	7786.72
635.583	7734.74
635.937	7784.46
636.291	7708.3
636.645	7733.16
636.999	7751.91
637.352	7699.71
637.706	7686.61
638.06	7704.23
638.413	7668.3
638.767	7644.57
639.121	7639.38
639.474	7685.48
639.828	7611.81
640.181	7658.36
640.534	7664.69
640.888	7600.96
641.241	7655.87
641.594	7565.93
641.947	7549.43
642.301	7598.25
642.654	7566.61
643.007	7592.37
643.36	7556.44
643.713	7541.98
644.066	7586.5
644.419	7611.35
644.771	7474.63
645.124	7438.93
645.477	7429.44
645.83	7373.62
646.182	7339.72
646.535	7425.82
646.888	7309.89
647.24	7289.78
647.593	7332.49
647.945	7342.66
648.298	7308.76
648.65	7313.73
649.002	7227.18
649.355	7302.66
649.707	7299.72
650.059	7375.43
650.411	7373.17
650.763	7449.32
651.115	7489.32
651.467	7458.14
651.819	7504.46
652.171	7471.24
652.523	7477.35
652.875	7468.08
653.227	7417.91
653.578	7483.9
653.93	7525.48
654.282	7436.22
654.633	7421.75
654.985	7440.96
655.337	7457.69
655.688	7482.09
656.039	7436.67
656.391	7408.87
656.742	7479.83
657.094	7454.07
657.445	7475.09
657.796	7479.61
658.147	7511.7
658.498	7467.85
658.849	7484.58
659.2	7490
659.551	7535.65
659.902	7527.97
660.253	7504.69
660.604	7509.66
660.955	7515.31
661.306	7551.69
661.656	7537.91
662.007	7497.91
662.358	7565.71
662.708	7541.98
663.059	7559.83
663.409	7535.42
663.76	7604.12
664.11	7554.63
664.461	7598.92
664.811	7603.67
665.161	7576.55
665.511	7517.34
665.862	7577.91
666.212	7636.44
666.562	7568.64
666.912	7519.83
667.262	7550.56
667.612	7603.44
667.962	7605.93
668.312	7568.42
668.662	7565.03
669.011	7593.5
669.361	7500.17
669.711	7559.83
670.06	7528.42
670.41	7547.85
670.76	7549.21
671.109	7501.75
671.459	7542.65
671.808	7524.12
672.157	7567.96
672.507	7521.19
672.856	7554.86
673.205	7520.51
673.554	7549.66
673.904	7519.15
674.253	7474.41
674.602	7526.38
674.951	7481.87
675.3	7348.08
675.649	7477.12
675.998	7441.41
676.346	7491.36
676.695	7442.32
677.044	7463.79
677.393	7434.18
677.741	7451.13
678.09	7390.34
678.438	7398.48
678.787	7464.69
679.135	7445.93
679.484	7343.34
679.832	7377.24
680.181	7373.62
680.529	7369.33
680.877	7296.11
681.225	7325.94
681.573	7335.88
681.922	7278.48
682.27	7293.17
682.618	7260.18
682.966	7199.16
683.314	7256.79
683.661	7257.01
684.009	7253.17
684.357	7169.11
684.705	7167.07
685.053	7188.77
685.4	7163
685.748	7109.22
686.095	7110.8
686.443	7100.41
686.79	7112.16
687.138	7094.98
687.485	7091.14
687.832	7048.88
688.18	7059.05
688.527	6969.11
688.874	7003.01
689.221	6960.75
689.568	6986.51
689.915	6928.89
690.262	6876.01
690.609	6871.49
690.956	6856.57
691.303	6824.71
691.65	6803.24
691.997	6798.04
692.344	6812.5
692.69	6731.83
693.037	6788.78
693.383	6693.64
693.73	6662.68
694.077	6674.43
694.423	6628.33
694.769	6581.55
695.116	6633.75
695.462	6620.42
695.808	6541.55
696.155	6550.82
696.501	6464.27
696.847	6499.97
697.193	6481.89
697.539	6434.21
697.885	6421.33
698.231	6352.63
698.577	6404.38
698.923	6359.41
699.269	6309.47
699.614	6307.43
699.96	6261.56
700.306	6241.67
700.651	6257.72
700.997	6161.67
701.342	6166.19
701.688	6178.85
702.033	6178.17
702.379	6162.8
702.724	6146.76
703.069	6081.45
703.415	6057.5
703.76	6090.49
704.105	6044.39
704.45	5990.83
704.795	5988.35
705.14	5931.4
705.485	5895.92
705.83	5849.82
706.175	5901.79
706.52	5883.26
706.865	5895.69
707.209	5848.69
707.554	5852.3
707.899	5769.37
708.243	5883.26
708.588	5841.23
708.932	5787.9
709.277	5712.65
709.621	5754.23
709.966	5704.96
710.31	5741.35
710.654	5652.76
710.998	5688.47
711.342	5661.57
711.687	5657.73
712.031	5566.66
712.375	5603.5
712.719	5596.72
713.063	5584.97
713.407	5579.77
713.75	5544.52
714.094	5576.83
714.438	5536.83
714.782	5577.96
715.125	5568.92
715.469	5552.65
715.812	5494.35
716.156	5444.18
716.499	5478.75
716.843	5504.74
717.186	5431.07
717.53	5483.05
717.873	5492.54
718.216	5459.55
718.559	5452.77
718.902	5377.29
719.246	5398.76
719.589	5391.3
719.932	5434.24
720.275	5360.34
720.617	5375.93
720.96	5365.54
721.303	5374.58
721.646	5366.67
721.989	5335.48
722.331	5356.72
722.674	5350.17
723.016	5333.22
723.359	5325.99
723.701	5352.2
724.044	5307.23
724.386	5301.13
724.729	5301.58
725.071	5318.98
725.413	5329.61
725.755	5349.04
726.097	5315.59
726.439	5322.83
726.782	5298.19
727.124	5285.31
727.465	5261.81
727.807	5259.1
728.149	5245.54
728.491	5260.45
728.833	5310.4
729.175	5270.62
729.516	5281.47
729.858	5316.27
730.199	5262.49
730.541	5250.06
730.882	5319.66
731.224	5269.27
731.565	5253.9
731.906	5288.48
732.248	5328.25
732.589	5286.22
732.93	5222.04
733.271	5305.2
733.612	5301.36
733.953	5293
734.294	5296.39
734.635	5287.12
734.976	5360.79
735.317	5320.34
735.658	5286.67
735.999	5321.02
736.339	5308.59
736.68	5356.5
737.021	5391.75
737.361	5320.57
737.702	5386.1
738.042	5376.38
738.383	5381.36
738.723	5340.45
739.063	5381.81
739.404	5399.66
739.744	5383.62
740.084	5369.15
740.424	5470.62
740.764	5428.13
741.104	5449.6
741.444	5467.91
741.784	5423.39
742.124	5497.06
742.464	5489.15
742.804	5479.66
743.143	5548.81
743.483	5543.84
743.823	5535.25
744.162	5543.16
744.502	5620.45
744.841	5655.7
745.181	5676.04
745.52	5706.54
745.86	5712.19
746.199	5763.04
746.538	5773.44
746.877	5866.31
747.216	5947.22
747.556	5934.79
747.895	6000.77
748.234	5998.29
748.573	6064.5
748.911	6095.24
749.25	6126.19
749.589	6182.46
749.928	6318.96
750.267	6302.91
750.605	6423.14
750.944	6539.97
751.283	6571.61
751.621	6678.95
751.96	6734.09
752.298	6858.38
752.636	6917.36
752.975	6946.51
753.313	7082.78
753.651	7172.5
753.989	7239.61
754.327	7356.22
754.666	7463.56
755.004	7603.9
755.342	7765.47
755.679	7807.73
756.017	7941.06
756.355	8126.37
756.693	8276.87
757.031	8400.71
757.368	8489.3
757.706	8624.89
758.044	8799.57
758.381	8969.74
758.719	9174.7
759.056	9287.47
759.394	9427.35
759.731	9627.12
760.068	9731.98
760.405	9898.07
760.743	10001.8
761.08	10197.05
761.417	10385.52
761.754	10573.76
762.091	10726.98
762.428	10918.16
762.765	11057.59
763.102	11318.83
763.438	11465.49
763.775	11615.32
764.112	11805.37
764.449	12008.3
764.785	12195.87
765.122	12350.44
765.458	12454.62
765.795	12636.08
766.131	12847.37
766.467	12943.64
766.804	13106.35
767.14	13339.79
767.476	13456.62
767.812	13535.72
768.148	13830.63
768.485	13870.4
768.821	13908.14
769.157	14092.09
769.492	14229.03
769.828	14393.55
770.164	14368.69
770.5	14620.89
770.836	14767.55
771.171	14769.36
771.507	14947.66
771.842	15026.53
772.178	15142.45
772.513	15264.26
772.849	15397.82
773.184	15349.23
773.519	15493.18
773.855	15600.52
774.19	15692.05
774.525	15744.47
774.86	15906.5
775.195	15953.51
775.53	15977.01
775.865	15972.72
776.2	16095.42
776.535	16090.68
776.87	16206.83
777.205	16177.68
777.539	16237.79
777.874	16370.22
778.209	16277.34
778.543	16325.25
778.878	16405.92
779.212	16468.75
779.547	16455.41
779.881	16626.26
780.215	16546.71
780.55	16674.17
780.884	16621.74
781.218	16704.9
781.552	16798
781.886	16756.2
782.22	16699.7
782.554	16694.96
782.888	16605.02
783.222	16615.41
783.556	16630.55
783.889	16606.82
784.223	16581.29
784.557	16634.62
784.89	16682.75
785.224	16648.86
785.557	16600.5
785.891	16626.71
786.224	16680.72
786.558	16671.45
786.891	16579.48
787.224	16512.81
787.557	16508.29
787.891	16558.69
788.224	16618.35
788.557	16664.9
788.89	16684.34
789.223	16649.76
789.556	16631.23
789.888	16507.16
790.221	16529.09
790.554	16417.9
790.887	16489.76
791.219	16448.86
791.552	16358.69
791.884	16334.97
792.217	16341.75
792.549	16406.6
792.882	16297.68
793.214	16264.46
793.546	16379.48
793.879	16157.8
794.211	16064.46
794.543	16179.26
794.875	16230.56
795.207	16192.6
795.539	16077.57
795.871	16170.68
796.203	16021.75
796.535	15915.32
796.867	15898.59
797.198	15968.87
797.53	15950.8
797.862	15962.09
798.193	15916.67
798.525	15808.65
798.856	15777.24
799.188	15719.61
799.519	15630.8
799.85	15597.36
800.182	15598.04
800.513	15645.72
800.844	15536.34
801.175	15598.04
801.506	15670.8
801.837	15428.78
802.168	15369.57
802.499	15458.83
802.83	15354.65
803.161	15343.58
803.491	15371.83
803.822	15334.77
804.153	15262.9
804.483	15138.61
804.814	15197.14
805.145	15148.33
805.475	15188.1
805.805	15024.04
806.136	15079.41
806.466	15136.35
806.796	15080.99
807.126	14937.04
807.457	14884.61
807.787	14989.46
808.117	14813.65
808.447	14741.79
808.777	14881.67
809.107	14861.11
809.436	14788.11
809.766	14701.56
810.096	14720.09
810.426	14598.74
810.755	14701.79
811.085	14639.19
811.414	14583.83
811.744	14511.29
812.073	14482.59
812.403	14497.05
812.732	14411.17
813.061	14416.37
813.39	14407.56
813.719	14413.89
814.049	14417.28
814.378	14431.29
814.707	14268.13
815.036	14306.32
815.365	14289.37
815.693	14114.46
816.022	14132.76
816.351	14145.19
816.68	14102.03
817.008	14102.03
817.337	13989.72
817.665	13969.38
817.994	13999.89
818.322	13982.03
818.651	13947.68
818.979	13906.78
819.307	13879.66
819.636	13914.69
819.964	13807.8
820.292	13941.13
820.62	13913.33
820.948	13853.68
821.276	13878.53
821.604	13772.1
821.932	13857.52
822.259	13896.39
822.587	13864.97
822.915	13836.95
823.243	13810.29
823.57	13835.14
823.898	13854.81
824.225	13782.26
824.553	13833.34
824.88	13859.32
825.207	13904.3
825.535	13845.99
825.862	13896.16
826.189	13891.19
826.516	13925.76
826.843	13988.36
827.17	13820.68
827.497	13947.68
827.824	13902.49
828.151	13881.47
828.478	13866.1
828.805	13949.72
829.131	13908.14
829.458	13984.52
829.785	13884.63
830.111	13844.86
830.438	13961.92
830.764	13915.59
831.09	13853.45
831.417	13864.52
831.743	13891.64
832.069	13869.95
832.395	13841.92
832.722	13897.52
833.048	13760.34
833.374	13813.45
833.7	13821.36
834.026	13893.45
834.351	13764.19
834.677	13792.89
835.003	13739.78
835.329	13749.5
835.654	13814.58
835.98	13641.48
836.306	13690.06
836.631	13598.31
836.956	13798.08
837.282	13727.12
837.607	13699.1
837.932	13620.24
838.258	13645.77
838.583	13577.75
838.908	13554.47
839.233	13514.93
839.558	13521.93
839.883	13510.63
840.208	13408.72
840.533	13469.96
840.858	13453.01
841.182	13493.23
841.507	13449.17
841.832	13335.72
842.156	13307.7
842.481	13367.59
842.805	13316.29
843.13	13269.96
843.454	13231.54
843.778	13175.95
844.103	13227.93
844.427	13146.8
844.751	13169.85
845.075	13039.01
845.399	13022.96
845.723	13031.78
846.047	12973.02
846.371	12902.06
846.695	12892.57
847.019	12803.31
847.343	12795.62
847.666	12773.48
847.99	12633.14
848.313	12653.71
848.637	12506.37
848.96	12539.59
849.284	12446.03
849.607	12423.43
849.931	12314.28
850.254	12300.04
850.577	12267.28
850.9	12168.07
851.223	12198.13
851.546	12123.78
851.869	11989.09
852.192	12101.86
852.515	11871.35
852.838	12013.95
853.161	11930.11
853.483	11872.48
853.806	11785.93
854.129	11775.31
854.451	11797.91
854.774	11673.62
855.096	11593.17
855.419	11604.24
855.741	11570.8
856.063	11506.62
856.385	11533.51
856.708	11491.48
857.03	11471.59
857.352	11438.82
857.674	11368.09
857.996	11288.09
858.318	11249.22
858.64	11302.1
858.961	11193.86
859.283	11164.93
859.605	11207.64
859.926	11173.52
860.248	11152.28
860.57	11141.66
860.891	11105.95
861.212	11021.89
861.534	10976.01
861.855	10925.16
862.176	10959.29
862.498	11015.11
862.819	10922.45
863.14	10945.96
863.461	10933.75
863.782	10901.66
864.103	10866.41
864.424	10819.86
864.745	10852.62
865.065	10776.24
865.386	10729.01
865.707	10733.31
866.027	10820.76
866.348	10713.19
866.668	10703.02
866.989	10688.11
867.309	10592.29
867.63	10622.57
867.95	10697.37
868.27	10479.53
868.59	10485.85
868.91	10597.26
869.23	10550.03
869.55	10463.26
869.87	10552.97
870.19	10518.85
870.51	10504.16
870.83	10530.82
871.15	10349.13
871.469	10507.77
871.789	10507.1
872.109	10376.93
872.428	10425.52
872.748	10373.99
873.067	10340.77
873.386	10312.53
873.706	10297.16
874.025	10318.18
874.344	10244.5
874.663	10325.63
874.982	10343.49
875.301	10276.14
875.62	10211.06
875.939	10248.57
876.258	10193.66
876.577	10205.41
876.896	10178.29
877.214	10116.37
877.533	10167.67
877.852	10110.95
878.17	10116.6
878.489	10117.73
878.807	10042.02
879.125	10089.93
879.444	10075.24
879.762	10035.24
880.08	10053.55
880.398	9964.51
880.716	9993.89
881.034	9934.23
881.352	10006.32
881.67	9922.03
881.988	9936.49
882.306	9882.25
882.624	9809.26
882.941	9769.26
883.259	9757.29
883.577	9788.47
883.894	9743.27
884.212	9715.93
884.529	9730.62
884.846	9702.37
885.164	9657.4
885.481	9581.92
885.798	9659.21
886.115	9577.18
886.432	9581.7
886.75	9512.55
887.067	9515.94
887.383	9527.46
887.7	9550.29
888.017	9444.3
888.334	9481.13
888.651	9357.07
888.967	9402.72
889.284	9365.88
889.6	9289.05
889.917	9244.98
890.233	9237.53
890.55	9221.03
890.866	9280.91
891.182	9207.7
891.498	9157.3
891.815	9115.49
892.131	9110.07
892.447	9058.32
892.763	9059
893.079	9001.6
893.395	8996.18
893.71	9006.12
894.026	8961.83
894.342	8943.07
894.657	8904.88
894.973	8854.71
895.289	8870.08
895.604	8854.26
895.92	8702.62
896.235	8689.07
896.55	8775.16
896.865	8708.5
897.181	8678.22
897.496	8663.53
897.811	8599.8
898.126	8503.31
898.441	8544.89
898.756	8468.05
899.071	8465.34
899.386	8424.21
899.7	8389.41
900.015	8374.5
900.33	8316.87
900.644	8297.21
900.959	8336.53
901.273	8282.07
901.588	8189.64
901.902	8218.57
902.216	8160.94
902.531	8111
902.845	8149.64
903.159	8076.88
903.473	8027.39
903.787	7991.68
904.101	7915.3
904.415	7952.36
904.729	7893.38
905.042	7912.59
905.356	7877.56
905.67	7837.79
905.984	7876.43
906.297	7766.6
906.611	7750.78
906.924	7739.03
907.237	7697.23
907.551	7697.9
907.864	7618.36
908.177	7584.91
908.491	7626.49
908.804	7550.56
909.117	7531.13
909.43	7461.08
909.743	7481.64
910.056	7463.33
910.368	7404.58
910.681	7332.04
910.994	7399.38
911.307	7308.76
911.619	7239.84
911.932	7282.1
912.244	7188.77
912.557	7213.85
912.869	7132.5
913.181	7076.68
913.494	7077.58
913.806	7002.78
914.118	7007.08
914.43	7001.88
914.742	6996
915.054	6918.94
915.366	6920.98
915.678	6844.59
915.99	6824.71
916.302	6814.31
916.613	6758.95
916.925	6790.36
917.236	6722.11
917.548	6726.18
917.859	6700.64
918.171	6634.43
918.482	6633.98
918.794	6607.99
919.105	6622.9
919.416	6532.96
919.727	6517.37
920.038	6551.27
920.349	6513.08
920.66	6434.66
920.971	6499.74
921.282	6405.51
921.593	6403.02
921.903	6378.17
922.214	6381.78
922.525	6324.38
922.835	6291.16
923.146	6290.94
923.456	6226.53
923.767	6232.63
924.077	6197.83
924.387	6165.52
924.697	6084.16
925.008	6064.5
925.318	6072.18
925.628	6079.87
925.938	6035.8
926.248	5983.83
926.558	5967.1
926.867	5960.32
927.177	5940.66
927.487	5909.93
927.796	5843.04
928.106	5818.18
928.416	5841.23
928.725	5825.41
929.034	5760.1
929.344	5709.26
929.653	5756.94
929.962	5717.84
930.271	5695.92
930.581	5665.19
930.89	5620.22
931.199	5603.95
931.508	5644.4
931.817	5551.07
932.125	5566.21
932.434	5545.87
932.743	5471.75
933.051	5445.08
933.36	5459.09
933.669	5424.52
933.977	5418.87
934.286	5394.01
934.594	5385.42
934.902	5344.07
935.21	5349.49
935.519	5284.86
935.827	5285.54
936.135	5289.38
936.443	5247.57
936.751	5231.76
937.059	5245.31
937.367	5152.89
937.674	5183.62
937.982	5142.27
938.29	5088.26
938.597	5111.31
938.905	5060.46
939.213	4999.67
939.52	5007.58
939.827	5029.05
940.135	4983.85
940.442	4956.96
940.749	4985.66
941.056	4921.03
941.363	4869.28
941.67	4898.66
941.977	4822.27
942.284	4816.4
942.591	4829.51
942.898	4788.6
943.205	4803.74
943.511	4738.89
943.818	4758.55
944.125	4730.07
944.431	4722.84
944.738	4698.21
945.044	4684.2
945.35	4639.45
945.657	4582.05
945.963	4615.95
946.269	4535.28
946.575	4584.09
946.881	4536.41
947.187	4516.07
947.493	4517.42
947.799	4486.69
948.105	4470.87
948.41	4460.7
948.716	4465.67
949.022	4417.54
949.327	4405.34
949.633	4330.99
949.938	4401.27
950.244	4372.12
950.549	4324.21
950.854	4280.59
951.16	4283.98
951.465	4269.07
951.77	4227.04
952.075	4255.06
952.38	4215.96
952.685	4200.6
952.99	4125.8
953.294	4148.85
953.599	4118.79
953.904	4066.14
954.209	4101.39
954.513	4079.47
954.818	4079.92
955.122	4076.98
955.426	4025.91
955.731	3973.71
956.035	4007.38
956.339	3984.56
956.643	3954.73
956.948	3916.08
957.252	3946.59
957.556	3903.2
957.86	3921.28
958.163	3881.06
958.467	3877.21
958.771	3838.12
959.075	3835.18
959.378	3812.58
959.682	3825.46
959.985	3751.12
960.289	3776.2
960.592	3810.55
960.896	3726.03
961.199	3696.2
961.502	3703.66
961.805	3684.45
962.108	3639.93
962.411	3645.13
962.714	3596.77
963.017	3645.36
963.32	3641.97
963.623	3587.28
963.926	3593.61
964.228	3555.19
964.531	3566.71
964.833	3520.39
965.136	3500.28
965.438	3452.14
965.741	3475.42
966.043	3455.76
966.345	3466.15
966.648	3446.72
966.95	3423.89
967.252	3394.74
967.554	3384.12
967.856	3341.41
968.158	3369.66
968.46	3329.21
968.761	3401.75
969.063	3338.92
969.365	3348.64
969.666	3297.12
969.968	3232.94
970.269	3262.77
970.571	3284.69
970.872	3246.04
971.174	3208.76
971.475	3209.44
971.776	3170.34
972.077	3169.89
972.378	3179.38
972.679	3149.1
972.98	3131.7
973.281	3141.41
973.582	3145.93
973.883	3130.34
974.183	3087.63
974.484	3072.26
974.785	3049.21
975.085	3082.21
975.386	3026.62
975.686	3011.93
975.986	3026.39
976.287	3031.59
976.587	2940.74
976.887	2913.85
977.187	2939.39
977.487	2933.74
977.787	2926.28
978.087	2951.14
978.387	2918.14
978.687	2890.35
978.987	2848.54
979.286	2898.03
979.586	2836.79
979.885	2794.08
980.185	2846.06
980.484	2823
980.784	2804.47
981.083	2770.12
981.382	2766.74
981.682	2779.16
981.981	2769.22
982.28	2764.93
982.579	2698.94
982.878	2711.37
983.177	2714.76
983.475	2675.66
983.774	2652.61
984.073	2688.09
984.372	2637.47
984.67	2659.85
984.969	2636.57
985.267	2640.64
985.566	2611.03
985.864	2616.68
986.162	2594.54
986.461	2588.66
986.759	2561.32
987.057	2508.66
987.355	2549.11
987.653	2553.63
987.951	2519.51
988.249	2524.71
988.547	2495.78
988.844	2468.66
989.142	2476.57
989.44	2468.66
989.737	2465.95
990.035	2453.98
990.332	2409.91
990.63	2409.46
990.927	2391.6
991.224	2379.63
991.521	2380.98
991.819	2427.08
992.116	2373.3
992.413	2377.37
992.71	2354.32
993.006	2321.1
993.303	2324.26
993.6	2321.32
993.897	2279.06
994.193	2291.95
994.49	2333.53
994.787	2271.15
995.083	2278.84
995.379	2212.63
995.676	2209.91
995.972	2176.24
996.268	2197.94
996.565	2211.95
996.861	2200.65
997.157	2190.71
997.453	2166.3
997.749	2158.16
998.044	2120.2
998.34	2133.53
998.636	2126.53
998.932	2111.16
999.227	2079.52
999.523	2098.28
999.818	2070.71
1000.114	2041.1
1000.409	2085.85
1000.704	2036.81
1001	2036.58
1001.295	2019.64
1001.59	2018.51
1001.885	2023.25
1002.18	1978.51
1002.475	1983.25
1002.77	1967.21
1003.065	1956.36
1003.359	1919.07
1003.654	1943.03
1003.949	1926.76
1004.243	1934.44
1004.538	1910.94
1004.832	1897.15
1005.127	1921.79
1005.421	1878.4
1005.715	1878.17
1006.009	1879.98
1006.304	1835.23
1006.598	1821.9
1006.892	1817.16
1007.186	1806.99
1007.48	1827.78
1007.773	1790.49
1008.067	1785.07
1008.361	1782.35
1008.655	1781.22
1008.948	1752.3
1009.242	1782.58
1009.535	1752.75
1009.829	1724.73
1010.122	1716.82
1010.415	1676.14
1010.708	1700.32
1011.001	1689.48
1011.295	1667.1
1011.588	1684.5
1011.881	1671.4
1012.173	1646.09
1012.466	1645.41
1012.759	1610.16
1013.052	1608.35
1013.344	1632.98
1013.637	1637.73
1013.93	1581
1014.222	1571.51
1014.514	1548.24
1014.807	1535.13
1015.099	1536.94
1015.391	1517.05
1015.683	1524.73
1015.976	1512.76
1016.268	1492.42
1016.56	1479.54
1016.851	1505.75
1017.143	1477.05
1017.435	1457.84
1017.727	1472.53
1018.018	1471.18
1018.31	1474.79
1018.602	1470.05
1018.893	1440.22
1019.185	1423.49
1019.476	1441.12
1019.767	1417.17
1020.058	1400.22
1020.35	1398.64
1020.641	1386.21
1020.932	1364.51
1021.223	1373.33
1021.514	1359.31
1021.804	1355.02
1022.095	1337.85
1022.386	1308.24
1022.677	1329.48
1022.967	1321.58
1023.258	1297.85
1023.548	1275.93
1023.839	1315.25
1024.129	1318.64
1024.419	1263.27
1024.709	1265.31
1025	1265.31
1025.29	1238.64
1025.58	1237.74
1025.87	1235.7
1026.16	1223.95
1026.449	1205.65
1026.739	1183.73
1027.029	1221.92
1027.319	1183.73
1027.608	1181.47
1027.898	1179.43
1028.187	1153.44
1028.477	1149.6
1028.766	1181.47
1029.055	1117.06
1029.344	1141.24
1029.634	1117.74
1029.923	1108.93
1030.212	1134.01
1030.501	1118.64
1030.79	1096.04
1031.078	1095.82
1031.367	1091.52
1031.656	1098.98
1031.945	1090.17
1032.233	1084.07
1032.522	1087.68
1032.81	1055.82
1033.099	1030.06
1033.387	1026.22
1033.675	1040.23
1033.963	1038.19
1034.251	1021.47
1034.54	1007.46
1034.828	1013.56
1035.116	998.65
1035.403	1014.01
1035.691	976.95
1035.979	979.89
1036.267	994.8
1036.554	963.62
1036.842	965.43
1037.129	939.89
1037.417	955.26
1037.704	953.68
1037.992	942.6
1038.279	936.27
1038.566	958.42
1038.853	958.42
1039.14	958.42
