Data from hue_190_FLMS001491_00073.txt Node
Date: Tue Feb 07 16:45:45 GMT 2017
User: dcchb
Spectrometer: FLMS00149
Trigger mode: 0
Integration Time (sec): 2.000000E-2
Scans to average: 10
Electric dark correction enabled: true
Nonlinearity correction enabled: false
Boxcar width: 0
XAxis mode: Wavelengths
Number of Pixels in Spectrum: 2048
>>>>>Begin Spectral Data<<<<<
341.393	-19.87
341.776	-19.87
342.16	-19.87
342.543	-65.07
342.927	-68.23
343.31	-100.1
343.693	-53.09
344.077	-59.87
344.46	-67.78
344.843	-57.16
345.226	-51.96
345.61	-31.85
345.993	-28.91
346.376	-10.16
346.759	24.65
347.142	31.65
347.525	53.57
347.908	57.41
348.291	75.94
348.674	98.09
349.057	119.56
349.44	128.15
349.823	136.28
350.206	186.9
350.588	177.41
350.971	211.53
351.354	210.86
351.737	221.93
352.119	255.15
352.502	253.79
352.884	270.97
353.267	268.03
353.65	275.49
354.032	282.27
354.414	326.11
354.797	305.32
355.179	302.83
355.562	320.91
355.944	317.75
356.326	327.92
356.709	341.25
357.091	330.17
357.473	326.56
357.855	345.99
358.238	349.61
358.62	337.63
359.002	348.48
359.384	348.25
359.766	319.1
360.148	327.46
360.53	346.45
360.912	346.67
361.294	326.11
361.676	341.02
362.057	327.69
362.439	323.62
362.821	334.69
363.203	318.65
363.584	333.79
363.966	302.15
364.348	320.23
364.729	326.56
365.111	325.88
365.493	331.53
365.874	301.48
366.256	321.59
366.637	312.77
367.019	293.57
367.4	320.68
367.781	304.19
368.163	322.72
368.544	316.16
368.925	305.09
369.306	310.06
369.688	329.5
370.069	320.01
370.45	327.24
370.831	297.63
371.212	308.25
371.593	325.43
371.974	299.44
372.355	288.37
372.736	323.85
373.117	304.19
373.498	326.11
373.879	306.9
374.26	326.56
374.641	313
375.021	321.59
375.402	313.45
375.783	321.81
376.163	309.16
376.544	327.01
376.925	310.97
377.305	335.82
377.686	320.91
378.066	317.52
378.447	312.77
378.827	318.2
379.208	327.92
379.588	314.13
379.968	324.98
380.349	326.33
380.729	335.37
381.109	351.87
381.489	331.98
381.87	331.08
382.25	330.63
382.63	327.01
383.01	320.91
383.39	349.61
383.77	323.17
384.15	332.43
384.53	336.95
384.91	363.39
385.29	327.69
385.67	343.06
386.049	357.74
386.429	357.74
386.809	351.19
387.189	344.86
387.568	355.71
387.948	333.56
388.328	342.6
388.707	337.86
389.087	364.3
389.466	332.89
389.846	368.59
390.225	359.1
390.605	351.64
390.984	368.37
391.363	345.09
391.743	370.63
392.122	358.65
392.501	364.98
392.881	373.34
393.26	369.72
393.639	360.46
394.018	386.22
394.397	383.51
394.776	381.7
395.155	372.89
395.534	374.92
395.913	374.92
396.292	378.76
396.671	386.9
397.05	381.25
397.429	390.96
397.808	384.41
398.186	370.17
398.565	367.24
398.944	383.51
399.323	397.52
399.701	392.77
400.08	387.8
400.458	396.16
400.837	412.66
401.215	418.08
401.594	392.55
401.972	408.14
402.351	413.79
402.729	416.05
403.107	390.51
403.486	422.38
403.864	422.15
404.242	433
404.62	420.79
404.999	428.25
405.377	453.34
405.755	440.23
406.133	427.35
406.511	432.77
406.889	470.28
407.267	491.75
407.645	454.47
408.023	458.99
408.401	479.32
408.779	473.67
409.156	472.32
409.534	492.66
409.912	499.89
410.29	501.7
410.667	510.51
411.045	514.8
411.422	517.51
411.8	519.77
412.178	547.12
412.555	556.84
412.933	552.99
413.31	552.09
413.687	535.59
414.065	582.6
414.442	583.05
414.819	599.09
415.197	592.77
415.574	611.75
415.951	635.93
416.328	636.83
416.705	647.45
417.082	593.67
417.46	631.18
417.837	657.85
418.214	655.36
418.591	663.5
418.967	676.38
419.344	666.66
419.721	705.08
420.098	683.16
420.475	684.52
420.852	722.26
421.228	722.93
421.605	765.64
421.982	756.15
422.358	769.94
422.735	780.33
423.111	790.73
423.488	765.87
423.864	807
424.241	834.12
424.617	830.05
424.994	841.57
425.37	879.31
425.746	852.65
426.123	914.79
426.499	886.54
426.875	930.39
427.251	915.7
427.627	921.57
428.003	965.86
428.379	965.41
428.756	973.77
429.132	964.96
429.507	1010.61
429.883	1011.74
430.259	1026.88
430.635	1013.32
431.011	1043.38
431.387	1036.6
431.763	1089.7
432.138	1090.61
432.514	1096.93
432.89	1112.75
433.265	1144.16
433.641	1165.63
434.016	1180.55
434.392	1192.75
434.767	1206.76
435.143	1238.85
435.518	1228.46
435.894	1277.95
436.269	1287.44
436.644	1312.97
437.02	1322.69
437.395	1373.99
437.77	1367.66
438.145	1400.66
438.52	1442.69
438.895	1442.69
439.271	1452.18
439.646	1484.04
440.021	1503.7
440.395	1503.93
440.77	1512.97
441.145	1563.36
441.52	1599.75
441.895	1611.72
442.27	1622.12
442.645	1620.99
443.019	1663.25
443.394	1663.25
443.769	1693.08
444.143	1693.75
444.518	1695.56
444.892	1712.06
445.267	1748.67
445.641	1758.84
446.016	1795.67
446.39	1792.28
446.764	1816.01
447.139	1809.68
447.513	1825.05
447.887	1865.05
448.262	1863.02
448.636	1878.61
449.01	1903.24
449.384	1947.08
449.758	1912.28
450.132	1971.71
450.506	1973.75
450.88	1992.73
451.254	1979.62
451.628	1975.1
452.002	2042.67
452.376	2053.52
452.75	2084.25
453.123	2093.52
453.497	2122.67
453.871	2116.12
454.244	2208.77
454.618	2189.11
454.992	2231.14
455.365	2227.3
455.739	2300.74
456.112	2326.51
456.486	2284.7
456.859	2326.96
457.232	2395.21
457.606	2421.65
457.979	2401.08
458.352	2484.69
458.725	2496.22
459.099	2531.92
459.472	2603.11
459.845	2580.29
460.218	2635.65
460.591	2682.2
460.964	2672.26
461.337	2710.68
461.71	2724.46
462.083	2757.23
462.456	2785.93
462.829	2798.13
463.201	2874.29
463.574	2876.32
463.947	2902.08
464.32	2999.26
464.692	3039.93
465.065	3057.56
465.438	3104.11
465.81	3147.05
466.183	3143.43
466.555	3210.33
466.928	3274.5
467.3	3220.49
467.672	3308.85
468.045	3406.48
468.417	3414.39
468.789	3449.41
469.161	3478.57
469.534	3531.67
469.906	3595.17
470.278	3622.97
470.65	3672.01
471.022	3774.83
471.394	3795.62
471.766	3874.71
472.138	3923.07
472.51	3966.24
472.882	4089.85
473.253	4110.64
473.625	4172.11
473.997	4314.93
474.369	4249.85
474.74	4367.81
475.112	4431.08
475.484	4549.27
475.855	4571.65
476.227	4631.3
476.598	4774.13
476.97	4805.31
477.341	4872.88
477.713	4948.81
478.084	5018.41
478.455	5171.63
478.827	5172.53
479.198	5327.11
479.569	5339.08
479.94	5531.39
480.311	5552.41
480.682	5689.13
481.053	5788.79
481.424	5865.17
481.795	5967.09
482.166	6078.05
482.537	6184.26
482.908	6262.9
483.279	6338.38
483.65	6437.58
484.021	6543.57
484.391	6614.08
484.762	6706.96
485.133	6768.2
485.503	6873.28
485.874	7007.06
486.244	7075.76
486.615	7200.73
486.985	7302.87
487.356	7417.22
487.726	7487.05
488.097	7620.15
488.467	7686.37
488.837	7794.39
489.207	7990.54
489.578	8030.99
489.948	8087.49
490.318	8169.74
490.688	8207.71
491.058	8361.15
491.428	8445.44
491.798	8532.9
492.168	8754.13
492.538	8730.18
492.908	8797.52
493.278	8869.84
493.648	8926.11
494.017	9028.03
494.387	9095.14
494.757	9188.25
495.126	9273.22
495.496	9309.83
495.866	9333.33
496.235	9449.71
496.605	9492.87
496.974	9541.46
497.344	9623.49
497.713	9635.69
498.082	9677.27
498.452	9805.18
498.821	9812.19
499.19	9826.87
499.559	9885.86
499.928	9952.97
500.298	10042.01
500.667	10058.05
501.036	10051.05
501.405	10133.53
501.774	10164.04
502.143	10157.04
502.512	10228.22
502.88	10265.05
503.249	10270.25
503.618	10337.37
503.987	10333.75
504.356	10422.56
504.724	10419.18
505.093	10462.79
505.462	10497.14
505.83	10504.14
506.199	10566.29
506.567	10694.42
506.936	10560.87
507.304	10736
507.672	10796.34
508.041	10798.15
508.409	10840.41
508.777	10794.76
509.145	10818.71
509.514	10855.55
509.882	10848.32
510.25	10879.5
510.618	10855.55
510.986	10962.21
511.354	10899.84
511.722	10996.56
512.09	11016.22
512.458	11002.66
512.826	11031.59
513.193	11102.77
513.561	11035.2
513.929	11130.57
514.297	11163.11
514.664	11119.5
515.032	11173.28
515.4	11246.95
515.767	11212.15
516.135	11205.14
516.502	11090.8
516.869	11183.22
517.237	11259.61
517.604	11178.25
517.972	11269.55
518.339	11199.04
518.706	11165.82
519.073	11320.39
519.44	11230.91
519.808	11282.43
520.175	11294.41
520.542	11302.09
520.909	11343.67
521.276	11272.71
521.643	11316.33
522.009	11335.31
522.376	11364.91
522.743	11334.18
523.11	11377.12
523.477	11439.49
523.843	11413.95
524.21	11487.4
524.577	11476.1
524.943	11428.87
525.31	11451.24
525.676	11498.24
526.043	11480.39
526.409	11439.26
526.776	11531.69
527.142	11439.04
527.508	11458.92
527.874	11486.72
528.241	11442.2
528.607	11380.73
528.973	11369.43
529.339	11281.07
529.705	11433.61
530.071	11427.28
530.437	11399.49
530.803	11430.45
531.169	11351.81
531.535	11252.15
531.901	11262.77
532.267	11163.56
532.632	11239.04
532.998	11209.66
533.364	11142.77
533.73	11113.39
534.095	11201.53
534.461	11051.25
534.826	11058.25
535.192	11022.78
535.557	11008.31
535.923	10942.33
536.288	10838.6
536.653	10886.06
537.019	10774.19
537.384	10812.61
537.749	10704.37
538.114	10671.37
538.479	10684.03
538.845	10602.67
539.21	10514.09
539.575	10482.45
539.94	10484.26
540.305	10474.99
540.67	10413.3
541.034	10327.65
541.399	10269.12
541.764	10224.38
542.129	10191.38
542.494	10211.5
542.858	10147.09
543.223	10061.44
543.587	10085.17
543.952	9960.66
544.316	9982.35
544.681	9968.79
545.045	9849.7
545.41	9858.96
545.774	9808.12
546.138	9782.13
546.503	9707.1
546.867	9643.6
547.231	9668.46
547.595	9470.05
547.959	9521.57
548.324	9430.95
548.688	9473.21
549.052	9408.81
549.416	9361.35
549.779	9202.48
550.143	9210.85
550.507	9176.95
550.871	9151.41
551.235	9057.63
551.599	9099.66
551.962	9120
552.326	9060.11
552.689	9031.87
553.053	8870.06
553.417	8818.31
553.78	8936.95
554.143	8805.43
554.507	8812.44
554.87	8749.16
555.234	8778.31
555.597	8701.03
555.96	8612.22
556.323	8682.5
556.686	8515.5
557.05	8620.13
557.413	8565.21
557.776	8447.7
558.139	8528.15
558.502	8487.47
558.865	8447.7
559.228	8411.09
559.59	8410.64
559.953	8345.33
560.316	8451.09
560.679	8369.51
561.041	8350.98
561.404	8333.81
561.767	8398.44
562.129	8295.84
562.492	8370.87
562.854	8275.28
563.217	8282.28
563.579	8328.61
563.941	8268.27
564.304	8289.97
564.666	8266.69
565.028	8303.75
565.39	8318.67
565.753	8264.66
566.115	8234.6
566.477	8266.46
566.839	8202.74
567.201	8318.89
567.563	8258.78
567.925	8264.43
568.287	8237.76
568.648	8157.54
569.01	8282.06
569.372	8306.01
569.734	8172
570.095	8237.54
570.457	8253.36
570.819	8252.23
571.18	8211.78
571.542	8211.55
571.903	8224.66
572.265	8166.13
572.626	8204.54
572.987	8227.82
573.349	8259.46
573.71	8242.74
574.071	8243.87
574.432	8200.7
574.794	8309.85
575.155	8241.38
575.516	8113.7
575.877	8204.77
576.238	8266.69
576.599	8207.71
576.96	8234.83
577.32	8245.22
577.681	8139.01
578.042	8176.75
578.403	8207.48
578.763	8236.86
579.124	8205.9
579.485	8248.16
579.845	8167.03
580.206	8192.34
580.566	8150.08
580.927	8189.18
581.287	8190.76
581.648	8134.72
582.008	8183.53
582.368	8119.57
582.728	8171.32
583.089	8120.25
583.449	8178.1
583.809	8050.65
584.169	8125
584.529	8065.79
584.889	8089.97
585.249	7996.41
585.609	8069.86
585.969	8080.03
586.329	8016.3
586.688	8010.88
587.048	8030.76
587.408	8051.33
587.768	8022.63
588.127	7991.67
588.487	7992.57
588.846	8023.76
589.206	7959.8
589.565	7936.53
589.925	7998.67
590.284	7975.17
590.643	7950.99
591.003	7996.64
591.362	8004.55
591.721	7944.66
592.08	7952.57
592.44	8024.89
592.799	7920.26
593.158	7912.8
593.517	7858.79
593.876	7870.09
594.235	7907.15
594.593	7905.57
594.952	7838.45
595.311	7863.54
595.67	7873.25
596.029	7919.13
596.387	7880.48
596.746	7845.46
597.104	7820.6
597.463	7793.26
597.822	7877.1
598.18	7877.32
598.538	7805.01
598.897	7908.28
599.255	7770.21
599.613	7902.63
599.972	7793.03
600.33	7800.04
600.688	7685.24
601.046	7806.36
601.404	7855.4
601.762	7785.57
602.12	7817.44
602.478	7816.08
602.836	7776.98
603.194	7806.14
603.552	7770.43
603.91	7765.91
604.268	7743.77
604.625	7777.21
604.983	7732.69
605.341	7773.82
605.698	7777.89
606.056	7750.54
606.413	7739.92
606.771	7792.35
607.128	7826.7
607.485	7667.16
607.843	7748.51
608.2	7758.45
608.557	7807.72
608.914	7751.45
609.272	7816.53
609.629	7803.2
609.986	7826.93
610.343	7799.13
610.7	7844.33
611.057	7809.98
611.414	7805.46
611.771	7797.1
612.127	7800.94
612.484	7815.4
612.841	7790.32
613.198	7796.65
613.554	7837.77
613.911	7890.2
614.267	7812.69
614.624	7854.27
614.98	7840.03
615.337	7872.8
615.693	7830.32
616.05	7823.54
616.406	7861.5
616.762	7868.96
617.118	7822.41
617.475	7880.48
617.831	7866.47
618.187	7923.2
618.543	7901.28
618.899	7900.15
619.255	7890.43
619.611	7925.46
619.967	7968.17
620.323	7880.48
620.678	7893.59
621.034	7906.02
621.39	7895.63
621.746	7876.42
622.101	7947.15
622.457	7868.96
622.812	7886.36
623.168	7894.95
623.523	7924.33
623.879	7922.29
624.234	7909.86
624.589	7872.12
624.945	7913.25
625.3	7913.48
625.655	7941.27
626.01	7868.73
626.365	7900.82
626.72	7902.86
627.075	7884.33
627.43	7838.68
627.785	7828.73
628.14	7903.08
628.495	7893.37
628.85	7859.02
629.205	7854.95
629.559	7884.55
629.914	7872.8
630.269	7890.88
630.623	7800.94
630.978	7807.94
631.332	7819.7
631.687	7835.97
632.041	7780.6
632.396	7770.43
632.75	7774.72
633.104	7746.25
633.459	7795.52
633.813	7716.65
634.167	7730.43
634.521	7725.46
634.875	7725.69
635.229	7733.37
635.583	7677.1
635.937	7688.63
636.291	7708.74
636.645	7689.3
636.999	7683.2
637.352	7695.86
637.706	7593.26
638.06	7659.7
638.413	7629.64
638.767	7589.65
639.121	7631.68
639.474	7549.42
639.828	7560.72
640.181	7591.23
640.534	7595.52
640.888	7588.97
641.241	7487.05
641.594	7527.27
641.947	7605.24
642.301	7490.89
642.654	7584.9
643.007	7501.96
643.36	7472.36
643.713	7532.47
644.066	7482.08
644.419	7491.79
644.771	7419.48
645.124	7369.99
645.477	7413.83
645.83	7284.79
646.182	7278.24
646.535	7273.5
646.888	7262.2
647.24	7300.84
647.593	7327.73
647.945	7308.07
648.298	7219.71
648.65	7199.6
649.002	7139.94
649.355	7250.9
649.707	7245.47
650.059	7261.97
650.411	7400.72
650.763	7365.92
651.115	7477.78
651.467	7416.77
651.819	7428.07
652.171	7382.87
652.523	7355.75
652.875	7428.97
653.227	7394.85
653.578	7433.49
653.93	7381.06
654.282	7418.35
654.633	7364.79
654.985	7414.06
655.337	7418.58
655.688	7387.62
656.039	7465.35
656.391	7373.61
656.742	7405.02
657.094	7482.3
657.445	7452.7
657.796	7418.12
658.147	7374.96
658.498	7382.64
658.849	7418.35
659.2	7483.89
659.551	7459.48
659.902	7447.05
660.253	7347.17
660.604	7474.62
660.955	7439.59
661.306	7434.39
661.656	7387.39
662.007	7442.08
662.358	7391.91
662.708	7455.64
663.059	7506.94
663.409	7406.15
663.76	7509.65
664.11	7462.64
664.461	7472.59
664.811	7475.75
665.161	7407.73
665.511	7469.2
665.862	7509.65
666.212	7536.09
666.562	7487.05
666.912	7460.61
667.262	7447.05
667.612	7442.76
667.962	7462.64
668.312	7494.28
668.662	7525.47
669.011	7480.04
669.361	7480.5
669.711	7446.37
670.06	7449.31
670.41	7481.4
670.76	7419.25
671.109	7393.49
671.459	7488.4
671.808	7372.48
672.157	7529.76
672.507	7407.73
672.856	7394.4
673.205	7388.97
673.554	7408.63
673.904	7398.69
674.253	7492.47
674.602	7405.24
674.951	7310.1
675.3	7240.5
675.649	7344.23
675.998	7347.84
676.346	7397.33
676.695	7350.56
677.044	7326.15
677.393	7295.64
677.741	7391.46
678.09	7329.54
678.438	7343.1
678.787	7259.26
679.135	7307.17
679.484	7252.48
679.832	7294.06
680.181	7212.25
680.529	7266.94
680.877	7252.03
681.225	7237.34
681.573	7252.03
681.922	7222.42
682.27	7167.51
682.618	7217
682.966	7213.16
683.314	7150.11
683.661	7169.77
684.009	7070.56
684.357	7063.33
684.705	7112.14
685.053	7075.53
685.4	7082.99
685.748	7035.99
686.095	6953.05
686.443	6917.12
686.79	6992.6
687.138	7002.09
687.485	6974.75
687.832	6968.87
688.18	6990.56
688.527	6936.33
688.874	6912.15
689.221	6826.95
689.568	6847.07
689.915	6860.62
690.262	6825.82
690.609	6797.8
690.956	6835.31
691.303	6800.06
691.65	6722.78
691.997	6699.95
692.344	6676.22
692.69	6641.65
693.037	6616.56
693.383	6582.21
693.73	6611.82
694.077	6545.38
694.423	6544.47
694.769	6510.8
695.116	6517.13
695.462	6475.1
695.808	6496.34
696.155	6426.96
696.501	6401.88
696.847	6376.8
697.193	6330.47
697.539	6370.92
697.885	6322.33
698.231	6278.27
698.577	6288.21
698.923	6306.29
699.269	6231.26
699.614	6240.08
699.96	6241.66
700.306	6171.38
700.651	6192.62
700.997	6125.5
701.342	6108.33
701.688	6146.07
702.033	6113.98
702.379	6050.7
702.724	6093.64
703.069	6079.18
703.415	5971.38
703.76	5926.41
704.105	5913.08
704.45	5910.14
704.795	5918.73
705.14	5925.51
705.485	5894.32
705.83	5854.1
706.175	5828.11
706.52	5822.46
706.865	5796.02
707.209	5807.55
707.554	5808.67
707.899	5767.77
708.243	5715.57
708.588	5697.04
708.932	5722.58
709.277	5644.16
709.621	5670.6
709.966	5642.58
710.31	5650.94
710.654	5597.16
710.998	5596.03
711.342	5599.87
711.687	5576.59
712.031	5563.03
712.375	5542.92
712.719	5577.49
713.063	5513.09
713.407	5536.59
713.75	5536.82
714.094	5476.93
714.438	5478.51
714.782	5495.24
715.125	5423.37
715.469	5447.33
715.812	5491.17
716.156	5438.52
716.499	5447.55
716.843	5450.27
717.186	5408.01
717.53	5410.95
717.873	5442.58
718.216	5408.91
718.559	5368.46
718.902	5377.5
719.246	5336.15
719.589	5413.21
719.932	5367.1
720.275	5293.89
720.617	5302.25
720.96	5281.23
721.303	5281.68
721.646	5316.48
721.989	5311.74
722.331	5292.53
722.674	5296.37
723.016	5298.86
723.359	5285.3
723.701	5310.83
724.044	5266.09
724.386	5290.04
724.729	5295.47
725.071	5293.43
725.413	5243.27
725.755	5288.91
726.097	5237.84
726.439	5220.67
726.782	5259.08
727.124	5274
727.465	5267.22
727.807	5239.88
728.149	5221.35
728.491	5202.14
728.833	5227
729.175	5234.9
729.516	5234.45
729.858	5238.29
730.199	5236.71
730.541	5252.08
730.882	5300.67
731.224	5296.15
731.565	5236.26
731.906	5265.64
732.248	5247.79
732.589	5229.48
732.93	5193.32
733.271	5248.46
733.612	5260.89
733.953	5222.48
734.294	5240.55
734.635	5245.98
734.976	5290.72
735.317	5247.56
735.658	5224.06
735.999	5204.85
736.339	5231.74
736.68	5283.94
737.021	5228.58
737.361	5214.34
737.702	5272.64
738.042	5297.95
738.383	5287.56
738.723	5287.78
739.063	5245.07
739.404	5306.32
739.744	5287.11
740.084	5313.32
740.424	5327.78
740.764	5342.47
741.104	5355.58
741.444	5321.23
741.784	5378.63
742.124	5408.69
742.464	5408.23
742.804	5364.17
743.143	5394
743.483	5499.98
743.823	5448.91
744.162	5474.9
744.502	5513.32
744.841	5497.5
745.181	5558.74
745.52	5558.51
745.86	5588.12
746.199	5650.71
746.538	5719.19
746.877	5740.2
747.216	5757.83
747.556	5815.45
747.895	5858.62
748.234	5849.13
748.573	5927.77
748.911	5939.97
749.25	6032.85
749.589	6077.82
749.928	6142
750.267	6206.86
750.605	6245.05
750.944	6327.98
751.283	6381.99
751.621	6409.79
751.96	6576.34
752.298	6648.2
752.636	6740.4
752.975	6770.91
753.313	6849.33
753.651	7035.99
753.989	7073.95
754.327	7212.25
754.666	7279.37
755.004	7419.93
755.342	7569.08
755.679	7645.46
756.017	7718.46
756.355	7944.21
756.693	7985.11
757.031	8287.71
757.368	8346.01
757.706	8425.1
758.044	8577.87
758.381	8746.68
758.719	8954.58
759.056	9035.03
759.394	9247.45
759.731	9357.06
760.068	9495.13
760.405	9670.04
760.743	9779.19
761.08	9982.12
761.417	10134.21
761.754	10330.59
762.091	10534.65
762.428	10639.51
762.765	10796.34
763.102	11010.8
763.438	11142.09
763.775	11326.72
764.112	11495.08
764.449	11712.02
764.785	11917.89
765.122	11950.66
765.458	12136.19
765.795	12271.56
766.131	12475.39
766.467	12723.52
766.804	12814.14
767.14	12936.85
767.476	13117.41
767.812	13253.9
768.148	13420.23
768.485	13460.23
768.821	13626.77
769.157	13800.33
769.492	13972.75
769.828	14114.45
770.164	14116.93
770.5	14245.29
770.836	14543.36
771.171	14441.44
771.507	14600.53
771.842	14700.64
772.178	14862.45
772.513	14978.6
772.849	14999.62
773.184	15139.28
773.519	15266.05
773.855	15281.65
774.19	15417.24
774.525	15433.28
774.86	15565.03
775.195	15593.28
775.53	15729.54
775.865	15700.17
776.2	15781.75
776.535	15706.72
776.87	15873.5
777.205	15897
777.539	15965.02
777.874	16103.09
778.209	15934.96
778.543	16028.97
778.878	16151.91
779.212	16118.01
779.547	16139.93
779.881	16292.69
780.215	16282.3
780.55	16355.97
780.884	16254.05
781.218	16275.29
781.552	16354.84
781.886	16359.81
782.22	16388.74
782.554	16438.23
782.888	16389.41
783.222	16431.67
783.556	16257.67
783.889	16365.01
784.223	16302.18
784.557	16393.71
784.89	16492.46
785.224	16337.21
785.557	16286.14
785.891	16344.22
786.224	16314.61
786.558	16433.48
786.891	16306.7
787.224	16347.38
787.557	16322.07
787.891	16308.74
788.224	16311.68
788.557	16320.26
788.89	16362.75
789.223	16368.85
789.556	16309.19
789.888	16219.47
790.221	16137.67
790.554	15981.51
790.887	16084.34
791.219	16085.01
791.552	16080.27
791.884	16051.57
792.217	16008.18
792.549	15988.07
792.882	16034.39
793.214	15873.04
793.546	15911.01
793.879	16005.02
794.211	15910.1
794.543	15904.45
794.875	15855.19
795.207	15892.7
795.539	15798.47
795.871	15873.5
796.203	15782.88
796.535	15715.08
796.867	15666.72
797.198	15613.61
797.53	15542.43
797.862	15578.36
798.193	15693.61
798.525	15533.84
798.856	15567.74
799.188	15371.59
799.519	15348.76
799.85	15296.79
800.182	15264.25
800.513	15308.54
800.844	15229.67
801.175	15300.4
801.506	15290.01
801.837	15168.65
802.168	15192.61
802.499	15158.71
802.83	15184.47
803.161	15037.13
803.491	15101.09
803.822	15128.43
804.153	15010.01
804.483	14948.1
804.814	14912.16
805.145	14981.99
805.475	14863.8
805.805	14773.86
806.136	14780.42
806.466	14785.39
806.796	14762.79
807.126	14685.5
807.457	14695.45
807.787	14688.44
808.117	14639.4
808.447	14496.81
808.777	14541.55
809.107	14429.47
809.436	14499.75
809.766	14506.98
810.096	14499.07
810.426	14383.82
810.755	14447.32
811.085	14315.57
811.414	14326.87
811.744	14276.93
812.073	14252.07
812.403	14258.17
812.732	14130.94
813.061	14222.47
813.39	14175.91
813.719	14152.18
814.049	14161.68
814.378	14130.26
814.707	14043.49
815.036	14047.33
815.365	13921.46
815.693	13833.1
816.022	13892.08
816.351	13873.77
816.68	13794.23
817.008	13888.24
817.337	13756.04
817.665	13681.24
817.994	13774.12
818.322	13755.13
818.651	13806.66
818.979	13650.73
819.307	13772.99
819.636	13716.26
819.964	13646.66
820.292	13673.1
820.62	13630.84
820.948	13528.7
821.276	13651.41
821.604	13582.93
821.932	13581.8
822.259	13695.93
822.587	13590.62
822.915	13519.88
823.243	13599.88
823.57	13557.85
823.898	13580.22
824.225	13528.47
824.553	13535.7
824.88	13573.44
825.207	13544.74
825.535	13614.57
825.862	13607.11
826.189	13580.67
826.516	13652.31
826.843	13704.96
827.17	13666.1
827.497	13660.67
827.824	13505.2
828.151	13657.96
828.478	13595.14
828.805	13702.25
829.131	13659.99
829.458	13555.14
829.785	13547.68
830.111	13601.92
830.438	13714.68
830.764	13644.63
831.09	13607.57
831.417	13565.31
831.743	13578.41
832.069	13656.6
832.395	13597.4
832.722	13581.35
833.048	13548.36
833.374	13483.73
833.7	13486.44
834.026	13585.87
834.351	13572.54
834.677	13540.22
835.003	13565.31
835.329	13530.51
835.654	13468.13
835.98	13468.13
836.306	13424.97
836.631	13392.88
836.956	13401.7
837.282	13398.31
837.607	13331.19
837.932	13446.21
838.258	13315.6
838.583	13373.45
838.908	13253.68
839.233	13368.48
839.558	13264.75
839.883	13285.31
840.208	13161.02
840.533	13194.92
840.858	13191.53
841.182	13178.42
841.507	13108.14
841.832	13051.42
842.156	13126.22
842.481	13047.81
842.805	13007.36
843.13	12989.05
843.454	13005.1
843.778	13002.84
844.103	12893.69
844.427	12878.32
844.751	12850.07
845.075	12792.22
845.399	12737.76
845.723	12673.35
846.047	12704.31
846.371	12637.42
846.695	12601.49
847.019	12486.47
847.343	12493.7
847.666	12473.58
847.99	12389.97
848.313	12386.81
848.637	12353.14
848.96	12255.06
849.284	12212.35
849.607	12224.1
849.931	12128.73
850.254	12113.37
850.577	12010.32
850.9	11935.52
851.223	11835.18
851.546	11870.66
851.869	11738.46
852.192	11772.13
852.515	11724.45
852.838	11715.41
853.161	11696.2
853.483	11622.31
853.806	11575.3
854.129	11604.23
854.451	11482.2
854.774	11458.24
855.096	11458.47
855.419	11468.87
855.741	11328.3
856.063	11337.34
856.385	11256.22
856.708	11245.14
857.03	11268.64
857.352	11141.87
857.674	11103
857.996	11093.73
858.318	11057.58
858.64	11117.91
858.961	11041.53
859.283	10980.74
859.605	10936.45
859.926	10935.32
860.248	11011.25
860.57	10830.01
860.891	10884.25
861.212	10839.73
861.534	10820.52
861.855	10745.04
862.176	10780.97
862.498	10802.22
862.819	10764.7
863.14	10704.37
863.461	10735.78
863.782	10610.36
864.103	10712.05
864.424	10656.01
864.745	10670.24
865.065	10538.49
865.386	10571.71
865.707	10517.25
866.027	10524.71
866.348	10497.82
866.668	10450.59
866.989	10451.26
867.309	10372.85
867.63	10418.95
867.95	10442.23
868.27	10401.77
868.59	10307.54
868.91	10364.94
869.23	10303.02
869.55	10272.51
869.87	10379.18
870.19	10279.74
870.51	10317.93
870.83	10277.94
871.15	10296.24
871.469	10319.97
871.789	10223.25
872.109	10275.45
872.428	10139.18
872.748	10209.24
873.067	10125.17
873.386	10202.01
873.706	10110.71
874.025	9984.16
874.344	10065.06
874.663	10082.01
874.982	10039.07
875.301	10056.25
875.62	10013.99
875.939	10018.73
876.258	10020.32
876.577	9940.77
876.896	9977.38
877.214	9920.43
877.533	9966.53
877.852	9786.88
878.17	9901.45
878.489	9886.53
878.807	9792.75
879.125	9817.16
879.444	9781
879.762	9769.25
880.08	9776.25
880.398	9790.49
880.716	9706.88
881.034	9685.64
881.352	9780.55
881.67	9675.92
881.988	9698.52
882.306	9610.83
882.624	9596.82
882.941	9536.94
883.259	9583.26
883.577	9534.23
883.894	9504.17
884.212	9506.2
884.529	9457.39
884.846	9459.88
885.164	9430.27
885.481	9470.95
885.798	9413.55
886.115	9338.3
886.432	9362.71
886.75	9332.2
887.067	9365.42
887.383	9333.55
887.7	9321.8
888.017	9260.56
888.334	9290.62
888.651	9191.86
888.967	9164.74
889.284	9175.14
889.6	9160.45
889.917	9072.09
890.233	9064.18
890.55	9092.88
890.866	9045.43
891.182	9064.86
891.498	8973.34
891.815	8945.77
892.131	8874.81
892.447	8850.4
892.763	8861.02
893.079	8872.78
893.395	8838.88
893.71	8706.23
894.026	8785.77
894.342	8776.05
894.657	8688.15
894.973	8606.79
895.289	8698.09
895.604	8673.46
895.92	8560.24
896.235	8518.89
896.55	8583.52
896.865	8541.71
897.181	8446.57
897.496	8499
897.811	8412.45
898.126	8408.15
898.441	8324.54
898.756	8367.03
899.071	8292
899.386	8316.18
899.7	8248.16
900.015	8216.97
900.33	8125.68
900.644	8102.17
900.959	8146.92
901.273	8131.33
901.588	8082.51
901.902	7999.35
902.216	7993.7
902.531	7981.5
902.845	7931.11
903.159	7898.79
903.473	7900.82
903.787	7812.69
904.101	7848.4
904.415	7775.18
904.729	7743.99
905.042	7745.8
905.356	7663.54
905.67	7630.32
905.984	7684.78
906.297	7674.16
906.611	7604.33
906.924	7605.69
907.237	7527.27
907.551	7490.44
907.864	7461.51
908.177	7468.97
908.491	7434.17
908.804	7392.14
909.117	7327.96
909.43	7293.61
909.743	7282.99
910.056	7238.69
910.368	7205.93
910.681	7226.49
910.994	7120.96
911.307	7179.49
911.619	7073.27
911.932	7113.95
912.244	7006.38
912.557	7020.17
912.869	6980.62
913.181	6953.28
913.494	6932.04
913.806	6865.37
914.118	6864.01
914.43	6780.85
914.742	6847.74
915.054	6773.62
915.366	6817.24
915.678	6739.05
915.99	6690.91
916.302	6673.28
916.613	6626.05
916.925	6630.57
917.236	6558.94
917.548	6595.09
917.859	6586.28
918.171	6496.79
918.482	6528.2
918.794	6451.6
919.105	6488.43
919.416	6402.78
919.727	6426.06
920.038	6353.52
920.349	6356.91
920.66	6292.28
920.971	6321.43
921.282	6325.5
921.593	6295.89
921.903	6221.32
922.214	6231.49
922.525	6203.01
922.835	6149.91
923.146	6077.37
923.456	6086.63
923.767	6062
924.077	6059.52
924.387	6015
924.697	5983.13
925.008	6015.45
925.318	5927.99
925.628	5939.29
925.938	5954.43
926.248	5796.25
926.558	5807.55
926.867	5844.61
927.177	5800.31
927.487	5814.55
927.796	5719.19
928.106	5742.46
928.416	5696.59
928.725	5699.98
929.034	5700.2
929.344	5641.22
929.653	5670.37
929.962	5571.85
930.271	5571.62
930.581	5565.74
930.89	5524.16
931.199	5514.22
931.508	5477.61
931.817	5488.01
932.125	5436.93
932.434	5456.59
932.743	5424.96
933.051	5311.74
933.36	5342.47
933.669	5305.64
933.977	5255.02
934.286	5298.63
934.594	5284.17
934.902	5213.44
935.21	5191.29
935.519	5187
935.827	5202.36
936.135	5163.04
936.443	5176.15
936.751	5094.57
937.059	5129.37
937.367	5057.73
937.674	5088.02
937.982	5070.16
938.29	5024.51
938.597	5023.16
938.905	4987.91
939.213	4952.43
939.52	4950.17
939.827	4909.26
940.135	4904.07
940.442	4857.74
940.749	4864.29
941.056	4861.81
941.363	4788.81
941.67	4777.74
941.977	4736.39
942.284	4668.82
942.591	4679.44
942.898	4709.27
943.205	4728.48
943.511	4675.37
943.818	4625.2
944.125	4610.97
944.431	4603.51
944.738	4579.78
945.044	4583.17
945.35	4560.57
945.657	4552.66
945.963	4525.77
946.269	4496.39
946.575	4455.49
946.881	4422.95
947.187	4440.8
947.493	4413.68
947.799	4434.93
948.105	4385.66
948.41	4325.55
948.716	4358.09
949.022	4302.95
949.327	4337.3
949.633	4269.73
949.938	4257.08
950.244	4241.71
950.549	4224.99
950.854	4210.07
951.16	4206.91
951.465	4175.5
951.77	4150.19
952.075	4135.05
952.38	4130.53
952.685	4075.84
952.99	4103.86
953.294	4089.85
953.599	4065.22
953.904	4049.17
954.209	3999.68
954.513	4007.37
954.818	3965.11
955.122	3962.4
955.426	3923.07
955.731	3929.4
956.035	3911.32
956.339	3924.66
956.643	3885.79
956.948	3833.36
957.252	3862.06
957.556	3828.16
957.86	3860.7
958.163	3823.87
958.467	3749.75
958.771	3769.86
959.075	3791.33
959.378	3733.48
959.682	3744.1
959.985	3691.22
960.289	3654.38
960.592	3703.87
960.896	3663.87
961.199	3682.18
961.502	3582.74
961.805	3641.27
962.108	3559.02
962.411	3573.25
962.714	3555.17
963.017	3574.84
963.32	3576.19
963.623	3514.27
963.926	3521.96
964.228	3518.79
964.531	3469.53
964.833	3481.73
965.136	3369.19
965.438	3397.89
965.741	3419.13
966.043	3408.74
966.345	3392.92
966.648	3389.98
966.95	3347.72
967.252	3311.11
967.554	3344.78
967.856	3316.76
968.158	3284.45
968.46	3307.5
968.761	3268.4
969.063	3254.62
969.365	3278.8
969.666	3241.06
969.968	3243.09
970.269	3187.95
970.571	3204.9
970.872	3175.52
971.174	3184.56
971.475	3188.63
971.776	3130.78
972.077	3137.33
972.378	3113.38
972.679	3109.31
972.98	3081.06
973.281	3084.45
973.582	3054.85
973.883	3052.59
974.183	3014.62
974.484	3021.18
974.785	2992.48
975.085	3007.17
975.386	2985.7
975.686	2967.17
975.986	2947.96
976.287	2929.88
976.587	2895.08
976.887	2940.05
977.187	2945.47
977.487	2897.79
977.787	2870.22
978.087	2893.5
978.387	2838.36
978.687	2825.02
978.987	2862.99
979.286	2815.08
979.586	2803.33
979.885	2762.88
980.185	2757.23
980.484	2732.6
980.784	2750.9
981.083	2749.55
981.382	2696.44
981.682	2699.83
981.981	2705.71
982.28	2671.13
982.579	2695.54
982.878	2685.37
983.177	2652.37
983.475	2631.13
983.774	2645.59
984.073	2623.22
984.372	2552.94
984.67	2606.95
984.969	2580.06
985.267	2599.27
985.566	2560.17
985.864	2557.46
986.162	2559.49
986.461	2507.74
986.759	2496.67
987.057	2494.64
987.355	2518.14
987.653	2481.3
987.951	2449.22
988.249	2462.77
988.547	2428.42
988.844	2435.66
989.142	2423.23
989.44	2387.75
989.737	2412.38
990.035	2387.52
990.332	2377.35
990.63	2381.65
990.927	2359.73
991.224	2329.67
991.521	2363.57
991.819	2355.88
992.116	2338.26
992.413	2279.73
992.71	2297.81
993.006	2302.33
993.303	2259.16
993.6	2289.9
993.897	2281.99
994.193	2263.01
994.49	2237.47
994.787	2234.31
995.083	2219.16
995.379	2230.46
995.676	2182.78
995.972	2165.83
996.268	2162.9
996.565	2175.32
996.861	2142.33
997.157	2133.74
997.453	2133.97
997.749	2108.66
998.044	2107.98
998.34	2117.7
998.636	2098.49
998.932	2075.21
999.227	2030.02
999.523	2086.96
999.818	2034.08
1000.114	2015.1
1000.409	2014.88
1000.704	2006.97
1001	2016.23
1001.295	1999.28
1001.59	1991.83
1001.885	1957.7
1002.18	1955.22
1002.475	1977.36
1002.77	1923.35
1003.065	1931.04
1003.359	1915.44
1003.654	1940.53
1003.949	1910.25
1004.243	1868.21
1004.538	1870.25
1004.832	1878.38
1005.127	1866.86
1005.421	1864.15
1005.715	1855.78
1006.009	1798.16
1006.304	1813.3
1006.598	1813.3
1006.892	1777.82
1007.186	1792.51
1007.48	1780.08
1007.773	1712.74
1008.067	1775.56
1008.361	1759.74
1008.655	1759.74
1008.948	1729.23
1009.242	1721.55
1009.535	1676.13
1009.829	1696.69
1010.122	1677.26
1010.415	1652.4
1010.708	1660.76
1011.001	1653.53
1011.295	1631.84
1011.588	1654.21
1011.881	1621.44
1012.173	1611.27
1012.466	1605.85
1012.759	1615.11
1013.052	1604.04
1013.344	1595.45
1013.637	1574.21
1013.93	1566.75
1014.222	1559.75
1014.514	1536.02
1014.807	1529.92
1015.099	1545.74
1015.391	1552.29
1015.683	1517.04
1015.976	1519.97
1016.268	1505.96
1016.56	1490.6
1016.851	1452.86
1017.143	1484.95
1017.435	1444.27
1017.727	1437.49
1018.018	1439.3
1018.31	1447.21
1018.602	1447.89
1018.893	1416.02
1019.185	1406.08
1019.476	1389.81
1019.767	1399.75
1020.058	1367.89
1020.35	1393.2
1020.641	1378.51
1020.932	1343.03
1021.223	1331.73
1021.514	1336.48
1021.804	1331.96
1022.095	1308.23
1022.386	1331.5
1022.677	1313.65
1022.967	1279.3
1023.258	1286.53
1023.548	1282.92
1023.839	1276.14
1024.129	1265.97
1024.419	1220.32
1024.709	1239.98
1025	1265.97
1025.29	1238.63
1025.58	1225.74
1025.87	1210.15
1026.16	1181
1026.449	1217.84
1026.739	1192.98
1027.029	1170.6
1027.319	1183.26
1027.608	1166.99
1027.898	1143.49
1028.187	1136.93
1028.477	1141.23
1028.766	1136.71
1029.055	1136.03
1029.344	1113.66
1029.634	1110.72
1029.923	1101.45
1030.212	1109.14
1030.501	1096.26
1030.79	1061.91
1031.078	1102.81
1031.367	1094.22
1031.656	1040.21
1031.945	1080.44
1032.233	1046.09
1032.522	1043.83
1032.81	1038.86
1033.099	1041.34
1033.387	1041.34
1033.675	1031.17
1033.963	1004.51
1034.251	1006.99
1034.54	1012.19
1034.828	976.71
1035.116	984.85
1035.403	968.58
1035.691	979.42
1035.979	958.41
1036.267	955.24
1036.554	967.22
1036.842	959.08
1037.129	974.68
1037.417	960.89
1037.704	907.33
1037.992	916.6
1038.279	910.95
1038.566	908.69
1038.853	908.69
1039.14	908.69
