Data from hue_250_FLMS001491_00075.txt Node
Date: Tue Feb 07 16:01:27 GMT 2017
User: dcchb
Spectrometer: FLMS00149
Trigger mode: 0
Integration Time (sec): 2.000000E-2
Scans to average: 10
Electric dark correction enabled: true
Nonlinearity correction enabled: false
Boxcar width: 0
XAxis mode: Wavelengths
Number of Pixels in Spectrum: 2048
>>>>>Begin Spectral Data<<<<<
341.393	-19.94
341.776	-19.94
342.16	-19.94
342.543	-51.81
342.927	-67.63
343.31	-85.7
343.693	-56.78
344.077	-71.02
344.46	-62.88
344.843	-54.29
345.226	-56.55
345.61	-23.56
345.993	-25.14
346.376	14.41
346.759	5.82
347.142	8.3
347.525	46.27
347.908	64.12
348.291	96.44
348.674	86.72
349.057	113.84
349.44	143.44
349.823	145.93
350.206	165.14
350.588	183.44
350.971	206.04
351.354	232.48
351.737	223.89
352.119	255.08
352.502	232.25
352.884	262.99
353.267	277
353.65	271.8
354.032	301.18
354.414	316.77
354.797	307.96
355.179	310.67
355.562	310.22
355.944	313.16
356.326	319.26
356.709	309.31
357.091	342.53
357.473	329.65
357.855	341.86
358.238	311.57
358.62	329.88
359.002	327.62
359.384	323.32
359.766	314.74
360.148	314.06
360.53	331.23
360.912	335.75
361.294	315.87
361.676	315.42
362.057	325.36
362.439	323.55
362.821	338.69
363.203	325.58
363.584	313.83
363.966	325.81
364.348	308.18
364.729	305.25
365.111	307.96
365.493	317.45
365.874	311.57
366.256	320.61
366.637	318.58
367.019	323.1
367.4	314.06
367.781	291.24
368.163	305.02
368.544	315.64
368.925	290.11
369.306	300.95
369.688	306.6
370.069	291.24
370.45	308.41
370.831	309.77
371.212	299.6
371.593	299.14
371.974	313.16
372.355	305.47
372.736	314.51
373.117	301.63
373.498	296.43
373.879	309.99
374.26	317.45
374.641	285.81
375.021	308.64
375.402	309.54
375.783	312.7
376.163	309.99
376.544	312.48
376.925	315.87
377.305	347.96
377.686	334.62
378.066	335.08
378.447	328.07
378.827	333.95
379.208	321.07
379.588	314.06
379.968	329.43
380.349	333.95
380.729	326.94
381.109	342.31
381.489	327.17
381.87	339.14
382.25	322.87
382.63	325.13
383.01	342.53
383.39	329.65
383.77	339.37
384.15	331.69
384.53	335.98
384.91	338.92
385.29	341.86
385.67	341.86
386.049	358.13
386.429	343.44
386.809	343.21
387.189	351.57
387.568	362.65
387.948	352.25
388.328	346.38
388.707	367.39
389.087	348.86
389.466	370.1
389.846	348.63
390.225	354.51
390.605	355.41
390.984	346.6
391.363	361.06
391.743	355.87
392.122	374.17
392.501	373.94
392.881	372.14
393.26	353.15
393.639	391.8
394.018	377.56
394.397	383.21
394.776	393.61
395.155	387.96
395.534	380.5
395.913	367.39
396.292	394.28
396.671	382.76
397.05	397.22
397.429	394.51
397.808	397.22
398.186	382.76
398.565	412.59
398.944	410.78
399.323	394.51
399.701	408.97
400.08	408.75
400.458	398.35
400.837	427.5
401.215	436.77
401.594	412.14
401.972	408.52
402.351	403.77
402.729	435.64
403.107	424.11
403.486	425.02
403.864	440.38
404.242	429.08
404.62	435.86
404.999	446.71
405.377	435.41
405.755	463.66
406.133	436.77
406.511	472.93
406.889	460.27
407.267	476.54
407.645	470.67
408.023	495.98
408.401	473.15
408.779	462.3
409.156	489.65
409.534	511.34
409.912	508.86
410.29	508.63
410.667	495.52
411.045	489.2
411.422	549.08
411.8	542.53
412.178	541.4
412.555	534.84
412.933	553.83
413.31	547.95
413.687	544.34
414.065	568.52
414.442	566.93
414.819	576.88
415.197	587.5
415.574	596.31
415.951	592.7
416.328	595.86
416.705	597.44
417.082	606.93
417.46	612.58
417.837	605.13
418.214	621.62
418.591	636.54
418.967	649.64
419.344	661.17
419.721	673.82
420.098	658.23
420.475	689.64
420.852	695.07
421.228	714.28
421.605	708.17
421.982	693.03
422.358	720.38
422.735	738.23
423.111	715.18
423.488	721.96
423.864	724.67
424.241	757.21
424.617	768.28
424.994	771.9
425.37	779.58
425.746	798.79
426.123	789.3
426.499	841.5
426.875	804.22
427.251	846.02
427.627	837.44
428.003	853.25
428.379	860.71
428.756	861.16
429.132	890.54
429.507	915.4
429.883	918.56
430.259	909.3
430.635	931.44
431.011	925.57
431.387	975.51
431.763	962.18
432.138	956.98
432.514	985.91
432.89	997.88
433.265	1016.41
433.641	1059.35
434.016	1065.23
434.392	1057.09
434.767	1093.02
435.143	1074.94
435.518	1095.06
435.894	1118.78
436.269	1138.9
436.644	1156.52
437.02	1140.25
437.395	1174.6
437.77	1214.6
438.145	1228.16
438.52	1207.6
438.895	1241.49
439.271	1247.82
439.646	1282.17
440.021	1318.55
440.395	1288.95
440.77	1329.85
441.145	1311.32
441.52	1312.9
441.895	1357.65
442.27	1392.68
442.645	1394.03
443.019	1401.04
443.394	1375.73
443.769	1422.5
444.143	1395.39
444.518	1445.78
444.892	1450.07
445.267	1469.74
445.641	1465.89
446.016	1471.54
446.39	1486.46
446.764	1474.48
447.139	1519.9
447.513	1529.39
447.887	1534.59
448.262	1499.57
448.636	1540.47
449.01	1570.07
449.384	1559.9
449.758	1568.94
450.132	1619.34
450.506	1594.7
450.88	1603.07
451.254	1618.21
451.628	1643.29
452.002	1665.21
452.376	1683.52
452.75	1718.09
453.123	1709.05
453.497	1720.58
453.871	1743.17
454.244	1753.57
454.618	1786.34
454.992	1782.27
455.365	1812.1
455.739	1807.13
456.112	1840.57
456.486	1879.44
456.859	1903.62
457.232	1923.06
457.606	1904.53
457.979	1931.42
458.352	1977.07
458.725	1980.23
459.099	2010.29
459.472	2006.22
459.845	2058.65
460.218	2073.11
460.591	2092.09
460.964	2079.44
461.337	2180.45
461.71	2161.92
462.083	2188.36
462.456	2222.71
462.829	2175.71
463.201	2229.49
463.574	2226.33
463.947	2283.05
464.32	2338.19
464.692	2325.08
465.065	2323.5
465.438	2410.28
465.81	2425.64
466.183	2471.74
466.555	2506.09
466.928	2492.99
467.3	2512.87
467.672	2559.42
468.045	2606.43
468.417	2584.96
468.789	2603.94
469.161	2645.52
469.534	2677.84
469.906	2742.02
470.278	2739.98
470.65	2796.71
471.022	2812.52
471.394	2851.62
471.766	2858.85
472.138	2924.16
472.51	2975.23
472.882	3010.49
473.253	3014.1
473.625	3094.1
473.997	3157.83
474.369	3164.83
474.74	3182.46
475.112	3245.28
475.484	3285.96
475.855	3332.96
476.227	3352.4
476.598	3407.31
476.97	3463.36
477.341	3522.11
477.713	3539.74
478.084	3597.59
478.455	3666.06
478.827	3714.87
479.198	3762.33
479.569	3812.95
479.94	3883.23
480.311	3872.61
480.682	3974.98
481.053	4045.94
481.424	4134.75
481.795	4178.59
482.166	4197.12
482.537	4233.05
482.908	4322.09
483.279	4362.77
483.65	4434.4
484.021	4526.6
484.391	4535.19
484.762	4567.96
485.133	4600.05
485.503	4652.93
485.874	4749.88
486.244	4786.03
486.615	4859.93
486.985	4914.62
487.356	4972.02
487.726	5035.07
488.097	5155.06
488.467	5136.31
488.837	5267.15
489.207	5253.36
489.578	5304.44
489.948	5357.99
490.318	5435.73
490.688	5449.74
491.058	5479.57
491.428	5594.82
491.798	5629.17
492.168	5668.95
492.538	5693.81
492.908	5781.49
493.278	5828.04
493.648	5811.77
494.017	5899.9
494.387	5983.51
494.757	6014.02
495.126	6048.6
495.496	6085.66
495.866	6068.94
496.235	6147.35
496.605	6193.23
496.974	6219.89
497.344	6258.31
497.713	6291.53
498.082	6327.23
498.452	6402.49
498.821	6364.52
499.19	6400.45
499.559	6489.49
499.928	6488.59
500.298	6540.56
500.667	6633.22
501.036	6518.42
501.405	6604.29
501.774	6612.43
502.143	6648.13
502.512	6703.72
502.88	6734.68
503.249	6755.25
503.618	6798.63
503.987	6793.89
504.356	6840.44
504.724	6877.28
505.093	6848.35
505.462	6943.94
505.83	6918.18
506.199	6947.56
506.567	7039.08
506.936	6979.65
507.304	7101.45
507.672	7117.5
508.041	7130.15
508.409	7123.15
508.777	7228
509.145	7263.26
509.514	7195.01
509.882	7271.84
510.25	7251.96
510.618	7272.75
510.986	7242.24
511.354	7285.85
511.722	7391.61
512.09	7421.44
512.458	7420.31
512.826	7480.2
513.193	7413.99
513.561	7477.49
513.929	7513.42
514.297	7608.78
514.664	7594.32
515.032	7573.76
515.4	7600.65
515.767	7710.02
516.135	7652.85
516.502	7587.31
516.869	7665.28
517.237	7680.19
517.604	7629.35
517.972	7738.72
518.339	7773.98
518.706	7739.63
519.073	7819.4
519.44	7804.71
519.808	7893.75
520.175	7800.87
520.542	7898.94
520.909	7884.71
521.276	7874.99
521.643	7959.51
522.009	7931.03
522.376	8025.27
522.743	8035.89
523.11	8050.81
523.477	8133.74
523.843	8093.06
524.21	8168.54
524.577	8170.58
524.943	8188.43
525.31	8215.32
525.676	8223.68
526.043	8214.42
526.409	8279.05
526.776	8374.19
527.142	8300.74
527.508	8262.55
527.874	8394.07
528.241	8408.99
528.607	8392.49
528.973	8414.41
529.339	8407.18
529.705	8456.44
530.071	8489.66
530.437	8514.97
530.803	8517.01
531.169	8526.05
531.535	8506.61
531.901	8486.5
532.267	8559.72
532.632	8560.17
532.998	8499.83
533.364	8548.42
533.73	8520.85
534.095	8570.57
534.461	8579.83
534.826	8569.89
535.192	8601.07
535.557	8630.68
535.923	8653.5
536.288	8649.21
536.653	8627.06
537.019	8539.61
537.384	8565.82
537.749	8605.37
538.114	8594.97
538.479	8612.15
538.845	8618.7
539.21	8536.22
539.575	8611.24
539.94	8608.08
540.305	8665.48
540.67	8608.98
541.034	8622.09
541.399	8557.23
541.764	8563.11
542.129	8596.33
542.494	8514.07
542.858	8621.64
543.223	8643.78
543.587	8604.46
543.952	8608.3
544.316	8585.48
544.681	8561.75
545.045	8550.91
545.41	8663.22
545.774	8573.05
546.138	8580.51
546.503	8597.23
546.867	8524.92
547.231	8513.84
547.595	8524.24
547.959	8564.69
548.324	8580.28
548.688	8566.72
549.052	8592.03
549.416	8514.97
549.779	8570.11
550.143	8587.51
550.507	8561.98
550.871	8570.57
551.235	8591.13
551.599	8610.11
551.962	8533.5
552.326	8605.59
552.689	8615.31
553.053	8548.19
553.417	8552.71
553.78	8660.28
554.143	8596.33
554.507	8594.29
554.87	8616.67
555.234	8694.86
555.597	8604.91
555.96	8567.18
556.323	8635.42
556.686	8635.87
557.05	8660.96
557.413	8661.41
557.776	8599.49
558.139	8691.01
558.502	8712.71
558.865	8676.55
559.228	8748.41
559.59	8764.91
559.953	8770.11
560.316	8801.75
560.679	8840.39
561.041	8797.45
561.404	8815.76
561.767	8866.6
562.129	8860.28
562.492	8933.72
562.854	8880.16
563.217	8923.32
563.579	8930.78
563.941	8922.19
564.304	8984.11
564.666	9020.72
565.028	9077.67
565.39	9019.82
565.753	9079.03
566.115	9108.86
566.477	9032.93
566.839	9102.98
567.201	9187.27
567.563	9140.49
567.925	9249.64
568.287	9232.92
568.648	9264.56
569.01	9290.55
569.372	9359.92
569.734	9286.25
570.095	9373.03
570.457	9403.31
570.819	9399.7
571.18	9354.27
571.542	9476.76
571.903	9429.53
572.265	9502.52
572.626	9478.34
572.987	9524.89
573.349	9510.88
573.71	9595.4
574.071	9633.36
574.432	9641.05
574.794	9698.9
575.155	9690.54
575.516	9636.07
575.877	9697.77
576.238	9724.21
576.599	9787.26
576.96	9737.99
577.32	9773.02
577.681	9777.99
578.042	9801.27
578.403	9894.15
578.763	9821.38
579.124	9876.75
579.485	9875.39
579.845	9955.61
580.206	9947.03
580.566	10016.4
580.927	9955.61
581.287	9989.74
581.648	9987.7
582.008	10060.92
582.368	10064.54
582.728	10074.03
583.089	10096.85
583.449	10098.44
583.809	10109.51
584.169	10108.6
584.529	10060.24
584.889	10230.41
585.249	10137.3
585.609	10109.51
585.969	10194.7
586.329	10194.7
586.688	10121.03
587.048	10188.83
587.408	10210.75
587.768	10121.03
588.127	10186.34
588.487	10186.57
588.846	10311.31
589.206	10195.38
589.565	10248.71
589.925	10321.25
590.284	10228.38
590.643	10337.07
591.003	10321.48
591.362	10265.66
591.721	10361.25
592.08	10357.86
592.44	10453
592.799	10447.13
593.158	10413.23
593.517	10435.15
593.876	10374.13
594.235	10381.37
594.593	10334.59
594.952	10352.44
595.311	10398.77
595.67	10399.9
596.029	10476.96
596.387	10474.24
596.746	10482.61
597.104	10466.79
597.463	10423.62
597.822	10467.24
598.18	10449.61
598.538	10463.85
598.897	10481.93
599.255	10384.3
599.613	10568.71
599.972	10509.05
600.33	10525.77
600.688	10527.8
601.046	10550.63
601.404	10540.23
601.762	10575.48
602.12	10551.53
602.478	10533.45
602.836	10556.28
603.194	10553.34
603.552	10542.04
603.91	10537.97
604.268	10596.05
604.625	10534.58
604.983	10571.42
605.341	10516.5
605.698	10654.8
606.056	10651.64
606.413	10548.59
606.771	10594.47
607.128	10600.79
607.485	10583.39
607.843	10639.89
608.2	10737.51
608.557	10719.21
608.914	10669.27
609.272	10696.84
609.629	10784.74
609.986	10800.79
610.343	10683.73
610.7	10734.12
611.057	10837.4
611.414	10808.92
611.771	10793.78
612.127	10756.27
612.484	10865.19
612.841	10831.07
613.198	10880.79
613.554	10859.54
613.911	10843.5
614.267	10855.48
614.624	10844.4
614.98	10874.23
615.337	10913.33
615.693	10852.99
616.05	10885.98
616.406	10923.05
616.762	10906.1
617.118	10909.26
617.475	10946.77
617.831	11004.63
618.187	10981.12
618.543	10971.18
618.899	11029.03
619.255	10953.1
619.611	10969.37
619.967	10958.3
620.323	11059.99
620.678	10942.03
621.034	10994.46
621.39	10940.67
621.746	10962.82
622.101	11062.48
622.457	11057.28
622.812	11045.3
623.168	11066.55
623.523	11012.31
623.879	11114.45
624.234	10970.05
624.589	11028.35
624.945	11039.2
625.3	11107
625.655	10964.4
626.01	11067.9
626.365	11042.59
626.72	10993.78
627.075	11042.59
627.43	11006.89
627.785	11060.9
628.14	11031.07
628.495	11002.14
628.85	11024.06
629.205	11056.6
629.559	10917.4
629.914	10958.75
630.269	11001.91
630.623	11009.82
630.978	10898.87
631.332	10891.41
631.687	10952.2
632.041	10841.69
632.396	10914.91
632.75	10873.33
633.104	10881.69
633.459	10850.73
633.813	10756.72
634.167	10805.08
634.521	10830.62
634.875	10779.1
635.229	10834.69
635.583	10803.73
635.937	10749.49
636.291	10737.29
636.645	10740
636.999	10690.28
637.352	10764.86
637.706	10629.27
638.06	10787.68
638.413	10757.63
638.767	10719.21
639.121	10644.18
639.474	10575.94
639.828	10635.6
640.181	10589.27
640.534	10561.47
640.888	10602.15
641.241	10596.05
641.594	10592.89
641.947	10612.55
642.301	10598.99
642.654	10537.97
643.007	10555.15
643.36	10508.14
643.713	10504.98
644.066	10529.38
644.419	10412.55
644.771	10474.02
645.124	10340.24
645.477	10324.42
645.83	10204.42
646.182	10154.93
646.535	10101.15
646.888	10140.69
647.24	10063.63
647.593	10114.25
647.945	10116.74
648.298	10068.61
648.65	10052.79
649.002	9946.57
649.355	10133.01
649.707	10067.7
650.059	10096.4
650.411	10249.62
650.763	10323.97
651.115	10420.69
651.467	10320.35
651.819	10342.5
652.171	10340.91
652.523	10285.77
652.875	10227.92
653.227	10201.94
653.578	10287.58
653.93	10342.04
654.282	10278.77
654.633	10272.89
654.985	10276.06
655.337	10274.7
655.688	10240.8
656.039	10267.02
656.391	10182.95
656.742	10273.57
657.094	10203.07
657.445	10253.91
657.796	10220.69
658.147	10246.68
658.498	10265.21
658.849	10260.01
659.2	10196.29
659.551	10256.17
659.902	10253.69
660.253	10255.04
660.604	10213.46
660.955	10165.1
661.306	10237.64
661.656	10180.92
662.007	10190.64
662.358	10256.85
662.708	10252.1
663.059	10247.58
663.409	10213.69
663.76	10177.53
664.11	10212.78
664.461	10199
664.811	10231.54
665.161	10182.05
665.511	10195.16
665.862	10243.29
666.212	10216.85
666.562	10249.84
666.912	10302.95
667.262	10270.63
667.612	10255.27
667.962	10252.56
668.312	10168.26
668.662	10285.1
669.011	10196.74
669.361	10129.17
669.711	10214.36
670.06	10252.78
670.41	10167.36
670.76	10189.28
671.109	10207.13
671.459	10165.78
671.808	10146.34
672.157	10184.53
672.507	10103.18
672.856	10157.19
673.205	10183.18
673.554	10168.49
673.904	10140.02
674.253	10105.21
674.602	10107.02
674.951	9969.17
675.3	9899.12
675.649	10057.53
675.998	10128.49
676.346	10022.96
676.695	10030.87
677.044	10015.05
677.393	10027.7
677.741	10022.05
678.09	9994.71
678.438	10029.96
678.787	9971.43
679.135	9983.41
679.484	9932.56
679.832	9941.6
680.181	9923.3
680.529	9910.87
680.877	9839.01
681.225	9877.2
681.573	9881.94
681.922	9856.86
682.27	9831.78
682.618	9802.4
682.966	9754.04
683.314	9839.23
683.661	9755.62
684.009	9711.55
684.357	9750.42
684.705	9662.74
685.053	9730.31
685.4	9687.82
685.748	9642.85
686.095	9637.43
686.443	9612.57
686.79	9550.2
687.138	9581.16
687.485	9599.01
687.832	9558.79
688.18	9585.45
688.527	9509.98
688.874	9452.58
689.221	9461.16
689.568	9457.77
689.915	9486.25
690.262	9378.45
690.609	9375.97
690.956	9318.57
691.303	9314.95
691.65	9238.34
691.997	9221.85
692.344	9196.09
692.69	9155.86
693.037	9164.9
693.383	9128.07
693.73	9108.4
694.077	9057.33
694.423	9011.46
694.769	9008.52
695.116	8984.79
695.462	8943.21
695.808	8867.05
696.155	8998.35
696.501	8894.4
696.847	8869.99
697.193	8801.97
697.539	8914.06
697.885	8779.15
698.231	8735.31
698.577	8802.2
698.923	8718.36
699.269	8696.21
699.614	8644.46
699.96	8597.91
700.306	8585.03
700.651	8538.25
700.997	8542.54
701.342	8482.66
701.688	8458.7
702.033	8398.59
702.379	8497.57
702.724	8438.59
703.069	8465.03
703.415	8346.62
703.76	8388.2
704.105	8366.5
704.45	8353.17
704.795	8214.42
705.14	8206.28
705.485	8184.36
705.83	8162.44
706.175	8178.71
706.52	8161.08
706.865	8117.24
707.209	8120.18
707.554	8095.1
707.899	8112.95
708.243	8000.41
708.588	8006.06
708.932	8000.19
709.277	8004.93
709.621	7976.68
709.966	7927.64
710.31	7924.25
710.654	7867.99
710.998	7854.88
711.342	7904.37
711.687	7868.89
712.031	7826.18
712.375	7808.55
712.719	7809.91
713.063	7780.53
713.407	7804.71
713.75	7723.36
714.094	7784.6
714.438	7708.89
714.782	7696.01
715.125	7676.35
715.469	7668.89
715.812	7684.04
716.156	7667.31
716.499	7616.47
716.843	7604.49
717.186	7616.24
717.53	7624.6
717.873	7631.83
718.216	7585.73
718.559	7546.19
718.902	7486.07
719.246	7526.75
719.589	7465.51
719.932	7467.54
720.275	7491.72
720.617	7482.91
720.96	7444.27
721.303	7432.97
721.646	7458.96
721.989	7436.81
722.331	7433.42
722.674	7413.99
723.016	7382.8
723.359	7362.01
723.701	7418.73
724.044	7331.05
724.386	7311.62
724.729	7283.59
725.071	7313.88
725.413	7307.77
725.755	7338.06
726.097	7261.67
726.439	7276.59
726.782	7261.67
727.124	7379.64
727.465	7221.67
727.807	7270.71
728.149	7258.96
728.491	7244.05
728.833	7279.98
729.175	7208.12
729.516	7201.11
729.858	7252.86
730.199	7221.45
730.541	7239.98
730.882	7196.36
731.224	7226.42
731.565	7126.08
731.906	7142.81
732.248	7205.4
732.589	7159.76
732.93	7117.95
733.271	7217.83
733.612	7203.37
733.953	7183.71
734.294	7150.72
734.635	7120.43
734.976	7151.85
735.317	7118.17
735.658	7167.89
735.999	7135.12
736.339	7131.06
736.68	7167.21
737.021	7157.95
737.361	7113.65
737.702	7169.92
738.042	7143.03
738.383	7132.19
738.723	7157.04
739.063	7151.62
739.404	7143.71
739.744	7131.51
740.084	7164.95
740.424	7142.58
740.764	7165.86
741.104	7163.6
741.444	7122.92
741.784	7140.55
742.124	7151.39
742.464	7135.12
742.804	7161.11
743.143	7184.16
743.483	7152.98
743.823	7220.09
744.162	7152.3
744.502	7261.22
744.841	7219.19
745.181	7234.78
745.52	7274.55
745.86	7251.5
746.199	7291.05
746.538	7310.26
746.877	7361.56
747.216	7386.42
747.556	7366.08
747.895	7507.99
748.234	7421.44
748.573	7451.27
748.911	7573.53
749.25	7521.78
749.589	7578.28
749.928	7623.92
750.267	7701.89
750.605	7653.53
750.944	7746.63
751.283	7794.99
751.621	7793.18
751.96	7879.06
752.298	7955.21
752.636	7996.57
752.975	8018.72
753.313	8084.25
753.651	8111.82
753.989	8143.23
754.327	8249.22
754.666	8278.82
755.004	8444.02
755.342	8479.49
755.679	8567.85
756.017	8608.53
756.355	8768.75
756.693	8783.22
757.031	8866.38
757.368	9008.07
757.706	9059.14
758.044	9144.56
758.381	9264.33
758.719	9378
759.056	9490.99
759.394	9553.36
759.731	9583.87
760.068	9634.27
760.405	9758.11
760.743	9882.17
761.08	9975.5
761.417	10024.99
761.754	10184.76
762.091	10203.52
762.428	10299.79
762.765	10358.09
763.102	10594.02
763.438	10578.87
763.775	10695.93
764.112	10820
764.449	10988.58
764.785	10951.52
765.122	11036.04
765.458	11141.35
765.795	11195.36
766.131	11388.12
766.467	11396.25
766.804	11465.4
767.14	11502.92
767.476	11577.27
767.812	11721.44
768.148	11900.87
768.485	11793.31
768.821	11917.37
769.157	12012.73
769.492	12049.8
769.828	12241.66
770.164	12133.86
770.5	12184.71
770.836	12306.06
771.171	12386.51
771.507	12446.4
771.842	12424.02
772.178	12434.42
772.513	12566.62
772.849	12628.09
773.184	12572.72
773.519	12655.66
773.855	12688.2
774.19	12680.74
774.525	12765.94
774.86	12786.05
775.195	12814.52
775.53	12815.43
775.865	12854.97
776.2	12883.67
776.535	12814.07
776.87	12865.59
777.205	12908.98
777.539	12940.39
777.874	13007.96
778.209	12827.18
778.543	12858.59
778.878	12879.83
779.212	12905.14
779.547	12872.15
779.881	13012.26
780.215	12982.2
780.55	13033.5
780.884	12894.75
781.218	12910.56
781.552	12975.2
781.886	12978.81
782.22	12872.83
782.554	12827.4
782.888	12866.05
783.222	12904.91
783.556	12836.44
783.889	12836.89
784.223	12789.66
784.557	12733.39
784.89	12793.73
785.224	12764.13
785.557	12750.57
785.891	12766.84
786.224	12682.55
786.558	12734.07
786.891	12560.74
787.224	12612.27
787.557	12569.1
787.891	12604.58
788.224	12664.24
788.557	12661.76
788.89	12547.64
789.223	12524.59
789.556	12560.52
789.888	12494.76
790.221	12463.34
790.554	12488.88
790.887	12374.53
791.219	12353.07
791.552	12384.93
791.884	12327.08
792.217	12314.2
792.549	12348.55
792.882	12276.91
793.214	12228.32
793.546	12248.21
793.879	12149.23
794.211	12101.55
794.543	12178.15
794.875	12116.91
795.207	12081.66
795.539	12083.02
795.871	12131.83
796.203	12005.28
796.535	12019.29
796.867	11935.22
797.198	11902.23
797.53	11925.96
797.862	11875.34
798.193	11868.33
798.525	11776.13
798.856	11849.35
799.188	11667.21
799.519	11584.5
799.85	11620.88
800.182	11578.62
800.513	11636.93
800.844	11579.53
801.175	11624.5
801.506	11655.68
801.837	11518.96
802.168	11469.47
802.499	11478.29
802.83	11435.58
803.161	11370.72
803.491	11367.55
803.822	11409.59
804.153	11344.96
804.483	11281.23
804.814	11219.54
805.145	11180.21
805.475	11204.85
805.805	11234.45
806.136	11217.28
806.466	11165.98
806.796	11139.31
807.126	11067.22
807.457	11028.58
807.787	11034
808.117	10977.73
808.447	10964.17
808.777	11070.39
809.107	10903.84
809.436	10894.35
809.766	10931.63
810.096	10892.76
810.426	10893.22
810.755	10856.38
811.085	10855.7
811.414	10799.43
811.744	10712.66
812.073	10713.79
812.403	10685.76
812.732	10676.95
813.061	10698.65
813.39	10609.61
813.719	10690.06
814.049	10694.8
814.378	10610.51
814.707	10561.7
815.036	10549.95
815.365	10556.28
815.693	10512.66
816.022	10508.14
816.351	10458.88
816.68	10361.25
817.008	10413
817.337	10327.81
817.665	10302.05
817.994	10346.34
818.322	10444.64
818.651	10222.5
818.979	10256.62
819.307	10286.45
819.636	10254.59
819.964	10168.49
820.292	10192.22
820.62	10154.25
820.948	10220.01
821.276	10168.72
821.604	10215.49
821.932	10171.2
822.259	10180.01
822.587	10160.81
822.915	10117.19
823.243	10184.99
823.57	10148.83
823.898	10159.45
824.225	10113.12
824.553	10160.35
824.88	10239
825.207	10197.64
825.535	10191.31
825.862	10204.65
826.189	10187.25
826.516	10262.95
826.843	10180.24
827.17	10204.65
827.497	10205.32
827.824	10201.03
828.151	10235.83
828.478	10266.57
828.805	10260.01
829.131	10239.9
829.458	10126
829.785	10143.63
830.111	10162.84
830.438	10187.47
830.764	10197.19
831.09	10251.43
831.417	10163.07
831.743	10173.69
832.069	10141.82
832.395	10178.43
832.722	10125.78
833.048	10155.83
833.374	10122.39
833.7	10081.94
834.026	10132.78
834.351	10087.81
834.677	10072
835.003	10101.15
835.329	10093.01
835.654	10073.8
835.98	10003.75
836.306	10060.92
836.631	9929.85
836.956	10039.45
837.282	10004.2
837.607	9966.91
837.932	9973.01
838.258	9927.59
838.583	9995.39
838.908	9909.97
839.233	9971.21
839.558	9873.81
839.883	9897.31
840.208	9815.05
840.533	9871.55
840.858	9825.9
841.182	9802.4
841.507	9799.46
841.832	9809.18
842.156	9721.04
842.481	9804.43
842.805	9694.38
843.13	9708.61
843.454	9674.49
843.778	9619.58
844.103	9648.28
844.427	9620.03
844.751	9578.67
845.075	9613.02
845.399	9578.45
845.723	9508.62
846.047	9589.75
846.371	9426.14
846.695	9468.4
847.019	9416.42
847.343	9362.41
847.666	9267.27
847.99	9220.72
848.313	9236.99
848.637	9233.6
848.96	9143.88
849.284	9161.06
849.607	9014.62
849.931	9030.44
850.254	8998.12
850.577	8934.4
850.9	8860.73
851.223	8885.59
851.546	8839.49
851.869	8720.62
852.192	8798.58
852.515	8748.87
852.838	8697.79
853.161	8788.41
853.483	8620.96
853.806	8674.74
854.129	8663.67
854.451	8668.87
854.774	8571.24
855.096	8517.46
855.419	8586.38
855.741	8547.06
856.063	8505.71
856.385	8481.3
856.708	8496.44
857.03	8342.1
857.352	8434.98
857.674	8327.41
857.996	8383.45
858.318	8243.57
858.64	8309.1
858.961	8296.9
859.283	8284.92
859.605	8247.41
859.926	8222.55
860.248	8263.23
860.57	8129.67
860.891	8162.21
861.212	8155.44
861.534	8069.56
861.855	8101.2
862.176	8057.13
862.498	8068.88
862.819	8083.8
863.14	8005.38
863.461	8036.34
863.782	8076.79
864.103	8041.99
864.424	7960.41
864.745	8034.76
865.065	7950.47
865.386	7875.44
865.707	7938.27
866.027	7932.84
866.348	7881.77
866.668	7903.01
866.989	7887.65
867.309	7824.6
867.63	7776.01
867.95	7844.71
868.27	7776.01
868.59	7814.2
868.91	7799.29
869.23	7766.97
869.55	7759.29
869.87	7757.93
870.19	7689.23
870.51	7714.77
870.83	7751.15
871.15	7696.69
871.469	7699.85
871.789	7759.06
872.109	7625.05
872.428	7676.8
872.748	7705.05
873.067	7586.41
873.386	7609.91
873.706	7652.85
874.025	7633.87
874.344	7560.42
874.663	7582.34
874.982	7602.23
875.301	7545.51
875.62	7513.87
875.939	7529.69
876.258	7475.23
876.577	7514.32
876.896	7491.72
877.214	7455.34
877.533	7490.82
877.852	7483.36
878.17	7437.94
878.489	7476.58
878.807	7396.81
879.125	7439.75
879.444	7390.26
879.762	7384.61
880.08	7423.03
880.398	7297.6
880.716	7336.7
881.034	7303.03
881.352	7296.47
881.67	7278.62
881.988	7314.78
882.306	7249.24
882.624	7256.25
882.941	7268.45
883.259	7132.86
883.577	7148
883.894	7153.43
884.212	7199.98
884.529	7164.27
884.846	7178.06
885.164	7137.83
885.481	7082.24
885.798	7110.72
886.115	7021
886.432	7090.6
886.75	7035.46
887.067	6992.53
887.383	6964.51
887.7	6990.27
888.017	6967.9
888.334	6973.32
888.651	6934
888.967	6956.37
889.284	6883.38
889.6	6910.04
889.917	6808.35
890.233	6791.18
890.55	6774.91
890.866	6809.71
891.182	6779.88
891.498	6760.67
891.815	6691.29
892.131	6736.94
892.447	6684.51
892.763	6617.85
893.079	6636.15
893.395	6640.22
893.71	6608.13
894.026	6641.35
894.342	6560
894.657	6568.13
894.973	6536.72
895.289	6517.29
895.604	6566.55
895.92	6476.61
896.235	6423.5
896.55	6470.96
896.865	6418.76
897.181	6398.65
897.496	6379.66
897.811	6365.65
898.126	6302.38
898.441	6334.24
898.756	6290.17
899.071	6260.8
899.386	6267.35
899.7	6259.67
900.015	6148.26
900.33	6146.9
900.644	6136.28
900.959	6138.09
901.273	6103.74
901.588	6115.94
901.902	6064.42
902.216	6047.24
902.531	6055.83
902.845	6028.49
903.159	5955.49
903.473	5991.2
903.787	5941.26
904.101	5908.71
904.415	5930.86
904.729	5831.2
905.042	5877.08
905.356	5845.67
905.67	5797.08
905.984	5817.87
906.297	5778.1
906.611	5791.88
906.924	5707.14
907.237	5726.35
907.551	5701.71
907.864	5677.08
908.177	5689.29
908.491	5627.14
908.804	5581.04
909.117	5625.33
909.43	5591.89
909.743	5575.84
910.056	5519.57
910.368	5560.7
910.681	5492.91
910.994	5455.17
911.307	5494.94
911.619	5425.34
911.932	5441.83
912.244	5363.87
912.557	5354.83
912.869	5349.18
913.181	5301.95
913.494	5261.27
913.806	5300.82
914.118	5238.68
914.43	5139.7
914.742	5167.27
915.054	5181.05
915.366	5176.53
915.678	5173.14
915.99	5114.84
916.302	5077.55
916.613	5071
916.925	5093.82
917.236	5040.04
917.548	5049.3
917.859	5005.91
918.171	5002.3
918.482	4951.23
918.794	4943.54
919.105	4968.63
919.416	4874.17
919.727	4903.09
920.038	4855.18
920.349	4836.2
920.66	4824
920.971	4832.13
921.282	4823.09
921.593	4748.75
921.903	4736.99
922.214	4674.17
922.525	4727.73
922.835	4718.01
923.146	4692.48
923.456	4678.01
923.767	4622.65
924.077	4624.68
924.387	4612.48
924.697	4632.14
925.008	4572.03
925.318	4545.13
925.628	4584.91
925.938	4515.53
926.248	4497.45
926.558	4445.48
926.867	4461.52
927.177	4468.3
927.487	4383.78
927.796	4387.4
928.106	4380.62
928.416	4397.12
928.725	4332.94
929.034	4316.67
929.344	4327.97
929.653	4340.85
929.962	4285.48
930.271	4264.46
930.581	4240.51
930.89	4217.46
931.199	4193.51
931.508	4219.72
931.817	4208.65
932.125	4209.78
932.434	4160.74
932.743	4143.34
933.051	4078.48
933.36	4101.53
933.669	4076.22
933.977	4077.12
934.286	4065.37
934.594	4038.03
934.902	4027.18
935.21	3983.12
935.519	4008.88
935.827	4004.81
936.135	3932.27
936.443	3884.14
936.751	3910.12
937.059	3933.4
937.367	3870.8
937.674	3911.71
937.982	3857.7
938.29	3834.19
938.597	3828.54
938.905	3768.66
939.213	3787.87
939.52	3787.41
939.827	3781.54
940.135	3685.95
940.442	3739.96
940.749	3707.19
941.056	3728.43
941.363	3659.96
941.67	3679.85
941.977	3658.83
942.284	3626.06
942.591	3608.89
942.898	3586.74
943.205	3579.28
943.511	3579.06
943.818	3604.82
944.125	3548.78
944.431	3523.92
944.738	3570.92
945.044	3489.8
945.35	3523.24
945.657	3479.4
945.963	3478.72
946.269	3478.04
946.575	3425.84
946.881	3377.48
947.187	3377.26
947.493	3385.17
947.799	3375.9
948.105	3359.18
948.41	3342.68
948.716	3353.75
949.022	3340.19
949.327	3332.51
949.633	3295.22
949.938	3311.04
950.244	3273.3
950.549	3280.99
950.854	3264.94
951.16	3224.49
951.465	3178.84
951.77	3170.48
952.075	3203.02
952.38	3178.62
952.685	3172.74
952.99	3129.13
953.294	3155.57
953.599	3146.3
953.904	3092.52
954.209	3106.98
954.513	3056.59
954.818	3084.83
955.122	3062.24
955.426	2994.44
955.731	3022.01
956.035	3033.54
956.339	3042.58
956.643	3029.02
956.948	2976.81
957.252	2974.78
957.556	2960.54
957.86	2965.97
958.163	2955.12
958.467	2914.44
958.771	2954.44
959.075	2910.15
959.378	2883.71
959.682	2911.05
959.985	2820.43
960.289	2838.29
960.592	2809.59
960.896	2826.54
961.199	2810.72
961.502	2849.36
961.805	2786.99
962.108	2768.23
962.411	2783.37
962.714	2787.21
963.017	2747.44
963.32	2731.17
963.623	2744.73
963.926	2712.41
964.228	2711.28
964.531	2714.22
964.833	2724.39
965.136	2704.28
965.438	2651.63
965.741	2657.95
966.043	2620.21
966.345	2636.03
966.648	2610.5
966.95	2565.75
967.252	2600.55
967.554	2598.29
967.856	2546.09
968.158	2543.38
968.46	2542.7
968.761	2530.72
969.063	2541.57
969.365	2549.48
969.666	2509.48
969.968	2519.65
970.269	2471.06
970.571	2509.26
970.872	2445.75
971.174	2445.08
971.475	2453.21
971.776	2454.12
972.077	2423.83
972.378	2417.73
972.679	2389.26
972.98	2429.26
973.281	2370.73
973.582	2376.38
973.883	2342.48
974.183	2354.46
974.484	2352.88
974.785	2340.22
975.085	2322.37
975.386	2347.68
975.686	2298.87
975.986	2283.95
976.287	2302.48
976.587	2294.57
976.887	2257.51
977.187	2276.95
977.487	2268.81
977.787	2220
978.087	2243.73
978.387	2228.13
978.687	2215.25
978.987	2196.5
979.286	2175.71
979.586	2182.26
979.885	2172.32
980.185	2137.74
980.484	2137.97
980.784	2164.63
981.083	2115.82
981.382	2154.24
981.682	2132.99
981.981	2124.18
982.28	2103.84
982.579	2078.31
982.878	2090.96
983.177	2107.01
983.475	2076.27
983.774	2067.23
984.073	2057.52
984.372	2065.2
984.67	2036.05
984.969	2024.07
985.267	2023.39
985.566	2038.31
985.864	2001.92
986.162	1966.22
986.461	1968.25
986.759	1972.55
987.057	1958.08
987.355	1976.61
987.653	1923.96
987.951	1959.44
988.249	1947.24
988.547	1941.14
988.844	1928.03
989.142	1924.19
989.44	1879.22
989.737	1870.4
990.035	1910.85
990.332	1878.76
990.63	1881.48
990.927	1844.87
991.224	1841.93
991.521	1832.44
991.819	1827.24
992.116	1859.56
992.413	1828.37
992.71	1828.6
993.006	1788.6
993.303	1800.35
993.6	1814.36
993.897	1766.68
994.193	1759.45
994.49	1762.38
994.787	1777.3
995.083	1729.39
995.379	1730.07
995.676	1741.59
995.972	1717.64
996.268	1701.59
996.565	1688.94
996.861	1720.8
997.157	1704.31
997.453	1668.37
997.749	1670.86
998.044	1667.7
998.34	1665.66
998.636	1670.63
998.932	1641.71
999.227	1620.01
999.523	1644.42
999.818	1626.79
1000.114	1612.1
1000.409	1623.4
1000.704	1585.44
1001	1592.9
1001.295	1562.84
1001.59	1582.73
1001.885	1559.68
1002.18	1540.02
1002.475	1559
1002.77	1514.71
1003.065	1518.1
1003.359	1519.68
1003.654	1541.37
1003.949	1498.66
1004.243	1480.58
1004.538	1483.97
1004.832	1492.11
1005.127	1465.22
1005.421	1463.41
1005.715	1447.36
1006.009	1468.15
1006.304	1440.58
1006.598	1441.71
1006.892	1429.51
1007.186	1415.05
1007.48	1416.86
1007.773	1398.55
1008.067	1396.29
1008.361	1389.29
1008.655	1399.68
1008.948	1371.66
1009.242	1351.32
1009.535	1356.74
1009.829	1356.97
1010.122	1357.42
1010.415	1360.13
1010.708	1346.8
1011.001	1303.19
1011.295	1318.78
1011.588	1308.16
1011.881	1291.21
1012.173	1292.79
1012.466	1271.77
1012.759	1277.2
1013.052	1279.46
1013.344	1280.36
1013.637	1274.03
1013.93	1250.31
1014.222	1253.24
1014.514	1263.64
1014.807	1256.18
1015.099	1232.45
1015.391	1221.15
1015.683	1229.52
1015.976	1219.57
1016.268	1210.76
1016.56	1201.72
1016.851	1217.09
1017.143	1175.96
1017.435	1189.74
1017.727	1173.25
1018.018	1170.08
1018.31	1191.32
1018.602	1161.95
1018.893	1157.88
1019.185	1104.32
1019.476	1116.3
1019.767	1137.31
1020.058	1126.47
1020.35	1114.04
1020.641	1112
1020.932	1100.25
1021.223	1116.52
1021.514	1082.17
1021.804	1096.19
1022.095	1062.29
1022.386	1064.32
1022.677	1052.8
1022.967	1066.13
1023.258	1076.07
1023.548	1052.35
1023.839	1053.02
1024.129	1019.8
1024.419	1030.2
1024.709	1035.4
1025	985.45
1025.29	1000.82
1025.58	999.69
1025.87	995.85
1026.16	992.91
1026.449	994.49
1026.739	996.75
1027.029	984.1
1027.319	972.8
1027.608	971.22
1027.898	954.72
1028.187	956.53
1028.477	947.04
1028.766	939.13
1029.055	934.83
1029.344	934.16
1029.634	896.87
1029.923	933.48
1030.212	907.26
1030.501	915.17
1030.79	901.84
1031.078	889.19
1031.367	879.24
1031.656	876.98
1031.945	866.59
1032.233	847.6
1032.522	888.51
1032.81	846.47
1033.099	849.41
1033.387	864.55
1033.675	846.7
1033.963	862.75
1034.251	836.31
1034.54	804.67
1034.828	825.68
1035.116	839.24
1035.403	837.66
1035.691	813.93
1035.979	808.96
1036.267	803.31
1036.554	808.96
1036.842	799.02
1037.129	801.5
1037.417	792.92
1037.704	789.98
1037.992	763.54
1038.279	767.15
1038.566	771.22
1038.853	771.22
1039.14	771.22
