Data from hue_22_FLMS001491_00072.txt Node
Date: Tue Feb 07 17:10:37 GMT 2017
User: dcchb
Spectrometer: FLMS00149
Trigger mode: 0
Integration Time (sec): 2.000000E-2
Scans to average: 10
Electric dark correction enabled: true
Nonlinearity correction enabled: false
Boxcar width: 0
XAxis mode: Wavelengths
Number of Pixels in Spectrum: 2048
>>>>>Begin Spectral Data<<<<<
341.393	-14.28
341.776	-14.28
342.16	-14.28
342.543	-56.54
342.927	-46.82
343.31	-63.54
343.693	-66.03
344.077	-64.22
344.46	-72.81
344.843	-52.7
345.226	-58.12
345.61	-29.19
345.993	-20.61
346.376	8.32
346.759	3.35
347.142	37.7
347.525	49.45
347.908	65.27
348.291	70.46
348.674	89.22
349.057	103.46
349.44	133.06
349.823	118.37
350.206	169.67
350.588	200.18
350.971	202.89
351.354	224.36
351.737	233.62
352.119	253.28
352.502	262.55
352.884	267.07
353.267	282.89
353.65	270.68
354.032	293.28
354.414	299.84
354.797	308.88
355.179	324.24
355.562	312.04
355.944	318.82
356.326	314.3
356.709	348.42
357.091	359.04
357.473	350.68
357.855	330.34
358.238	329.44
358.62	358.37
359.002	344.81
359.384	325.6
359.766	347.75
360.148	338.71
360.53	340.29
360.912	327.18
361.294	329.67
361.676	324.02
362.057	343.68
362.439	314.3
362.821	307.29
363.203	314.98
363.584	335.77
363.966	317.46
364.348	340.51
364.729	338.25
365.111	317.24
365.493	321.53
365.874	316.79
366.256	307.07
366.637	311.36
367.019	327.41
367.4	333.73
367.781	319.5
368.163	315.88
368.544	299.61
368.925	303.68
369.306	311.36
369.688	317.92
370.069	300.74
370.45	301.42
370.831	298.03
371.212	299.84
371.593	310.46
371.974	326.28
372.355	297.8
372.736	309.55
373.117	305.03
373.498	316.33
373.879	325.15
374.26	325.82
374.641	304.58
375.021	307.75
375.402	306.39
375.783	312.94
376.163	299.38
376.544	321.31
376.925	322.66
377.305	314.75
377.686	327.86
378.066	305.49
378.447	338.03
378.827	331.93
379.208	335.09
379.588	336.9
379.968	324.69
380.349	330.34
380.729	323.56
381.109	319.27
381.489	364.47
381.87	331.93
382.25	324.02
382.63	342.32
383.01	314.75
383.39	334.86
383.77	326.95
384.15	312.72
384.53	339.84
384.91	321.98
385.29	345.26
385.67	336.9
386.049	348.88
386.429	333.28
386.809	347.07
387.189	344.13
387.568	352.94
387.948	354.75
388.328	347.29
388.707	363.79
389.087	368.76
389.466	355.43
389.846	354.3
390.225	332.15
390.605	356.11
390.984	369.89
391.363	352.72
391.743	373.06
392.122	374.41
392.501	368.31
392.881	369.89
393.26	349.1
393.639	367.18
394.018	365.15
394.397	380.51
394.776	369.67
395.155	374.19
395.534	373.73
395.913	379.61
396.292	380.29
396.671	370.8
397.05	387.07
397.429	392.49
397.808	389.78
398.186	398.37
398.565	386.61
398.944	379.16
399.323	395.88
399.701	392.72
400.08	367.41
400.458	394.75
400.837	387.74
401.215	416.44
401.594	418.7
401.972	380.06
402.351	395.43
402.729	401.3
403.107	418.48
403.486	401.53
403.864	401.53
404.242	383.45
404.62	419.38
404.999	404.01
405.377	403.56
405.755	406.5
406.133	407.4
406.511	420.06
406.889	416.9
407.267	434.3
407.645	433.84
408.023	428.42
408.401	426.84
408.779	442.88
409.156	434.97
409.534	418.93
409.912	450.34
410.29	439.04
410.667	437.01
411.045	437.46
411.422	456.22
411.8	466.84
412.178	441.08
412.555	451.02
412.933	461.41
413.31	455.09
413.687	462.32
414.065	448.31
414.442	475.43
414.819	501.64
415.197	489.66
415.574	469.55
415.951	489.44
416.328	479.04
416.705	472.71
417.082	488.76
417.46	488.98
417.837	488.53
418.214	515.2
418.591	495.99
418.967	504.13
419.344	505.71
419.721	477.91
420.098	500.96
420.475	509.55
420.852	501.64
421.228	524.01
421.605	512.26
421.982	526.72
422.358	514.97
422.735	533.05
423.111	549.77
423.488	549.1
423.864	513.16
424.241	552.94
424.617	559.49
424.994	524.92
425.37	548.19
425.746	524.92
426.123	544.35
426.499	563.56
426.875	568.08
427.251	571.24
427.627	597.68
428.003	573.73
428.379	582.77
428.756	570.34
429.132	577.57
429.507	586.83
429.883	593.16
430.259	611.92
430.635	594.52
431.011	599.04
431.387	613.95
431.763	602.88
432.138	614.4
432.514	632.03
432.89	657.34
433.265	633.39
433.641	656.21
434.016	668.87
434.392	648.75
434.767	657.34
435.143	647.62
435.518	687.85
435.894	661.64
436.269	670.22
436.644	685.14
437.02	679.71
437.395	683.78
437.77	691.69
438.145	711.8
438.52	698.92
438.895	697.11
439.271	708.87
439.646	705.48
440.021	724.91
440.395	731.92
440.77	719.26
441.145	727.62
441.52	734.63
441.895	725.81
442.27	752.93
442.645	734.18
443.019	754.29
443.394	750.45
443.769	784.57
444.143	780.95
444.518	771.69
444.892	776.21
445.267	765.36
445.641	777.56
446.016	789.99
446.39	784.8
446.764	817.56
447.139	798.35
447.513	805.81
447.887	786.83
448.262	808.98
448.636	792.93
449.01	819.37
449.384	826.38
449.758	803.78
450.132	835.19
450.506	851.23
450.88	847.62
451.254	857.11
451.628	863.66
452.002	864.12
452.376	846.72
452.75	888.3
453.123	856.43
453.497	897.11
453.871	881.06
454.244	905.24
454.618	894.62
454.992	935.98
455.365	937.79
455.739	921.97
456.112	962.42
456.486	966.26
456.859	988.41
457.232	968.29
457.606	973.49
457.979	1001.74
458.352	1008.52
458.725	1018.01
459.099	1019.82
459.472	1036.77
459.845	1045.35
460.218	1043.55
460.591	1060.49
460.964	1054.85
461.337	1097.56
461.71	1127.16
462.083	1089.87
462.456	1112.92
462.829	1122.19
463.201	1134.39
463.574	1127.39
463.947	1150.66
464.32	1171
464.692	1166.25
465.065	1174.84
465.438	1208.29
465.81	1231.79
466.183	1264.11
466.555	1256.2
466.928	1279.92
467.3	1260.72
467.672	1301.62
468.045	1326.48
468.417	1334.61
468.789	1340.94
469.161	1342.97
469.534	1382.52
469.906	1415.97
470.278	1401.05
470.65	1426.13
471.022	1456.42
471.394	1467.94
471.766	1486.25
472.138	1490.77
472.51	1530.54
472.882	1546.36
473.253	1587.71
473.625	1564.66
473.997	1634.49
474.369	1624.32
474.74	1650.76
475.112	1727.82
475.484	1720.59
475.855	1759.01
476.227	1765.56
476.598	1843.98
476.97	1806.69
477.341	1854.37
477.713	1874.03
478.084	1943.64
478.455	1983.18
478.827	1985.89
479.198	2060.02
479.569	2034.93
479.94	2106.79
480.311	2149.28
480.682	2180.24
481.053	2237.41
481.424	2267.92
481.795	2303.17
482.166	2338.65
482.537	2378.88
482.908	2378.2
483.279	2428.82
483.65	2533.45
484.021	2569.83
484.391	2620
484.762	2601.25
485.133	2632.66
485.503	2706.78
485.874	2758.3
486.244	2823.16
486.615	2860.67
486.985	2902.03
487.356	2980.67
487.726	2956.26
488.097	3036.71
488.467	3059.31
488.837	3138.86
489.207	3165.3
489.578	3223.83
489.948	3282.36
490.318	3339.76
490.688	3316.48
491.058	3351.06
491.428	3414.11
491.798	3448.68
492.168	3528.23
492.538	3553.99
492.908	3560.32
493.278	3630.82
493.648	3676.02
494.017	3759.41
494.387	3773.42
494.757	3790.59
495.126	3847.31
495.496	3881.44
495.866	3872.4
496.235	3908.33
496.605	3968.44
496.974	3975.22
497.344	4068.55
497.713	4068.33
498.082	4122.79
498.452	4129.34
498.821	4130.7
499.19	4192.62
499.559	4205.95
499.928	4242.11
500.298	4285.72
500.667	4321.65
501.036	4325.95
501.405	4373.85
501.774	4371.59
502.143	4432.84
502.512	4432.84
502.88	4477.58
503.249	4499.27
503.618	4554.19
503.987	4549.22
504.356	4547.41
504.724	4587.41
505.093	4642.55
505.462	4605.03
505.83	4672.6
506.199	4661.98
506.567	4746.95
506.936	4720.06
507.304	4747.86
507.672	4786.27
508.041	4800.28
508.409	4810.45
508.777	4860.62
509.145	4878.93
509.514	4917.57
509.882	4954.4
510.25	4950.79
510.618	4969.77
510.986	5019.03
511.354	5014.74
511.722	5068.75
512.09	5092.71
512.458	5140.16
512.826	5168.64
513.193	5180.84
513.561	5149.65
513.929	5185.36
514.297	5235.75
514.664	5260.61
515.032	5279.14
515.4	5310.33
515.767	5339.7
516.135	5373.83
516.502	5346.71
516.869	5392.36
517.237	5445.01
517.604	5398.46
517.972	5435.29
518.339	5453.6
518.706	5499.93
519.073	5485.24
519.44	5551.45
519.808	5501.06
520.175	5561.17
520.542	5654.5
520.909	5663.31
521.276	5654.72
521.643	5680.03
522.009	5693.59
522.376	5733.59
522.743	5771.11
523.11	5842.52
523.477	5865.79
523.843	5837.77
524.21	5895.85
524.577	5991.21
524.943	6044.54
525.31	6004.77
525.676	6073.92
526.043	6077.76
526.409	6118.89
526.776	6186.46
527.142	6168.38
527.508	6197.76
527.874	6237.53
528.241	6346.68
528.607	6330.41
528.973	6334.93
529.339	6357.08
529.705	6384.42
530.071	6440.69
530.437	6502.84
530.803	6472.56
531.169	6535.38
531.535	6544.87
531.901	6558.43
532.267	6637.75
532.632	6613.12
532.998	6648.82
533.364	6697.41
533.73	6685.66
534.095	6716.17
534.461	6821.47
534.826	6843.39
535.192	6852.66
535.557	6897.86
535.923	6902.6
536.288	6895.6
536.653	6988.25
537.019	6938.08
537.384	6976.72
537.749	7058.3
538.114	7026.44
538.479	7058.3
538.845	7105.08
539.21	7084.97
539.575	7120.9
539.94	7141.24
540.305	7188.02
540.67	7172.42
541.034	7259.2
541.399	7317.51
541.764	7325.87
542.129	7324.74
542.494	7314.57
542.858	7395.24
543.223	7383.94
543.587	7512.75
543.952	7450.84
544.316	7544.39
544.681	7491.96
545.045	7537.84
545.41	7631.4
545.774	7631.62
546.138	7622.81
546.503	7616.03
546.867	7682.47
547.231	7748
547.595	7802.24
547.959	7780.77
548.324	7762.24
548.688	7789.81
549.052	7865.29
549.416	7816.25
549.779	7904.38
550.143	7905.06
550.507	7977.6
550.871	7995.23
551.235	8035.23
551.599	8016.92
551.962	8057.82
552.326	8109.8
552.689	8106.19
553.053	8072.06
553.417	8099.18
553.78	8250.81
554.143	8226.86
554.507	8251.27
554.87	8295.33
555.234	8376.01
555.597	8338.5
555.96	8379.4
556.323	8378.95
556.686	8322
557.05	8374.65
557.413	8464.82
557.776	8513.18
558.139	8545.5
558.502	8527.42
558.865	8564.48
559.228	8598.83
559.59	8664.81
559.953	8700.29
560.316	8750.24
560.679	8748.65
561.041	8763.12
561.404	8847.63
561.767	8879.05
562.129	8848.99
562.492	8874.3
562.854	8848.54
563.217	8901.19
563.579	8893.96
563.941	8984.35
564.304	9026.16
564.666	9053.73
565.028	9114.75
565.39	9137.12
565.753	9136.21
566.115	9187.74
566.477	9277.91
566.839	9221.41
567.201	9294.85
567.563	9359.49
567.925	9394.96
568.287	9364.91
568.648	9427.96
569.01	9419.14
569.372	9506.15
569.734	9517.45
570.095	9599.03
570.457	9665.47
570.819	9704.11
571.18	9682.41
571.542	9696.43
571.903	9801.73
572.265	9817.1
572.626	9896.65
572.987	9933.71
573.349	9996.98
573.71	9958.11
574.071	9944.1
574.432	10114.49
574.794	10192.23
575.155	10243.53
575.516	10227.94
575.877	10380.48
576.238	10311.32
576.599	10401.94
576.96	10559.23
577.32	10583.63
577.681	10673.35
578.042	10720.35
578.403	10882.38
578.763	10899.33
579.124	10991.76
579.485	11098.87
579.845	11192.66
580.206	11296.61
580.566	11367.12
580.927	11517.62
581.287	11587.22
581.648	11669.48
582.008	11961.45
582.368	11995.35
582.728	12102.46
583.089	12225.17
583.449	12473.53
583.809	12563.24
584.169	12747.87
584.529	12917.81
584.889	13145.37
585.249	13261.08
585.609	13417.91
585.969	13672.37
586.329	13774.28
586.688	14019.7
587.048	14227.38
587.408	14485.68
587.768	14624.43
588.127	14858.32
588.487	15117.3
588.846	15425.31
589.206	15576.27
589.565	15853.78
589.925	16141.23
590.284	16334.67
590.643	16605.85
591.003	16896.69
591.362	17297.36
591.721	17464.81
592.08	17686.72
592.44	18026.83
592.799	18334.62
593.158	18641.28
593.517	18807.15
593.876	19239
594.235	19462.95
594.593	19822.71
594.952	20098.64
595.311	20395.58
595.67	20672.63
596.029	21087.54
596.387	21332.73
596.746	21789.44
597.104	21930.68
597.463	22326.6
597.822	22692.47
598.18	22985.34
598.538	23286.8
598.897	23613.8
599.255	23679.11
599.613	24391.63
599.972	24611.51
600.33	24871.85
600.688	25088.11
601.046	25479.29
601.404	25879.96
601.762	26117.91
602.12	26608.3
602.478	26738.92
602.836	27091
603.194	27223.65
603.552	27678.78
603.91	27801.94
604.268	28269.95
604.625	28405.31
604.983	28809.6
605.341	28900.21
605.698	29459.75
606.056	29626.75
606.413	29903.8
606.771	30153.74
607.128	30504.24
607.485	30655.87
607.843	30896.77
608.2	31278.01
608.557	31490.43
608.914	31709.63
609.272	32052.9
609.629	32283.4
609.986	32670.96
610.343	32792.32
610.7	33171.29
611.057	33450.38
611.414	33493.77
611.771	33734.89
612.127	34015.11
612.484	34207.42
612.841	34586.17
613.198	34598.82
613.554	34881.07
613.911	35215.98
614.267	35445.81
614.624	35500.95
614.98	35708.85
615.337	35924.21
615.693	36128.05
616.05	36294.37
616.406	36524.65
616.762	36707.69
617.118	36813
617.475	36923.28
617.831	37306.32
618.187	37448.69
618.543	37556.03
618.899	37899.07
619.255	37871.28
619.611	38029.47
619.967	38315.33
620.323	38430.36
620.678	38465.39
621.034	38500.19
621.39	38664.7
621.746	38692.73
622.101	39268.3
622.457	38985.15
622.812	39299.26
623.168	39397.79
623.523	39483.21
623.879	39682.98
624.234	39534.74
624.589	39823.54
624.945	39941.51
625.3	39924.56
625.655	39981.28
626.01	39993.48
626.365	40125.23
626.72	40133.59
627.075	40231.89
627.43	40217.66
627.785	40466.92
628.14	40446.13
628.495	40557.54
628.85	40579.91
629.205	40628.49
629.559	40801.37
629.914	40703.52
630.269	40754.82
630.623	40753.91
630.978	40748.26
631.332	40891.76
631.687	40959.11
632.041	40863.74
632.396	41019.67
632.75	40993
633.104	40990.07
633.459	40960.46
633.813	41083.4
634.167	40924.76
634.521	41116.39
634.875	41172.66
635.229	41237.74
635.583	41008.6
635.937	41105.54
636.291	41129.95
636.645	41135.37
636.999	41039.78
637.352	41203.39
637.706	40906.9
638.06	41209.27
638.413	41125.43
638.767	41012.89
639.121	41173.34
639.474	40980.8
639.828	41094.47
640.181	40932.44
640.534	41154.36
640.888	41034.36
641.241	40926.57
641.594	41112.77
641.947	41155.94
642.301	41023.29
642.654	41064.19
643.007	41048.37
643.36	40964.76
643.713	40995.04
644.066	41148.25
644.419	40963.85
644.771	40715.72
645.124	40383.08
645.477	40357.77
645.83	40001.84
646.182	39947.38
646.535	39892.69
646.888	40051.79
647.24	39722.08
647.593	39947.83
647.945	39866.25
648.298	39723.88
648.65	39694.96
649.002	39645.24
649.355	39790.32
649.707	39772.25
650.059	39986.93
650.411	40402.96
650.763	40404.54
651.115	40738.32
651.467	40731.77
651.819	40645.89
652.171	40644.09
652.523	40496.29
652.875	40574.03
653.227	40412.68
653.578	40694.03
653.93	40635.95
654.282	40481.83
654.633	40356.86
654.985	40366.81
655.337	40559.57
655.688	40532.23
656.039	40628.72
656.391	40237.54
656.742	40421.27
657.094	40468.27
657.445	40529.74
657.796	40344.89
658.147	40359.57
658.498	40390.53
658.849	40562.05
659.2	40443.19
659.551	40309.63
659.902	40518.21
660.253	40335.85
660.604	40472.79
660.955	40255.85
661.306	40456.3
661.656	40268.05
662.007	40454.71
662.358	40330.42
662.708	40322.97
663.059	40270.76
663.409	40043.42
663.76	40262.85
664.11	40356.41
664.461	40358.67
664.811	40375.62
665.161	40169.75
665.511	40133.82
665.862	40139.02
666.212	40346.24
666.562	40437.76
666.912	40116.19
667.262	40183.08
667.612	40145.12
667.962	40224.44
668.312	40230.09
668.662	40357.31
669.011	40167.94
669.361	40182.63
669.711	40045.23
670.06	40158.9
670.41	40029.19
670.76	40011.79
671.109	40181.27
671.459	40100.82
671.808	40008.4
672.157	40020.6
672.507	39864.22
672.856	39877.55
673.205	40140.37
673.554	40167.49
673.904	39828.06
674.253	40106.47
674.602	39995.74
674.951	39448.64
675.3	39246.38
675.649	39912.58
675.998	39919.13
676.346	39814.05
676.695	39901.06
677.044	39741.06
677.393	39759.82
677.741	39923.65
678.09	39640.95
678.438	39502.87
678.787	39709.65
679.135	39597.11
679.484	39430.79
679.832	39678.01
680.181	39258.13
680.529	39452.93
680.877	39399.83
681.225	39376.78
681.573	39503.1
681.922	39177.46
682.27	39203.22
682.618	39192.15
682.966	38994.86
683.314	39124.13
683.661	38880.07
684.009	38956.45
684.357	38837.81
684.705	38773.85
685.053	38740.41
685.4	38738.15
685.748	38625.38
686.095	38555.33
686.443	38445.95
686.79	38316.46
687.138	38346.07
687.485	38503.13
687.832	38305.17
688.18	38472.84
688.527	38149.01
688.874	38056.36
689.221	37984.27
689.568	37865.85
689.915	37841.9
690.262	37888
690.609	37761.9
690.956	37513.77
691.303	37497.28
691.65	37469.93
691.997	37522.59
692.344	37211.41
692.69	37150.39
693.037	37071.53
693.383	36936.84
693.73	37067.91
694.077	36840.12
694.423	36857.75
694.769	36726
695.116	36637.64
695.462	36585.44
695.808	36611.42
696.155	36543.18
696.501	36266.57
696.847	36226.58
697.193	36006.69
697.539	36267.93
697.885	35885.34
698.231	35819.35
698.577	35875.85
698.923	35703.43
699.269	35474.96
699.614	35373.94
699.96	35320.61
700.306	35380.04
700.651	35296.43
700.997	34956.78
701.342	35073.84
701.688	35038.81
702.033	35032.48
702.379	34899.38
702.724	34735.54
703.069	34836.56
703.415	34329
703.76	34598.14
704.105	34620.06
704.45	34453.29
704.795	34244.25
705.14	34188.66
705.485	34204.03
705.83	33948.44
706.175	33983.7
706.52	33831.38
706.865	33833.42
707.209	33896.47
707.554	33674.78
707.899	33673.42
708.243	33432.75
708.588	33423.03
708.932	33284.96
709.277	33174
709.621	33259.2
709.966	33049.71
710.31	33051.97
710.654	32819.89
710.998	32924.97
711.342	32867.12
711.687	32760
712.031	32603.62
712.375	32474.36
712.719	32529.72
713.063	32539.22
713.407	32593.9
713.75	32255.38
714.094	32380.58
714.438	32259
714.782	32431.87
715.125	32231.88
715.469	32279.56
715.812	32045.89
716.156	31842.06
716.499	31885.22
716.843	31880.7
717.186	31741.5
717.53	31896.52
717.873	31936.97
718.216	31819.46
718.559	31614.27
718.902	31419.02
719.246	31575.17
719.589	31433.93
719.932	31391
720.275	31350.55
720.617	31253.37
720.96	31261.51
721.303	31074.62
721.646	31170.89
721.989	30923.21
722.331	31060.38
722.674	30977.45
723.016	30911.24
723.359	30903.78
723.701	30850.22
724.044	30633.73
724.386	30589.89
724.729	30626.95
725.071	30647.97
725.413	30499.49
725.755	30485.48
726.097	30369.33
726.439	30139.05
726.782	30239.61
727.124	30475.77
727.465	30113.29
727.807	30327.07
728.149	30128.43
728.491	30057.02
728.833	30165.04
729.175	30132.5
729.516	29985.61
729.858	29961.66
730.199	29974.08
730.541	29912.84
730.882	29898.83
731.224	29965.27
731.565	29658.61
731.906	29776.8
732.248	29688.89
732.589	29648.9
732.93	29604.38
733.271	29529.35
733.612	29563.02
733.953	29530.48
734.294	29348.56
734.635	29356.47
734.976	29422.23
735.317	29168.91
735.658	29281.45
735.999	29221.79
736.339	29184.73
736.68	29320.09
737.021	29151.51
737.361	29099.98
737.702	29213.65
738.042	28966.2
738.383	29062.47
738.723	28929.82
739.063	28861.57
739.404	29019.53
739.744	28911.29
740.084	28811.4
740.424	28705.19
740.764	28679.66
741.104	28807.11
741.444	28446.67
741.784	28459.1
742.124	28639.88
742.464	28467.91
742.804	28506.78
743.143	28357.4
743.483	28444.41
743.823	28195.15
744.162	28214.36
744.502	28287.12
744.841	28297.52
745.181	28329.61
745.52	28122.83
745.86	28189.27
746.199	28195.6
746.538	28161.93
746.877	28153.57
747.216	28016.62
747.556	28031.99
747.895	28101.37
748.234	27926.45
748.573	27874.93
748.911	27796.97
749.25	27789.28
749.589	27763.07
749.928	27765.33
750.267	27807.14
750.605	27696.18
750.944	27620.7
751.283	27552.23
751.621	27528.73
751.96	27330.09
752.298	27482.17
752.636	27296.19
752.975	27362.85
753.313	27142.75
753.651	27397.2
753.989	27239.02
754.327	27054.84
754.666	26947.27
755.004	27019.81
755.342	27033.37
755.679	26968.74
756.017	26922.64
756.355	26888.74
756.693	26731.01
757.031	26889.65
757.368	26672.48
757.706	26579.6
758.044	26492.14
758.381	26623.66
758.719	26414.4
759.056	26397.46
759.394	26310.45
759.731	26298.7
760.068	26269.55
760.405	26150.68
760.743	26066.39
761.08	26130.8
761.417	25914.08
761.754	25911.59
762.091	25902.1
762.428	25803.8
762.765	25623.24
763.102	25641.77
763.438	25590.92
763.775	25472.51
764.112	25425.5
764.449	25436.35
764.785	25368.78
765.122	25191.84
765.458	24962.92
765.795	25054.44
766.131	24982.8
766.467	24893.77
766.804	24645.86
767.14	24597.95
767.476	24599.76
767.812	24514.57
768.148	24478.18
768.485	24423.95
768.821	24264.18
769.157	24351.41
769.492	24286.55
769.828	24138.31
770.164	23838.2
770.5	23866.67
770.836	23892.44
771.171	23771.54
771.507	23676.62
771.842	23455.84
772.178	23598.89
772.513	23576.06
772.849	23406.8
773.184	23279.8
773.519	23303.75
773.855	23187.37
774.19	23074.83
774.525	22964.78
774.86	22983.76
775.195	22873.03
775.53	22850.2
775.865	22715.07
776.2	22495.86
776.535	22431.46
776.87	22340.84
777.205	22385.36
777.539	22331.57
777.874	22344.91
778.209	22077.8
778.543	22044.12
778.878	21955.54
779.212	21947.18
779.547	21626.73
779.881	21866.05
780.215	21685.72
780.55	21671.03
780.884	21616.56
781.218	21506.74
781.552	21504.48
781.886	21376.8
782.22	21220.19
782.554	21176.8
782.888	21000.54
783.222	21002.8
783.556	20837.83
783.889	20877.6
784.223	20633.31
784.557	20590.15
784.89	20716.48
785.224	20551.06
785.557	20383.6
785.891	20358.97
786.224	20265.64
786.558	20223.38
786.891	20089.37
787.224	20042.59
787.557	19940.68
787.891	19956.27
788.224	19946.33
788.557	19967.57
788.89	19727.8
789.223	19741.81
789.556	19626.79
789.888	19543.62
790.221	19483.29
790.554	19289.17
790.887	19394.93
791.219	19229.06
791.552	19220.24
791.884	19192.45
792.217	19111.32
792.549	19030.64
792.882	18888.27
793.214	18799.69
793.546	18876.75
793.879	18625.91
794.211	18615.51
794.543	18658.45
794.875	18533.71
795.207	18693.7
795.539	18523.09
795.871	18442.41
796.203	18383.66
796.535	18225.92
796.867	18166.94
797.198	18134.17
797.53	18124.9
797.862	17965.81
798.193	18048.52
798.525	17877.45
798.856	17942.99
799.188	17769.66
799.519	17743.67
799.85	17637.46
800.182	17606.05
800.513	17712.94
800.844	17448.99
801.175	17477.01
801.506	17416.45
801.837	17414.87
802.168	17308.66
802.499	17191.6
802.83	17183.23
803.161	17138.72
803.491	17200.18
803.822	17103.69
804.153	17041.32
804.483	16838.16
804.814	16849.23
805.145	16831.38
805.475	16801.78
805.805	16764.26
806.136	16731.72
806.466	16751.83
806.796	16677.26
807.126	16500.09
807.457	16445.85
807.787	16456.7
808.117	16488.34
808.447	16330.83
808.777	16402.46
809.107	16215.12
809.436	16152.75
809.766	16198.4
810.096	16123.83
810.426	16131.28
810.755	16084.28
811.085	16038.63
811.414	16052.87
811.744	15818.07
812.073	15900.78
812.403	15862.59
812.732	15815.59
813.061	15767.9
813.39	15676.83
813.719	15637.06
814.049	15744.63
814.378	15624.86
814.707	15602.49
815.036	15582.6
815.365	15471.87
815.693	15364.98
816.022	15438.87
816.351	15339.22
816.68	15273.91
817.008	15279.56
817.337	15153.68
817.665	15129.05
817.994	15157.98
818.322	15114.59
818.651	15065.32
818.979	15086.34
819.307	15036.17
819.636	14969.73
819.964	14939.68
820.292	14987.36
820.62	14957.98
820.948	14859
821.276	14971.32
821.604	14896.06
821.932	14875.5
822.259	14889.06
822.587	14847.02
822.915	14867.36
823.243	14882.05
823.57	14870.53
823.898	14813.13
824.225	14753.92
824.553	14778.78
824.88	14786.01
825.207	14851.32
825.535	14731.77
825.862	14738.78
826.189	14695.62
826.516	14730.42
826.843	14816.29
827.17	14865.1
827.497	14802.05
827.824	14774.94
828.151	14844.31
828.478	14763.86
828.805	14872.56
829.131	14728.61
829.458	14813.81
829.785	14617.88
830.111	14725.22
830.438	14763.41
830.764	14669.18
831.09	14738.33
831.417	14688.84
831.743	14719.8
832.069	14648.39
832.395	14690.19
832.722	14743.3
833.048	14581.27
833.374	14668.05
833.7	14606.35
834.026	14566.35
834.351	14564.32
834.677	14507.15
835.003	14503.53
835.329	14556.64
835.654	14516.64
835.98	14457.2
836.306	14498.79
836.631	14451.1
836.956	14532.91
837.282	14529.75
837.607	14402.29
837.932	14360.71
838.258	14404.78
838.583	14388.51
838.908	14272.8
839.233	14303.99
839.558	14277.32
839.883	14224.44
840.208	14158.68
840.533	14148.96
840.858	14157.55
841.182	14145.35
841.507	14098.57
841.832	14026.26
842.156	14033.71
842.481	13931.12
842.805	14059.47
843.13	13973.38
843.454	13965.01
843.778	13880.95
844.103	13893.83
844.427	13779.03
844.751	13771.12
845.075	13763.44
845.399	13854.96
845.723	13574.29
846.047	13684.12
846.371	13573.16
846.695	13598.92
847.019	13425.37
847.343	13380.85
847.666	13302.88
847.99	13270.8
848.313	13205.49
848.637	13168.42
848.96	13230.8
849.284	13163.68
849.607	13003.46
849.931	13005.27
850.254	12885.04
850.577	12850.47
850.9	12810.24
851.223	12726.63
851.546	12675.33
851.869	12595.11
852.192	12610.25
852.515	12412.06
852.838	12500.87
853.161	12447.54
853.483	12421.33
853.806	12354.89
854.129	12342.68
854.451	12270.82
854.774	12202.35
855.096	12149.02
855.419	12165.74
855.741	12094.55
856.063	12092.3
856.385	12060.21
856.708	12024.73
857.03	11926.2
857.352	11998.29
857.674	11920.1
857.996	11850.49
858.318	11847.78
858.64	11809.82
858.961	11806.43
859.283	11774.11
859.605	11639.43
859.926	11681.01
860.248	11582.7
860.57	11614.12
860.891	11635.58
861.212	11541.58
861.534	11523.95
861.855	11483.05
862.176	11492.08
862.498	11475.81
862.819	11433.33
863.14	11414.8
863.461	11370.51
863.782	11349.72
864.103	11374.57
864.424	11364.86
864.745	11355.14
865.065	11291.41
865.386	11201.7
865.707	11259.55
866.027	11264.29
866.348	11224.3
866.668	11219.78
866.989	11152.66
867.309	11074.92
867.63	11084.64
867.95	11109.72
868.27	11017.3
868.59	11058.2
868.91	11049.16
869.23	11017.52
869.55	10933
869.87	11061.59
870.19	11015.04
870.51	11000.12
870.83	10967.13
871.15	10871.76
871.469	10851.2
871.789	10958.99
872.109	10840.58
872.428	10739.79
872.748	10827.24
873.067	10849.62
873.386	10782.72
873.706	10761.48
874.025	10646.23
874.344	10598.55
874.663	10626.8
874.982	10642.16
875.301	10733.23
875.62	10669.51
875.939	10569.4
876.258	10682.61
876.577	10574.37
876.896	10481.94
877.214	10514.48
877.533	10573.69
877.852	10483.52
878.17	10512
878.489	10502.73
878.807	10487.59
879.125	10471.32
879.444	10458.44
879.762	10422.73
880.08	10482.62
880.398	10397.65
880.716	10380.25
881.034	10318.1
881.352	10373.92
881.67	10320.36
881.988	10384.54
882.306	10246.24
882.624	10214.38
882.941	10133.7
883.259	10148.17
883.577	10121.27
883.894	10137.09
884.212	10174.83
884.529	10114.49
884.846	10062.97
885.164	10098.68
885.481	10034.27
885.798	10014.84
886.115	9978.68
886.432	9967.83
886.75	9898.91
887.067	9965.12
887.383	9875.86
887.7	9885.57
888.017	9869.75
888.334	9798.12
888.651	9794.95
888.967	9763.54
889.284	9715.41
889.6	9718.12
889.917	9724.67
890.233	9668.18
890.55	9587.28
890.866	9614.17
891.182	9526.71
891.498	9557.45
891.815	9529.42
892.131	9504.79
892.447	9442.42
892.763	9352.03
893.079	9394.06
893.395	9349.99
893.71	9345.7
894.026	9249.66
894.342	9285.59
894.657	9287.4
894.973	9198.59
895.289	9183.22
895.604	9212.37
895.92	9089.21
896.235	9045.37
896.55	9065.26
896.865	9090.57
897.181	9046.95
897.496	9063.22
897.811	8994.52
898.126	8947.74
898.441	8962.66
898.756	8893.74
899.071	8784.36
899.386	8854.41
899.7	8702.55
900.015	8709.11
900.33	8669.56
900.644	8615.55
900.959	8691.25
901.273	8587.3
901.588	8611.03
901.902	8525.61
902.216	8562.44
902.531	8517.02
902.845	8521.99
903.159	8423.46
903.473	8410.58
903.787	8351.15
904.101	8332.85
904.415	8359.06
904.729	8307.54
905.042	8264.15
905.356	8209.46
905.67	8241.77
905.984	8259.63
906.297	8164.71
906.611	8136.01
906.924	8068.9
907.237	8084.49
907.551	8009.24
907.864	8025.06
908.177	8009.46
908.491	7942.12
908.804	7885.85
909.117	7811.96
909.43	7775.8
909.743	7765.86
910.056	7822.58
910.368	7708.23
910.681	7656.48
910.994	7664.84
911.307	7672.3
911.619	7548.23
911.932	7556.14
912.244	7463.94
912.557	7549.14
912.869	7428.69
913.181	7436.82
913.494	7384.85
913.806	7321.12
914.118	7348.46
914.43	7281.12
914.742	7362.7
915.054	7258.3
915.366	7212.88
915.678	7179.2
915.99	7164.74
916.302	7127.23
916.613	7089.04
916.925	7055.59
917.236	7069.15
917.548	7030.96
917.859	7025.08
918.171	6931.75
918.482	6962.03
918.794	6909.15
919.105	6877.74
919.416	6842.04
919.727	6828.03
920.038	6887.23
920.349	6785.32
920.66	6776.5
920.971	6773.56
921.282	6734.24
921.593	6659.9
921.903	6589.61
922.214	6618.77
922.525	6644.08
922.835	6606.11
923.146	6487.02
923.456	6477.53
923.767	6451.31
924.077	6449.51
924.387	6420.58
924.697	6375.84
925.008	6409.05
925.318	6351.43
925.628	6317.53
925.938	6249.74
926.248	6253.8
926.558	6237.53
926.867	6188.04
927.177	6126.8
927.487	6144.2
927.796	6082.51
928.106	6133.36
928.416	6043.87
928.725	6062.4
929.034	6009.74
929.344	5976.52
929.653	5967.71
929.962	5914.38
930.271	5932.01
930.581	5875.96
930.89	5853.14
931.199	5779.01
931.508	5812.01
931.817	5776.53
932.125	5789.86
932.434	5724.33
932.743	5774.72
933.051	5660.15
933.36	5672.8
933.669	5597.55
933.977	5591.45
934.286	5577.21
934.594	5523.88
934.902	5522.07
935.21	5501.96
935.519	5481.85
935.827	5531.11
936.135	5445.46
936.443	5426.71
936.751	5396.65
937.059	5380.61
937.367	5342.42
937.674	5365.69
937.982	5312.81
938.29	5313.26
938.597	5318.24
938.905	5184.23
939.213	5237.56
939.52	5196.88
939.827	5165.25
940.135	5163.89
940.442	5128.64
940.749	5146.26
941.056	5094.51
941.363	5054.51
941.67	5041.63
941.977	5019.03
942.284	4988.53
942.591	4974.97
942.898	4967.74
943.205	4899.04
943.511	4954.86
943.818	4942.65
944.125	4846.38
944.431	4845.48
944.738	4831.24
945.044	4882.99
945.35	4793.73
945.657	4795.31
945.963	4770.45
946.269	4736.56
946.575	4751.25
946.881	4683.9
947.187	4687.52
947.493	4637.35
947.799	4613.17
948.105	4582.66
948.41	4580.18
948.716	4583.11
949.022	4554.64
949.327	4553.96
949.633	4480.29
949.938	4487.75
950.244	4468.99
950.549	4426.06
950.854	4425.15
951.16	4404.59
951.465	4366.4
951.77	4371.14
952.075	4364.14
952.38	4323.01
952.685	4320.52
952.99	4283.23
953.294	4242.11
953.599	4248.43
953.904	4204.59
954.209	4207.08
954.513	4233.97
954.818	4175.89
955.122	4172.5
955.426	4155.78
955.731	4178.15
956.035	4090.02
956.339	4093.41
956.643	4071.49
956.948	4066.97
957.252	4025.84
957.556	4077.59
957.86	4034.2
958.163	4004.15
958.467	3951.94
958.771	3925.73
959.075	3923.7
959.378	3918.27
959.682	3924.6
959.985	3926.41
960.289	3871.04
960.592	3840.08
960.896	3832.17
961.199	3826.52
961.502	3832.63
961.805	3798.73
962.108	3730.26
962.411	3759.63
962.714	3749.92
963.017	3685.96
963.32	3724.83
963.623	3692.29
963.926	3718.28
964.228	3676.7
964.531	3602.12
964.833	3626.3
965.136	3629.92
965.438	3579.75
965.741	3578.85
966.043	3560.54
966.345	3545.63
966.648	3532.75
966.95	3516.25
967.252	3486.19
967.554	3501.33
967.856	3494.1
968.158	3455.23
968.46	3433.31
968.761	3426.08
969.063	3373.88
969.365	3391.28
969.666	3392.64
969.968	3370.49
970.269	3341.34
970.571	3350.38
970.872	3324.16
971.174	3308.8
971.475	3291.62
971.776	3276.26
972.077	3281.23
972.378	3276.03
972.679	3240.1
972.98	3194.45
973.281	3191.06
973.582	3217.73
973.883	3185.86
974.183	3187.22
974.484	3180.21
974.785	3112.19
975.085	3117.62
975.386	3118.52
975.686	3086.66
975.986	3062.25
976.287	3068.13
976.587	3019.54
976.887	3047.11
977.187	3058.86
977.487	3033.1
977.787	2969.15
978.087	2975.47
978.387	2977.28
978.687	2985.87
978.987	2944.06
979.286	2928.47
979.586	2951.97
979.885	2945.64
980.185	2914.23
980.484	2862.93
980.784	2885.31
981.083	2870.62
981.382	2854.35
981.682	2854.8
981.981	2805.76
982.28	2825.65
982.579	2791.75
982.878	2792.65
983.177	2771.86
983.475	2756.95
983.774	2789.49
984.073	2718.76
984.372	2719.43
984.67	2733.45
984.969	2682.82
985.267	2661.81
985.566	2702.26
985.864	2659.55
986.162	2671.75
986.461	2649.38
986.759	2614.58
987.057	2600.34
987.355	2625.88
987.653	2608.25
987.951	2563.73
988.249	2598.31
988.547	2547.69
988.844	2543.62
989.142	2535.48
989.44	2544.3
989.737	2504.52
990.035	2486.45
990.332	2466.56
990.63	2481.25
990.927	2467.92
991.224	2426.79
991.521	2422.49
991.819	2471.76
992.116	2420.91
992.413	2404.41
992.71	2377.52
993.006	2418.2
993.303	2351.99
993.6	2342.27
993.897	2354.47
994.193	2340.46
994.49	2326
994.787	2315.6
995.083	2298.43
995.379	2300.91
995.676	2275.38
995.972	2265.21
996.268	2315.38
996.565	2257.53
996.861	2231.09
997.157	2229.05
997.453	2219.33
997.749	2228.83
998.044	2166
998.34	2205.55
998.636	2169.62
998.932	2189.5
999.227	2148.15
999.523	2163.74
999.818	2092.78
1000.114	2082.84
1000.409	2084.2
1000.704	2089.85
1001	2091.43
1001.295	2073.35
1001.59	2060.24
1001.885	2070.86
1002.18	2068.38
1002.475	2012.56
1002.77	2030.41
1003.065	1995.39
1003.359	1992.67
1003.654	2022.73
1003.949	2022.5
1004.243	1991.09
1004.538	1958.32
1004.832	1951.09
1005.127	1932.79
1005.421	1949.06
1005.715	1898.44
1006.009	1902.51
1006.304	1915.61
1006.598	1919
1006.892	1864.99
1007.186	1868.84
1007.48	1866.8
1007.773	1836.52
1008.067	1853.92
1008.361	1808.72
1008.655	1824.32
1008.948	1800.59
1009.242	1793.36
1009.535	1789.29
1009.829	1775.96
1010.122	1775.96
1010.415	1739.8
1010.708	1774.37
1011.001	1761.72
1011.295	1700.03
1011.588	1723.98
1011.881	1700.7
1012.173	1690.76
1012.466	1690.99
1012.759	1685.56
1013.052	1662.29
1013.344	1643.53
1013.637	1639.24
1013.93	1621.16
1014.222	1630.42
1014.514	1618.22
1014.807	1608.05
1015.099	1588.39
1015.391	1606.92
1015.683	1572.12
1015.976	1561.05
1016.268	1540.71
1016.56	1534.83
1016.851	1537.54
1017.143	1542.06
1017.435	1538
1017.727	1531.44
1018.018	1516.3
1018.31	1507.94
1018.602	1494.16
1018.893	1485.79
1019.185	1471.11
1019.476	1461.84
1019.767	1466.81
1020.058	1426.36
1020.35	1429.3
1020.641	1418.9
1020.932	1396.53
1021.223	1371.45
1021.514	1394.5
1021.804	1382.29
1022.095	1375.29
1022.386	1353.59
1022.677	1369.41
1022.967	1344.1
1023.258	1334.39
1023.548	1330.32
1023.839	1326.25
1024.129	1310.21
1024.419	1294.16
1024.709	1287.16
1025	1286.25
1025.29	1285.8
1025.58	1256.87
1025.87	1260.04
1026.16	1240.38
1026.449	1253.03
1026.739	1250.77
1027.029	1211.45
1027.319	1226.82
1027.608	1222.75
1027.898	1230.89
1028.187	1189.53
1028.477	1193.6
1028.766	1185.46
1029.055	1183.2
1029.344	1158.57
1029.634	1154.28
1029.923	1162.41
1030.212	1150.66
1030.501	1144.33
1030.79	1124.67
1031.078	1128.52
1031.367	1105.24
1031.656	1109.53
1031.945	1102.08
1032.233	1080.38
1032.522	1069.31
1032.81	1085.13
1033.099	1075.64
1033.387	1079.03
1033.675	1068.18
1033.963	1051.91
1034.251	1060.49
1034.54	1039.93
1034.828	1051.23
1035.116	1030.44
1035.403	1041.96
1035.691	1027.28
1035.979	1004.9
1036.267	994.51
1036.554	967.62
1036.842	1003.1
1037.129	999.71
1037.417	966.94
1037.704	1000.16
1037.992	981.63
1038.279	928.75
1038.566	951.12
1038.853	951.12
1039.14	951.12
