Data from hue_170_FLMS001491_00090.txt Node
Date: Tue Feb 07 16:49:20 GMT 2017
User: dcchb
Spectrometer: FLMS00149
Trigger mode: 0
Integration Time (sec): 2.000000E-2
Scans to average: 10
Electric dark correction enabled: true
Nonlinearity correction enabled: false
Boxcar width: 0
XAxis mode: Wavelengths
Number of Pixels in Spectrum: 2048
>>>>>Begin Spectral Data<<<<<
341.393	-9.24
341.776	-9.24
342.16	-9.24
342.543	-59.63
342.927	-63.02
343.31	-35
343.693	-65.96
344.077	-80.2
344.46	-64.38
344.843	-49.46
345.226	-58.05
345.61	-43.81
345.993	-11.5
346.376	2.51
346.759	16.07
347.142	13.14
347.525	51.55
347.908	60.82
348.291	65.11
348.674	95.17
349.057	103.98
349.44	100.82
349.823	144.43
350.206	128.84
350.588	209.74
350.971	230.53
351.354	240.7
351.737	216.75
352.119	259.68
352.502	254.71
352.884	245.22
353.267	271.21
353.65	293.13
354.032	304.2
354.414	304.88
354.797	316.18
355.179	319.57
355.562	332.67
355.944	339.91
356.326	321.6
356.709	345.56
357.091	352.11
357.473	336.74
357.855	352.79
358.238	323.41
358.62	341.94
359.002	325.67
359.384	336.29
359.766	346.23
360.148	327.7
360.53	323.18
360.912	316.18
361.294	324.77
361.676	334.93
362.057	326.12
362.439	335.84
362.821	337.65
363.203	343.3
363.584	317.99
363.966	337.65
364.348	306.91
364.729	311.43
365.111	323.64
365.493	338.32
365.874	338.55
366.256	312.11
366.637	314.14
367.019	313.24
367.4	308.04
367.781	309.17
368.163	303.3
368.544	291.55
368.925	302.17
369.306	329.51
369.688	314.6
370.069	299
370.45	308.04
370.831	314.6
371.212	293.58
371.593	310.75
371.974	309.17
372.355	313.92
372.736	325.9
373.117	302.39
373.498	312.56
373.879	319.57
374.26	322.51
374.641	311.88
375.021	317.76
375.402	332.9
375.783	330.19
376.163	329.74
376.544	332
376.925	324.09
377.305	318.21
377.686	325.22
378.066	320.7
378.447	337.42
378.827	336.29
379.208	356.4
379.588	349.62
379.968	344.2
380.349	320.25
380.729	336.52
381.109	326.8
381.489	322.05
381.87	338.78
382.25	326.12
382.63	342.17
383.01	340.81
383.39	320.25
383.77	341.94
384.15	339.45
384.53	349.4
384.91	355.95
385.29	339.91
385.67	353.47
386.049	357.31
386.429	350.3
386.809	364.31
387.189	353.47
387.568	344.65
387.948	373.58
388.328	349.85
388.707	350.53
389.087	359.57
389.466	371.54
389.846	379.45
390.225	373.13
390.605	380.13
390.984	384.65
391.363	367.48
391.743	376.74
392.122	364.76
392.501	388.04
392.881	377.87
393.26	376.29
393.639	371.32
394.018	398.44
394.397	384.88
394.776	369.06
395.155	374.03
395.534	404.99
395.913	390.53
396.292	392.79
396.671	411.09
397.05	403.86
397.429	388.49
397.808	392.11
398.186	411.54
398.565	415.16
398.944	402.96
399.323	398.21
399.701	417.19
400.08	419
400.458	398.89
400.837	420.81
401.215	435.27
401.594	415.38
401.972	422.84
402.351	425.33
402.729	446.8
403.107	427.81
403.486	426.01
403.864	442.5
404.242	438.43
404.62	440.69
404.999	460.58
405.377	426.68
405.755	445.67
406.133	468.49
406.511	451.77
406.889	465.78
407.267	449.96
407.645	465.1
408.023	458.32
408.401	483.18
408.779	462.84
409.156	476.17
409.534	489.28
409.912	497.64
410.29	493.57
410.667	474.82
411.045	516.17
411.422	520.01
411.8	522.05
412.178	523.86
412.555	519.79
412.933	538.32
413.31	524.99
413.687	544.42
414.065	517.75
414.442	550.52
414.819	545.55
415.197	559.56
415.574	539.45
415.951	571.76
416.328	565.89
416.705	576.28
417.082	598.2
417.46	590.3
417.837	604.31
418.214	584.19
418.591	624.64
418.967	594.14
419.344	596.4
419.721	651.31
420.098	635.04
420.475	630.75
420.852	629.16
421.228	637.07
421.605	631.88
421.982	663.51
422.358	663.06
422.735	674.36
423.111	689.28
423.488	700.57
423.864	687.92
424.241	702.61
424.617	697.64
424.994	696.51
425.37	711.42
425.746	700.8
426.123	744.64
426.499	736.96
426.875	746.45
427.251	773.34
427.627	782.15
428.003	779.44
428.379	759.33
428.756	774.02
429.132	826.9
429.507	800.91
429.883	815.83
430.259	822.38
430.635	830.29
431.011	822.83
431.387	847.69
431.763	848.14
432.138	873
432.514	884.52
432.89	876.84
433.265	881.59
433.641	901.25
434.016	885.2
434.392	940.12
434.767	931.53
435.143	937.63
435.518	951.42
435.894	959.33
436.269	975.6
436.644	944.86
437.02	998.19
437.395	1001.81
437.77	1028.93
438.145	1035.48
438.52	1052.88
438.895	1054.24
439.271	1066.21
439.646	1087.68
440.021	1089.72
440.395	1091.75
440.77	1129.94
441.145	1117.74
441.52	1146.89
441.895	1134.24
442.27	1166.1
442.645	1154.8
443.019	1164.52
443.394	1163.16
443.769	1204.29
444.143	1192.77
444.518	1220.56
444.892	1207.23
445.267	1245.87
445.641	1268.92
446.016	1216.95
446.39	1227.11
446.764	1272.99
447.139	1264.85
447.513	1293.78
447.887	1294.23
448.262	1281.8
448.636	1308.92
449.01	1331.97
449.384	1332.2
449.758	1324.97
450.132	1350.95
450.506	1348.92
450.88	1369.48
451.254	1371.52
451.628	1387.56
452.002	1399.31
452.376	1465.3
452.75	1423.04
453.123	1457.62
453.497	1486.54
453.871	1479.99
454.244	1488.35
454.618	1520.89
454.992	1556.82
455.365	1539.2
455.739	1583.72
456.112	1598.86
456.486	1609.93
456.859	1646.09
457.232	1681.79
457.606	1697.61
457.979	1696.71
458.352	1714.56
458.725	1738.97
459.099	1731.96
459.472	1773.99
459.845	1824.16
460.218	1825.29
460.591	1822.81
460.964	1834.1
461.337	1889.47
461.71	1925.63
462.083	1957.72
462.456	1981.67
462.829	1977.6
463.201	2014.66
463.574	2029.81
463.947	2053.08
464.32	2087.43
464.692	2116.58
465.065	2164.27
465.438	2158.16
465.81	2181.89
466.183	2224.83
466.555	2312.74
466.928	2330.36
467.3	2361.77
467.672	2361.55
468.045	2423.02
468.417	2444.71
468.789	2501.43
469.161	2515.44
469.534	2569.68
469.906	2622.78
470.278	2661.65
470.65	2710.24
471.022	2757.24
471.394	2848.09
471.766	2848.77
472.138	2877.01
472.51	2975.09
472.882	3025.71
473.253	3054.19
473.625	3099.16
473.997	3215.76
474.369	3256.67
474.74	3307.74
475.112	3379.37
475.484	3455.53
475.855	3505.7
476.227	3601.06
476.598	3737.78
476.97	3749.53
477.341	3857.55
477.713	3933.94
478.084	3958.79
478.455	4093.93
478.827	4169.64
479.198	4333.47
479.569	4361.04
479.94	4501.6
480.311	4578.21
480.682	4659.57
481.053	4844.65
481.424	4931.2
481.795	4981.14
482.166	5107.69
482.537	5225.43
482.908	5306.56
483.279	5430.62
483.65	5624.97
484.021	5732.98
484.391	5787.9
484.762	5882.81
485.133	5967.78
485.503	6172.52
485.874	6302.46
486.244	6386.53
486.615	6568.67
486.985	6691.38
487.356	6889.56
487.726	6921.2
488.097	7122.1
488.467	7145.6
488.837	7375.2
489.207	7483.9
489.578	7638.92
489.948	7819.48
490.318	7941.74
490.688	7994.62
491.058	8177.21
491.428	8274.61
491.798	8414.95
492.168	8599.58
492.538	8699.01
492.908	8802.06
493.278	8987.36
493.648	9011.54
494.017	9186.23
494.387	9297.86
494.757	9445.2
495.126	9514.35
495.496	9602.26
495.866	9708.93
496.235	9831.41
496.605	9982.59
496.974	10004.28
497.344	10175.58
497.713	10195.92
498.082	10348.46
498.452	10483.14
498.821	10487.66
499.19	10530.37
499.559	10662.35
499.928	10778.28
500.298	10807.43
500.667	10949.12
501.036	10978.72
501.405	11109.57
501.774	11162.22
502.143	11284.93
502.512	11328.77
502.88	11448.31
503.249	11391.59
503.618	11468.2
503.987	11571.7
504.356	11634.07
504.724	11639.5
505.093	11771.47
505.462	11812.15
505.83	11930.79
506.199	11946.38
506.567	12139.37
506.936	12056.21
507.304	12137.11
507.672	12242.87
508.041	12277.45
508.409	12319.93
508.777	12353.15
509.145	12512.69
509.514	12495.52
509.882	12577.32
510.25	12577.78
510.618	12607.83
510.986	12700.94
511.354	12754.72
511.722	12822.29
512.09	12930.99
512.458	12858.45
512.826	12976.18
513.193	13021.83
513.561	13010.53
513.929	13098.44
514.297	13121.72
514.664	13255.95
515.032	13169.85
515.4	13364.42
515.767	13257.31
516.135	13313.58
516.502	13251.21
516.869	13483.74
517.237	13502.05
517.604	13403.97
517.972	13447.13
518.339	13510.41
518.706	13497.53
519.073	13539.11
519.44	13613.68
519.808	13629.05
520.175	13601.7
520.542	13784.07
520.909	13795.37
521.276	13721.02
521.643	13765.09
522.009	13810.74
522.376	13874.69
522.743	13912.66
523.11	13970.96
523.477	14097.06
523.843	14011.64
524.21	14120.56
524.577	14221.12
524.943	14167.11
525.31	14141.35
525.676	14182.48
526.043	14346.54
526.409	14259.54
526.776	14320.33
527.142	14321.91
527.508	14374.34
527.874	14384.96
528.241	14387.45
528.607	14337.05
528.973	14404.4
529.339	14309.93
529.705	14455.47
530.071	14484.85
530.437	14400.33
530.803	14414.11
531.169	14440.78
531.535	14330.27
531.901	14463.15
532.267	14438.74
532.632	14373.44
532.998	14454.56
533.364	14330.27
533.73	14368.46
534.095	14418.86
534.461	14328.24
534.826	14455.02
535.192	14313.32
535.557	14436.94
535.923	14297.73
536.288	14357.84
536.653	14269.94
537.019	14189.26
537.384	14236.04
537.749	14213.21
538.114	14171.63
538.479	14153.1
538.845	14116.72
539.21	14059.77
539.575	14058.64
539.94	14015.03
540.305	14075.14
540.67	13975.25
541.034	13966.89
541.399	13926.67
541.764	13819.55
542.129	13826.33
542.494	13808.48
542.858	13719.89
543.223	13730.29
543.587	13698.65
543.952	13671.31
544.316	13644.87
544.681	13584.3
545.045	13601.7
545.41	13549.95
545.774	13542.27
546.138	13502.27
546.503	13412.56
546.867	13416.17
547.231	13363.74
547.595	13406
547.959	13369.85
548.324	13349.06
548.688	13178.89
549.052	13245.78
549.416	13162.17
549.779	13130.08
550.143	13119.01
550.507	13127.82
550.871	13039.69
551.235	13030.19
551.599	13066.58
551.962	13027.03
552.326	12968.95
552.689	13019.12
553.053	12837.88
553.417	12807.15
553.78	12880.82
554.143	12827.94
554.507	12774.61
554.87	12821.61
555.234	12840.37
555.597	12737.32
555.96	12726.93
556.323	12731.9
556.686	12698.9
557.05	12731.44
557.413	12709.75
557.776	12610.54
558.139	12650.54
558.502	12583.88
558.865	12611
559.228	12640.15
559.59	12706.59
559.953	12617.32
560.316	12769.86
560.679	12709.07
561.041	12680.82
561.404	12702.29
561.767	12743.87
562.129	12629.07
562.492	12713.59
562.854	12626.36
563.217	12634.72
563.579	12677.21
563.941	12638.79
564.304	12672.01
564.666	12686.93
565.028	12658.45
565.39	12698.23
565.753	12797.43
566.115	12757.43
566.477	12745
566.839	12818.45
567.201	12818
567.563	12766.25
567.925	12847.37
568.287	12775.06
568.648	12840.37
569.01	12862.97
569.372	12847.15
569.734	12874.94
570.095	12877.88
570.457	12902.06
570.819	12932.34
571.18	12907.71
571.542	12892.34
571.903	12919.91
572.265	12971.44
572.626	13016.64
572.987	13029.29
573.349	12954.49
573.71	12903.64
574.071	12980.25
574.432	13038.78
574.794	13063.64
575.155	12952.23
575.516	12902.97
575.877	13034.49
576.238	13056.18
576.599	13060.7
576.96	13009.86
577.32	13058.22
577.681	13039.23
578.042	13057.09
578.403	13031.55
578.763	13063.41
579.124	13115.39
579.485	13062.74
579.845	13115.62
580.206	13041.72
580.566	13078.33
580.927	13039.46
581.287	13126.91
581.648	13002.4
582.008	13132.34
582.368	13026.13
582.728	13057.99
583.089	13054.37
583.449	13018.44
583.809	13026.58
584.169	13012.79
584.529	12989.29
584.889	13011.21
585.249	12970.53
585.609	13063.19
585.969	13028.39
586.329	12976.64
586.688	12963.76
587.048	12946.81
587.408	12868.16
587.768	12944.77
588.127	12905.23
588.487	12849.86
588.846	12932.12
589.206	12894.15
589.565	12845.57
589.925	12899.12
590.284	12869.07
590.643	12832.91
591.003	12820.03
591.362	12914.26
591.721	12809.18
592.08	12806.7
592.44	12919.91
592.799	12852.35
593.158	12720.15
593.517	12876.53
593.876	12855.51
594.235	12821.84
594.593	12763.31
594.952	12787.04
595.311	12692.8
595.67	12792.23
596.029	12813.02
596.387	12786.13
596.746	12794.95
597.104	12747.72
597.463	12679.92
597.822	12783.19
598.18	12689.86
598.538	12733.48
598.897	12822.06
599.255	12642.18
599.613	12868.39
599.972	12749.52
600.33	12727.83
600.688	12716.98
601.046	12731.44
601.404	12755.63
601.762	12785
602.12	12756.98
602.478	12731.9
602.836	12727.83
603.194	12687.6
603.552	12721.28
603.91	12656.87
604.268	12658.23
604.625	12689.64
604.983	12681.28
605.341	12658
605.698	12768.73
606.056	12718.56
606.413	12778.9
606.771	12817.54
607.128	12859.8
607.485	12707.04
607.843	12736.87
608.2	12693.93
608.557	12838.33
608.914	12856.41
609.272	12839.92
609.629	12827.26
609.986	12834.95
610.343	12905
610.7	12912.68
611.057	12864.32
611.414	12914.04
611.771	12847.37
612.127	12902.06
612.484	12839.69
612.841	12904.77
613.198	12848.5
613.554	12793.14
613.911	12934.83
614.267	12919.01
614.624	12822.06
614.98	12923.98
615.337	13035.84
615.693	12978.22
616.05	12933.25
616.406	12989.07
616.762	12938.9
617.118	12989.29
617.475	12950.65
617.831	12986.81
618.187	12974.83
618.543	12954.49
618.899	13093.7
619.255	13005.56
619.611	13021.61
619.967	13059.12
620.323	13060.48
620.678	13015.05
621.034	13074.03
621.39	13068.84
621.746	12997.2
622.101	13202.62
622.457	13010.53
622.812	13034.04
623.168	13099.8
623.523	13110.64
623.879	13170.3
624.234	13103.41
624.589	13072
624.945	13079.23
625.3	13074.71
625.655	13075.62
626.01	13068.39
626.365	13113.81
626.72	13031.55
627.075	13038.56
627.43	13045.56
627.785	13034.71
628.14	13019.35
628.495	13055.05
628.85	13013.25
629.205	12934.38
629.559	13012.57
629.914	12935.73
630.269	12951.33
630.623	12978.22
630.978	12955.17
631.332	12880.59
631.687	12989.07
632.041	12996.52
632.396	12824.55
632.75	12932.57
633.104	12947.03
633.459	12849.18
633.813	12891.67
634.167	12764.44
634.521	12810.99
634.875	12913.36
635.229	12808.05
635.583	12719.02
635.937	12749.52
636.291	12744.33
636.645	12687.15
636.999	12707.26
637.352	12824.32
637.706	12707.94
638.06	12639.7
638.413	12645.8
638.767	12659.81
639.121	12580.94
639.474	12545.46
639.828	12569.19
640.181	12499.36
640.534	12502.07
640.888	12519.47
641.241	12572.81
641.594	12510.89
641.947	12552.24
642.301	12523.54
642.654	12538.68
643.007	12494.16
643.36	12465.24
643.713	12436.76
644.066	12482.64
644.419	12410.55
644.771	12364.9
645.124	12249.88
645.477	12256.66
645.83	12161.52
646.182	12130.56
646.535	12076.09
646.888	12019.83
647.24	12003.55
647.593	12041.75
647.945	12055.3
648.298	11920.84
648.65	11948.87
649.002	11942.31
649.355	12022.76
649.707	11935.53
650.059	12069.09
650.411	12194.96
650.763	12236.54
651.115	12351.12
651.467	12233.83
651.819	12281.29
652.171	12215.07
652.523	12235.86
652.875	12275.64
653.227	12192.7
653.578	12371.45
653.93	12220.05
654.282	12222.08
654.633	12273.6
654.985	12223.21
655.337	12319.48
655.688	12310.67
656.039	12333.94
656.391	12246.94
656.742	12233.6
657.094	12230.67
657.445	12262.76
657.796	12273.6
658.147	12239.93
658.498	12266.15
658.849	12263.43
659.2	12282.42
659.551	12256.66
659.902	12247.16
660.253	12204.45
660.604	12301.63
660.955	12293.94
661.306	12313.6
661.656	12301.85
662.007	12334.85
662.358	12402.87
662.708	12302.3
663.059	12316.99
663.409	12290.55
663.76	12394.96
664.11	12378.46
664.461	12413.71
664.811	12344.11
665.161	12390.89
665.511	12301.17
665.862	12390.66
666.212	12332.81
666.562	12420.04
666.912	12391.79
667.262	12423.88
667.612	12347.95
667.962	12333.72
668.312	12335.52
668.662	12337.78
669.011	12388.4
669.361	12411.45
669.711	12353.6
670.06	12292.59
670.41	12322.64
670.76	12349.53
671.109	12342.75
671.459	12282.42
671.808	12245.36
672.157	12311.12
672.507	12222.98
672.856	12232.02
673.205	12242.64
673.554	12273.38
673.904	12213.94
674.253	12235.41
674.602	12214.4
674.951	11996.1
675.3	12029.09
675.649	12133.49
675.998	12161.97
676.346	12207.62
676.695	12174.4
677.044	12050.56
677.393	12135.53
677.741	12113.83
678.09	12068.86
678.438	12134.17
678.787	12089.88
679.135	12032.03
679.484	12025.47
679.832	12016.21
680.181	11962.65
680.529	11970.79
680.877	11958.13
681.225	11923.33
681.573	11933.05
681.922	11926.72
682.27	11913.39
682.618	11846.72
682.966	11860.96
683.314	11800.62
683.661	11806.05
684.009	11698.03
684.357	11753.84
684.705	11608.76
685.053	11700.06
685.4	11726.05
685.748	11582.55
686.095	11483.34
686.443	11573.74
686.79	11525.6
687.138	11657.57
687.485	11523.12
687.832	11469.11
688.18	11482.44
688.527	11476.79
688.874	11440.86
689.221	11360.18
689.568	11347.98
689.915	11363.57
690.262	11326.96
690.609	11268.43
690.956	11159.06
691.303	11229.34
691.65	11195.21
691.997	11103.47
692.344	11071.38
692.69	11048.33
693.037	11086.74
693.383	10944.6
693.73	10975.56
694.077	10944.15
694.423	10832.51
694.769	10817.37
695.116	10806.3
695.462	10798.16
695.808	10807.88
696.155	10798.39
696.501	10714.32
696.847	10686.3
697.193	10634.55
697.539	10583.03
697.885	10492.86
698.231	10491.28
698.577	10442.24
698.923	10414.9
699.269	10375.57
699.614	10393.65
699.96	10290.38
700.306	10312.75
700.651	10274.33
700.997	10159.76
701.342	10140.1
701.688	10168.35
702.033	10118.41
702.379	10013.1
702.724	10013.55
703.069	10076.37
703.415	9867.57
703.76	9870.05
704.105	9912.08
704.45	9844.06
704.795	9785.08
705.14	9843.84
705.485	9783.5
705.83	9728.36
706.175	9726.33
706.52	9729.94
706.865	9646.55
707.209	9694.24
707.554	9628.25
707.899	9584.63
708.243	9595.03
708.588	9525.43
708.932	9519.55
709.277	9405.88
709.621	9449.27
709.966	9415.6
710.31	9376.96
710.654	9347.35
710.998	9354.58
711.342	9399.1
711.687	9315.04
712.031	9263.29
712.375	9198.2
712.719	9253.34
713.063	9239.79
713.407	9179
713.75	9155.72
714.094	9174.48
714.438	9131.77
714.782	9131.77
715.125	9069.85
715.469	9133.12
715.812	9064.2
716.156	9030.75
716.499	9001.6
716.843	8984.2
717.186	8933.13
717.53	8939.68
717.873	8937.87
718.216	8959.79
718.559	8960.92
718.902	8867.37
719.246	8922.28
719.589	8831.66
719.932	8849.51
720.275	8844.99
720.617	8794.15
720.96	8782.62
721.303	8768.84
721.646	8821.04
721.989	8746.01
722.331	8793.7
722.674	8822.85
723.016	8788.72
723.359	8727.48
723.701	8755.05
724.044	8798.67
724.386	8670.31
724.729	8724.54
725.071	8659.91
725.413	8670.53
725.755	8706.01
726.097	8645.9
726.439	8583.98
726.782	8681.16
727.124	8703.3
727.465	8679.12
727.807	8624.66
728.149	8663.08
728.491	8639.12
728.833	8572.01
729.175	8636.19
729.516	8633.7
729.858	8588.05
730.199	8657.2
730.541	8656.98
730.882	8587.37
731.224	8594.38
731.565	8587.6
731.906	8568.84
732.248	8604.55
732.589	8578.11
732.93	8583.76
733.271	8509.86
733.612	8572.68
733.953	8632.57
734.294	8548.73
734.635	8532.46
734.976	8541.72
735.317	8532.91
735.658	8555.06
735.999	8540.82
736.339	8542.63
736.68	8606.81
737.021	8562.74
737.361	8550.76
737.702	8633.47
738.042	8581.5
738.383	8589.18
738.723	8605.68
739.063	8547.15
739.404	8577.66
739.744	8670.53
740.084	8567.26
740.424	8652.23
740.764	8636.19
741.104	8659.46
741.444	8550.54
741.784	8650.87
742.124	8694.71
742.464	8677.09
742.804	8708.27
743.143	8768.39
743.483	8751.21
743.823	8781.72
744.162	8769.06
744.502	8757.31
744.841	8828.95
745.181	8900.36
745.52	8927.25
745.86	8974.93
746.199	9017.19
746.538	9011.54
746.877	9094.03
747.216	9131.99
747.556	9185.78
747.895	9227.13
748.234	9181.03
748.573	9294.47
748.911	9374.92
749.25	9447.01
749.589	9439.1
749.928	9510.96
750.267	9584.63
750.605	9660.11
750.944	9713.45
751.283	9809.04
751.621	9882.71
751.96	9928.81
752.298	10023.72
752.636	10223.94
752.975	10207.9
753.313	10293.77
753.651	10475.69
753.989	10534.44
754.327	10700.31
754.666	10675.68
755.004	10875.67
755.342	10978.72
755.679	11127.87
756.017	11216
756.355	11409.22
756.693	11532.38
757.031	11699.83
757.368	11783
757.706	11879.94
758.044	12065.47
758.381	12192.93
758.719	12390.21
759.056	12653.25
759.394	12699.36
759.731	12836.53
760.068	12982.51
760.405	13125.56
760.743	13142.73
761.08	13483.29
761.417	13628.6
761.754	13803.06
762.091	13958.98
762.428	14108.81
762.765	14265.19
763.102	14438.52
763.438	14465.86
763.775	14663.6
764.112	14929.58
764.449	15108.33
764.785	15296.58
765.122	15361.66
765.458	15536.12
765.795	15607.08
766.131	15899.05
766.467	16028.53
766.804	16051.58
767.14	16202.09
767.476	16433.49
767.812	16487.5
768.148	16646.82
768.485	16805.69
768.821	16975.18
769.157	17049.3
769.492	17185.11
769.828	17340.59
770.164	17261.5
770.5	17443.41
770.836	17587.14
771.171	17608.15
771.507	17755.95
771.842	17734.7
772.178	17868.48
772.513	17972.21
772.849	18007.24
773.184	18152.55
773.519	18255.14
773.855	18268.93
774.19	18305.54
774.525	18384.18
774.86	18544.85
775.195	18560.44
775.53	18614.45
775.865	18611.06
776.2	18598.18
776.535	18673.44
776.87	18676.6
777.205	18766.09
777.539	18844.73
777.874	18959.98
778.209	18724.06
778.543	18896.48
778.878	18794.56
779.212	18923.82
779.547	18842.7
779.881	19036.82
780.215	18947.55
780.55	19011.96
780.884	19114.33
781.218	19027.55
781.552	19148.45
781.886	19012.86
782.22	19053.54
782.554	19056.48
782.888	18940.1
783.222	18972.18
783.556	18942.81
783.889	18944.61
784.223	18926.76
784.557	18889.02
784.89	18897.38
785.224	18867.1
785.557	18801.57
785.891	18781.91
786.224	18844.5
786.558	18963.82
786.891	18744.62
787.224	18847.22
787.557	18706.88
787.891	18784.62
788.224	18749.82
788.557	18882.92
788.89	18749.59
789.223	18787.33
789.556	18642.7
789.888	18564.06
790.221	18555.25
790.554	18527.22
790.887	18523.38
791.219	18441.35
791.552	18363.39
791.884	18368.58
792.217	18411.3
792.549	18309.38
792.882	18235.03
793.214	18198.87
793.546	18210.85
793.879	18097.41
794.211	18034.36
794.543	18115.48
794.875	18088.59
795.207	18112.55
795.539	18075.03
795.871	18028.93
796.203	17868.48
796.535	17809.5
796.867	17835.04
797.198	17806.11
797.53	17797.53
797.862	17629.4
798.193	17685.66
798.525	17551.88
798.856	17681.37
799.188	17484.77
799.519	17514.14
799.85	17383.07
800.182	17372.23
800.513	17420.36
800.844	17263.98
801.175	17392.57
801.506	17374.26
801.837	17201.61
802.168	17289.97
802.499	17100.37
802.83	17138.11
803.161	17036.19
803.491	16983.76
803.822	17130.43
804.153	16974.27
804.483	16825.57
804.814	16847.49
805.145	16783.09
805.475	16767.5
805.805	16791.45
806.136	16758.68
806.466	16754.39
806.796	16740.38
807.126	16584.68
807.457	16532.7
807.787	16593.04
808.117	16438.92
808.447	16407.51
808.777	16477.11
809.107	16328.86
809.436	16402.53
809.766	16331.58
810.096	16282.99
810.426	16250
810.755	16237.57
811.085	16231.24
811.414	16195.53
811.744	16106.5
812.073	16085.71
812.403	16071.7
812.732	16064.24
813.061	16010.68
813.39	15893.17
813.719	15905.82
814.049	16045.93
814.378	15919.84
814.707	15899.72
815.036	15823.57
815.365	15821.99
815.693	15654.53
816.022	15626.28
816.351	15572.5
816.68	15640.52
817.008	15618.83
817.337	15459.96
817.665	15435.1
817.994	15457.02
818.322	15451.83
818.651	15391.26
818.979	15355.78
819.307	15401.88
819.636	15427.19
819.964	15294.09
820.292	15301.55
820.62	15372.05
820.948	15260.19
821.276	15312.85
821.604	15326.4
821.932	15305.39
822.259	15256.35
822.587	15193.3
822.915	15247.99
823.243	15316.24
823.57	15233.75
823.898	15277.59
824.225	15166.64
824.553	15210.25
824.88	15195.56
825.207	15259.06
825.535	15277.14
825.862	15346.29
826.189	15203.92
826.516	15253.86
826.843	15252.51
827.17	15380.87
827.497	15254.54
827.824	15260.87
828.151	15323.69
828.478	15197.59
828.805	15286.18
829.131	15323.69
829.458	15259.97
829.785	15201.89
830.111	15220.19
830.438	15343.81
830.764	15333.86
831.09	15316.24
831.417	15241.44
831.743	15333.18
832.069	15280.08
832.395	15208.22
832.722	15264.03
833.048	15223.13
833.374	15214.32
833.7	15144.94
834.026	15128.67
834.351	15288.67
834.677	15168.44
835.003	15092.51
835.329	15095.22
835.654	15117.6
835.98	15052.51
836.306	15090.03
836.631	14968.9
836.956	15129.12
837.282	15147.43
837.607	14928
837.932	14967.09
838.258	14979.52
838.583	14980.88
838.908	14815.01
839.233	14891.61
839.558	14900.43
839.883	14824.27
840.208	14747.89
840.533	14772.52
840.858	14786.08
841.182	14788.11
841.507	14722.35
841.832	14647.55
842.156	14655.69
842.481	14737.49
842.805	14615.24
843.13	14589.93
843.454	14551.06
843.778	14552.19
844.103	14485.98
844.427	14445.52
844.751	14453.89
845.075	14368.01
845.399	14326.43
845.723	14209.15
846.047	14224.29
846.371	14165.08
846.695	14177.51
847.019	14010.51
847.343	14003.95
847.666	13940.23
847.99	13862.71
848.313	13799.21
848.637	13761.7
848.96	13790.4
849.284	13726
849.607	13634.47
849.931	13590.18
850.254	13476.74
850.577	13441.03
850.9	13374.14
851.223	13333.69
851.546	13308.15
851.869	13256.18
852.192	13260.47
852.515	13064.09
852.838	13083.07
853.161	13067.93
853.483	13008.73
853.806	12951.33
854.129	12975.73
854.451	12850.76
854.774	12751.11
855.096	12733.48
855.419	12713.14
855.741	12700.03
856.063	12723.54
856.385	12633.59
856.708	12552.01
857.03	12495.74
857.352	12572.35
857.674	12506.59
857.996	12422.53
858.318	12337.33
858.64	12354.73
858.961	12358.8
859.283	12329.87
859.605	12280.61
859.926	12246.71
860.248	12243.55
860.57	12095.98
860.891	12181.4
861.212	12148.18
861.534	12015.08
861.855	12052.82
862.176	12047.4
862.498	12019.15
862.819	12039.26
863.14	11949.32
863.461	11909.55
863.782	11902.99
864.103	11913.61
864.424	11894.4
864.745	11889.43
865.065	11800.17
865.386	11783
865.707	11729.66
866.027	11732.38
866.348	11689.66
866.668	11727.4
866.989	11718.36
867.309	11613.96
867.63	11614.19
867.95	11612.38
868.27	11653.28
868.59	11544.36
868.91	11570.8
869.23	11519.05
869.55	11516.34
869.87	11514.98
870.19	11493.74
870.51	11517.47
870.83	11507.07
871.15	11410.58
871.469	11462.78
871.789	11468.43
872.109	11453.06
872.428	11399.95
872.748	11400.41
873.067	11342.78
873.386	11369.67
873.706	11270.47
874.025	11279.05
874.344	11252.16
874.663	11298.26
874.982	11237.25
875.301	11229.79
875.62	11244.03
875.939	11249.22
876.258	11129.91
876.577	11107.76
876.896	11126.97
877.214	11129.45
877.533	11098.49
877.852	11076.35
878.17	11063.92
878.489	11011.49
878.807	11009.46
879.125	11008.33
879.444	11063.01
879.762	10921.77
880.08	10990.25
880.398	10932.85
880.716	10889.23
881.034	10896.69
881.352	10898.5
881.67	10854.88
881.988	10763.14
882.306	10786.19
882.624	10808.56
882.941	10657.38
883.259	10710.03
883.577	10673.19
883.894	10649.24
884.212	10606.08
884.529	10573.76
884.846	10537.38
885.164	10604.27
885.481	10576.93
885.798	10508
886.115	10413.99
886.432	10456.02
886.75	10466.87
887.067	10426.65
887.383	10363.82
887.7	10399.98
888.017	10346.65
888.334	10296.93
888.651	10309.14
888.967	10335.58
889.284	10205.86
889.6	10203.15
889.917	10150.5
890.233	10130.38
890.55	10102.36
890.866	10176.26
891.182	10066.43
891.498	10092.19
891.815	10067.56
892.131	9991.4
892.447	9914.12
892.763	9896.49
893.079	9840.9
893.395	9856.94
893.71	9911.41
894.026	9817.85
894.342	9764.52
894.657	9652.43
894.973	9717.51
895.289	9682.26
895.604	9661.92
895.92	9520.23
896.235	9569.49
896.55	9569.49
896.865	9562.71
897.181	9508.25
897.496	9385.32
897.811	9428.71
898.126	9361.14
898.441	9344.87
898.756	9263.06
899.071	9241.59
899.386	9263.29
899.7	9148.26
900.015	9162.05
900.33	9140.13
900.644	9063.97
900.959	9082.05
901.273	9056.06
901.588	8961.83
901.902	8965.89
902.216	8912.11
902.531	8991.2
902.845	8884.31
903.159	8854.48
903.473	8786.24
903.787	8715.96
904.101	8701.72
904.415	8765.45
904.729	8687.26
905.042	8628.95
905.356	8593.7
905.67	8590.99
905.984	8557.09
906.297	8515.96
906.611	8435.29
906.924	8456.08
907.237	8451.33
907.551	8436.87
907.864	8356.19
908.177	8345.8
908.491	8252.24
908.804	8221.51
909.117	8217.21
909.43	8155.52
909.743	8103.77
910.056	8090.66
910.368	8100.61
910.681	7981.74
910.994	7991
911.307	8019.48
911.619	7916.66
911.932	7929.99
912.244	7906.49
912.557	7822.42
912.869	7798.02
913.181	7754.63
913.494	7797.79
913.806	7667.17
914.118	7664.69
914.43	7594.4
914.742	7605.93
915.054	7559.15
915.366	7529.77
915.678	7554.86
915.99	7483.67
916.302	7438.25
916.613	7403.68
916.925	7398.93
917.236	7344.02
917.548	7353.73
917.859	7330.01
918.171	7279.38
918.482	7237.58
918.794	7201.42
919.105	7195.55
919.416	7147.86
919.727	7172.04
920.038	7125.94
920.349	7076
920.66	7070.58
920.971	7052.27
921.282	6982.22
921.593	6957.59
921.903	6914.65
922.214	6893.18
922.525	6840.75
922.835	6866.51
923.146	6774.09
923.456	6738.83
923.767	6744.71
924.077	6728.44
924.387	6705.39
924.697	6657.03
925.008	6675.78
925.318	6572.28
925.628	6610.48
925.938	6564.38
926.248	6518.73
926.558	6496.81
926.867	6459.75
927.177	6464.72
927.487	6435.11
927.796	6400.09
928.106	6423.36
928.416	6355.79
928.725	6330.71
929.034	6253.65
929.344	6246.64
929.653	6249.81
929.962	6284.61
930.271	6168.91
930.581	6159.87
930.89	6192.63
931.199	6113.54
931.508	6098.62
931.817	6102.92
932.125	6026.54
932.434	6016.37
932.743	5985.41
933.051	5923.94
933.36	5966.43
933.669	5926.65
933.977	5910.83
934.286	5866.99
934.594	5911.96
934.902	5840.33
935.21	5847.11
935.519	5822.7
935.827	5753.1
936.135	5751.74
936.443	5714
936.751	5650.05
937.059	5665.19
937.367	5638.98
937.674	5608.02
937.982	5606.66
938.29	5534.35
938.597	5584.51
938.905	5489.6
939.213	5454.57
939.52	5477.17
939.827	5491.18
940.135	5408.25
940.442	5379.1
940.749	5391.3
941.056	5389.94
941.363	5308.82
941.67	5337.97
941.977	5262.04
942.284	5217.52
942.591	5232.66
942.898	5223.62
943.205	5173.68
943.511	5167.12
943.818	5197.63
944.125	5104.3
944.431	5115.6
944.738	5090.06
945.044	5026.79
945.35	5037.86
945.657	5034.7
945.963	4961.71
946.269	4956.73
946.575	4963.97
946.881	4932.78
947.187	4919.45
947.493	4909.5
947.799	4866.34
948.105	4843.74
948.41	4821.37
948.716	4840.8
949.022	4836.74
949.327	4745.89
949.633	4749.06
949.938	4696.63
950.244	4727.81
950.549	4656.18
950.854	4624.54
951.16	4597.65
951.465	4630.19
951.77	4617.31
952.075	4600.36
952.38	4556.74
952.685	4535.28
952.99	4515.16
953.294	4546.8
953.599	4472.45
953.904	4468.61
954.209	4395.39
954.513	4433.13
954.818	4440.14
955.122	4383.42
955.426	4395.84
955.731	4344.77
956.035	4344.55
956.339	4299.35
956.643	4274.04
956.948	4294.38
957.252	4290.99
957.556	4264.77
957.86	4234.27
958.163	4260.26
958.467	4192.69
958.771	4194.95
959.075	4168.96
959.378	4191.1
959.682	4132.35
959.985	4121.28
960.289	4108.62
960.592	4036.31
960.896	4017.78
961.199	4020.04
961.502	4042.18
961.805	4007.15
962.108	4002.18
962.411	3958.12
962.714	3938.68
963.017	3938
963.32	3926.25
963.623	3917.44
963.926	3882.86
964.228	3845.35
964.531	3840.15
964.833	3827.05
965.136	3819.59
965.438	3820.72
965.741	3765.58
966.043	3755.41
966.345	3765.35
966.648	3731.91
966.95	3725.13
967.252	3702.53
967.554	3675.64
967.856	3657.56
968.158	3623.21
968.46	3671.8
968.761	3631.57
969.063	3607.84
969.365	3548.86
969.666	3593.38
969.968	3501.41
970.269	3555.41
970.571	3526.49
970.872	3511.12
971.174	3465.47
971.475	3482.42
971.776	3446.04
972.077	3391.35
972.378	3444.68
972.679	3440.16
972.98	3397
973.281	3423.67
973.582	3399.49
973.883	3339.83
974.183	3321.97
974.484	3338.7
974.785	3338.7
975.085	3338.25
975.386	3315.2
975.686	3248.08
975.986	3258.93
976.287	3247.85
976.587	3198.14
976.887	3220.73
977.187	3213.73
977.487	3215.31
977.787	3165.82
978.087	3174.63
978.387	3164.92
978.687	3146.84
978.987	3105.48
979.286	3080.4
979.586	3078.82
979.885	3057.57
980.185	3032.49
980.484	3020.51
980.784	3033.85
981.083	3012.83
981.382	3061.64
981.682	3001.31
981.981	2977.35
982.28	2937.35
982.579	2939.16
982.878	2936.67
983.177	2935.54
983.475	2910.69
983.774	2889.44
984.073	2893.29
984.372	2872.27
984.67	2852.83
984.969	2865.94
985.267	2839.95
985.566	2833.63
985.864	2789.79
986.162	2819.39
986.461	2775.77
986.759	2725.61
987.057	2778.94
987.355	2707.3
987.653	2750.69
987.951	2707.53
988.249	2760.86
988.547	2677.92
988.844	2683.12
989.142	2663.01
989.44	2643.8
989.737	2658.72
990.035	2639.28
990.332	2614.65
990.63	2605.16
990.927	2589.56
991.224	2594.99
991.521	2567.64
991.819	2583.01
992.116	2558.15
992.413	2548.21
992.71	2511.15
993.006	2514.99
993.303	2525.39
993.6	2480.87
993.897	2475.9
994.193	2432.96
994.49	2456.69
994.787	2486.29
995.083	2419.63
995.379	2385.28
995.676	2391.83
995.972	2387.31
996.268	2382.56
996.565	2360.64
996.861	2352.06
997.157	2341.66
997.453	2333.75
997.749	2317.26
998.044	2258.73
998.34	2301.44
998.636	2276.58
998.932	2256.01
999.227	2259.18
999.523	2277.48
999.818	2264.38
1000.114	2219.4
1000.409	2211.95
1000.704	2207.43
1001	2192.06
1001.295	2162.01
1001.59	2171.72
1001.885	2147.99
1002.18	2136.24
1002.475	2151.84
1002.77	2121.78
1003.065	2116.36
1003.359	2124.04
1003.654	2095.34
1003.949	2099.41
1004.243	2067.09
1004.538	2063.25
1004.832	2045.62
1005.127	2021.44
1005.421	2017.38
1005.715	2004.95
1006.009	1992.97
1006.304	1976.02
1006.598	1965.85
1006.892	1949.13
1007.186	1911.62
1007.48	1917.27
1007.773	1892.86
1008.067	1920.66
1008.361	1888.79
1008.655	1906.64
1008.948	1859.64
1009.242	1827.55
1009.535	1854.67
1009.829	1836.36
1010.122	1859.87
1010.415	1811.05
1010.708	1836.14
1011.001	1805.86
1011.295	1799.08
1011.588	1807.21
1011.881	1786.2
1012.173	1763.82
1012.466	1760.21
1012.759	1737.38
1013.052	1734.22
1013.344	1711.85
1013.637	1706.65
1013.93	1688.12
1014.222	1679.53
1014.514	1678.4
1014.807	1674.33
1015.099	1645.63
1015.391	1676.14
1015.683	1656.93
1015.976	1623.26
1016.268	1646.99
1016.56	1604.51
1016.851	1623.49
1017.143	1618.52
1017.435	1614
1017.727	1549.37
1018.018	1578.97
1018.31	1580.1
1018.602	1529.25
1018.893	1542.36
1019.185	1565.86
1019.476	1520.89
1019.767	1500.78
1020.058	1521.12
1020.35	1515.24
1020.641	1469.82
1020.932	1449.03
1021.223	1495.58
1021.514	1454.23
1021.804	1461.46
1022.095	1434.11
1022.386	1434.57
1022.677	1428.24
1022.967	1410.39
1023.258	1421.01
1023.548	1383.72
1023.839	1367.45
1024.129	1349.82
1024.419	1350.5
1024.709	1366.55
1025	1337.39
1025.29	1330.39
1025.58	1312.99
1025.87	1322.93
1026.16	1278.86
1026.449	1288.36
1026.739	1282.71
1027.029	1271.86
1027.319	1292.65
1027.608	1270.05
1027.898	1244.74
1028.187	1253.33
1028.477	1250.84
1028.766	1225.31
1029.055	1218.08
1029.344	1223.05
1029.634	1206.55
1029.923	1215.82
1030.212	1175.36
1030.501	1196.83
1030.79	1155.25
1031.078	1185.76
1031.367	1168.81
1031.656	1136.27
1031.945	1138.53
1032.233	1153.22
1032.522	1139.21
1032.81	1120.45
1033.099	1103.05
1033.387	1086.55
1033.675	1112.77
1033.963	1100.34
1034.251	1076.38
1034.54	1073.22
1034.828	1066.67
1035.116	1057.4
1035.403	1056.95
1035.691	1036.39
1035.979	1024.63
1036.267	1039.77
1036.554	1023.28
1036.842	1043.16
1037.129	995.03
1037.417	1010.85
1037.704	1001.81
1037.992	1029.38
1038.279	993.45
1038.566	993.9
1038.853	993.9
1039.14	993.9
