Data from hue_70_FLMS001491_41.txt Node
Date: Mon Feb 06 15:20:57 GMT 2017
User: dcchb
Spectrometer: FLMS00149
Trigger mode: 0
Integration Time (sec): 2.000000E-2
Scans to average: 10
Electric dark correction enabled: true
Nonlinearity correction enabled: false
Boxcar width: 0
XAxis mode: Wavelengths
Number of Pixels in Spectrum: 2048
>>>>>Begin Spectral Data<<<<<
341.393	-7.47
341.776	-7.47
342.16	-7.47
342.543	-80.69
342.927	-54.7
343.31	-59.22
343.693	-82.5
344.077	-44.98
344.46	-67.58
344.843	-44.31
345.226	-40.92
345.61	-42.72
345.993	-25.55
346.376	-14.25
346.759	2.92
347.142	19.19
347.525	54.22
347.908	57.39
348.291	78.18
348.674	86.76
349.057	123.37
349.44	117.27
349.823	139.19
350.206	166.76
350.588	188.23
350.971	192.98
351.354	210.15
351.737	228.23
352.119	239.08
352.502	270.94
352.884	288.11
353.267	275.91
353.65	283.82
354.032	299.64
354.414	279.98
354.797	317.72
355.179	311.84
355.562	335.8
355.944	331.05
356.326	325.63
356.709	319.75
357.091	338.96
357.473	335.34
357.855	326.08
358.238	334.89
358.62	338.51
359.002	333.08
359.384	332.18
359.766	332.18
360.148	325.63
360.53	366.08
360.912	335.12
361.294	331.05
361.676	338.73
362.057	324.27
362.439	324.27
362.821	338.51
363.203	319.07
363.584	315.46
363.966	308.9
364.348	320.66
364.729	339.64
365.111	307.1
365.493	329.69
365.874	302.12
366.256	321.79
366.637	309.58
367.019	317.72
367.4	307.55
367.781	313.2
368.163	321.33
368.544	304.84
368.925	315.01
369.306	336.93
369.688	324.95
370.069	308.45
370.45	312.29
370.831	307.77
371.212	326.98
371.593	316.59
371.974	315.68
372.355	312.52
372.736	293.09
373.117	322.01
373.498	316.81
373.879	295.57
374.26	331.28
374.641	289.47
375.021	269.13
375.402	317.49
375.783	317.49
376.163	342.12
376.544	327.66
376.925	343.48
377.305	317.72
377.686	330.6
378.066	324.27
378.447	331.95
378.827	313.88
379.208	334.89
379.588	309.13
379.968	336.02
380.349	333.31
380.729	338.96
381.109	318.62
381.489	303.25
381.87	313.88
382.25	336.93
382.63	353.65
383.01	336.47
383.39	317.49
383.77	348.23
384.15	355.68
384.53	327.43
384.91	340.09
385.29	340.09
385.67	327.66
386.049	350.94
386.429	350.94
386.809	348.68
387.189	339.86
387.568	344.61
387.948	353.2
388.328	352.52
388.707	354.1
389.087	341.22
389.466	345.97
389.846	350.94
390.225	357.26
390.605	348.68
390.984	349.58
391.363	362.91
391.743	357.94
392.122	352.07
392.501	364.95
392.881	377.38
393.26	362.91
393.639	350.49
394.018	378.51
394.397	361.11
394.776	375.12
395.155	352.29
395.534	396.13
395.913	364.72
396.292	379.64
396.671	377.83
397.05	375.57
397.429	377.6
397.808	351.84
398.186	370.15
398.565	391.16
398.944	378.73
399.323	372.41
399.701	371.73
400.08	400.2
400.458	390.26
400.837	394.78
401.215	402.69
401.594	395.46
401.972	401.78
402.351	366.76
402.729	402.69
403.107	369.47
403.486	409.01
403.864	397.49
404.242	402.69
404.62	374.44
404.999	385.74
405.377	402.24
405.755	408.79
406.133	403.37
406.511	402.69
406.889	414.44
407.267	401.56
407.645	409.47
408.023	427.09
408.401	398.39
408.779	426.87
409.156	401.33
409.534	425.51
409.912	418.28
410.29	430.03
410.667	420.54
411.045	417.15
411.422	439.07
411.8	441.78
412.178	452.18
412.555	472.97
412.933	457.15
413.31	441.1
413.687	446.53
414.065	453.31
414.442	470.48
414.819	447.88
415.197	482.91
415.574	479.07
415.951	479.97
416.328	477.71
416.705	485.4
417.082	478.84
417.46	459.63
417.837	484.49
418.214	483.14
418.591	468
418.967	487.2
419.344	473.42
419.721	522.46
420.098	522.46
420.475	488.79
420.852	491.27
421.228	491.27
421.605	506.41
421.982	513.19
422.358	515
422.735	479.52
423.111	508
423.488	496.02
423.864	517.94
424.241	524.27
424.617	538.5
424.994	508
425.37	533.53
425.746	514.32
426.123	557.26
426.499	521.78
426.875	547.54
427.251	562.68
427.627	557.94
428.003	566.07
428.379	556.81
428.756	547.77
429.132	540.54
429.507	567.65
429.883	571.72
430.259	579.63
430.635	571.5
431.011	591.38
431.387	578.73
431.763	605.62
432.138	592.96
432.514	594.32
432.89	614.66
433.265	592.06
433.641	592.29
434.016	606.3
434.392	616.92
434.767	616.47
435.143	643.81
435.518	642.23
435.894	671.15
436.269	663.92
436.644	653.98
437.02	671.83
437.395	657.37
437.77	679.74
438.145	675.22
438.52	654.21
438.895	683.13
439.271	694.88
439.646	703.24
440.021	687.65
440.395	684.04
440.77	701.21
441.145	700.53
441.52	709.12
441.895	724.26
442.27	718.84
442.645	713.19
443.019	750.47
443.394	731.72
443.769	717.26
444.143	734.88
444.518	753.64
444.892	746.18
445.267	734.2
445.641	769.91
446.016	760.19
446.39	758.61
446.764	790.93
447.139	759.97
447.513	740.98
447.887	780.3
448.262	802.22
448.636	793.64
449.01	786.63
449.384	786.18
449.758	794.32
450.132	810.81
450.506	833.18
450.88	817.14
451.254	815.33
451.628	825.05
452.002	820.3
452.376	845.39
452.75	835.44
453.123	832.51
453.497	847.2
453.871	858.72
454.244	873.18
454.618	886.29
454.992	874.31
455.365	879.28
455.739	926.06
456.112	900.53
456.486	943.01
456.859	935.78
457.232	959.51
457.606	924.48
457.979	948.89
458.352	996.34
458.725	997.93
459.099	1008.09
459.472	1010.13
459.845	1010.13
460.218	1026.4
460.591	997.25
460.964	1032.73
461.337	1079.28
461.71	1071.14
462.083	1083.12
462.456	1074.76
462.829	1086.74
463.201	1131.03
463.574	1138.71
463.947	1142.55
464.32	1170.58
464.692	1204.47
465.065	1178.03
465.438	1182.55
465.81	1228.88
466.183	1241.08
466.555	1264.81
466.928	1281.53
467.3	1266.39
467.672	1312.27
468.045	1313.4
468.417	1345.26
468.789	1349.33
469.161	1366.28
469.534	1430
469.906	1429.78
470.278	1445.15
470.65	1476.11
471.022	1536.89
471.394	1546.16
471.766	1584.8
472.138	1574.41
472.51	1611.47
472.882	1688.76
473.253	1682.43
473.625	1724.91
473.997	1763.56
474.369	1811.24
474.74	1822.31
475.112	1881.29
475.484	1911.35
475.855	1966.94
476.227	2016.88
476.598	2086.03
476.97	2126.48
477.341	2182.08
477.713	2236.54
478.084	2261.62
478.455	2344.56
478.827	2365.57
479.198	2483.99
479.569	2474.27
479.94	2627.04
480.311	2658.9
480.682	2754.49
481.053	2876.29
481.424	2931.43
481.795	3002.39
482.166	3102.5
482.537	3175.5
482.908	3225.89
483.279	3348.82
483.65	3456.84
484.021	3557.41
484.391	3651.42
484.762	3697.74
485.133	3774.35
485.503	3853.67
485.874	4048.24
486.244	4144.51
486.615	4231.51
486.985	4373.43
487.356	4477.16
487.726	4629.47
488.097	4725.96
488.467	4796.24
488.837	4984.26
489.207	5125.05
489.578	5262.22
489.948	5383.57
490.318	5546.73
490.688	5584.92
491.058	5733.85
491.428	5902.66
491.798	6022.65
492.168	6187.17
492.538	6284.34
492.908	6460.83
493.278	6616.76
493.648	6652.24
494.017	6889.52
494.387	7070.08
494.757	7138.33
495.126	7287.25
495.496	7433.91
495.866	7470.3
496.235	7706.9
496.605	7838.88
496.974	7975.37
497.344	8167.91
497.713	8262.82
498.082	8316.83
498.452	8509.59
498.821	8647.44
499.19	8736.03
499.559	8962.69
499.928	9031.39
500.298	9114.77
500.667	9350.02
501.036	9377.14
501.405	9563.8
501.774	9525.16
502.143	9783.01
502.512	9830.24
502.88	9951.14
503.249	10115.43
503.618	10220.73
503.987	10297.34
504.356	10434.74
504.724	10571.46
505.093	10624.11
505.462	10801.06
505.83	10944.78
506.199	11011.45
506.567	11204.66
506.936	11180.71
507.304	11378.44
507.672	11459.8
508.041	11573.24
508.409	11709.51
508.777	11838.32
509.145	11999.22
509.514	12037.41
509.882	12093.45
510.25	12162.83
510.618	12319.44
510.986	12369.6
511.354	12514.69
511.722	12630.61
512.09	12829.03
512.458	12830.16
512.826	12959.65
513.193	13070.83
513.561	13160.09
513.929	13200.54
514.297	13353.76
514.664	13486.64
515.032	13499.29
515.4	13622.23
515.767	13695.22
516.135	13833.07
516.502	13716.01
516.869	14081.65
517.237	14003.91
517.604	14099.73
517.972	14220.4
518.339	14267.63
518.706	14389.21
519.073	14418.59
519.44	14530.45
519.808	14704.01
520.175	14709.88
520.542	14926.15
520.909	14949.65
521.276	14964.56
521.643	15145.35
522.009	15156.2
522.376	15309.41
522.743	15387.83
523.11	15540.82
523.477	15682.74
523.843	15656.3
524.21	15873.69
524.577	15930.19
524.943	15989.62
525.31	16085.44
525.676	16239.11
526.043	16329.5
526.409	16329.27
526.776	16494.69
527.142	16442.72
527.508	16649.27
527.874	16698.08
528.241	16794.8
528.607	16922.7
528.973	17062.81
529.339	16952.53
529.705	17101.46
530.071	17205.86
530.437	17207.22
530.803	17287.89
531.169	17421
531.535	17364.95
531.901	17388.46
532.267	17508.45
532.632	17609.69
532.998	17538.28
533.364	17699.18
533.73	17735.79
534.095	17771.27
534.461	17865.5
534.826	17910.25
535.192	17885.84
535.557	18089
535.923	18004.94
536.288	18087.65
536.653	18085.39
537.019	18086.29
537.384	18050.58
537.749	18178.72
538.114	18202.22
538.479	18150.7
538.845	18266.85
539.21	18252.16
539.575	18292.84
539.94	18256
540.305	18312.05
540.67	18302.1
541.034	18329.22
541.399	18350.69
541.764	18430.69
542.129	18491.93
542.494	18420.74
542.858	18464.13
543.223	18411.48
543.587	18623
543.952	18470.23
544.316	18589.1
544.681	18524.24
545.045	18642.66
545.41	18662.09
545.774	18688.53
546.138	18589.55
546.503	18735.99
546.867	18751.13
547.231	18870.68
547.595	18807.4
547.959	18787.74
548.324	18860.28
548.688	18730.11
549.052	18733.05
549.416	18878.36
549.779	18797.46
550.143	18899.38
550.507	18898.02
550.871	18951.35
551.235	18945.48
551.599	19020.28
551.962	19013.95
552.326	19095.98
552.689	19056.43
553.053	19015.31
553.417	19043.33
553.78	19296.43
554.143	19145.02
554.507	19156.77
554.87	19290.1
555.234	19315.18
555.597	19255.52
555.96	19326.03
556.323	19397.44
556.686	19432.7
557.05	19487.38
557.413	19401.51
557.776	19488.74
558.139	19614.84
558.502	19626.81
558.865	19750.2
559.228	19809.63
559.59	19729.41
559.953	19758.34
560.316	19843.53
560.679	19905.9
561.041	19925.79
561.404	19973.02
561.767	20100.25
562.129	19988.16
562.492	20140.02
562.854	20149.96
563.217	20204.88
563.579	20227.48
563.941	20342.28
564.304	20501.14
564.666	20447.81
565.028	20541.82
565.39	20687.35
565.753	20619.1
566.115	20629.5
566.477	20631.08
566.839	20800.12
567.201	20912.88
567.563	20841.02
567.925	21030.85
568.287	20937.29
568.648	21040.11
569.01	21064.06
569.372	21148.58
569.734	21111.3
570.095	21261.35
570.457	21314
570.819	21343.15
571.18	21371.4
571.542	21463.6
571.903	21549.02
572.265	21596.48
572.626	21533.66
572.987	21592.41
573.349	21602.13
573.71	21785.18
574.071	21727.32
574.432	21787.21
574.794	21888.9
575.155	21810.94
575.516	21816.59
575.877	21840.54
576.238	21954.21
576.599	22053.87
576.96	21948.56
577.32	22099.07
577.681	22082.8
578.042	22224.26
578.403	22118.73
578.763	22101.1
579.124	22156.92
579.485	22300.87
579.845	22319.17
580.206	22224.49
580.566	22290.47
580.927	22199.63
581.287	22330.02
581.648	22274.43
582.008	22333.64
582.368	22348.55
582.728	22319.17
583.089	22316.24
583.449	22277.82
583.809	22403.92
584.169	22424.26
584.529	22276.91
584.889	22480.3
585.249	22454.76
585.609	22362.34
585.969	22412.5
586.329	22351.26
586.688	22349
587.048	22472.62
587.408	22328.44
587.768	22223.81
588.127	22363.92
588.487	22296.35
588.846	22486.4
589.206	22267.65
589.565	22227.88
589.925	22433.07
590.284	22325.73
590.643	22350.13
591.003	22389.23
591.362	22405.05
591.721	22282.11
592.08	22292.73
592.44	22433.75
592.799	22441.88
593.158	22375.67
593.517	22314.88
593.876	22368.21
594.235	22348.32
594.593	22391.94
594.952	22405.27
595.311	22256.35
595.67	22469.9
596.029	22448.44
596.387	22433.75
596.746	22516.91
597.104	22370.02
597.463	22334.09
597.822	22487.08
598.18	22498.6
598.538	22377.48
598.897	22524.14
599.255	22389.68
599.613	22530.24
599.972	22384.26
600.33	22578.15
600.688	22476.01
601.046	22448.44
601.404	22637.13
601.762	22547.64
602.12	22643.23
602.478	22621.99
602.836	22657.02
603.194	22551.03
603.552	22522.56
603.91	22513.52
604.268	22619.73
604.625	22504.25
604.983	22648.66
605.341	22599.84
605.698	22669.67
606.056	22761.65
606.413	22655.66
606.771	22779.5
607.128	22761.42
607.485	22696.34
607.843	22763.46
608.2	22921.42
608.557	22860.85
608.914	22878.48
609.272	22904.92
609.629	22951.47
609.986	23053.84
610.343	22988.99
610.7	23130.23
611.057	23057.91
611.414	23072.37
611.771	23087.97
612.127	23197.57
612.484	23138.13
612.841	23292.03
613.198	23178.13
613.554	23225.59
613.911	23349.43
614.267	23417.9
614.624	23314.18
614.98	23375.87
615.337	23513.94
615.693	23466.26
616.05	23438.01
616.406	23554.17
616.762	23449.54
617.118	23487.05
617.475	23427.84
617.831	23558.24
618.187	23643.21
618.543	23656.99
618.899	23780.15
619.255	23705.8
619.611	23608.63
619.967	23711.45
620.323	23748.74
620.678	23660.61
621.034	23564.11
621.39	23588.74
621.746	23659.48
622.101	23855.4
622.457	23734.5
622.812	23831.9
623.168	23854.05
623.523	23818.34
623.879	23898.34
624.234	23737.67
624.589	23833.48
624.945	23899.7
625.3	23934.5
625.655	23819.25
626.01	23943.54
626.365	23936.53
626.72	23827.16
627.075	23772.69
627.43	23939.24
627.785	23863.31
628.14	23929.3
628.495	23909.41
628.85	23896.31
629.205	23795.52
629.559	23923.2
629.914	23806.59
630.269	23905.57
630.623	23769.08
630.978	23781.51
631.332	23892.46
631.687	23885.46
632.041	23745.12
632.396	23857.66
632.75	23717.33
633.104	23733.37
633.459	23680.04
633.813	23616.09
634.167	23613.15
634.521	23666.03
634.875	23685.69
635.229	23602.08
635.583	23446.6
635.937	23534.06
636.291	23531.12
636.645	23544.68
636.999	23504.9
637.352	23503.32
637.706	23432.36
638.06	23487.5
638.413	23442.99
638.767	23369.99
639.121	23404.12
639.474	23351.01
639.828	23287.74
640.181	23260.84
640.534	23419.03
640.888	23289.77
641.241	23264.46
641.594	23273.05
641.947	23374.29
642.301	23225.14
642.654	23273.95
643.007	23278.24
643.36	23183.33
643.713	23090.23
644.066	23220.17
644.419	23051.58
644.771	22998.03
645.124	22721.87
645.477	22768.43
645.83	22468.77
646.182	22583.12
646.535	22399.4
646.888	22433.52
647.24	22279.85
647.593	22466.74
647.945	22403.92
648.298	22380.64
648.65	22344.94
649.002	22348.78
649.355	22371.38
649.707	22409.34
650.059	22416.12
650.411	22640.29
650.763	22699.28
651.115	22942.89
651.467	22817.24
651.819	22824.02
652.171	22778.82
652.523	22726.62
652.875	22760.29
653.227	22749.44
653.578	22868.54
653.93	22730.24
654.282	22742.21
654.633	22736.56
654.985	22693.63
655.337	22702.21
655.688	22729.11
656.039	22849.55
656.391	22572.73
656.742	22606.4
657.094	22703.34
657.445	22780.18
657.796	22716.68
658.147	22657.47
658.498	22735.89
658.849	22781.08
659.2	22733.17
659.551	22676.45
659.902	22761.42
660.253	22719.61
660.604	22807.07
660.955	22672.38
661.306	22736.56
661.656	22680.29
662.007	22710.35
662.358	22663.34
662.708	22678.26
663.059	22657.24
663.409	22616.57
663.76	22795.77
664.11	22718.26
664.461	22750.35
664.811	22777.92
665.161	22605.95
665.511	22687.75
665.862	22740.86
666.212	22828.31
666.562	22778.37
666.912	22711.48
667.262	22669.45
667.612	22590.8
667.962	22858.59
668.312	22788.99
668.662	22835.54
669.011	22786.51
669.361	22746.28
669.711	22746.96
670.06	22620.86
670.41	22583.12
670.76	22623.35
671.109	22646.4
671.459	22762.33
671.808	22616.79
672.157	22670.58
672.507	22447.98
672.856	22534.76
673.205	22579.96
673.554	22664.25
673.904	22553.52
674.253	22667.64
674.602	22461.77
674.951	22207.99
675.3	22111.49
675.649	22465.61
675.998	22434.42
676.346	22385.61
676.695	22448.89
677.044	22257.71
677.393	22331.6
677.741	22362.56
678.09	22344.26
678.438	22344.03
678.787	22380.19
679.135	22314.2
679.484	22154.21
679.832	22306.52
680.181	22097.71
680.529	22212.51
680.877	22221.1
681.225	22029.46
681.573	22134.32
681.922	21975.91
682.27	22034.21
682.618	21954.44
682.966	21850.48
683.314	21933.65
683.661	21843.93
684.009	21830.15
684.357	21652.75
684.705	21758.51
685.053	21648
685.4	21737.27
685.748	21648.91
686.095	21512.87
686.443	21443.04
686.79	21472.19
687.138	21488.69
687.485	21521.23
687.832	21286.21
688.18	21367.11
688.527	21318.75
688.874	21262.7
689.221	21183.16
689.568	21149.94
689.915	21102.03
690.262	21203.5
690.609	20927.12
690.956	20947.46
691.303	20860.68
691.65	20810.29
691.997	20754.47
692.344	20680.57
692.69	20555.83
693.037	20586.56
693.383	20455.27
693.73	20493.01
694.077	20370.98
694.423	20379.11
694.769	20391.99
695.116	20206.01
695.462	20288.49
695.808	20070.42
696.155	20156.29
696.501	20032.91
696.847	20036.07
697.193	19855.06
697.539	19976.18
697.885	19692.58
698.231	19663.2
698.577	19637.89
698.923	19516.99
699.269	19511.56
699.614	19425.46
699.96	19372.36
700.306	19340.95
700.651	19294.17
700.997	19175.3
701.342	19233.83
701.688	19113.16
702.033	19108.86
702.379	19100.27
702.724	18971.24
703.069	18986.38
703.415	18747.29
703.76	18811.69
704.105	18819.6
704.45	18728.08
704.795	18540.74
705.14	18527.63
705.485	18517.47
705.83	18412.38
706.175	18457.58
706.52	18348.66
706.865	18296.68
707.209	18366.06
707.554	18182.56
707.899	18193.63
708.243	18179.17
708.588	18010.81
708.932	17941.21
709.277	17945.5
709.621	17943.47
709.966	17759.74
710.31	17768.11
710.654	17719.29
710.998	17793.87
711.342	17701.67
711.687	17697.6
712.031	17674.32
712.375	17542.8
712.719	17554.33
713.063	17504.61
713.407	17556.13
713.75	17463.93
714.094	17405.86
714.438	17444.95
714.782	17358.85
715.125	17239.08
715.469	17318.4
715.812	17192.53
716.156	17175.58
716.499	17173.55
716.843	17080.21
717.186	17121.8
717.53	17178.97
717.873	17171.29
718.216	17077.5
718.559	16981.91
718.902	16864.18
719.246	16965.87
719.589	16869.82
719.932	16831.86
720.275	16879.99
720.617	16759.09
720.96	16752.77
721.303	16725.87
721.646	16724.74
721.989	16656.72
722.331	16717.96
722.674	16690.62
723.016	16682.94
723.359	16622.83
723.701	16665.08
724.044	16524.52
724.386	16490.63
724.729	16508.93
725.071	16459.21
725.413	16506.44
725.755	16423.96
726.097	16412.66
726.439	16313
726.782	16304.64
727.124	16438.88
727.465	16362.27
727.807	16361.14
728.149	16224.19
728.491	16207.47
728.833	16361.14
729.175	16294.25
729.516	16191.42
729.858	16293.57
730.199	16228.03
730.541	16169.96
730.882	16118.66
731.224	16202.72
731.565	16092.9
731.906	16169.73
732.248	16217.19
732.589	16064.42
732.93	16045.21
733.271	16078.66
733.612	16086.34
733.953	16139.22
734.294	15982.39
734.635	15969.28
734.976	16118.43
735.317	15995.05
735.658	16065.55
735.999	16054.93
736.339	16029.39
736.68	15982.39
737.021	15973.13
737.361	16009.73
737.702	15979.45
738.042	16016.97
738.383	15948.04
738.723	16014.93
739.063	15993.01
739.404	16053.8
739.744	15994.14
740.084	15938.55
740.424	15925.67
740.764	15988.94
741.104	16021.49
741.444	15889.74
741.784	15961.6
742.124	16032.11
742.464	15906.01
742.804	15933.13
743.143	15987.81
743.483	16023.29
743.823	15956.18
744.162	15923.18
744.502	16071.88
744.841	15952.33
745.181	16062.61
745.52	16011.77
745.86	16092.44
746.199	16096.51
746.538	16013.12
746.877	16181.71
747.216	16251.76
747.556	16141.71
747.895	16213.57
748.234	16302.61
748.573	16249.28
748.911	16280.91
749.25	16305.32
749.589	16394.81
749.928	16443.85
750.267	16482.72
750.605	16471.42
750.944	16522.72
751.283	16489.5
751.621	16668.47
751.96	16727
752.298	16738.3
752.636	16734.69
752.975	16768.81
753.313	16893.55
753.651	16942.82
753.989	16908.47
754.327	17035.7
754.666	17093.1
755.004	17085.41
755.342	17304.16
755.679	17196.6
756.017	17243.83
756.355	17420.09
756.693	17454.44
757.031	17523.59
757.368	17623.25
757.706	17646.75
758.044	17714.55
758.381	17804.49
758.719	17845.84
759.056	17956.12
759.394	17910.48
759.731	17965.39
760.068	18062.11
760.405	18170.58
760.743	18167.87
761.08	18320.18
761.417	18239.96
761.754	18386.62
762.091	18436.79
762.428	18392.5
762.765	18352.95
763.102	18627.29
763.438	18495.54
763.775	18472.04
764.112	18697.57
764.449	18749.32
764.785	18745.93
765.122	18665.03
765.458	18790.68
765.795	18786.38
766.131	18871.58
766.467	18829.1
766.804	18857.57
767.14	18826.84
767.476	18870.68
767.812	18884.24
768.148	18978.47
768.485	18898.02
768.821	18900.05
769.157	18814.86
769.492	18924.69
769.828	18891.01
770.164	18784.35
770.5	18867.96
770.836	18913.39
771.171	18715.65
771.507	18855.31
771.842	18718.82
772.178	18744.35
772.513	18801.75
772.849	18708.42
773.184	18696.22
773.519	18793.62
773.855	18661.19
774.19	18682.21
774.525	18587.07
774.86	18714.97
775.195	18602.89
775.53	18566.5
775.865	18525.83
776.2	18409.45
776.535	18357.92
776.87	18263.46
777.205	18392.27
777.539	18307.53
777.874	18348.66
778.209	18228.43
778.543	18130.58
778.878	18095.33
779.212	18084.71
779.547	18087.42
779.881	18166.51
780.215	18004.94
780.55	18025.95
780.884	17914.54
781.218	17812.62
781.552	17864.83
781.886	17742.34
782.22	17763.13
782.554	17668.45
782.888	17498.06
783.222	17491.73
783.556	17406.99
783.889	17462.8
784.223	17384.16
784.557	17306.65
784.89	17246.76
785.224	17203.83
785.557	17122.93
785.891	17098.52
786.224	17029.82
786.558	17121.34
786.891	16901.46
787.224	16924.06
787.557	16790.28
787.891	16769.26
788.224	16837.28
788.557	16963.83
788.89	16702.6
789.223	16668.93
789.556	16540.34
789.888	16598.19
790.221	16533.56
790.554	16351.87
790.887	16453.56
791.219	16315.94
791.552	16287.02
791.884	16256.73
792.217	16190.75
792.549	16142.39
792.882	15988.04
793.214	16008.15
793.546	16033.46
793.879	15928.83
794.211	15785.79
794.543	15865.78
794.875	15748.05
795.207	15818.1
795.539	15782.17
795.871	15795.28
796.203	15587.15
796.535	15598.45
796.867	15525
797.198	15559.8
797.53	15451.56
797.862	15321.16
798.193	15401.61
798.525	15223.77
798.856	15339.92
799.188	15160.04
799.519	15117.33
799.85	15021.51
800.182	15061.06
800.513	15079.82
800.844	14887.28
801.175	14909.42
801.506	15013.83
801.837	14863.32
802.168	14842.53
802.499	14854.06
802.83	14679.83
803.161	14615.87
803.491	14650.45
803.822	14652.03
804.153	14548.76
804.483	14404.35
804.814	14412.71
805.145	14406.84
805.475	14504.01
805.805	14315.99
806.136	14390.79
806.466	14339.27
806.796	14281.42
807.126	14152.61
807.457	14170.01
807.787	14138.82
808.117	14059.28
808.447	14087.07
808.777	14024.48
809.107	14000.97
809.436	14018.6
809.766	13939.28
810.096	13863.12
810.426	13845.72
810.755	13852.5
811.085	13811.83
811.414	13775.22
811.744	13650.02
812.073	13636.92
812.403	13594.2
812.732	13551.95
813.061	13531.83
813.39	13502.68
813.719	13412.29
814.049	13450.25
814.378	13444.6
814.707	13390.59
815.036	13306.53
815.365	13288
815.693	13168.23
816.022	13192.86
816.351	13141.79
816.68	13067.44
817.008	13104.5
817.337	13025.18
817.665	12995.58
817.994	13036.48
818.322	13012.3
818.651	12961.45
818.979	12958.74
819.307	13035.12
819.636	12939.53
819.964	12875.58
820.292	12938.63
820.62	12844.62
820.948	12819.08
821.276	12866.77
821.604	12847.33
821.932	12836.26
822.259	12889.59
822.587	12831.51
822.915	12731.4
823.243	12790.84
823.57	12773.66
823.898	12726.43
824.225	12704.51
824.553	12678.52
824.88	12781.12
825.207	12782.7
825.535	12777.28
825.862	12803.94
826.189	12673.55
826.516	12784.51
826.843	12769.14
827.17	12841.23
827.497	12844.17
827.824	12741.35
828.151	12871.96
828.478	12787.45
828.805	12791.97
829.131	12730.05
829.458	12710.39
829.785	12639.65
830.111	12719.65
830.438	12734.34
830.764	12725.08
831.09	12715.13
831.417	12686.21
831.743	12652.08
832.069	12757.16
832.395	12685.75
832.722	12658.86
833.048	12695.92
833.374	12683.72
833.7	12622.93
834.026	12542.93
834.351	12630.16
834.677	12592.2
835.003	12581.12
835.329	12576.83
835.654	12573.89
835.98	12474.23
836.306	12530.73
836.631	12434.24
836.956	12490.05
837.282	12564.18
837.607	12480.11
837.932	12420
838.258	12418.64
838.583	12381.36
838.908	12326.67
839.233	12341.36
839.558	12331.87
839.883	12265.88
840.208	12266.1
840.533	12259.32
840.858	12247.57
841.182	12216.39
841.507	12180.68
841.832	12080.57
842.156	12075.37
842.481	12161.47
842.805	12089.84
843.13	12074.02
843.454	12085.54
843.778	12008.26
844.103	11936.85
844.427	11878.54
844.751	12059.1
845.075	11860.46
845.399	11878.09
845.723	11806
846.047	11849.39
846.371	11786.79
846.695	11701.6
847.019	11619.79
847.343	11519.46
847.666	11458.44
847.99	11516.29
848.313	11517.88
848.637	11397.65
848.96	11439.01
849.284	11357.43
849.607	11238.79
849.931	11290.31
850.254	11179.35
850.577	11083.08
850.9	11009.64
851.223	11010.09
851.546	10888.29
851.869	10888.06
852.192	10986.36
852.515	10825.92
852.838	10790.21
853.161	10813.03
853.483	10709.31
853.806	10687.61
854.129	10681.74
854.451	10643.55
854.774	10590.89
855.096	10509.54
855.419	10595.64
855.741	10554.96
856.063	10483.78
856.385	10458.02
856.708	10378.7
857.03	10356.32
857.352	10331.01
857.674	10260.73
857.996	10289.88
858.318	10227.29
858.64	10219.83
858.961	10202.2
859.283	10229.1
859.605	10134.41
859.926	10159.04
860.248	10117.01
860.57	10006.05
860.891	10103.68
861.212	9985.03
861.534	10011.25
861.855	10006.05
862.176	9994.3
862.498	10021.42
862.819	9932.61
863.14	9892.61
863.461	9912.72
863.782	9813.06
864.103	9823.46
864.424	9790.46
864.745	9797.69
865.065	9807.19
865.386	9735.1
865.707	9775.32
866.027	9753.4
866.348	9711.37
866.668	9721.76
866.989	9664.59
867.309	9651.26
867.63	9639.05
867.95	9659.17
868.27	9549.11
868.59	9634.31
868.91	9579.4
869.23	9595.44
869.55	9515.44
869.87	9563.35
870.19	9507.53
870.51	9487.42
870.83	9501.88
871.15	9466.86
871.469	9397.48
871.789	9442.45
872.109	9449.23
872.428	9300.31
872.748	9351.83
873.067	9361.1
873.386	9417.37
873.706	9326.97
874.025	9258.73
874.344	9280.65
874.663	9260.31
874.982	9262.12
875.301	9244.49
875.62	9216.24
875.939	9184.6
876.258	9209.91
876.577	9246.75
876.896	9184.15
877.214	9133.53
877.533	9128.79
877.852	9136.02
878.17	9182.57
878.489	9144.6
878.807	9039.97
879.125	9037.49
879.444	9051.05
879.762	9077.04
880.08	9057.83
880.398	9002.24
880.716	9045.62
881.034	8919.75
881.352	8970.37
881.67	8950.03
881.988	9002.01
882.306	8935.8
882.624	8893.54
882.941	8899.41
883.259	8835.69
883.577	8888.11
883.894	8746.87
884.212	8840.43
884.529	8786.2
884.846	8752.52
885.164	8727.21
885.481	8742.35
885.798	8635.92
886.115	8618.52
886.432	8667.78
886.75	8621.23
887.067	8629.36
887.383	8645.18
887.7	8529.25
888.017	8564.96
888.334	8555.92
888.651	8550.5
888.967	8485.64
889.284	8467.79
889.6	8423.27
889.917	8305.3
890.233	8345.76
890.55	8299.43
890.866	8310.5
891.182	8233.67
891.498	8279.77
891.815	8283.38
892.131	8213.78
892.447	8191.86
892.763	8174.23
893.079	8187.12
893.395	8082.94
893.71	8110.73
894.026	8067.57
894.342	8063.5
894.657	8019.89
894.973	7992.77
895.289	7995.93
895.604	7996.61
895.92	7956.61
896.235	7892.21
896.55	7876.61
896.865	7867.35
897.181	7844.3
897.496	7791.42
897.811	7802.04
898.126	7764.3
898.441	7688.15
898.756	7680.24
899.071	7610.63
899.386	7735.6
899.7	7539.45
900.015	7580.8
900.33	7461.94
900.644	7530.86
900.959	7498.77
901.273	7484.53
901.588	7459.68
901.902	7382.62
902.216	7395.72
902.531	7362.73
902.845	7294.26
903.159	7238.89
903.473	7299.91
903.787	7259.68
904.101	7244.09
904.415	7251.55
904.729	7189.63
905.042	7098.1
905.356	7125.45
905.67	7132.23
905.984	7156.41
906.297	7009.52
906.611	7018.33
906.924	7008.62
907.237	6984.89
907.551	6921.39
907.864	6874.61
908.177	6956.19
908.491	6841.16
908.804	6916.87
909.117	6841.16
909.43	6823.99
909.743	6758.9
910.056	6782.63
910.368	6723.42
910.681	6644.56
910.994	6675.74
911.307	6629.87
911.619	6605.01
911.932	6561.17
912.244	6509.65
912.557	6504.22
912.869	6509.19
913.181	6490.89
913.494	6440.49
913.806	6452.7
914.118	6335.86
914.43	6358.46
914.742	6379.25
915.054	6272.59
915.366	6205.7
915.678	6264.91
915.99	6237.79
916.302	6155.76
916.613	6160.05
916.925	6224.68
917.236	6109.43
917.548	6070.33
917.859	6109.88
918.171	6069.43
918.482	6028.08
918.794	5983.33
919.105	5987.17
919.416	5953.73
919.727	5877.8
920.038	5873.96
920.349	5869.66
920.66	5859.72
920.971	5859.72
921.282	5755.99
921.593	5775.88
921.903	5670.35
922.214	5740.85
922.525	5750.8
922.835	5705.15
923.146	5647.52
923.456	5669.89
923.767	5671.7
924.077	5596.45
924.387	5583.79
924.697	5561.87
925.008	5553.96
925.318	5500.18
925.628	5501.76
925.938	5414.98
926.248	5431.48
926.558	5375.44
926.867	5386.74
927.177	5364.82
927.487	5339.51
927.796	5302.22
928.106	5280.52
928.416	5263.8
928.725	5280.3
929.034	5197.82
929.344	5250.7
929.653	5209.79
929.962	5202.33
930.271	5165.5
930.581	5116.69
930.89	5093.64
931.199	5011.61
931.508	5059.29
931.817	5044.37
932.125	5056.12
932.434	4996.01
932.743	4968.22
933.051	4949.01
933.36	4898.61
933.669	4861.1
933.977	4880.54
934.286	4843.93
934.594	4833.31
934.902	4812.29
935.21	4797.37
935.519	4794.66
935.827	4744.72
936.135	4739.75
936.443	4672.86
936.751	4664.72
937.059	4730.48
937.367	4650.26
937.674	4635.57
937.982	4668.56
938.29	4597.83
938.597	4594.67
938.905	4536.14
939.213	4540.43
939.52	4512.64
939.827	4534.56
940.135	4512.18
940.442	4482.13
940.749	4441.68
941.056	4492.52
941.363	4391.51
941.67	4411.17
941.977	4392.19
942.284	4334.56
942.591	4382.02
942.898	4287.1
943.205	4311.06
943.511	4276.94
943.818	4264.96
944.125	4271.06
944.431	4231.96
944.738	4218.18
945.044	4235.81
945.35	4207.11
945.657	4139.09
945.963	4173.89
946.269	4104.96
946.575	4138.86
946.881	4122.14
947.187	4100.44
947.493	4095.47
947.799	4023.61
948.105	4060.67
948.41	4053.44
948.716	4027.45
949.022	3988.13
949.327	4019.09
949.633	3911.97
949.938	3894.57
950.244	3907.91
950.549	3884.63
950.854	3847.34
951.16	3866.78
951.465	3813.9
951.77	3788.81
952.075	3810.51
952.38	3790.17
952.685	3788.81
952.99	3759.44
953.294	3757.85
953.599	3739.77
953.904	3740
954.209	3700.23
954.513	3717.85
954.818	3652.32
955.122	3655.93
955.426	3594.69
955.731	3607.8
956.035	3600.34
956.339	3575.71
956.643	3580.46
956.948	3548.37
957.252	3544.98
957.556	3527.8
957.86	3508.59
958.163	3510.18
958.467	3479.89
958.771	3493.45
959.075	3443.29
959.378	3449.84
959.682	3419.11
959.985	3423.85
960.289	3410.29
960.592	3380.24
960.896	3328.49
961.199	3409.84
961.502	3350.41
961.805	3349.05
962.108	3290.07
962.411	3283.29
962.714	3232.9
963.017	3288.04
963.32	3273.8
963.623	3249.17
963.926	3199.45
964.228	3183.86
964.531	3188.6
964.833	3200.35
965.136	3184.53
965.438	3150.86
965.741	3150.64
966.043	3130.98
966.345	3115.16
966.648	3077.87
966.95	3066.8
967.252	3037.65
967.554	3052.56
967.856	3064.76
968.158	3039.91
968.46	3008.95
968.761	2976.63
969.063	2955.16
969.365	2982.51
969.666	2976.4
969.968	2947.25
970.269	2914.26
970.571	2919.23
970.872	2931.89
971.174	2866.35
971.475	2869.97
971.776	2855.73
972.077	2890.98
972.378	2828.39
972.679	2837.65
972.98	2823.41
973.281	2786.81
973.582	2816.63
973.883	2767.6
974.183	2804.88
974.484	2813.25
974.785	2739.35
975.085	2760.37
975.386	2768.73
975.686	2737.77
975.986	2692.57
976.287	2698.45
976.587	2689.86
976.887	2715.39
977.187	2697.99
977.487	2665.68
977.787	2658.9
978.087	2654.38
978.387	2599.92
978.687	2606.25
978.987	2594.72
979.286	2593.82
979.586	2549.75
979.885	2546.81
980.185	2568.73
980.484	2551.56
980.784	2510.65
981.083	2553.37
981.382	2509.07
981.682	2488.73
981.981	2476.98
982.28	2463.88
982.579	2499.81
982.878	2449.41
983.177	2457.32
983.475	2478.34
983.774	2405.35
984.073	2407.38
984.372	2376.87
984.67	2382.97
984.969	2400.6
985.267	2382.52
985.566	2378.68
985.864	2311.56
986.162	2362.41
986.461	2311.34
986.759	2314.28
987.057	2268.4
987.355	2318.57
987.653	2277.44
987.951	2280.15
988.249	2235.63
988.547	2282.41
988.844	2229.08
989.142	2236.54
989.44	2211.91
989.737	2215.29
990.035	2217.1
990.332	2195.41
990.63	2172.81
990.927	2159.7
991.224	2171
991.521	2147.27
991.819	2158.8
992.116	2150.21
992.413	2124.22
992.71	2126.26
993.006	2146.82
993.303	2116.99
993.6	2106.6
993.897	2090.33
994.193	2075.19
994.49	2047.39
994.787	2021.4
995.083	2043.32
995.379	2001.74
995.676	2014.4
995.972	2018.92
996.268	2017.33
996.565	2004.45
996.861	1973.04
997.157	1989.99
997.453	1972.36
997.749	1983.66
998.044	1957.67
998.34	1959.26
998.636	1938.92
998.932	1923.55
999.227	1911.35
999.523	1888.98
999.818	1870.67
1000.114	1863.67
1000.409	1872.48
1000.704	1847.39
1001	1849.43
1001.295	1837.9
1001.59	1849.2
1001.885	1826.38
1002.18	1796.32
1002.475	1781.63
1002.77	1787.74
1003.065	1793.39
1003.359	1774.18
1003.654	1771.46
1003.949	1754.06
1004.243	1752.48
1004.538	1747.51
1004.832	1718.81
1005.127	1719.71
1005.421	1707.29
1005.715	1696.66
1006.009	1691.47
1006.304	1689.43
1006.598	1678.81
1006.892	1655.76
1007.186	1634.07
1007.48	1618.25
1007.773	1638.13
1008.067	1609.44
1008.361	1611.24
1008.655	1607.18
1008.948	1582.54
1009.242	1599.72
1009.535	1577.57
1009.829	1563.56
1010.122	1538.02
1010.415	1576.44
1010.708	1555.2
1011.001	1552.94
1011.295	1541.19
1011.588	1505.71
1011.881	1514.97
1012.173	1525.82
1012.466	1510.23
1012.759	1489.44
1013.052	1475.88
1013.344	1482.43
1013.637	1465.94
1013.93	1455.77
1014.222	1489.21
1014.514	1454.64
1014.807	1452.83
1015.099	1413.96
1015.391	1429.78
1015.683	1406.73
1015.976	1408.08
1016.268	1403.79
1016.56	1375.99
1016.851	1380.06
1017.143	1358.37
1017.435	1351.36
1017.727	1361.31
1018.018	1344.81
1018.31	1347.75
1018.602	1319.27
1018.893	1317.01
1019.185	1311.82
1019.476	1321.76
1019.767	1294.19
1020.058	1308.88
1020.35	1282.89
1020.641	1270.01
1020.932	1274.08
1021.223	1234.08
1021.514	1261.2
1021.804	1213.06
1022.095	1228.88
1022.386	1234.3
1022.677	1233.63
1022.967	1250.57
1023.258	1202.67
1023.548	1182.55
1023.839	1206.06
1024.129	1173.06
1024.419	1185.94
1024.709	1154.31
1025	1172.38
1025.29	1144.59
1025.58	1129.67
1025.87	1152.27
1026.16	1131.03
1026.449	1136
1026.739	1120.86
1027.029	1122.89
1027.319	1115.89
1027.608	1088.32
1027.898	1083.57
1028.187	1076.12
1028.477	1086.28
1028.766	1064.59
1029.055	1062.78
1029.344	1070.69
1029.634	1037.7
1029.923	1027.3
1030.212	1026.17
1030.501	1042.9
1030.79	1015.78
1031.078	1026.17
1031.367	1011.26
1031.656	988.66
1031.945	1001.32
1032.233	979.62
1032.522	978.04
1032.81	973.07
1033.099	979.17
1033.387	964.03
1033.675	986.4
1033.963	950.92
1034.251	967.64
1034.54	926.52
1034.828	931.71
1035.116	946.85
1035.403	938.49
1035.691	931.26
1035.979	913.63
1036.267	924.03
1036.554	901.43
1036.842	896.91
1037.129	897.36
1037.417	896.69
1037.704	867.31
1037.992	885.39
1038.279	847.87
1038.566	832.05
1038.853	832.05
1039.14	832.05
