Data from hue_250_FLMS001491_00088.txt Node
Date: Tue Feb 07 16:01:36 GMT 2017
User: dcchb
Spectrometer: FLMS00149
Trigger mode: 0
Integration Time (sec): 2.000000E-2
Scans to average: 10
Electric dark correction enabled: true
Nonlinearity correction enabled: false
Boxcar width: 0
XAxis mode: Wavelengths
Number of Pixels in Spectrum: 2048
>>>>>Begin Spectral Data<<<<<
341.393	-21.69
341.776	-21.69
342.16	-21.69
342.543	-54.46
342.927	-77.96
343.31	-72.31
343.693	-60.11
344.077	-61.24
344.46	-63.5
344.843	-38.64
345.226	-37.51
345.61	-28.7
345.993	-25.08
346.376	-14.46
346.759	17.63
347.142	14.46
347.525	40
347.908	62.6
348.291	77.74
348.674	75.03
349.057	114.12
349.44	121.58
349.823	138.53
350.206	159.77
350.588	190.28
350.971	179.2
351.354	230.05
351.737	227.34
352.119	257.39
352.502	263.95
352.884	270.95
353.267	261.91
353.65	298.98
354.032	283.83
354.414	304.17
354.797	290.16
355.179	311.18
355.562	317.05
355.944	329.26
356.326	319.77
356.709	327.22
357.091	325.64
357.473	325.87
357.855	331.29
358.238	302.14
358.62	334.45
359.002	329.48
359.384	351.63
359.766	305.75
360.148	323.61
360.53	324.96
360.912	337.17
361.294	337.39
361.676	309.6
362.057	308.01
362.439	316.6
362.821	327.45
363.203	317.96
363.584	336.49
363.966	317.96
364.348	329.26
364.729	305.98
365.111	289.94
365.493	301.01
365.874	321.12
366.256	306.88
366.637	320.44
367.019	306.43
367.4	292.87
367.781	313.44
368.163	294.91
368.544	317.73
368.925	330.39
369.306	318.41
369.688	297.62
370.069	291.07
370.45	313.44
370.831	287
371.212	301.69
371.593	288.35
371.974	282.93
372.355	300.56
372.736	324.51
373.117	311.18
373.498	305.98
373.879	304.4
374.26	303.95
374.641	322.03
375.021	280.67
375.402	307.56
375.783	309.6
376.163	324.29
376.544	329.26
376.925	315.92
377.305	328.35
377.686	308.69
378.066	324.74
378.447	331.29
378.827	324.06
379.208	314.34
379.588	312.53
379.968	324.29
380.349	319.09
380.729	321.57
381.109	332.19
381.489	328.35
381.87	327.68
382.25	329.71
382.63	336.71
383.01	334.23
383.39	328.35
383.77	318.18
384.15	325.19
384.53	327
384.91	332.19
385.29	334.45
385.67	348.92
386.049	337.84
386.429	365.87
386.809	347.34
387.189	365.19
387.568	334.45
387.948	357.73
388.328	343.72
388.707	362.25
389.087	351.18
389.466	329.71
389.846	394.34
390.225	349.6
390.605	366.32
390.984	340.1
391.363	348.24
391.743	343.95
392.122	367
392.501	352.08
392.881	357.5
393.26	360.22
393.639	382.59
394.018	378.97
394.397	370.39
394.776	381.23
395.155	390.27
395.534	398.86
395.913	381.23
396.292	385.53
396.671	398.41
397.05	391.63
397.429	382.14
397.808	399.09
398.186	398.18
398.565	381.23
398.944	389.14
399.323	403.15
399.701	399.99
400.08	399.31
400.458	401.12
400.837	405.64
401.215	414
401.594	433.43
401.972	412.42
402.351	397.05
402.729	424.62
403.107	429.82
403.486	417.16
403.864	430.27
404.242	423.94
404.62	441.34
404.999	437.95
405.377	425.3
405.755	422.81
406.133	446.32
406.511	447.67
406.889	440.21
407.267	452.87
407.645	459.2
408.023	469.37
408.401	477.05
408.779	493.77
409.156	485.18
409.534	484.73
409.912	494.22
410.29	503.49
410.667	526.31
411.045	520.89
411.422	496.94
411.8	520.89
412.178	507.33
412.555	520.66
412.933	530.38
413.31	549.59
413.687	550.95
414.065	544.62
414.442	563.38
414.819	550.27
415.197	574.67
415.574	573.77
415.951	580.1
416.328	585.07
416.705	605.41
417.082	625.75
417.46	579.87
417.837	635.46
418.214	635.01
418.591	608.57
418.967	619.19
419.344	631.85
419.721	657.38
420.098	651.28
420.475	663.94
420.852	668.68
421.228	685.18
421.605	652.41
421.982	708.68
422.358	712.98
422.735	709.36
423.111	707.1
423.488	748.23
423.864	737.61
424.241	751.62
424.617	781.9
424.994	779.19
425.37	775.57
425.746	805.18
426.123	779.41
426.499	811.96
426.875	805.63
427.251	815.8
427.627	829.36
428.003	835.23
428.379	842.92
428.756	869.58
429.132	866.42
429.507	892.63
429.883	884.27
430.259	905.96
430.635	890.15
431.011	899.86
431.387	927.66
431.763	942.35
432.138	956.13
432.514	966.98
432.89	964.27
433.265	990.71
433.641	980.31
434.016	1020.31
434.392	1042.01
434.767	1064.15
435.143	1066.19
435.518	1082.23
435.894	1101.67
436.269	1105.73
436.644	1122.68
437.02	1168.78
437.395	1129.01
437.77	1161.55
438.145	1188.44
438.52	1206.52
438.895	1204.71
439.271	1228.67
439.646	1259.63
440.021	1243.58
440.395	1254.88
440.77	1270.02
441.145	1286.97
441.52	1332.62
441.895	1314.09
442.27	1341.89
442.645	1351.6
443.019	1368.33
443.394	1378.72
443.769	1391.15
444.143	1378.95
444.518	1392.28
444.892	1396.35
445.267	1396.8
445.641	1442.9
446.016	1449.45
446.39	1474.99
446.764	1456.46
447.139	1428.89
447.513	1489.68
447.887	1506.18
448.262	1490.58
448.636	1523.12
449.01	1496.01
449.384	1549.34
449.758	1526.29
450.132	1561.77
450.506	1568.55
450.88	1564.25
451.254	1576
451.628	1592.05
452.002	1613.29
452.376	1641.31
452.75	1642.44
453.123	1654.42
453.497	1682.44
453.871	1686.28
454.244	1709.56
454.618	1719.28
454.992	1760.41
455.365	1735.32
455.739	1799.95
456.112	1816.45
456.486	1814.42
456.859	1821.42
457.232	1838.82
457.606	1876.56
457.979	1863
458.352	1900.29
458.725	1947.75
459.099	1964.69
459.472	1995.2
459.845	2008.53
460.218	2018.7
460.591	2029.55
460.964	2041.75
461.337	2068.19
461.71	2120.17
462.083	2115.2
462.456	2154.52
462.829	2160.62
463.201	2189.32
463.574	2169.89
463.947	2229.32
464.32	2241.3
464.692	2272.03
465.065	2311.13
465.438	2317.45
465.81	2344.57
466.183	2368.75
466.555	2403.55
466.928	2400.61
467.3	2435.64
467.672	2498.47
468.045	2503.66
468.417	2543.89
468.789	2528.3
469.161	2564.23
469.534	2607.16
469.906	2642.87
470.278	2662.75
470.65	2663.43
471.022	2735.52
471.394	2827.95
471.766	2796.76
472.138	2844.67
472.51	2860.49
472.882	2920.15
473.253	2959.92
473.625	2963.31
473.997	3035.17
474.369	3038.79
474.74	3086.25
475.112	3166.92
475.484	3181.39
475.855	3226.13
476.227	3236.07
476.598	3302.29
476.97	3295.28
477.341	3420.48
477.713	3458.89
478.084	3439.68
478.455	3558.78
478.827	3596.52
479.198	3645.1
479.569	3671.09
479.94	3757.19
480.311	3785.44
480.682	3850.75
481.053	3928.48
481.424	3966.9
481.795	4005.09
482.166	4087.35
482.537	4118.54
482.908	4191.08
483.279	4203.05
483.65	4282.6
484.021	4377.96
484.391	4348.36
484.762	4425.87
485.133	4437.4
485.503	4519.2
485.874	4597.62
486.244	4585.87
486.615	4683.27
486.985	4763.49
487.356	4826.31
487.726	4861.12
488.097	4914.9
488.467	4976.37
488.837	5044.61
489.207	5103.59
489.578	5149.92
489.948	5182.46
490.318	5236.7
490.688	5237.15
491.058	5309.01
491.428	5404.15
491.798	5455.68
492.168	5534.54
492.538	5520.08
492.908	5621.55
493.278	5663.81
493.648	5631.94
494.017	5706.97
494.387	5748.78
494.757	5823.58
495.126	5804.59
495.496	5867.42
495.866	5879.39
496.235	5927.08
496.605	5947.87
496.974	5987.19
497.344	6010.01
497.713	6118.26
498.082	6114.64
498.452	6165.49
498.821	6131.36
499.19	6189.22
499.559	6266.73
499.928	6292.94
500.298	6284.13
500.667	6344.01
501.036	6322.09
501.405	6404.8
501.774	6352.15
502.143	6443.22
502.512	6407.52
502.88	6459.94
503.249	6498.36
503.618	6515.31
503.987	6549.66
504.356	6547.62
504.724	6551.69
505.093	6647.73
505.462	6567.28
505.83	6666.94
506.199	6655.19
506.567	6800.73
506.936	6767.73
507.304	6823.32
507.672	6807.96
508.041	6844.79
508.409	6850.44
508.777	6899.25
509.145	6912.13
509.514	6928.63
509.882	7023.54
510.25	6958.91
510.618	6994.17
510.986	7028.29
511.354	7071.45
511.722	7090.66
512.09	7144.9
512.458	7076.42
512.826	7148.51
513.193	7200.71
513.561	7223.54
513.929	7179.02
514.297	7204.56
514.664	7279.58
515.032	7294.27
515.4	7268.51
515.767	7339.02
516.135	7316.64
516.502	7288.85
516.869	7322.29
517.237	7382.4
517.604	7325.91
517.972	7418.11
518.339	7507.37
518.706	7397.77
519.073	7482.06
519.44	7529.29
519.808	7511.44
520.175	7498.56
520.542	7586.69
520.909	7562.29
521.276	7579.24
521.643	7564.32
522.009	7638.9
522.376	7618.56
522.743	7696.52
523.11	7699.23
523.477	7808.38
523.843	7747.82
524.21	7846.8
524.577	7806.35
524.943	7868.27
525.31	7905.1
525.676	7915.27
526.043	7899.91
526.409	7906.01
526.776	8018.77
527.142	7953.01
527.508	7974.25
527.874	7971.09
528.241	7994.59
528.607	8012.9
528.973	8031.2
529.339	8034.37
529.705	8070.97
530.071	8122.5
530.437	8123.18
530.803	8161.37
531.169	8193.91
531.535	8101.03
531.901	8125.66
532.267	8072.33
532.632	8162.27
532.998	8162.27
533.364	8202.72
533.73	8204.08
534.095	8230.29
534.461	8205.43
534.826	8263.29
535.192	8228.71
535.557	8222.16
535.923	8212.44
536.288	8251.08
536.653	8282.04
537.019	8166.11
537.384	8220.35
537.749	8169.05
538.114	8224.42
538.479	8204.3
538.845	8229.39
539.21	8170.18
539.575	8218.09
539.94	8167.47
540.305	8242.5
540.67	8146.9
541.034	8154.36
541.399	8244.98
541.764	8188.49
542.129	8229.16
542.494	8163.85
542.858	8183.29
543.223	8217.86
543.587	8186.45
543.952	8144.64
544.316	8142.84
544.681	8150.52
545.045	8172.21
545.41	8204.53
545.774	8160.69
546.138	8153.91
546.503	8146.45
546.867	8119.79
547.231	8210.86
547.595	8209.73
547.959	8216.73
548.324	8129.5
548.688	8154.59
549.052	8171.99
549.416	8099.45
549.779	8156.17
550.143	8155.04
550.507	8125.66
550.871	8157.75
551.235	8114.14
551.599	8129.05
551.962	8184.87
552.326	8157.53
552.689	8158.66
553.053	8124.98
553.417	8161.82
553.78	8169.95
554.143	8099.45
554.507	8102.16
554.87	8218.77
555.234	8196.85
555.597	8109.17
555.96	8200.24
556.323	8175.6
556.686	8176.96
557.05	8187.81
557.413	8214.25
557.776	8258.09
558.139	8287.47
558.502	8276.84
558.865	8278.88
559.228	8326.79
559.59	8241.37
559.953	8274.13
560.316	8321.59
560.679	8310.52
561.041	8340.35
561.404	8398.65
561.767	8370.85
562.129	8392.77
562.492	8443.62
562.854	8424.64
563.217	8425.32
563.579	8447.91
563.941	8502.83
564.304	8487.91
564.666	8552.09
565.028	8537.85
565.39	8613.78
565.753	8580.79
566.115	8583.5
566.477	8666.21
566.839	8655.59
567.201	8731.97
567.563	8660.79
567.925	8717.74
568.287	8769.26
568.648	8740.56
569.01	8761.13
569.372	8823.95
569.734	8768.81
570.095	8832.31
570.457	8882.25
570.819	8897.39
571.18	8850.39
571.542	8941.46
571.903	8835.02
572.265	8928.35
572.626	8955.47
572.987	8966.32
573.349	8945.98
573.71	9060.78
574.071	9017.16
574.432	9094
574.794	9209.93
575.155	9179.65
575.516	9137.39
575.877	9190.49
576.238	9164.28
576.599	9121.79
576.96	9211.51
577.32	9201.57
577.681	9270.94
578.042	9274.11
578.403	9240.43
578.763	9349.13
579.124	9343.03
579.485	9357.04
579.845	9345.29
580.206	9467.1
580.566	9366.08
580.927	9390.26
581.287	9442.46
581.648	9390.04
582.008	9496.02
582.368	9528.56
582.728	9474.55
583.089	9502.35
583.449	9503.48
583.809	9476.81
584.169	9569.01
584.529	9576.47
584.889	9609.46
585.249	9580.09
585.609	9579.41
585.969	9536.25
586.329	9607.43
586.688	9625.06
587.048	9584.15
587.408	9548.68
587.768	9609.46
588.127	9696.24
588.487	9559.97
588.846	9723.36
589.206	9625.28
589.565	9648.11
589.925	9690.59
590.284	9662.8
590.643	9715
591.003	9725.85
591.362	9812.4
591.721	9756.58
592.08	9762.68
592.44	9777.6
592.799	9776.69
593.158	9778.95
593.517	9744.15
593.876	9809.91
594.235	9810.59
594.593	9771.04
594.952	9810.82
595.311	9795
595.67	9796.58
596.029	9931.49
596.387	9903.92
596.746	9828.89
597.104	9845.16
597.463	9846.07
597.822	9896.01
598.18	9891.72
598.538	9848.33
598.897	9934.65
599.255	9874.09
599.613	9969.46
599.972	9860.31
600.33	9944.6
600.688	9882
601.046	9894.43
601.404	9984.82
601.762	9918.16
602.12	9993.86
602.478	9977.36
602.836	10031.83
603.194	9895.56
603.552	9971.04
603.91	9966.74
604.268	9978.49
604.625	9976.46
604.983	10061.2
605.341	10006.06
605.698	10052.84
606.056	10001.54
606.413	9962.68
606.771	10043.35
607.128	10010.13
607.485	10070.7
607.843	9994.99
608.2	10061.2
608.557	10080.41
608.914	10035.67
609.272	10086.97
609.629	10124.48
609.986	10102.79
610.343	10057.36
610.7	10187.53
611.057	10145.04
611.414	10189.56
611.771	10269.56
612.127	10203.8
612.484	10233.86
612.841	10203.12
613.198	10209
613.554	10206.29
613.911	10250.13
614.267	10239.28
614.624	10273.63
614.98	10197.25
615.337	10376.22
615.693	10200.41
616.05	10273.63
616.406	10248.09
616.762	10313.85
617.118	10321.99
617.475	10300.97
617.831	10281.54
618.187	10313.18
618.543	10344.36
618.899	10330.8
619.255	10331.71
619.611	10407.18
619.967	10344.59
620.323	10435.43
620.678	10363.12
621.034	10324.93
621.39	10370.35
621.746	10313.4
622.101	10457.13
622.457	10383
622.812	10354.08
623.168	10393.85
623.523	10407.86
623.879	10440.86
624.234	10380.07
624.589	10403.79
624.945	10370.8
625.3	10457.13
625.655	10386.85
626.01	10343.46
626.365	10362.21
626.72	10312.5
627.075	10378.03
627.43	10424.13
627.785	10308.2
628.14	10393.17
628.495	10391.37
628.85	10335.32
629.205	10300.29
629.559	10357.24
629.914	10302.78
630.269	10317.92
630.623	10305.27
630.978	10205.83
631.332	10349.11
631.687	10377.58
632.041	10300.97
632.396	10267.75
632.75	10199.51
633.104	10186.17
633.459	10222.33
633.813	10123.8
634.167	10169.68
634.521	10244.02
634.875	10185.72
635.229	10110.47
635.583	10089.45
635.937	10081.32
636.291	10072.28
636.645	10123.58
636.999	10049.23
637.352	10060.98
637.706	10030.92
638.06	10082.45
638.413	9998.83
638.767	10076.8
639.121	10044.93
639.474	9961.77
639.828	9977.82
640.181	9969.46
640.534	9969
640.888	9933.3
641.241	9941.21
641.594	9891.94
641.947	9919.06
642.301	9912.51
642.654	9888.1
643.007	9938.27
643.36	9938.72
643.713	9828.44
644.066	9893.75
644.419	9806.52
644.771	9791.38
645.124	9740.76
645.477	9762
645.83	9700.31
646.182	9652.4
646.535	9595.45
646.888	9595.23
647.24	9520.65
647.593	9576.7
647.945	9569.92
648.298	9523.82
648.65	9465.29
649.002	9446.31
649.355	9598.17
649.707	9541.22
650.059	9586.41
650.411	9678.62
650.763	9657.37
651.115	9763.81
651.467	9678.84
651.819	9689.91
652.171	9708.9
652.523	9676.58
652.875	9654.21
653.227	9640.2
653.578	9659.63
653.93	9764.49
654.282	9650.14
654.633	9686.3
654.985	9662.8
655.337	9726.98
655.688	9689.69
656.039	9680.65
656.391	9660.08
656.742	9662.8
657.094	9643.81
657.445	9711.84
657.796	9717.26
658.147	9650.82
658.498	9639.97
658.849	9684.49
659.2	9680.42
659.551	9634.55
659.902	9661.44
660.253	9652.18
660.604	9622.35
660.955	9643.14
661.306	9666.86
661.656	9652.63
662.007	9683.36
662.358	9632.29
662.708	9627.77
663.059	9658.5
663.409	9607.21
663.76	9670.03
664.11	9598.84
664.461	9695.79
664.811	9557.94
665.161	9616.7
665.511	9666.41
665.862	9613.53
666.212	9651.72
666.562	9709.35
666.912	9649.69
667.262	9630.93
667.612	9592.97
667.962	9644.27
668.312	9648.11
668.662	9663.25
669.011	9705.28
669.361	9645.4
669.711	9653.53
670.06	9615.34
670.41	9559.52
670.76	9602.91
671.109	9648.79
671.459	9596.81
671.808	9562.69
672.157	9596.58
672.507	9546.87
672.856	9500.99
673.205	9591.16
673.554	9598.84
673.904	9570.6
674.253	9515.68
674.602	9481.33
674.951	9431.62
675.3	9397.04
675.649	9547.32
675.998	9432.07
676.346	9487.89
676.695	9500.77
677.044	9390.04
677.393	9418.74
677.741	9475.91
678.09	9400.43
678.438	9343.94
678.787	9409.92
679.135	9477.04
679.484	9299.64
679.832	9427.32
680.181	9318.85
680.529	9364.5
680.877	9379.64
681.225	9351.62
681.573	9392.75
681.922	9353.43
682.27	9282.02
682.618	9292.19
682.966	9265.07
683.314	9285.18
683.661	9239.98
684.009	9166.31
684.357	9109.36
684.705	9140.55
685.053	9158.63
685.4	9188.01
685.748	9095.81
686.095	9077.5
686.443	8998.18
686.79	9037.28
687.138	9091.29
687.485	9130.83
687.832	9022.59
688.18	9009.71
688.527	8978.07
688.874	8990.72
689.221	8959.99
689.568	8877.05
689.915	8918.18
690.262	8851.97
690.609	8870.05
690.956	8789.37
691.303	8776.04
691.65	8706.44
691.997	8731.52
692.344	8680
692.69	8692.2
693.037	8641.13
693.383	8551.19
693.73	8579.89
694.077	8539.89
694.423	8547.35
694.769	8478.2
695.116	8418.08
695.462	8441.13
695.808	8427.12
696.155	8457.18
696.501	8384.19
696.847	8396.16
697.193	8315.04
697.539	8300.12
697.885	8277.3
698.231	8197.98
698.577	8195.94
698.923	8211.31
699.269	8178.77
699.614	8116.85
699.96	8122.95
700.306	8094.48
700.651	8042.73
700.997	8018.32
701.342	8059.22
701.688	8054.48
702.033	7934.93
702.379	8011.09
702.724	7942.62
703.069	7917.53
703.415	7841.6
703.76	7904.2
704.105	7836.63
704.45	7828.72
704.795	7825.56
705.14	7788.27
705.485	7765.67
705.83	7696.97
706.175	7736.52
706.52	7685.67
706.865	7652
707.209	7587.6
707.554	7576.07
707.899	7614.94
708.243	7516.19
708.588	7496.98
708.932	7529.29
709.277	7500.37
709.621	7444.1
709.966	7360.94
710.31	7422.86
710.654	7402.52
710.998	7386.47
711.342	7360.26
711.687	7395.51
712.031	7319.81
712.375	7336.76
712.719	7336.76
713.063	7279.13
713.407	7316.19
713.75	7239.36
714.094	7263.09
714.438	7251.11
714.782	7284.1
715.125	7190.55
715.469	7251.33
715.812	7224.67
716.156	7143.77
716.499	7166.59
716.843	7159.59
717.186	7124.78
717.53	7159.81
717.873	7172.47
718.216	7044.79
718.559	7080.27
718.902	7038.68
719.246	7056.31
719.589	7027.39
719.932	6949.87
720.275	6996.88
720.617	7052.02
720.96	7002.08
721.303	6979.48
721.646	6990.32
721.989	6948.07
722.331	6969.31
722.674	6971.79
723.016	6879.14
723.359	6997.56
723.701	6941.51
724.044	6953.72
724.386	6869.88
724.729	6926.82
725.071	6883.43
725.413	6870.55
725.755	6896.09
726.097	6858.12
726.439	6829.65
726.782	6779.26
727.124	6903.32
727.465	6820.84
727.807	6844.34
728.149	6820.84
728.491	6831.23
728.833	6825.36
729.175	6789.2
729.516	6813.15
729.858	6750.33
730.199	6881.17
730.541	6825.36
730.882	6807.28
731.224	6835.53
731.565	6783.1
731.906	6772.93
732.248	6833.04
732.589	6774.74
732.93	6735.42
733.271	6760.95
733.612	6732.48
733.953	6709.2
734.294	6742.2
734.635	6694.51
734.976	6765.25
735.317	6739.71
735.658	6692.03
735.999	6767.73
736.339	6731.57
736.68	6738.35
737.021	6727.05
737.361	6765.47
737.702	6773.38
738.042	6695.42
738.383	6732.03
738.723	6737
739.063	6725.92
739.404	6801.63
739.744	6724.12
740.084	6718.24
740.424	6742.87
740.764	6769.77
741.104	6845.24
741.444	6779.03
741.784	6777.45
742.124	6829.65
742.464	6768.18
742.804	6758.92
743.143	6789.65
743.483	6840.27
743.823	6741.97
744.162	6802.76
744.502	6824.23
744.841	6821.52
745.181	6871.46
745.52	6885.24
745.86	6904.23
746.199	6927.05
746.538	6912.59
746.877	6993.26
747.216	7011.12
747.556	6991.91
747.895	7033.49
748.234	7081.85
748.573	7091.79
748.911	7148.29
749.25	7221.51
749.589	7218.12
749.928	7225.57
750.267	7336.3
750.605	7373.14
750.944	7393.03
751.283	7349.64
751.621	7484.55
751.96	7458.11
752.298	7540.14
752.636	7644.54
752.975	7659.91
753.313	7724.09
753.651	7810.87
753.989	7879.34
754.327	7983.07
754.666	7964.99
755.004	8140.12
755.342	8206.79
755.679	8230.07
756.017	8254.7
756.355	8356.39
756.693	8477.52
757.031	8658.08
757.368	8594.12
757.706	8721.58
758.044	8781.24
758.381	8927.9
758.719	9066.2
759.056	9199.08
759.394	9186.2
759.731	9218.97
760.068	9410.83
760.405	9399.3
760.743	9556.36
761.08	9683.81
761.417	9728.78
761.754	9791.83
762.091	9949.12
762.428	10018.72
762.765	10137.13
763.102	10296
763.438	10338.49
763.775	10421.42
764.112	10559.5
764.449	10640.85
764.785	10794.74
765.122	10767.17
765.458	10881.75
765.795	11017.34
766.131	11067.05
766.467	11165.58
766.804	11194.51
767.14	11281.51
767.476	11389.31
767.812	11496.42
768.148	11580.03
768.485	11654.83
768.821	11621.84
769.157	11745.68
769.492	11811.21
769.828	11924.88
770.164	11915.62
770.5	11997.2
770.836	12060.02
771.171	12067.93
771.507	12081.94
771.842	12172.79
772.178	12216.63
772.513	12340.24
772.849	12291.65
773.184	12385.89
773.519	12429.73
773.855	12410.07
774.19	12511.76
774.525	12477.64
774.86	12576.39
775.195	12537.52
775.53	12608.26
775.865	12599.22
776.2	12528.26
776.535	12617.3
776.87	12648.71
777.205	12655.71
777.539	12608.93
777.874	12661.14
778.209	12622.49
778.543	12702.94
778.878	12637.18
779.212	12690.97
779.547	12638.31
779.881	12763.28
780.215	12716.95
780.55	12718.08
780.884	12676.28
781.218	12739.1
781.552	12784.52
781.886	12718.76
782.22	12690.29
782.554	12634.7
782.888	12564.19
783.222	12615.04
783.556	12590.18
783.889	12529.39
784.223	12419.33
784.557	12561.48
784.89	12575.71
785.224	12461.37
785.557	12530.52
785.891	12516.73
786.224	12437.19
786.558	12537.75
786.891	12418.66
787.224	12420.46
787.557	12319.9
787.891	12405.32
788.224	12369.17
788.557	12410.07
788.89	12402.84
789.223	12366.23
789.556	12236.97
789.888	12305.89
790.221	12279.45
790.554	12202.84
790.887	12269.28
791.219	12183.18
791.552	12181.37
791.884	12114.26
792.217	12135.5
792.549	12134.82
792.882	12049.63
793.214	12025.22
793.546	12060.02
793.879	11987.03
794.211	11896.18
794.543	12028.16
794.875	11920.14
795.207	12023.41
795.539	11839.91
795.871	11905.45
796.203	11846.24
796.535	11812.8
796.867	11670.65
797.198	11704.78
797.53	11713.59
797.862	11626.59
798.193	11631.78
798.525	11592.92
798.856	11644.67
799.188	11529.19
799.519	11481.51
799.85	11373.71
800.182	11434.28
800.513	11458.23
800.844	11378.91
801.175	11406.93
801.506	11416.87
801.837	11377.55
802.168	11319.93
802.499	11244.68
802.83	11172.81
803.161	11214.39
803.491	11203.32
803.822	11179.82
804.153	11199.03
804.483	11025.25
804.814	11022.76
805.145	11024.57
805.475	11111.8
805.805	10963.78
806.136	11022.08
806.466	10999.48
806.796	11035.87
807.126	10918.36
807.457	10905.93
807.787	10875.42
808.117	10886.27
808.447	10810.79
808.777	10761.52
809.107	10818.25
809.436	10741.64
809.766	10778.02
810.096	10757.23
810.426	10703.22
810.755	10688.31
811.085	10685.59
811.414	10713.84
811.744	10570.57
812.073	10546.39
812.403	10537.58
812.732	10504.81
813.061	10597.01
813.39	10476.33
813.719	10459.16
814.049	10497.58
814.378	10452.38
814.707	10433.17
815.036	10363.12
815.365	10417.35
815.693	10292.84
816.022	10250.13
816.351	10310.46
816.68	10233.4
817.008	10298.71
817.337	10256.91
817.665	10256.91
817.994	10164.48
818.322	10222.78
818.651	10136.91
818.979	10109.79
819.307	10173.74
819.636	10205.83
819.964	10072.28
820.292	10064.82
820.62	10097.59
820.948	10023.69
821.276	10055.78
821.604	10028.21
821.932	10025.27
822.259	10064.59
822.587	10041.54
822.915	10042.45
823.243	10033.63
823.57	9966.52
823.898	10072.28
824.225	10043.8
824.553	10042.45
824.88	10062.11
825.207	9991.15
825.535	10025.73
825.862	10014.88
826.189	10020.53
826.516	10083.12
826.843	10074.09
827.17	10057.14
827.497	10027.31
827.824	10023.01
828.151	9991.83
828.478	9983.01
828.805	10083.58
829.131	10010.81
829.458	9978.72
829.785	9998.16
830.111	9967.65
830.438	10073.18
830.764	10053.52
831.09	10070.7
831.417	9983.69
831.743	10003.35
832.069	9999.51
832.395	9947.54
832.722	10016.91
833.048	10006.74
833.374	9958.16
833.7	9945.95
834.026	9934.2
834.351	9965.39
834.677	9953.86
835.003	9967.65
835.329	9982.34
835.654	9942.34
835.98	9921.55
836.306	9867.31
836.631	9827.76
836.956	9928.78
837.282	9932.62
837.607	9846.07
837.932	9857.59
838.258	9879.97
838.583	9820.76
838.908	9769.23
839.233	9794.77
839.558	9785.05
839.883	9686.52
840.208	9753.87
840.533	9781.66
840.858	9774.21
841.182	9642.46
841.507	9631.84
841.832	9662.8
842.156	9596.58
842.481	9625.28
842.805	9557.04
843.13	9568.11
843.454	9557.94
843.778	9548
844.103	9498.51
844.427	9498.28
844.751	9494.67
845.075	9488.79
845.399	9386.19
845.723	9338.06
846.047	9378.96
846.371	9241.56
846.695	9205.18
847.019	9205.63
847.343	9149.36
847.666	9123.15
847.99	9141
848.313	9115.92
848.637	9107.33
848.96	9040.44
849.284	8952.31
849.607	8932.42
849.931	8969.71
850.254	8952.08
850.577	8823.27
850.9	8817.4
851.223	8764.06
851.546	8723.84
851.869	8690.39
852.192	8699.66
852.515	8661.02
852.838	8650.85
853.161	8644.74
853.483	8507.8
853.806	8535.37
854.129	8496.73
854.451	8508.7
854.774	8465.09
855.096	8477.07
855.419	8387.58
855.741	8375.82
856.063	8347.58
856.385	8306.22
856.708	8423.28
857.03	8267.13
857.352	8289.27
857.674	8294.25
857.996	8212.21
858.318	8200.01
858.64	8194.13
858.961	8195.94
859.283	8149.62
859.605	8093.35
859.926	8095.83
860.248	8099.45
860.57	8021.03
860.891	8092.67
861.212	7972.45
861.534	8017.42
861.855	7944.42
862.176	8023.97
862.498	7971.32
862.819	7971.54
863.14	7922.73
863.461	7851.54
863.782	7885.89
864.103	7876.4
864.424	7877.53
864.745	7859.91
865.065	7800.25
865.386	7811.55
865.707	7806.12
866.027	7808.16
866.348	7764.54
866.668	7753.02
866.989	7701.72
867.309	7681.15
867.63	7717.76
867.95	7659.01
868.27	7691.55
868.59	7694.26
868.91	7683.87
869.23	7642.74
869.55	7589.4
869.87	7673.02
870.19	7618.78
870.51	7613.36
870.83	7652
871.15	7582.4
871.469	7571.1
871.789	7568.84
872.109	7561.16
872.428	7532.01
872.748	7607.03
873.067	7571.55
873.386	7507.15
873.706	7516.86
874.025	7473.02
874.344	7436.87
874.663	7458.33
874.982	7402.52
875.301	7458.79
875.62	7380.14
875.939	7392.8
876.258	7408.17
876.577	7348.51
876.896	7363.87
877.214	7362.52
877.533	7343.54
877.852	7366.36
878.17	7368.17
878.489	7351.45
878.807	7274.84
879.125	7332.69
879.444	7280.49
879.762	7292.24
880.08	7235.52
880.398	7251.79
880.716	7240.26
881.034	7239.13
881.352	7175.63
881.67	7164.33
881.988	7224.22
882.306	7169.3
882.624	7155.07
882.941	7122.3
883.259	7116.65
883.577	7068.74
883.894	7096.31
884.212	7032.58
884.529	7013.15
884.846	7031.91
885.164	6984.9
885.481	6952.36
885.798	6976.31
886.115	6954.17
886.432	6996.43
886.75	6988.52
887.067	6974.73
887.383	6843.44
887.7	6901.97
888.017	6867.16
888.334	6865.13
888.651	6845.47
888.967	6852.25
889.284	6795.3
889.6	6826.26
889.917	6759.82
890.233	6775.64
890.55	6688.19
890.866	6744
891.182	6677.79
891.498	6648.41
891.815	6652.71
892.131	6659.49
892.447	6635.08
892.763	6607.28
893.079	6587.85
893.395	6564.12
893.71	6573.39
894.026	6526.16
894.342	6526.16
894.657	6460.62
894.973	6488.42
895.289	6459.94
895.604	6452.26
895.92	6401.19
896.235	6315.09
896.55	6402.77
896.865	6343.11
897.181	6357.57
897.496	6352.15
897.811	6290.46
898.126	6282.09
898.441	6261.08
898.756	6200.97
899.071	6202.1
899.386	6227.86
899.7	6129.33
900.015	6151.02
900.33	6086.17
900.644	6122.78
900.959	6049.78
901.273	6078.03
901.588	5998.71
901.902	5951.71
902.216	5981.54
902.531	5943.12
902.845	5901.31
903.159	5863.12
903.473	5859.96
903.787	5861.77
904.101	5797.36
904.415	5834.42
904.729	5781.32
905.042	5801.43
905.356	5754.65
905.67	5749.91
905.984	5702
906.297	5716.23
906.611	5696.8
906.924	5611.15
907.237	5623.13
907.551	5565.73
907.864	5606.18
908.177	5568.67
908.491	5580.19
908.804	5477.82
909.117	5505.17
909.43	5427.2
909.743	5485.73
910.056	5436.69
910.368	5416.81
910.681	5379.52
910.994	5373.19
911.307	5348.33
911.619	5345.85
911.932	5343.14
912.244	5340.65
912.557	5256.58
912.869	5258.62
913.181	5229.69
913.494	5225.4
913.806	5274.89
914.118	5174.55
914.43	5142.92
914.742	5143.82
915.054	5085.29
915.366	5085.06
915.678	5082.35
915.99	5018.85
916.302	5021.56
916.613	4970.49
916.925	5003.48
917.236	4986.99
917.548	4935.92
917.859	4979.08
918.171	4916.25
918.482	4917.61
918.794	4879.19
919.105	4901.57
919.416	4838.52
919.727	4840.1
920.038	4787.9
920.349	4788.12
920.66	4759.65
920.971	4781.34
921.282	4767.11
921.593	4672.42
921.903	4717.84
922.214	4682.36
922.525	4640.33
922.835	4648.01
923.146	4598.07
923.456	4605.75
923.767	4602.36
924.077	4576.38
924.387	4574.12
924.697	4554
925.008	4519.88
925.318	4500.45
925.628	4436.04
925.938	4432.2
926.248	4427.91
926.558	4436.72
926.867	4404.18
927.177	4391.07
927.487	4351.52
927.796	4351.75
928.106	4356.72
928.416	4273.33
928.725	4290.28
929.034	4294.35
929.344	4297.29
929.653	4225.65
929.962	4240.57
930.271	4202.15
930.581	4202.83
930.89	4169.83
931.199	4164.86
931.508	4072.66
931.817	4109.27
932.125	4127.8
932.434	4117.41
932.743	4063.17
933.051	4070.63
933.36	4066.11
933.669	4020.23
933.977	4024.53
934.286	4024.53
934.594	3998.54
934.902	3965.55
935.21	3967.35
935.519	3959.22
935.827	3919.9
936.135	3927.13
936.443	3883.74
936.751	3864.76
937.059	3877.19
937.367	3853.68
937.674	3847.81
937.982	3805.78
938.29	3815.94
938.597	3777.08
938.905	3755.83
939.213	3782.5
939.52	3738.21
939.827	3725.78
940.135	3698.21
940.442	3687.13
940.749	3708.83
941.056	3684.87
941.363	3632.45
941.67	3638.55
941.977	3620.47
942.284	3596.74
942.591	3556.52
942.898	3599.91
943.205	3570.08
943.511	3525.78
943.818	3550.42
944.125	3514.26
944.431	3483.52
944.738	3528.04
945.044	3481.26
945.35	3480.81
945.657	3448.72
945.963	3426.35
946.269	3376.18
946.575	3403.98
946.881	3386.35
947.187	3376.63
947.493	3348.39
947.799	3360.59
948.105	3312
948.41	3254.83
948.716	3337.54
949.022	3290.31
949.327	3265.22
949.633	3266.58
949.938	3272.68
950.244	3250.99
950.549	3220.48
950.854	3184.32
951.16	3168.5
951.465	3196.07
951.77	3165.57
952.075	3149.75
952.38	3142.29
952.685	3133.25
952.99	3085.34
953.294	3073.82
953.599	3107.94
953.904	3071.56
954.209	3041.73
954.513	3050.32
954.818	3008.28
955.122	3015.06
955.426	2996.08
955.731	3009.19
956.035	2984.78
956.339	2939.13
956.643	2933.71
956.948	2963.76
957.252	2933.71
957.556	2935.74
957.86	2903.65
958.163	2937.78
958.467	2877.44
958.771	2905.46
959.075	2905.69
959.378	2850.32
959.682	2817.33
959.985	2817.33
960.289	2810.77
960.592	2844.9
960.896	2809.87
961.199	2784.33
961.502	2728.06
961.805	2762.41
962.108	2734.39
962.411	2750.21
962.714	2741.62
963.017	2714.05
963.32	2735.3
963.623	2702.98
963.926	2719.02
964.228	2698.01
964.531	2696.43
964.833	2658.01
965.136	2654.39
965.438	2639.03
965.741	2644.9
966.043	2607.39
966.345	2609.2
966.648	2594.51
966.95	2589.08
967.252	2555.41
967.554	2546.15
967.856	2519.48
968.158	2548.86
968.46	2542.31
968.761	2505.47
969.063	2464.12
969.365	2466.83
969.666	2481.29
969.968	2478.13
970.269	2448.98
970.571	2434.29
970.872	2448.52
971.174	2423.67
971.475	2400.84
971.776	2390.22
972.077	2364.23
972.378	2411.24
972.679	2391.35
972.98	2356.1
973.281	2351.35
973.582	2344.57
973.883	2336.66
974.183	2352.93
974.484	2319.94
974.785	2323.33
975.085	2315.65
975.386	2303.22
975.686	2277.23
975.986	2259.83
976.287	2312.03
976.587	2249.88
976.887	2252.82
977.187	2270.67
977.487	2207.63
977.787	2207.4
978.087	2218.7
978.387	2205.59
978.687	2194.07
978.987	2195.65
979.286	2195.42
979.586	2141.41
979.885	2178.7
980.185	2130.34
980.484	2126.5
980.784	2126.72
981.083	2125.37
981.382	2096.44
981.682	2132.6
981.981	2102.54
982.28	2095.31
982.579	2096.44
982.878	2072.94
983.177	2061.19
983.475	2048.99
983.774	2025.94
984.073	2021.42
984.372	2029.55
984.67	2022.09
984.969	1997.46
985.267	2009.66
985.566	2004.02
985.864	1980.74
986.162	2000.17
986.461	1973.96
986.759	1959.27
987.057	1913.17
987.355	1937.58
987.653	1905.49
987.951	1890.8
988.249	1923.11
988.547	1907.97
988.844	1911.59
989.142	1909.1
989.44	1861.42
989.737	1861.87
990.035	1882.44
990.332	1876.11
990.63	1824.13
990.927	1831.36
991.224	1819.39
991.521	1834.98
991.819	1791.59
992.116	1819.16
992.413	1804.7
992.71	1792.95
993.006	1774.19
993.303	1756.56
993.6	1757.47
993.897	1774.19
994.193	1769.45
994.49	1758.37
994.787	1750.91
995.083	1705.04
995.379	1731.03
995.676	1744.13
995.972	1725.15
996.268	1734.64
996.565	1698.03
996.861	1705.04
997.157	1675.66
997.453	1646.06
997.749	1648.09
998.044	1641.99
998.34	1666.85
998.636	1648.54
998.932	1633.86
999.227	1616.68
999.523	1651.71
999.818	1605.16
1000.114	1603.35
1000.409	1623.91
1000.704	1565.38
1001	1572.39
1001.295	1543.24
1001.59	1564.03
1001.885	1545.5
1002.18	1527.19
1002.475	1498.04
1002.77	1540.3
1003.065	1520.86
1003.359	1512.95
1003.654	1517.02
1003.949	1495.55
1004.243	1477.93
1004.538	1481.77
1004.832	1456.23
1005.127	1459.4
1005.421	1454.88
1005.715	1451.26
1006.009	1440.41
1006.304	1445.61
1006.598	1375.11
1006.892	1412.17
1007.186	1415.56
1007.48	1406.74
1007.773	1371.49
1008.067	1399.29
1008.361	1381.43
1008.655	1363.35
1008.948	1364.48
1009.242	1351.15
1009.535	1352.28
1009.829	1330.13
1010.122	1330.81
1010.415	1297.59
1010.708	1352.05
1011.001	1317.03
1011.295	1316.58
1011.588	1310.7
1011.881	1280.19
1012.173	1312.06
1012.466	1293.98
1012.759	1255.79
1013.052	1277.93
1013.344	1257.14
1013.637	1262.11
1013.93	1223.02
1014.222	1233.41
1014.514	1216.69
1014.807	1210.36
1015.099	1218.05
1015.391	1218.5
1015.683	1216.24
1015.976	1211.95
1016.268	1193.64
1016.56	1176.92
1016.851	1176.47
1017.143	1167.65
1017.435	1173.08
1017.727	1164.72
1018.018	1147.77
1018.31	1167.2
1018.602	1147.09
1018.893	1130.82
1019.185	1118.61
1019.476	1099.41
1019.767	1097.6
1020.058	1107.32
1020.35	1109.8
1020.641	1078.16
1020.932	1102.57
1021.223	1094.66
1021.514	1090.14
1021.804	1082.46
1022.095	1043.59
1022.386	1073.19
1022.677	1040.88
1022.967	1046.75
1023.258	1035.68
1023.548	1020.76
1023.839	1011.27
1024.129	1033.19
1024.419	1013.76
1024.709	1008.34
1025	993.42
1025.29	987.77
1025.58	1003.59
1025.87	979.64
1026.16	998.62
1026.449	988
1026.739	968.11
1027.029	959.07
1027.319	961.56
1027.608	951.61
1027.898	931.73
1028.187	921.33
1028.477	924.27
1028.766	918.17
1029.055	928.34
1029.344	912.52
1029.634	882.24
1029.923	922.69
1030.212	879.75
1030.501	899.19
1030.79	891.05
1031.078	880.65
1031.367	914.78
1031.656	870.71
1031.945	848.11
1032.233	863.48
1032.522	853.31
1032.81	869.36
1033.099	873.88
1033.387	832.29
1033.675	863.48
1033.963	804.72
1034.251	824.16
1034.54	856.02
1034.828	816.48
1035.116	801.33
1035.403	806.08
1035.691	809.47
1035.979	821.9
1036.267	806.53
1036.554	807.44
1036.842	784.84
1037.129	789.58
1037.417	774.22
1037.704	778.51
1037.992	767.89
1038.279	759.75
1038.566	752.3
1038.853	752.3
1039.14	752.3
