Data from hue_250_FLMS001491_00056.txt Node
Date: Tue Feb 07 16:01:10 GMT 2017
User: dcchb
Spectrometer: FLMS00149
Trigger mode: 0
Integration Time (sec): 2.000000E-2
Scans to average: 10
Electric dark correction enabled: true
Nonlinearity correction enabled: false
Boxcar width: 0
XAxis mode: Wavelengths
Number of Pixels in Spectrum: 2048
>>>>>Begin Spectral Data<<<<<
341.393	8.46
341.776	8.46
342.16	8.46
342.543	-55.49
342.927	-67.47
343.31	-69.96
343.693	-73.12
344.077	-57.75
344.46	-43.29
344.843	-50.75
345.226	-46.68
345.61	-25.66
345.993	-35.83
346.376	-3.97
346.759	8.69
347.142	26.99
347.525	41
347.908	62.7
348.291	76.48
348.674	85.29
349.057	105.86
349.44	120.55
349.823	152.86
350.206	166.65
350.588	179.98
350.971	208
351.354	208.68
351.737	241
352.119	245.74
352.502	233.77
352.884	263.37
353.267	290.71
353.65	269.92
354.032	285.06
354.414	299.07
354.797	306.53
355.179	311.28
355.562	318.51
355.944	338.62
356.326	323.25
356.709	335.91
357.091	332.97
357.473	346.3
357.855	320.09
358.238	347.21
358.62	343.14
359.002	333.2
359.384	332.97
359.766	326.19
360.148	312.18
360.53	325.06
360.912	308.34
361.294	343.14
361.676	320.09
362.057	337.49
362.439	313.08
362.821	330.94
363.203	308.57
363.584	316.25
363.966	312.63
364.348	314.44
364.729	341.33
365.111	323.25
365.493	312.86
365.874	332.52
366.256	309.47
366.637	300.66
367.019	318.51
367.4	310.83
367.781	312.41
368.163	306.08
368.544	297.94
368.925	315.57
369.306	323.25
369.688	297.94
370.069	304.05
370.45	321.45
370.831	283.93
371.212	294.1
371.593	309.02
371.974	294.55
372.355	284.84
372.736	298.17
373.117	288.45
373.498	318.28
373.879	324.16
374.26	330.49
374.641	316.47
375.021	313.08
375.402	312.63
375.783	330.71
376.163	318.96
376.544	326.42
376.925	326.87
377.305	330.71
377.686	305.85
378.066	326.64
378.447	321.45
378.827	311.73
379.208	321.22
379.588	331.16
379.968	310.6
380.349	324.61
380.729	328.68
381.109	339.3
381.489	317.83
381.87	327.1
382.25	330.94
382.63	332.97
383.01	344.72
383.39	339.52
383.77	318.28
384.15	338.62
384.53	354.21
384.91	339.98
385.29	327.77
385.67	348.34
386.049	357.6
386.429	349.02
386.809	355.8
387.189	338.4
387.568	331.62
387.948	351.73
388.328	345.85
388.707	362.12
389.087	346.76
389.466	349.92
389.846	373.65
390.225	359.41
390.605	343.59
390.984	363.48
391.363	373.2
391.743	355.12
392.122	366.64
392.501	371.61
392.881	380.2
393.26	350.6
393.639	381.78
394.018	396.25
394.397	431.95
394.776	389.02
395.155	374.78
395.534	405.06
395.913	388.79
396.292	388.56
396.671	410.03
397.05	389.24
397.429	406.64
397.808	392.63
398.186	414.1
398.565	410.26
398.944	390.37
399.323	412.29
399.701	400.54
400.08	406.42
400.458	402.57
400.837	427.21
401.215	433.08
401.594	426.75
401.972	421.78
402.351	431.73
402.729	412.52
403.107	440.09
403.486	447.54
403.864	446.19
404.242	452.06
404.62	444.38
404.999	441.44
405.377	460.88
405.755	456.36
406.133	462.46
406.511	467.21
406.889	455
407.267	483.93
407.645	483.48
408.023	486.41
408.401	470.14
408.779	480.09
409.156	492.52
409.534	499.29
409.912	504.94
410.29	514.21
410.667	509.69
411.045	511.27
411.422	535.68
411.8	538.62
412.178	534.32
412.555	549.69
412.933	556.69
413.31	542.91
413.687	562.34
414.065	577.71
414.442	565.06
414.819	583.36
415.197	594.66
415.574	587.65
415.951	618.61
416.328	598.95
416.705	611.16
417.082	618.84
417.46	629.69
417.837	626.52
418.214	627.65
418.591	657.93
418.967	653.87
419.344	657.48
419.721	666.3
420.098	670.59
420.475	680.98
420.852	706.75
421.228	710.36
421.605	711.27
421.982	710.81
422.358	755.33
422.735	743.36
423.111	756.69
423.488	743.13
423.864	755.56
424.241	776.35
424.617	791.94
424.994	790.81
425.37	808.67
425.746	827.87
426.123	813.86
426.499	825.39
426.875	830.81
427.251	871.04
427.627	862.68
428.003	883.69
428.379	881.66
428.756	912.84
429.132	884.6
429.507	906.06
429.883	921.43
430.259	947.64
430.635	921.66
431.011	940.87
431.387	972.28
431.763	981.54
432.138	994.65
432.514	976.34
432.89	1022.22
433.265	1034.42
433.641	1034.65
434.016	1043.24
434.392	1083.69
434.767	1103.57
435.143	1088.43
435.518	1146.74
435.894	1140.41
436.269	1132.05
436.644	1158.03
437.02	1164.14
437.395	1181.31
437.77	1185.38
438.145	1237.81
438.52	1257.47
438.895	1255.21
439.271	1268.99
439.646	1289.56
440.021	1318.48
440.395	1316.45
440.77	1320.52
441.145	1351.7
441.52	1361.64
441.895	1375.2
442.27	1388.08
442.645	1400.97
443.019	1439.61
443.394	1391.93
443.769	1443.68
444.143	1431.47
444.518	1444.58
444.892	1471.47
445.267	1459.5
445.641	1480.06
446.016	1495.65
446.39	1499.04
446.764	1500.62
447.139	1538.59
447.513	1499.04
447.887	1546.05
448.262	1540.62
448.636	1552.83
449.01	1584.69
449.384	1609.55
449.758	1604.35
450.132	1612.03
450.506	1618.59
450.88	1627.4
451.254	1626.27
451.628	1659.72
452.002	1684.57
452.376	1706.49
452.75	1722.99
453.123	1698.59
453.497	1757.11
453.871	1750.11
454.244	1826.49
454.618	1770.45
454.992	1810.67
455.365	1808.19
455.739	1859.71
456.112	1871.69
456.486	1913.72
456.859	1885.47
457.232	1945.36
457.606	1976.09
457.979	1942.42
458.352	2016.77
458.725	2009.31
459.099	2021.51
459.472	2058.35
459.845	2020.16
460.218	2109.42
460.591	2113.04
460.964	2111.91
461.337	2162.53
461.71	2184.22
462.083	2190.55
462.456	2246.14
462.829	2202.98
463.201	2295.86
463.574	2273.49
463.947	2291.56
464.32	2314.39
464.692	2333.6
465.065	2384.44
465.438	2407.95
465.81	2397.55
466.183	2463.08
466.555	2515.96
466.928	2531.56
467.3	2513.25
467.672	2570.65
468.045	2577.88
468.417	2613.36
468.789	2641.61
469.161	2648.39
469.534	2713.25
469.906	2746.69
470.278	2777.65
470.65	2795.28
471.022	2844.32
471.394	2899.23
471.766	2914.37
472.138	2932.23
472.51	3002.28
472.882	3046.12
473.253	3060.36
473.625	3117.08
473.997	3177.42
474.369	3183.97
474.74	3225.55
475.112	3233.91
475.484	3296.96
475.855	3352.1
476.227	3379.45
476.598	3467.58
476.97	3480.91
477.341	3549.16
477.713	3593.9
478.084	3593.68
478.455	3739.44
478.827	3736.05
479.198	3795.48
479.569	3825.31
479.94	3909.15
480.311	3986.43
480.682	4008.81
481.053	4092.65
481.424	4205.64
481.795	4214.45
482.166	4247.67
482.537	4310.49
482.908	4370.83
483.279	4426.88
483.65	4471.62
484.021	4594.55
484.391	4615.34
484.762	4627.77
485.133	4680.43
485.503	4736.7
485.874	4826.64
486.244	4846.98
486.615	4939.86
486.985	5013.3
487.356	5034.09
487.726	5044.71
488.097	5177.59
488.467	5201.77
488.837	5277.02
489.207	5350.69
489.578	5398.15
489.948	5399.05
490.318	5533.29
490.688	5494.42
491.058	5614.19
491.428	5633.4
491.798	5745.94
492.168	5811.25
492.538	5807.63
492.908	5852.15
493.278	5990.22
493.648	5924.91
494.017	6037.68
494.387	6080.39
494.757	6111.58
495.126	6151.12
495.496	6153.84
495.866	6190.9
496.235	6258.47
496.605	6328.75
496.974	6349.99
497.344	6364.9
497.713	6427.95
498.082	6462.08
498.452	6534.84
498.821	6533.94
499.19	6529.87
499.559	6548.18
499.928	6569.42
500.298	6660.94
500.667	6710.43
501.036	6656.87
501.405	6767.15
501.774	6744.78
502.143	6776.87
502.512	6749.75
502.88	6853.03
503.249	6865.23
503.618	6863.65
503.987	6934.61
504.356	6938.22
504.724	7001.72
505.093	6979.58
505.462	6934.61
505.83	7048.05
506.199	7126.01
506.567	7193.81
506.936	7131.66
507.304	7189.74
507.672	7180.48
508.041	7245.11
508.409	7363.3
508.777	7314.03
509.145	7389.28
509.514	7387.25
509.882	7414.82
510.25	7395.16
510.618	7415.5
510.986	7393.35
511.354	7462.05
511.722	7556.28
512.09	7568.71
512.458	7576.4
512.826	7657.3
513.193	7613.46
513.561	7610.97
513.929	7694.36
514.297	7728.48
514.664	7750.86
515.032	7714.92
515.4	7836.05
515.767	7841.25
516.135	7833.79
516.502	7725.32
516.869	7868.82
517.237	7836.05
517.604	7884.86
517.972	7929.61
518.339	7958.53
518.706	7914.47
519.073	7936.16
519.44	7988.82
519.808	7977.29
520.175	7982.04
520.542	8090.51
520.909	8013
521.276	8043.5
521.643	8040.57
522.009	8107.23
522.376	8100.22
522.743	8168.47
523.11	8245.31
523.477	8283.95
523.843	8203.95
524.21	8343.61
524.577	8381.57
524.943	8340.44
525.31	8398.3
525.676	8413.66
526.043	8437.84
526.409	8449.82
526.776	8538.18
527.142	8465.86
527.508	8560.55
527.874	8579.53
528.241	8640.78
528.607	8565.98
528.973	8638.29
529.339	8597.16
529.705	8675.13
530.071	8637.61
530.437	8600.1
530.803	8725.07
531.169	8736.14
531.535	8620.89
531.901	8702.69
532.267	8779.53
532.632	8757.61
532.998	8714.22
533.364	8770.72
533.73	8765.29
534.095	8762.81
534.461	8829.47
534.826	8859.98
535.192	8803.26
535.557	8815.46
535.923	8795.8
536.288	8811.39
536.653	8817.27
537.019	8727.78
537.384	8776.37
537.749	8811.62
538.114	8728.91
538.479	8755.57
538.845	8799.87
539.21	8771.17
539.575	8800.09
539.94	8763.71
540.305	8894.55
540.67	8812.97
541.034	8822.47
541.399	8801.68
541.764	8864.27
542.129	8832.86
542.494	8796.03
542.858	8761
543.223	8789.47
543.587	8806.87
543.952	8754.9
544.316	8807.32
544.681	8820.88
545.045	8764.61
545.41	8826.53
545.774	8793.54
546.138	8781.79
546.503	8818.62
546.867	8749.47
547.231	8835.57
547.595	8809.36
547.959	8778.85
548.324	8704.73
548.688	8860.43
549.052	8746.76
549.416	8781.79
549.779	8708.12
550.143	8687.55
550.507	8789.47
550.871	8843.71
551.235	8732.3
551.599	8790.6
551.962	8778.17
552.326	8816.14
552.689	8849.81
553.053	8717.61
553.417	8756.48
553.78	8848.68
554.143	8806.42
554.507	8780.88
554.87	8775.46
555.234	8771.62
555.597	8815.23
555.96	8758.51
556.323	8820.66
556.686	8803.71
557.05	8845.29
557.413	8850.94
557.776	8878.74
558.139	8905.4
558.502	8940.2
558.865	8871.96
559.228	8962.8
559.59	8962.12
559.953	8956.93
560.316	8969.81
560.679	9008
561.041	8973.65
561.404	9017.94
561.767	9090.03
562.129	9016.81
562.492	9127.32
562.854	9058.62
563.217	9082.57
563.579	9177.03
563.941	9125.73
564.304	9118.5
564.666	9258.16
565.028	9170.25
565.39	9181.1
565.753	9249.8
566.115	9225.84
566.477	9354.43
566.839	9358.27
567.201	9403.92
567.563	9321.44
567.925	9402.56
568.287	9448.89
568.648	9370.7
569.01	9390.81
569.372	9509.91
569.734	9461.09
570.095	9551.03
570.457	9558.04
570.819	9563.24
571.18	9535.67
571.542	9611.37
571.903	9677.58
572.265	9662.22
572.626	9662.67
572.987	9701.99
573.349	9740.41
573.71	9730.92
574.071	9728.43
574.432	9836.22
574.794	9837.81
575.155	9850.46
575.516	9850.91
575.877	9854.08
576.238	9925.26
576.599	9960.74
576.96	9948.54
577.32	9972.04
577.681	10024.92
578.042	10032.83
578.403	10011.59
578.763	10005.94
579.124	10047.97
579.485	10073.73
579.845	10051.13
580.206	10114.86
580.566	10139.04
580.927	10205.71
581.287	10227.85
581.648	10210.23
582.008	10259.72
582.368	10228.3
582.728	10167.06
583.089	10234.18
583.449	10262.88
583.809	10215.2
584.169	10310.34
584.529	10281.64
584.889	10343.56
585.249	10322.99
585.609	10291.13
585.969	10414.29
586.329	10341.07
586.688	10411.8
587.048	10386.27
587.408	10320.73
587.768	10421.29
588.127	10410.9
588.487	10388.98
588.846	10455.19
589.206	10408.19
589.565	10438.69
589.925	10490.67
590.284	10500.39
590.643	10558.01
591.003	10554.85
591.362	10557.11
591.721	10567.5
592.08	10568.41
592.44	10647.05
592.799	10557.79
593.158	10552.82
593.517	10593.49
593.876	10610.89
594.235	10598.92
594.593	10650.44
594.952	10695.18
595.311	10548.3
595.67	10657.67
596.029	10691.34
596.387	10672.59
596.746	10669.42
597.104	10752.13
597.463	10675.75
597.822	10691.8
598.18	10620.16
598.538	10661.74
598.897	10681.63
599.255	10706.71
599.613	10821.28
599.972	10703.77
600.33	10727.27
600.688	10694.96
601.046	10745.13
601.404	10748.29
601.762	10736.54
602.12	10827.16
602.478	10761.17
602.836	10849.53
603.194	10814.96
603.552	10839.36
603.91	10768.18
604.268	10814.96
604.625	10810.89
604.983	10881.62
605.341	10753.94
605.698	10925.01
606.056	10918.46
606.413	10831.23
606.771	10885.24
607.128	10958.91
607.485	10847.95
607.843	10870.1
608.2	10908.74
608.557	10941.73
608.914	10903.32
609.272	10994.61
609.629	11014.27
609.986	11030.77
610.343	10992.8
610.7	11060.37
611.057	10994.84
611.414	11050.88
611.771	10967.27
612.127	11053.14
612.484	11061.28
612.841	11079.36
613.198	11069.41
613.554	11038.45
613.911	11047.94
614.267	11141.73
614.624	11092.01
614.98	11054.27
615.337	11183.31
615.693	11133.82
616.05	11141.27
616.406	11150.09
616.762	11098.56
617.118	11150.77
617.475	11113.48
617.831	11185.12
618.187	11151.22
618.543	11223.08
618.899	11294.72
619.255	11299.69
619.611	11184.66
619.967	11244.32
620.323	11269.18
620.678	11234.83
621.034	11204.55
621.39	11216.53
621.746	11160.94
622.101	11395.28
622.457	11283.87
622.812	11205.45
623.168	11241.61
623.523	11341.27
623.879	11319.12
624.234	11164.1
624.589	11257.88
624.945	11173.82
625.3	11339.69
625.655	11270.76
626.01	11313.93
626.365	11324.09
626.72	11198.45
627.075	11207.94
627.43	11319.35
627.785	11214.72
628.14	11150.09
628.495	11210.88
628.85	11176.08
629.205	11201.16
629.559	11325.45
629.914	11156.64
630.269	11184.21
630.623	11162.29
630.978	11129.98
631.332	11173.82
631.687	11199.8
632.041	11052.92
632.396	11123.42
632.75	11045.23
633.104	11021.73
633.459	11097.66
633.813	11020.15
634.167	11028.51
634.521	11060.37
634.875	11086.36
635.229	11020.83
635.583	10996.19
635.937	10972.69
636.291	10986.7
636.645	11017.66
636.999	10940.15
637.352	10939.92
637.706	10880.94
638.06	10913.71
638.413	10895.41
638.767	10894.95
639.121	10853.37
639.474	10788.74
639.828	10826.03
640.181	10840.94
640.534	10844.33
640.888	10833.94
641.241	10774.73
641.594	10763.66
641.947	10857.89
642.301	10776.76
642.654	10838.23
643.007	10757.1
643.36	10698.35
643.713	10717.56
644.066	10752.81
644.419	10698.12
644.771	10661.74
645.124	10522.31
645.477	10471.24
645.83	10476.21
646.182	10384.46
646.535	10389.2
646.888	10375.42
647.24	10298.36
647.593	10383.55
647.945	10359.15
648.298	10344.46
648.65	10367.28
649.002	10321.18
649.355	10351.47
649.707	10411.8
650.059	10407.96
650.411	10521.18
650.763	10495.87
651.115	10598.24
651.467	10491.8
651.819	10558.47
652.171	10542.19
652.523	10533.16
652.875	10500.84
653.227	10503.55
653.578	10587.39
653.93	10592.59
654.282	10454.51
654.633	10447.51
654.985	10494.29
655.337	10581.06
655.688	10497.68
656.039	10536.09
656.391	10509.43
656.742	10492.25
657.094	10480.28
657.445	10544
657.796	10546.04
658.147	10465.36
658.498	10414.97
658.849	10557.34
659.2	10480.05
659.551	10488.86
659.902	10586.71
660.253	10515.98
660.604	10494.29
660.955	10497.45
661.306	10537
661.656	10464.23
662.007	10429.2
662.358	10540.39
662.708	10527.73
663.059	10501.29
663.409	10443.44
663.76	10515.98
664.11	10511.46
664.461	10523.44
664.811	10465.81
665.161	10542.65
665.511	10467.39
665.862	10568.63
666.212	10472.59
666.562	10595.75
666.912	10546.26
667.262	10431.46
667.612	10494.96
667.962	10464.91
668.312	10466.94
668.662	10572.02
669.011	10470.78
669.361	10523.66
669.711	10467.85
670.06	10433.27
670.41	10456.32
670.76	10445.02
671.109	10494.29
671.459	10436.66
671.808	10410.67
672.157	10518.92
672.507	10406.38
672.856	10411.35
673.205	10442.99
673.554	10467.62
673.904	10316.44
674.253	10446.15
674.602	10394.85
674.951	10253.61
675.3	10179.94
675.649	10409.09
675.998	10313.5
676.346	10353.72
676.695	10381.07
677.044	10283.22
677.393	10378.13
677.741	10332.26
678.09	10221.07
678.438	10231.24
678.787	10333.16
679.135	10210
679.484	10215.65
679.832	10172.03
680.181	10070.57
680.529	10184.24
680.877	10188.08
681.225	10184.69
681.573	10196.67
681.922	10191.7
682.27	10142.43
682.618	10069.21
682.966	10040.74
683.314	10088.87
683.661	10000.29
684.009	10017.91
684.357	9982.89
684.705	9979.72
685.053	9961.64
685.4	9927.3
685.748	9850.24
686.095	9930.01
686.443	9865.83
686.79	9881.87
687.138	9901.31
687.485	9829.44
687.832	9854.76
688.18	9803.68
688.527	9711.48
688.874	9697.02
689.221	9669.9
689.568	9638.04
689.915	9632.39
690.262	9627.19
690.609	9547.64
690.956	9512.17
691.303	9556.91
691.65	9458.38
691.997	9479.62
692.344	9499.96
692.69	9402.79
693.037	9395.33
693.383	9360.76
693.73	9405.73
694.077	9328.89
694.423	9304.49
694.769	9235.56
695.116	9318.27
695.462	9234.43
695.808	9194.66
696.155	9153.53
696.501	9149.01
696.847	9112.85
697.193	8990.14
697.539	9108.33
697.885	9015.91
698.231	8956.93
698.577	8916.25
698.923	8924.16
699.269	8847.32
699.614	8802.81
699.96	8777.04
700.306	8864.27
700.651	8751.51
700.997	8699.76
701.342	8762.35
701.688	8622.92
702.033	8610.95
702.379	8631.74
702.724	8601.91
703.069	8603.04
703.415	8530.95
703.76	8510.16
704.105	8499.54
704.45	8524.39
704.795	8417.5
705.14	8375.7
705.485	8445.07
705.83	8304.06
706.175	8400.1
706.52	8297.96
706.865	8290.05
707.209	8286.66
707.554	8301.35
707.899	8314
708.243	8177.06
708.588	8178.64
708.932	8149.04
709.277	8163.05
709.621	8180.22
709.966	8096.84
710.31	8127.79
710.654	7987.23
710.998	8019.1
711.342	8075.59
711.687	8035.82
712.031	7971.87
712.375	8001.92
712.719	7987.01
713.063	7927.12
713.407	7958.08
713.75	7907.91
714.094	7848.93
714.438	7826.56
714.782	7944.07
715.125	7823.62
715.469	7891.64
715.812	7844.86
716.156	7814.58
716.499	7786.33
716.843	7742.04
717.186	7801.02
717.53	7772.55
717.873	7728.48
718.216	7761.02
718.559	7647.58
718.902	7652.33
719.246	7702.04
719.589	7654.59
719.932	7660.24
720.275	7638.09
720.617	7657.52
720.96	7596.06
721.303	7586.57
721.646	7644.42
721.989	7596.06
722.331	7571.65
722.674	7560.8
723.016	7544.99
723.359	7609.84
723.701	7573.46
724.044	7508.38
724.386	7566
724.729	7534.59
725.071	7489.62
725.413	7551.31
725.755	7416.4
726.097	7447.13
726.439	7451.2
726.782	7448.04
727.124	7487.81
727.465	7494.59
727.807	7486
728.149	7472.9
728.491	7415.27
728.833	7452.78
729.175	7422.5
729.516	7427.02
729.858	7323.07
730.199	7408.04
730.541	7358.32
730.882	7399.68
731.224	7428.38
731.565	7364.65
731.906	7352
732.248	7416.18
732.589	7316.06
732.93	7365.33
733.271	7335.95
733.612	7408.49
733.953	7323.75
734.294	7324.43
734.635	7343.86
734.976	7346.12
735.317	7295.05
735.658	7272
735.999	7333.24
736.339	7315.16
736.68	7321.94
737.021	7372.33
737.361	7303.64
737.702	7396.74
738.042	7315.39
738.383	7376.18
738.723	7280.13
739.063	7286.01
739.404	7324.2
739.744	7319.45
740.084	7345.44
740.424	7341.83
740.764	7291.66
741.104	7393.35
741.444	7304.09
741.784	7250.08
742.124	7347.02
742.464	7381.6
742.804	7344.31
743.143	7352.9
743.483	7344.54
743.823	7339.57
744.162	7429.06
744.502	7406.01
744.841	7425.44
745.181	7447.13
745.52	7454.14
745.86	7504.53
746.199	7501.6
746.538	7516.96
746.877	7575.27
747.216	7622.27
747.556	7654.13
747.895	7628.6
748.234	7670.86
748.573	7717.18
748.911	7700.69
749.25	7728.48
749.589	7782.04
749.928	7837.63
750.267	7944.3
750.605	7879.89
750.944	8019.55
751.283	8042.83
751.621	8078.98
751.96	8050.28
752.298	8151.97
752.636	8228.81
752.975	8251.18
753.313	8278.07
753.651	8358.3
753.989	8404.62
754.327	8517.84
754.666	8616.14
755.004	8707.21
755.342	8830.83
755.679	8895.68
756.017	8889.81
756.355	8993.31
756.693	9005.51
757.031	9157.37
757.368	9217.71
757.706	9371.6
758.044	9500.87
758.381	9598.04
758.719	9608.21
759.056	9786.96
759.394	9845.94
759.731	9970.46
760.068	10006.16
760.405	10076.22
760.743	10191.24
761.08	10328.87
761.417	10377.68
761.754	10525.02
762.091	10592.81
762.428	10757.78
762.765	10830.55
763.102	10896.99
763.438	10987.61
763.775	11086.36
764.112	11233.02
764.449	11371.33
764.785	11440.7
765.122	11487.03
765.458	11548.95
765.795	11636.86
766.131	11769.73
766.467	11895.15
766.804	11959.11
767.14	11990.74
767.476	12082.72
767.812	12191.42
768.148	12258.31
768.485	12249.49
768.821	12374.69
769.157	12459.43
769.492	12459.66
769.828	12655.36
770.164	12592.99
770.5	12704.17
770.836	12750.95
771.171	12782.81
771.507	12802.47
771.842	12871.85
772.178	12908.91
772.513	13058.96
772.849	13032.75
773.184	12987.1
773.519	13137.38
773.855	13086.53
774.19	13082.01
774.525	13131.73
774.86	13181.9
775.195	13228.45
775.53	13217.6
775.865	13197.27
776.2	13272.52
776.535	13207.66
776.87	13237.49
777.205	13306.64
777.539	13315.91
777.874	13358.62
778.209	13305.51
778.543	13312.07
778.878	13324.49
779.212	13397.71
779.547	13257.38
779.881	13380.99
780.215	13308.45
780.55	13379.86
780.884	13280.2
781.218	13297.6
781.552	13329.69
781.886	13326.3
782.22	13330.14
782.554	13275.46
782.888	13172.86
783.222	13218.51
783.556	13163.14
783.889	13141.67
784.223	13052.64
784.557	13092.64
784.89	13205.18
785.224	13212.18
785.557	13098.96
785.891	13096.25
786.224	13089.47
786.558	13098.74
786.891	13039.53
787.224	12984.84
787.557	12983.26
787.891	12927.89
788.224	12950.49
788.557	12936.03
788.89	12905.3
789.223	12892.19
789.556	12879.53
789.888	12871.85
790.221	12830.95
790.554	12788.24
790.887	12732.87
791.219	12705.08
791.552	12741.23
791.884	12695.58
792.217	12604.06
792.549	12627.34
792.882	12593.44
793.214	12521.58
793.546	12562.03
793.879	12463.5
794.211	12453.1
794.543	12467.57
794.875	12463.95
795.207	12437.51
795.539	12397.74
795.871	12406.55
796.203	12411.75
796.535	12269.83
796.867	12244.52
797.198	12240.45
797.53	12188.7
797.862	12117.52
798.193	12234.81
798.525	12135.37
798.856	12209.27
799.188	11991.65
799.519	11987.13
799.85	11976.96
800.182	11950.75
800.513	11926.56
800.844	11826.68
801.175	11942.38
801.506	11969.05
801.837	11843.18
802.168	11813.8
802.499	11856.06
802.83	11768.83
803.161	11708.94
803.491	11643.86
803.822	11761.82
804.153	11629.62
804.483	11547.14
804.814	11503.07
805.145	11537.2
805.475	11476.86
805.805	11504.66
806.136	11448.61
806.466	11445
806.796	11458.1
807.126	11324.32
807.457	11359.35
807.787	11371.78
808.117	11297.88
808.447	11239.58
808.777	11282.74
809.107	11279.8
809.436	11264.44
809.766	11294.04
810.096	11154.16
810.426	11178.79
810.755	11124.33
811.085	11085.01
811.414	11096.76
811.744	11032.8
812.073	11026.25
812.403	11059.7
812.732	10931.79
813.061	10955.74
813.39	10861.06
813.719	10957.55
814.049	11006.59
814.378	10866.48
814.707	10838.68
815.036	10809.53
815.365	10754.62
815.693	10698.8
816.022	10654.51
816.351	10743.09
816.68	10728.63
817.008	10740.38
817.337	10643.66
817.665	10548.52
817.994	10634.4
818.322	10586.26
818.651	10514.62
818.979	10463.1
819.307	10581.74
819.636	10522.99
819.964	10486.15
820.292	10494.51
820.62	10463.55
820.948	10442.54
821.276	10549.43
821.604	10428.07
821.932	10447.96
822.259	10498.58
822.587	10472.59
822.915	10450.9
823.243	10394.18
823.57	10418.81
823.898	10418.13
824.225	10361.63
824.553	10432.59
824.88	10498.81
825.207	10476.66
825.535	10404.12
825.862	10431.69
826.189	10409.54
826.516	10483.67
826.843	10465.36
827.17	10533.38
827.497	10515.3
827.824	10544.91
828.151	10438.24
828.478	10396.21
828.805	10529.54
829.131	10494.06
829.458	10484.79
829.785	10407.06
830.111	10437.79
830.438	10508.98
830.764	10401.41
831.09	10481.18
831.417	10390.11
831.743	10454.51
832.069	10413.38
832.395	10396.21
832.722	10381.52
833.048	10460.84
833.374	10355.53
833.7	10397.79
834.026	10395.76
834.351	10397.34
834.677	10377
835.003	10411.35
835.329	10324.8
835.654	10285.03
835.98	10204.35
836.306	10308.98
836.631	10286.16
836.956	10334.52
837.282	10331.58
837.607	10239.83
837.932	10298.13
838.258	10234.18
838.583	10218.36
838.908	10169.32
839.233	10148.76
839.558	10162.09
839.883	10106.05
840.208	10107.18
840.533	10072.38
840.858	10179.94
841.182	10125.26
841.507	10065.82
841.832	9986.95
842.156	9985.83
842.481	10088.87
842.805	9995.77
843.13	9972.04
843.454	9985.6
843.778	9917.13
844.103	9894.75
844.427	9861.76
844.751	9860.18
845.075	9831.7
845.399	9792.38
845.723	9668.55
846.047	9750.58
846.371	9688.21
846.695	9621.54
847.019	9643.46
847.343	9588.32
847.666	9438.04
847.99	9458.83
848.313	9426.52
848.637	9405.05
848.96	9389.91
849.284	9344.03
849.607	9321.66
849.931	9246.41
850.254	9291.61
850.577	9171.84
850.9	9116.92
851.223	9129.12
851.546	9126.86
851.869	9025.17
852.192	9088.67
852.515	8950.37
852.838	8952.86
853.161	8892.52
853.483	8885.74
853.806	8866.53
854.129	8909.92
854.451	8827.21
854.774	8831.28
855.096	8774.56
855.419	8764.39
855.741	8755.35
856.063	8696.37
856.385	8663.37
856.708	8575.69
857.03	8637.16
857.352	8640.55
857.674	8606.43
857.996	8534.11
858.318	8437.84
858.64	8460.44
858.961	8447.11
859.283	8475.36
859.605	8451.4
859.926	8388.8
860.248	8406.88
860.57	8344.06
860.891	8344.51
861.212	8332.08
861.534	8256.6
861.855	8284.4
862.176	8317.17
862.498	8312.42
862.819	8252.76
863.14	8189.49
863.461	8191.97
863.782	8206.89
864.103	8128.47
864.424	8149.94
864.745	8205.31
865.065	8077.4
865.386	8119.21
865.707	8098.19
866.027	8146.78
866.348	8128.02
866.668	8090.96
866.989	8057.06
867.309	8013.9
867.63	8050.06
867.95	8007.8
868.27	7993.11
868.59	7951.53
868.91	7992.88
869.23	7976.16
869.55	7961.92
869.87	7986.1
870.19	7989.04
870.51	7949.27
870.83	7969.15
871.15	7933.68
871.469	7869.5
871.789	7849.84
872.109	7875.82
872.428	7834.24
872.748	7890.74
873.067	7841.7
873.386	7831.76
873.706	7796.73
874.025	7777.52
874.344	7748.14
874.663	7831.76
874.982	7737.07
875.301	7728.48
875.62	7696.85
875.939	7690.07
876.258	7711.08
876.577	7679.22
876.896	7722.16
877.214	7646
877.533	7680.12
877.852	7647.81
878.17	7633.8
878.489	7631.99
878.807	7578.43
879.125	7543.18
879.444	7641.71
879.762	7491.43
880.08	7577.3
880.398	7532.56
880.716	7585.21
881.034	7496.62
881.352	7506.12
881.67	7503.63
881.988	7482.84
882.306	7468.83
882.624	7443.52
882.941	7406.68
883.259	7399.68
883.577	7457.3
883.894	7352
884.212	7375.5
884.529	7362.39
884.846	7278.1
885.164	7366.01
885.481	7223.86
885.798	7230.19
886.115	7168.27
886.432	7194.03
886.75	7182.73
887.067	7199.01
887.383	7133.47
887.7	7169.18
888.017	7142.06
888.334	7116.75
888.651	7064.77
888.967	7097.31
889.284	7072
889.6	7051.89
889.917	7001.95
890.233	7012.12
890.55	7015.96
890.866	6933.93
891.182	6936.41
891.498	6924.44
891.815	6895.28
892.131	6899.13
892.447	6875.85
892.763	6815.96
893.079	6841.5
893.395	6847.6
893.71	6780.26
894.026	6721.5
894.342	6784.78
894.657	6708.4
894.973	6721.05
895.289	6705.23
895.604	6707.95
895.92	6603.54
896.235	6579.13
896.55	6628.17
896.865	6594.95
897.181	6563.09
897.496	6543.66
897.811	6556.31
898.126	6541.85
898.441	6475.41
898.756	6463.66
899.071	6442.87
899.386	6440.16
899.7	6381.4
900.015	6389.54
900.33	6357.45
900.644	6325.58
900.959	6257.11
901.273	6254.62
901.588	6279.03
901.902	6219.37
902.216	6194.96
902.531	6178.69
902.845	6125.81
903.159	6132.14
903.473	6130.11
903.787	6126.27
904.101	6055.98
904.415	6081.07
904.729	6003.56
905.042	5996.55
905.356	5954.97
905.67	5985.25
905.984	5903.9
906.297	5930.56
906.611	5909.77
906.924	5874.97
907.237	5874.52
907.551	5848.53
907.864	5811.25
908.177	5786.16
908.491	5784.58
908.804	5717.46
909.117	5693.73
909.43	5708.2
909.743	5672.94
910.056	5671.59
910.368	5602.66
910.681	5599.27
910.994	5622.55
911.307	5525.83
911.619	5557.92
911.932	5514.98
912.244	5442.89
912.557	5465.27
912.869	5464.59
913.181	5430.69
913.494	5413.52
913.806	5381.88
914.118	5367.42
914.43	5370.35
914.742	5333.52
915.054	5332.39
915.366	5292.62
915.678	5264.59
915.99	5261.43
916.302	5207.87
916.613	5200.41
916.925	5197.02
917.236	5212.17
917.548	5163.13
917.859	5137.59
918.171	5115.22
918.482	5123.13
918.794	5030.25
919.105	5055.79
919.416	4990.02
919.727	5003.36
920.038	4988.67
920.349	4950.93
920.66	4942.57
920.971	4919.97
921.282	4907.09
921.593	4858.5
921.903	4838.39
922.214	4845.85
922.525	4837.49
922.835	4789.8
923.146	4752.06
923.456	4802.01
923.767	4756.13
924.077	4705.51
924.387	4728.11
924.697	4699.64
925.008	4670.26
925.318	4628.68
925.628	4639.98
925.938	4606.08
926.248	4595.68
926.558	4530.6
926.867	4567.66
927.177	4545.52
927.487	4498.06
927.796	4518.17
928.106	4486.53
928.416	4506.42
928.725	4474.56
929.034	4477.72
929.344	4438.4
929.653	4413.09
929.962	4384.62
930.271	4317.73
930.581	4341.23
930.89	4307.56
931.199	4292.42
931.508	4300.78
931.817	4254.68
932.125	4248.35
932.434	4233.89
932.743	4230.72
933.051	4204.06
933.36	4170.16
933.669	4172.87
933.977	4122.7
934.286	4169.25
934.594	4122.93
934.902	4082.7
935.21	4087.68
935.519	4091.74
935.827	4076.38
936.135	4016.72
936.443	4053.55
936.751	3963.61
937.059	3972.2
937.367	4007.9
937.674	3952.99
937.982	3970.84
938.29	3929.94
938.597	3945.53
938.905	3921.8
939.213	3860.11
939.52	3881.8
939.827	3884.52
940.135	3846.1
940.442	3809.94
940.749	3805.87
941.056	3776.95
941.363	3778.98
941.67	3763.62
941.977	3733.33
942.284	3719.1
942.591	3683.84
942.898	3662.6
943.205	3674.13
943.511	3645.2
943.818	3630.29
944.125	3610.63
944.431	3604.52
944.738	3616.05
945.044	3616.73
945.35	3582.38
945.657	3517.29
945.963	3548.93
946.269	3517.07
946.575	3539.44
946.881	3465.54
947.187	3462.83
947.493	3450.63
947.799	3477.75
948.105	3466.67
948.41	3382.61
948.716	3403.4
949.022	3383.51
949.327	3398.88
949.633	3337.86
949.938	3371.76
950.244	3331.08
950.549	3366.34
950.854	3321.59
951.16	3304.64
951.465	3285.44
951.77	3317.07
952.075	3253.12
952.38	3257.87
952.685	3253.12
952.99	3204.53
953.294	3209.28
953.599	3218.09
953.904	3170.86
954.209	3153.91
954.513	3162.73
954.818	3132.67
955.122	3112.79
955.426	3100.13
955.731	3101.71
956.035	3069.62
956.339	3078.66
956.643	3052.45
956.948	3063.3
957.252	3019.91
957.556	3046.57
957.86	2999.79
958.163	3015.39
958.467	2979.23
958.771	2995.95
959.075	2941.72
959.378	2913.92
959.682	2955.05
959.985	2944.2
960.289	2950.08
960.592	2868.72
960.896	2892.23
961.199	2865.56
961.502	2884.09
961.805	2877.09
962.108	2866.92
962.411	2822.62
962.714	2845.67
963.017	2853.81
963.32	2823.75
963.623	2811.1
963.926	2826.92
964.228	2757.31
964.531	2757.54
964.833	2743.76
965.136	2722.97
965.438	2706.02
965.741	2715.73
966.043	2662.18
966.345	2667.15
966.648	2696.07
966.95	2661.95
967.252	2667.83
967.554	2638
967.856	2633.93
968.158	2633.02
968.46	2634.61
968.761	2603.19
969.063	2600.93
969.365	2581.73
969.666	2574.72
969.968	2553.25
970.269	2565
970.571	2510.77
970.872	2504.21
971.174	2486.81
971.475	2494.72
971.776	2497.89
972.077	2473.93
972.378	2482.97
972.679	2428.51
972.98	2487.49
973.281	2432.13
973.582	2422.63
973.883	2423.09
974.183	2376.53
974.484	2385.8
974.785	2407.49
975.085	2355.74
975.386	2365.91
975.686	2387.61
975.986	2382.64
976.287	2337.89
976.587	2307.38
976.887	2342.41
977.187	2293.37
977.487	2294.28
977.787	2256.54
978.087	2273.49
978.387	2246.14
978.687	2259.02
978.987	2242.53
979.286	2239.59
979.586	2224
979.885	2221.06
980.185	2213.15
980.484	2167.27
980.784	2185.58
981.083	2178.12
981.382	2159.59
981.682	2157.56
981.981	2127.73
982.28	2144.45
982.579	2141.06
982.878	2160.27
983.177	2128.86
983.475	2145.35
983.774	2118.91
984.073	2095.19
984.372	2105.58
984.67	2072.59
984.969	2093.15
985.267	2068.75
985.566	2050.21
985.864	2065.58
986.162	2033.94
986.461	1983.32
986.759	1968.86
987.057	1996.43
987.355	2014.06
987.653	2009.54
987.951	1987.17
988.249	2006.6
988.547	1966.15
988.844	1945.81
989.142	1937.68
989.44	1960.05
989.737	1921.86
990.035	1909.65
990.332	1936.77
990.63	1910.11
990.927	1894.96
991.224	1884.8
991.521	1882.54
991.819	1857.68
992.116	1867.17
992.413	1854.29
992.71	1851.12
993.006	1829.43
993.303	1837.56
993.6	1819.94
993.897	1832.59
994.193	1826.72
994.49	1786.72
994.787	1783.55
995.083	1775.19
995.379	1765.93
995.676	1751.01
995.972	1765.02
996.268	1777
996.565	1751.24
996.861	1744.69
997.157	1742.65
997.453	1690.9
997.749	1688.87
998.044	1697
998.34	1665.59
998.636	1684.8
998.932	1633.05
999.227	1673.73
999.523	1630.79
999.818	1619.72
1000.114	1634.63
1000.409	1653.61
1000.704	1598.02
1001	1616.78
1001.295	1644.35
1001.59	1601.19
1001.885	1618.81
1002.18	1565.93
1002.475	1577.01
1002.77	1552.6
1003.065	1584.24
1003.359	1529.78
1003.654	1544.69
1003.949	1503.79
1004.243	1526.84
1004.538	1510.79
1004.832	1516.22
1005.127	1522.54
1005.421	1502.88
1005.715	1518.48
1006.009	1470.79
1006.304	1459.5
1006.598	1447.74
1006.892	1449.1
1007.186	1478.25
1007.48	1448.65
1007.773	1431.02
1008.067	1409.1
1008.361	1407.97
1008.655	1410.23
1008.948	1415.2
1009.242	1407.52
1009.535	1386.73
1009.829	1392.15
1010.122	1371.81
1010.415	1394.64
1010.708	1362.77
1011.001	1368.42
1011.295	1339.72
1011.588	1353.74
1011.881	1333.85
1012.173	1315.09
1012.466	1319.39
1012.759	1293.85
1013.052	1297.24
1013.344	1300.18
1013.637	1302.66
1013.93	1269.44
1014.222	1279.84
1014.514	1295.66
1014.807	1266.28
1015.099	1245.04
1015.391	1237.13
1015.683	1222.44
1015.976	1198.03
1016.268	1238.71
1016.56	1235.09
1016.851	1199.16
1017.143	1200.29
1017.435	1196.9
1017.727	1206.85
1018.018	1188.99
1018.31	1175.21
1018.602	1158.94
1018.893	1173.63
1019.185	1153.51
1019.476	1138.15
1019.767	1133.18
1020.058	1131.82
1020.35	1138.6
1020.641	1115.78
1020.932	1094.31
1021.223	1120.3
1021.514	1085.49
1021.804	1085.27
1022.095	1074.65
1022.386	1075.1
1022.677	1110.58
1022.967	1083.23
1023.258	1082.1
1023.548	1028.09
1023.839	1049.11
1024.129	1074.19
1024.419	1029.9
1024.709	1032.16
1025	1013.18
1025.29	1009.11
1025.58	1030.81
1025.87	999.62
1026.16	977.25
1026.449	995.55
1026.739	1005.04
1027.029	1012.95
1027.319	988.32
1027.608	965.95
1027.898	963.92
1028.187	974.31
1028.477	963.46
1028.766	957.14
1029.055	957.59
1029.344	947.64
1029.634	931.15
1029.923	918.04
1030.212	904.48
1030.501	909
1030.79	902
1031.078	906.74
1031.367	915.56
1031.656	890.7
1031.945	902.45
1032.233	900.19
1032.522	881.88
1032.81	884.37
1033.099	880.3
1033.387	889.79
1033.675	862.22
1033.963	863.8
1034.251	832.17
1034.54	840.98
1034.828	850.7
1035.116	857.25
1035.403	829.23
1035.691	832.39
1035.979	807.76
1036.267	818.16
1036.554	838.49
1036.842	793.52
1037.129	813.64
1037.417	783.13
1037.704	803.69
1037.992	780.87
1038.279	784.26
1038.566	765.5
1038.853	765.5
1039.14	765.5
