Data from hue_150_FLMS001491_00092.txt Node
Date: Tue Feb 07 16:54:47 GMT 2017
User: dcchb
Spectrometer: FLMS00149
Trigger mode: 0
Integration Time (sec): 2.000000E-2
Scans to average: 10
Electric dark correction enabled: true
Nonlinearity correction enabled: false
Boxcar width: 0
XAxis mode: Wavelengths
Number of Pixels in Spectrum: 2048
>>>>>Begin Spectral Data<<<<<
341.393	-17.44
341.776	-17.44
342.16	-17.44
342.543	-64.9
342.927	-68.52
343.31	-73.49
343.693	-55.41
344.077	-62.87
344.46	-49.98
344.843	-51.57
345.226	-34.17
345.61	-41.17
345.993	-13.6
346.376	-6.37
346.759	9.67
347.142	31.6
347.525	30.47
347.908	61.88
348.291	61.88
348.674	90.12
349.057	103.01
349.44	136.23
349.823	160.18
350.206	151.14
350.588	194.08
350.971	187.3
351.354	212.83
351.737	244.92
352.119	259.16
352.502	263.91
352.884	291.7
353.267	273.4
353.65	303.23
354.032	297.8
354.414	312.49
354.797	332.15
355.179	310.46
355.562	310.23
355.944	322.21
356.326	322.66
356.709	340.06
357.091	356.33
357.473	356.33
357.855	346.16
358.238	336.45
358.62	339.38
359.002	343.23
359.384	331.93
359.766	325.37
360.148	334.86
360.53	323.34
360.912	326.95
361.294	330.34
361.676	355.2
362.057	324.69
362.439	339.84
362.821	318.59
363.203	321.98
363.584	326.05
363.966	321.98
364.348	314.3
364.729	320.18
365.111	307.52
365.493	339.38
365.874	326.73
366.256	310.46
366.637	334.64
367.019	304.13
367.4	314.53
367.781	326.95
368.163	300.74
368.544	318.59
368.925	308.42
369.306	328.99
369.688	316.11
370.069	309.55
370.45	296.67
370.831	299.38
371.212	315.66
371.593	294.41
371.974	312.72
372.355	303.68
372.736	315.66
373.117	313.85
373.498	305.71
373.879	312.72
374.26	316.79
374.641	305.03
375.021	306.84
375.402	310.23
375.783	305.71
376.163	333.28
376.544	333.51
376.925	322.89
377.305	316.11
377.686	336.67
378.066	304.13
378.447	340.29
378.827	339.38
379.208	324.69
379.588	311.81
379.968	337.35
380.349	331.25
380.729	317.69
381.109	340.97
381.489	328.54
381.87	315.88
382.25	324.92
382.63	347.52
383.01	333.51
383.39	328.31
383.77	333.51
384.15	324.47
384.53	329.89
384.91	328.54
385.29	340.51
385.67	343.23
386.049	347.75
386.429	325.82
386.809	350.68
387.189	338.25
387.568	344.81
387.948	355.88
388.328	333.51
388.707	353.39
389.087	351.36
389.466	378.03
389.846	344.13
390.225	354.98
390.605	332.15
390.984	338.25
391.363	335.99
391.743	370.12
392.122	391.13
392.501	350
392.881	377.35
393.26	346.84
393.639	373.73
394.018	363.34
394.397	372.38
394.776	360.63
395.155	369.67
395.534	372.15
395.913	382.09
396.292	372.83
396.671	367.41
397.05	360.85
397.429	378.03
397.808	392.72
398.186	378.25
398.565	391.59
398.944	365.15
399.323	389.33
399.701	387.52
400.08	380.29
400.458	383.9
400.837	395.2
401.215	408.31
401.594	394.3
401.972	390
402.351	392.04
402.729	382.32
403.107	387.52
403.486	392.49
403.864	406.27
404.242	397.69
404.62	392.94
404.999	406.73
405.377	425.48
405.755	424.81
406.133	420.51
406.511	416.67
406.889	434.52
407.267	420.96
407.645	391.81
408.023	391.13
408.401	430.23
408.779	434.07
409.156	425.48
409.534	448.99
409.912	415.99
410.29	416.22
410.667	447.18
411.045	431.58
411.422	445.14
411.8	447.18
412.178	453.51
412.555	461.41
412.933	458.48
413.31	463
413.687	455.09
414.065	467.29
414.442	454.18
414.819	467.29
415.197	479.04
415.574	478.82
415.951	458.48
416.328	485.14
416.705	465.93
417.082	479.49
417.46	471.58
417.837	470.45
418.214	472.49
418.591	488.53
418.967	495.54
419.344	491.24
419.721	490.11
420.098	504.13
420.475	503
420.852	493.73
421.228	524.01
421.605	486.05
421.982	514.52
422.358	526.05
422.735	517.91
423.111	519.04
423.488	503.67
423.864	528.76
424.241	532.37
424.617	519.72
424.994	532.82
425.37	512.03
425.746	553.84
426.123	555.2
426.499	541.86
426.875	566.72
427.251	551.36
427.627	572.6
428.003	584.8
428.379	558.36
428.756	585.93
429.132	595.42
429.507	598.13
429.883	596.1
430.259	579.15
430.635	604.24
431.011	591.58
431.387	594.97
431.763	626.83
432.138	593.61
432.514	640.84
432.89	606.95
433.265	634.29
433.641	634.74
434.016	653.95
434.392	651.69
434.767	643.33
435.143	650.34
435.518	653.95
435.894	658.7
436.269	687.62
436.644	669.32
437.02	695.53
437.395	672.48
437.77	694.4
438.145	695.98
438.52	697.11
438.895	723.1
439.271	704.35
439.646	712.48
440.021	714.74
440.395	744.34
440.77	710.45
441.145	724.23
441.52	746.38
441.895	756.1
442.27	767.62
442.645	760.62
443.019	764.01
443.394	768.07
443.769	745.93
444.143	763.1
444.518	774.17
444.892	770.33
445.267	769.65
445.641	801.74
446.016	808.07
446.39	791.58
446.764	814.85
447.139	807.17
447.513	811.24
447.887	803.33
448.262	843.33
448.636	838.81
449.01	819.37
449.384	844
449.758	842.87
450.132	881.06
450.506	864.79
450.88	835.64
451.254	869.99
451.628	832.25
452.002	881.74
452.376	864.79
452.75	881.74
453.123	913.15
453.497	908.41
453.871	924.45
454.244	961.74
454.618	968.52
454.992	962.42
455.365	963.77
455.739	958.12
456.112	970.78
456.486	988.18
456.859	982.76
457.232	1032.25
457.606	1025.47
457.979	1018.91
458.352	1035.41
458.725	1070.89
459.099	1055.52
459.472	1110.89
459.845	1088.97
460.218	1074.96
460.591	1104.11
460.964	1120.38
461.337	1156.54
461.71	1154.73
462.083	1166.48
462.456	1173.26
462.829	1167.61
463.201	1204.67
463.574	1209.42
463.947	1209.19
464.32	1234.28
464.692	1249.42
465.065	1311.56
465.438	1328.06
465.81	1315.63
466.183	1321.73
466.555	1360.15
466.928	1381.62
467.3	1421.16
467.672	1410.32
468.045	1460.48
468.417	1442.41
468.789	1461.84
469.161	1496.87
469.534	1523.99
469.906	1562.63
470.278	1557.2
470.65	1595.62
471.022	1641.95
471.394	1694.83
471.766	1705.9
472.138	1723.98
472.51	1758.56
472.882	1792.9
473.253	1812.34
473.625	1875.61
473.997	1921.26
474.369	1955.16
474.74	1951.77
475.112	2022.73
475.484	2086
475.855	2140.24
476.227	2163.06
476.598	2240.58
476.97	2286.68
477.341	2343.4
477.713	2368.26
478.084	2398.31
478.455	2517.86
478.827	2556.73
479.198	2633.11
479.569	2685.54
479.94	2782.03
480.311	2833.33
480.682	2937.06
481.053	3021.8
481.424	3109.93
481.795	3185.18
482.166	3252.98
482.537	3368.68
482.908	3426.76
483.279	3514.44
483.65	3638.73
484.021	3755.57
484.391	3819.97
484.762	3902
485.133	3970.7
485.503	4083.69
485.874	4261.99
486.244	4309.22
486.615	4425.38
486.985	4560.52
487.356	4703.11
487.726	4758.93
488.097	4937.68
488.467	4960.96
488.837	5152.36
489.207	5240.05
489.578	5379.93
489.948	5509.19
490.318	5605.23
490.688	5713.25
491.058	5804.55
491.428	6019.23
491.798	6112.79
492.168	6291.32
492.538	6367.93
492.908	6452.22
493.278	6679.33
493.648	6702.61
494.017	6860.79
494.387	6984.41
494.757	7108.25
495.126	7225.08
495.496	7285.64
495.866	7396.15
496.235	7569.93
496.605	7660.32
496.974	7752.07
497.344	7915
497.713	8022.57
498.082	8132.63
498.452	8201.1
498.821	8282.68
499.19	8364.48
499.559	8434.76
499.928	8607.87
500.298	8661.2
500.667	8726.96
501.036	8834.75
501.405	8954.75
501.774	9017.57
502.143	9143.9
502.512	9200.85
502.88	9256.66
503.249	9297.57
503.618	9446.04
503.987	9491.46
504.356	9571.01
504.724	9696.65
505.093	9632.7
505.462	9731.68
505.83	9867.72
506.199	9909.53
506.567	10014.84
506.936	10114.04
507.304	10163.53
507.672	10174.38
508.041	10226.58
508.409	10340.02
508.777	10378.44
509.145	10474.03
509.514	10469.74
509.882	10597.87
510.25	10576.18
510.618	10655.04
510.986	10630.86
511.354	10712.67
511.722	10862.95
512.09	10900.01
512.458	10860.01
512.826	10961.48
513.193	10927.13
513.561	11038.31
513.929	11045.09
514.297	11167.12
514.664	11099.33
515.032	11217.52
515.4	11310.62
515.767	11310.62
516.135	11259.55
516.502	11259.77
516.869	11357.4
517.237	11426.55
517.604	11311.07
517.972	11525.98
518.339	11503.16
518.706	11434.91
519.073	11490.05
519.44	11499.09
519.808	11559.2
520.175	11548.13
520.542	11687.56
520.909	11736.82
521.276	11685.75
521.643	11809.36
522.009	11821.79
522.376	11679.42
522.743	11830.83
523.11	11836.48
523.477	11963.48
523.843	11933.2
524.21	11968.68
524.577	12072.41
524.943	12048.45
525.31	12025.4
525.676	12140.66
526.043	12140.43
526.409	12106.31
526.776	12247.09
527.142	12132.52
527.508	12243.93
527.874	12211.39
528.241	12225.17
528.607	12128.23
528.973	12262.01
529.339	12193.08
529.705	12190.82
530.071	12217.26
530.437	12222.24
530.803	12276.7
531.169	12285.74
531.535	12204.38
531.901	12112.63
532.267	12172.29
532.632	12223.14
532.998	12260.2
533.364	12217.04
533.73	12211.39
534.095	12211.16
534.461	12257.49
534.826	12151.95
535.192	12129.36
535.557	12187.21
535.923	12173.87
536.288	12123.25
536.653	12067.21
537.019	11963.71
537.384	11965.52
537.749	11945.41
538.114	11902.7
538.479	11947.67
538.845	11900.44
539.21	11871.74
539.575	11829.25
539.94	11735.47
540.305	11881.45
540.67	11688.24
541.034	11792.64
541.399	11754.9
541.764	11629.71
542.129	11729.37
542.494	11580.22
542.858	11588.35
543.223	11534.8
543.587	11527.34
543.952	11505.19
544.316	11525.53
544.681	11479.88
545.045	11426.32
545.41	11408.7
545.774	11453.22
546.138	11366.21
546.503	11352.43
546.867	11293.67
547.231	11270.17
547.595	11188.59
547.959	11209.38
548.324	11185.65
548.688	11072.43
549.052	11099.33
549.416	11031.76
549.779	10993.11
550.143	11020.01
550.507	10957.41
550.871	10955.15
551.235	10873.34
551.599	10926.9
551.962	10856.4
552.326	10884.19
552.689	10904.3
553.053	10812.33
553.417	10810.07
553.78	10863.63
554.143	10751.09
554.507	10695.72
554.87	10725.33
555.234	10820.01
555.597	10742.27
555.96	10713.8
556.323	10682.84
556.686	10684.2
557.05	10676.29
557.413	10589.06
557.776	10597.19
558.139	10647.36
558.502	10646.91
558.865	10545.44
559.228	10617.53
559.59	10581.37
559.953	10528.95
560.316	10542.73
560.679	10551.32
561.041	10558.78
561.404	10600.13
561.767	10602.84
562.129	10565.56
562.492	10611.88
562.854	10588.38
563.217	10503.64
563.579	10571.66
563.941	10641.03
564.304	10663.63
564.666	10657.76
565.028	10596.52
565.39	10601.26
565.753	10679.9
566.115	10635.38
566.477	10705.89
566.839	10655.04
567.201	10688.72
567.563	10651.2
567.925	10725.1
568.287	10693.01
568.648	10679.45
569.01	10757.87
569.372	10784.98
569.734	10772.33
570.095	10783.18
570.457	10788.6
570.819	10869.05
571.18	10684.2
571.542	10785.44
571.903	10788.83
572.265	10752.9
572.626	10810.52
572.987	10849.39
573.349	10828.83
573.71	10810.75
574.071	10836.96
574.432	10821.82
574.794	10880.35
575.155	10820.24
575.516	10831.99
575.877	10843.74
576.238	10792.89
576.599	10890.52
576.96	10842.61
577.32	10890.52
577.681	10831.76
578.042	10876.73
578.403	10795.83
578.763	10861.82
579.124	10915.6
579.485	10919.22
579.845	10915.83
580.206	10816.62
580.566	10839.45
580.927	10919.22
581.287	10902.04
581.648	10796.06
582.008	10880.58
582.368	10829.5
582.728	10844.19
583.089	10897.98
583.449	10886.45
583.809	10823.4
584.169	10820.01
584.529	10806
584.889	10820.01
585.249	10820.24
585.609	10773.23
585.969	10855.27
586.329	10748.15
586.688	10871.08
587.048	10813.01
587.408	10783.63
587.768	10747.25
588.127	10732.1
588.487	10712.44
588.846	10783.85
589.206	10626.34
589.565	10660.24
589.925	10716.06
590.284	10685.78
590.643	10696.63
591.003	10701.15
591.362	10752.44
591.721	10626.8
592.08	10627.47
592.44	10666.12
592.799	10674.93
593.158	10643.75
593.517	10622.05
593.876	10698.21
594.235	10629.73
594.593	10653.24
594.952	10679
595.311	10607.14
595.67	10591.54
596.029	10690.07
596.387	10667.25
596.746	10674.25
597.104	10608.72
597.463	10575.05
597.822	10607.36
598.18	10561.94
598.538	10554.26
598.897	10628.15
599.255	10549.74
599.613	10724.65
599.972	10613.24
600.33	10627.25
600.688	10636.06
601.046	10592.45
601.404	10645.55
601.762	10594.93
602.12	10668.38
602.478	10647.59
602.836	10645.1
603.194	10540.02
603.552	10594.03
603.91	10519.46
604.268	10639.9
604.625	10645.33
604.983	10658.89
605.341	10547.7
605.698	10592
606.056	10516.74
606.413	10623.63
606.771	10690.07
607.128	10556.29
607.485	10508.38
607.843	10609.17
608.2	10656.85
608.557	10687.36
608.914	10632.22
609.272	10686.68
609.629	10703.63
609.986	10721.71
610.343	10650.53
610.7	10778.21
611.057	10661.6
611.414	10691.65
611.771	10630.41
612.127	10657.53
612.484	10655.5
612.841	10749.51
613.198	10666.12
613.554	10772.78
613.911	10783.4
614.267	10779.56
614.624	10756.96
614.98	10777.08
615.337	10778.66
615.693	10686
616.05	10762.61
616.406	10864.08
616.762	10822.5
617.118	10777.75
617.475	10752.44
617.831	10807.58
618.187	10849.62
618.543	10860.46
618.899	10921.48
619.255	10844.64
619.611	10894.81
619.967	10834.7
620.323	10924.19
620.678	10863.85
621.034	10792.22
621.39	10793.8
621.746	10738.88
622.101	10925.09
622.457	10891.2
622.812	10931.87
623.168	10881.25
623.523	10873.57
623.879	10904.3
624.234	10876.28
624.589	10874.02
624.945	10898.2
625.3	10840.58
625.655	10822.5
626.01	10906.56
626.365	10861.82
626.72	10879.9
627.075	10810.29
627.43	10840.58
627.785	10894.36
628.14	10871.76
628.495	10907.24
628.85	10848.26
629.205	10774.82
629.559	10879.22
629.914	10837.86
630.269	10833.57
630.623	10796.74
630.978	10737.08
631.332	10814.81
631.687	10878.54
632.041	10731.65
632.396	10766.91
632.75	10733.69
633.104	10794.02
633.459	10711.77
633.813	10684.42
634.167	10725.78
634.521	10620.02
634.875	10693.24
635.229	10683.29
635.583	10621.83
635.937	10705.44
636.291	10611.2
636.645	10592.9
636.999	10622.96
637.352	10573.46
637.706	10576.63
638.06	10584.76
638.413	10599
638.767	10482.62
639.121	10560.13
639.474	10505.22
639.828	10488.04
640.181	10529.17
640.534	10548.83
640.888	10408.05
641.241	10446.01
641.594	10459.57
641.947	10397.2
642.301	10428.84
642.654	10500.47
643.007	10403.98
643.36	10434.26
643.713	10394.03
644.066	10417.31
644.419	10349.74
644.771	10358.56
645.124	10228.39
645.477	10270.2
645.83	10156.98
646.182	10163.76
646.535	10083.08
646.888	10135.74
647.24	9954.95
647.593	10109.75
647.945	10010.99
648.298	10055.29
648.65	10079.01
649.002	10009.41
649.355	10034.5
649.707	10056.87
650.059	10088.96
650.411	10100.48
650.763	10294.6
651.115	10316.75
651.467	10316.07
651.819	10293.47
652.171	10283.76
652.523	10315.17
652.875	10285.56
653.227	10289.63
653.578	10271.1
653.93	10277.43
654.282	10246.24
654.633	10295.05
654.985	10243.53
655.337	10292.79
655.688	10281.04
656.039	10399.46
656.391	10265.68
656.742	10297.54
657.094	10323.53
657.445	10330.31
657.796	10309.07
658.147	10254.83
658.498	10272.46
658.849	10296.41
659.2	10368.72
659.551	10307.94
659.902	10380.02
660.253	10342.96
660.604	10343.19
660.955	10329.86
661.306	10311.55
661.656	10317.65
662.007	10391.77
662.358	10368.72
662.708	10370.53
663.059	10333.47
663.409	10235.39
663.76	10343.87
664.11	10347.48
664.461	10402.4
664.811	10358.33
665.161	10319.91
665.511	10313.81
665.862	10346.13
666.212	10359.23
666.562	10322.62
666.912	10283.76
667.262	10311.1
667.612	10389.06
667.962	10408.05
668.312	10292.79
668.662	10367.37
669.011	10380.7
669.361	10335.96
669.711	10321.27
670.06	10269.52
670.41	10287.37
670.76	10366.46
671.109	10336.63
671.459	10347.48
671.808	10289.63
672.157	10362.17
672.507	10173.93
672.856	10234.94
673.205	10272
673.554	10213.7
673.904	10262.96
674.253	10257.32
674.602	10278.33
674.951	10133.02
675.3	10038.34
675.649	10232.68
675.998	10246.92
676.346	10156.3
676.695	10228.84
677.044	10222.97
677.393	10125.57
677.741	10194.27
678.09	10115.4
678.438	10132.35
678.787	10083.31
679.135	10122.4
679.484	10075.4
679.832	10122.63
680.181	10023.42
680.529	10050.54
680.877	10043.99
681.225	10027.49
681.573	10126.47
681.922	9980.71
682.27	10004.89
682.618	9925.57
682.966	9932.35
683.314	9988.62
683.661	9905.01
684.009	9848.06
684.357	9818
684.705	9872.01
685.053	9880.6
685.4	9828.85
685.748	9804.67
686.095	9758.57
686.443	9750.66
686.79	9758.35
687.138	9707.05
687.485	9723.32
687.832	9645.13
688.18	9734.16
688.527	9635.64
688.874	9622.08
689.221	9562.42
689.568	9550.67
689.915	9502.76
690.262	9488.97
690.609	9508.63
690.956	9388.41
691.303	9401.74
691.65	9382.76
691.997	9378.24
692.344	9360.84
692.69	9258.25
693.037	9229.77
693.383	9232.94
693.73	9185.03
694.077	9136.21
694.423	9124.24
694.769	9110.9
695.116	9081.75
695.462	9072.26
695.808	9005.14
696.155	9075.65
696.501	8945.03
696.847	9012.38
697.193	8875.43
697.539	8968.54
697.885	8830.46
698.231	8827.07
698.577	8810.35
698.923	8854.64
699.269	8750.01
699.614	8702.1
699.96	8667.75
700.306	8654.65
700.651	8607.19
700.997	8586.62
701.342	8541.43
701.688	8544.14
702.033	8473.41
702.379	8526.97
702.724	8442.22
703.069	8462.33
703.415	8420.75
703.76	8383.92
704.105	8385.27
704.45	8349.79
704.795	8235.45
705.14	8173.98
705.485	8222.11
705.83	8199.74
706.175	8161.78
706.52	8152.51
706.865	8154.77
707.209	8091.5
707.554	8083.81
707.899	8110.25
708.243	8093.08
708.588	8035
708.932	8010.14
709.277	7954.1
709.621	7958.62
709.966	7920.43
710.31	7916.13
710.654	7874.1
710.998	7854.89
711.342	7893.31
711.687	7840.2
712.031	7833.65
712.375	7780.54
712.719	7805.85
713.063	7722.69
713.407	7764.95
713.75	7716.14
714.094	7674.56
714.438	7716.36
714.782	7711.39
715.125	7655.58
715.469	7664.84
715.812	7612.86
716.156	7565.63
716.499	7614.67
716.843	7543.71
717.186	7539.42
717.53	7544.62
717.873	7565.18
718.216	7527.22
718.559	7497.39
718.902	7498.52
719.246	7504.62
719.589	7488.8
719.932	7416.71
720.275	7457.16
720.617	7446.99
720.96	7461.91
721.303	7448.8
721.646	7437.95
721.989	7383.27
722.331	7386.88
722.674	7417.39
723.016	7402.47
723.359	7379.42
723.701	7355.92
724.044	7331.06
724.386	7294.91
724.729	7344.62
725.071	7381.68
725.413	7334
725.755	7312.99
726.097	7329.03
726.439	7277.05
726.782	7246.09
727.124	7298.52
727.465	7298.97
727.807	7294.91
728.149	7277.96
728.491	7300.33
728.833	7284.29
729.175	7252.87
729.516	7251.97
729.858	7313.44
730.199	7320.44
730.541	7227.79
730.882	7232.31
731.224	7315.25
731.565	7202.25
731.906	7312.08
732.248	7269.6
732.589	7283.61
732.93	7253.55
733.271	7307.56
733.612	7220.11
733.953	7296.26
734.294	7215.36
734.635	7250.39
734.976	7254.46
735.317	7251.97
735.658	7246.77
735.999	7330.61
736.339	7211.52
736.68	7346.66
737.021	7294.46
737.361	7195.25
737.702	7291.97
738.042	7330.84
738.383	7269.82
738.723	7318.18
739.063	7277.96
739.404	7347.56
739.744	7347.79
740.084	7343.72
740.424	7335.36
740.764	7287.68
741.104	7343.95
741.444	7356.6
741.784	7410.61
742.124	7390.27
742.464	7408.12
742.804	7371.74
743.143	7380.78
743.483	7443.38
743.823	7513.43
744.162	7435.47
744.502	7547.56
744.841	7566.09
745.181	7579.19
745.52	7608.8
745.86	7661.9
746.199	7695.35
746.538	7708.91
746.877	7775.8
747.216	7804.5
747.556	7820.77
747.895	7942.12
748.234	7910.03
748.573	7980.76
748.911	8008.56
749.25	8049.69
749.589	8115.45
749.928	8140.08
750.267	8238.61
750.605	8343.92
750.944	8396.8
751.283	8435.89
751.621	8513.41
751.96	8629.79
752.298	8579.17
752.636	8771.48
752.975	8855.32
753.313	8811.7
753.651	9062.54
753.989	9071.81
754.327	9273.61
754.666	9297.79
755.004	9441.52
755.342	9573.72
755.679	9652.13
756.017	9731.45
756.355	9951.11
756.693	10050.09
757.031	10203.76
757.368	10276.52
757.706	10436.52
758.044	10574.14
758.381	10792.67
758.719	10825.89
759.056	11015.49
759.394	11105.65
759.731	11204.86
760.068	11462.03
760.405	11498.64
760.743	11664.28
761.08	11894.56
761.417	11969.13
761.754	12172.07
762.091	12288
762.428	12426.07
762.765	12558.95
763.102	12815.67
763.438	12943.8
763.775	13069.22
764.112	13254.75
764.449	13412.26
764.785	13509.43
765.122	13687.51
765.458	13878.01
765.795	13990.32
766.131	14059.7
766.467	14285.68
766.804	14340.37
767.14	14511.21
767.476	14609.07
767.812	14665.79
768.148	14911.66
768.485	14845.89
768.821	15113.46
769.157	15183.29
769.492	15369.95
769.828	15470.06
770.164	15569.49
770.5	15555.25
770.836	15767.68
771.171	15776.94
771.507	15854.91
771.842	15916.38
772.178	16171.06
772.513	16049.71
772.849	16214.67
773.184	16321.56
773.519	16438.4
773.855	16402.01
774.19	16413.54
774.525	16549.8
774.86	16676.13
775.195	16656.47
775.53	16717.48
775.865	16732.4
776.2	16650.82
776.535	16727.43
776.87	16827.09
777.205	16857.59
777.539	16906.18
777.874	16938.04
778.209	16766.97
778.543	16905.05
778.878	16828.22
779.212	17013.52
779.547	16956.12
779.881	17021.66
780.215	16936.69
780.55	17175.78
780.884	17047.42
781.218	17157.47
781.552	17118.6
781.886	17094.65
782.22	17089.23
782.554	17103.24
782.888	16910.93
783.222	16960.42
783.556	16993.41
783.889	16971.49
784.223	16911.6
784.557	16986.63
784.89	16938.27
785.224	16907.54
785.557	16889.46
785.891	16917.03
786.224	16912.28
786.558	16934.65
786.891	16807.88
787.224	16832.28
787.557	16745.96
787.891	16825.96
788.224	16832.28
788.557	16812.62
788.89	16829.35
789.223	16851.94
789.556	16746.86
789.888	16676.81
790.221	16707.77
790.554	16480.65
790.887	16507.32
791.219	16603.59
791.552	16556.58
791.884	16521.33
792.217	16470.03
792.549	16407.44
792.882	16348.23
793.214	16379.41
793.546	16321.34
793.879	16326.08
794.211	16241.79
794.543	16353.65
794.875	16195.24
795.207	16321.11
795.539	16192.75
795.871	16264.84
796.203	16126.09
796.535	16004.51
796.867	15979.2
797.198	16000.89
797.53	15910.73
797.862	15857.85
798.193	15934.23
798.525	15845.87
798.856	15866.89
799.188	15694.23
799.519	15730.62
799.85	15606.1
800.182	15619.21
800.513	15633.44
800.844	15520
801.175	15513.45
801.506	15592.32
801.837	15433.22
802.168	15430.96
802.499	15428.7
802.83	15281.59
803.161	15363.85
803.491	15267.35
803.822	15270.97
804.153	15259.9
804.483	15089.5
804.814	15123.18
805.145	15011.54
805.475	15069.84
805.805	15007.02
806.136	14962.5
806.466	15043.4
806.796	14957.53
807.126	14802.96
807.457	14877.08
807.787	14846.35
808.117	14786.46
808.447	14722.51
808.777	14772.68
809.107	14662.4
809.436	14714.15
809.766	14687.71
810.096	14612
810.426	14570.87
810.755	14489.75
811.085	14576.75
811.414	14573.81
811.744	14438.9
812.073	14421.05
812.403	14389.18
812.732	14471.89
813.061	14297.21
813.39	14216.98
813.719	14286.14
814.049	14356.64
814.378	14176.08
814.707	14152.13
815.036	14239.36
815.365	14151
815.693	14013.83
816.022	14062.19
816.351	13964.34
816.68	13995.97
817.008	14069.87
817.337	13841.85
817.665	13770.22
817.994	13851.57
818.322	13918.91
818.651	13750.1
818.979	13746.49
819.307	13907.39
819.636	13765.47
819.964	13670.33
820.292	13829.42
820.62	13776.09
820.948	13714.17
821.276	13723.44
821.604	13681.86
821.932	13723.89
822.259	13721.18
822.587	13644.34
822.915	13637.34
823.243	13692.48
823.57	13628.3
823.898	13636.66
824.225	13645.02
824.553	13704.68
824.88	13667.39
825.207	13761.63
825.535	13732.03
825.862	13707.62
826.189	13682.31
826.516	13649.32
826.843	13761.63
827.17	13674.17
827.497	13821.97
827.824	13721.63
828.151	13788.3
828.478	13756.43
828.805	13840.95
829.131	13720.73
829.458	13697
829.785	13691.58
830.111	13735.19
830.438	13798.01
830.764	13712.59
831.09	13769.09
831.417	13699.71
831.743	13725.02
832.069	13725.02
832.395	13641.41
832.722	13740.61
833.048	13627.85
833.374	13683.67
833.7	13584.91
834.026	13632.59
834.351	13617.9
834.677	13580.39
835.003	13560.28
835.329	13584.69
835.654	13607.06
835.98	13474.18
836.306	13574.74
836.631	13429.66
836.956	13526.38
837.282	13523.9
837.607	13468.53
837.932	13399.83
838.258	13434.41
838.583	13469.43
838.908	13342.43
839.233	13421.53
839.558	13347.18
839.883	13280.51
840.208	13225.15
840.533	13218.59
840.858	13242.1
841.182	13268.31
841.507	13259.27
841.832	13137.01
842.156	13121.65
842.481	13136.79
842.805	13081.42
843.13	13085.26
843.454	13038.94
843.778	13005.72
844.103	12888.66
844.427	12932.05
844.751	12881.2
845.075	12880.75
845.399	12872.61
845.723	12797.14
846.047	12831.48
846.371	12694.77
846.695	12730.02
847.019	12580.64
847.343	12496.8
847.666	12507.2
847.99	12469.91
848.313	12444.83
848.637	12323.02
848.96	12307.43
849.284	12250.93
849.607	12204.61
849.931	12221.33
850.254	12107.66
850.577	12096.36
850.9	11881.23
851.223	11952.41
851.546	11896.59
851.869	11852.3
852.192	11910.15
852.515	11770.5
852.838	11731.85
853.161	11716.94
853.483	11708.12
853.806	11610.5
854.129	11570.95
854.451	11528.47
854.774	11462.03
855.096	11426.32
855.419	11435.82
855.741	11429.26
856.063	11314.91
856.385	11271.3
856.708	11292.54
857.03	11258.87
857.352	11274.92
857.674	11215.03
857.996	11118.76
858.318	11039.22
858.64	11019.55
858.961	11072.43
859.283	10998.99
859.605	10944.08
859.926	11015.71
860.248	10898.65
860.57	10888.03
860.891	10914.47
861.212	10922.83
861.534	10783.85
861.855	10838.09
862.176	10780.92
862.498	10801.71
862.819	10768.04
863.14	10715.16
863.461	10686
863.782	10705.21
864.103	10710.86
864.424	10671.09
864.745	10629.73
865.065	10559.91
865.386	10605.78
865.707	10557.42
866.027	10644.2
866.348	10502.51
866.668	10577.08
866.989	10441.27
867.309	10451.89
867.63	10455.5
867.95	10452.79
868.27	10368.5
868.59	10416.41
868.91	10442.85
869.23	10388.16
869.55	10300.25
869.87	10309.97
870.19	10384.77
870.51	10307.71
870.83	10280.59
871.15	10280.82
871.469	10282.4
871.789	10274.72
872.109	10192.01
872.428	10175.06
872.748	10184.77
873.067	10142.97
873.386	10112.23
873.706	10124.44
874.025	10124.21
874.344	10118.79
874.663	10129.18
874.982	10092.35
875.301	10061.61
875.62	10037.21
875.939	10053.25
876.258	9986.14
876.577	9928.96
876.896	9966.02
877.214	9936.87
877.533	9902.97
877.852	9885.12
878.17	9923.99
878.489	9957.44
878.807	9942.07
879.125	9841.51
879.444	9847.83
879.762	9837.67
880.08	9822.98
880.398	9800.6
880.716	9789.98
881.034	9704.11
881.352	9755.18
881.67	9725.35
881.988	9722.64
882.306	9678.8
882.624	9694.62
882.941	9667.5
883.259	9658.23
883.577	9527.84
883.894	9593.6
884.212	9576.88
884.529	9598.35
884.846	9452.14
885.164	9426.6
885.481	9389.99
885.798	9494.17
886.115	9444.68
886.432	9364.23
886.75	9368.07
887.067	9401.97
887.383	9405.36
887.7	9322.65
888.017	9295.31
888.334	9325.36
888.651	9257.79
888.967	9221.64
889.284	9267.74
889.6	9129.44
889.917	9118.14
890.233	9099.38
890.55	9081.07
890.866	9084.01
891.182	8954.07
891.498	8898.03
891.815	9004.69
892.131	8948.42
892.447	8923.34
892.763	8925.6
893.079	8840.18
893.395	8864.13
893.71	8822.1
894.026	8823.23
894.342	8741.2
894.657	8708.43
894.973	8697.36
895.289	8753.4
895.604	8640.63
895.92	8658.04
896.235	8552.95
896.55	8586.17
896.865	8597.92
897.181	8506.4
897.496	8519.73
897.811	8444.93
898.126	8404.26
898.441	8363.81
898.756	8421.43
899.071	8277.71
899.386	8300.53
899.7	8242.68
900.015	8222.11
900.33	8143.25
900.644	8148.22
900.959	8127.2
901.273	8086.75
901.588	8083.81
901.902	8048.11
902.216	8060.99
902.531	8010.37
902.845	7979.63
903.159	7904.83
903.473	7902.57
903.787	7900.54
904.101	7822.35
904.415	7811.05
904.729	7880.88
905.042	7712.98
905.356	7700.32
905.67	7710.26
905.984	7638.85
906.297	7637.04
906.611	7602.02
906.924	7599.53
907.237	7567.89
907.551	7495.58
907.864	7505.52
908.177	7518.63
908.491	7427.11
908.804	7396.6
909.117	7368.58
909.43	7327.22
909.743	7246.77
910.056	7272.99
910.368	7285.64
910.681	7218.07
910.994	7191.18
911.307	7208.81
911.619	7107.12
911.932	7120.45
912.244	7064.4
912.557	7068.7
912.869	6985.31
913.181	6934.69
913.494	7000.9
913.806	6874.13
914.118	6929.72
914.43	6891.98
914.742	6847.46
915.054	6828.03
915.366	6814.24
915.678	6811.76
915.99	6743.51
916.302	6662.61
916.613	6665.55
916.925	6679.1
917.236	6633.68
917.548	6555.27
917.859	6626.9
918.171	6580.8
918.482	6548.94
918.794	6500.58
919.105	6473.91
919.416	6462.84
919.727	6444.76
920.038	6412.22
920.349	6386.91
920.66	6357.53
920.971	6325.44
921.282	6350.3
921.593	6243.18
921.903	6199.34
922.214	6242.28
922.525	6197.53
922.835	6165.45
923.146	6123.64
923.456	6134.94
923.767	6106.46
924.077	6113.47
924.387	6056.97
924.697	5974.94
925.008	5977.88
925.318	5925
925.628	6020.59
925.938	5892.68
926.248	5889.97
926.558	5858.33
926.867	5881.38
927.177	5841.39
927.487	5781.27
927.796	5765.46
928.106	5763.2
928.416	5699.47
928.725	5727.94
929.034	5659.7
929.344	5672.8
929.653	5640.26
929.962	5606.14
930.271	5526.59
930.581	5529.76
930.89	5541.05
931.199	5475.52
931.508	5529.98
931.817	5489.76
932.125	5487.5
932.434	5475.75
932.743	5464.67
933.051	5346.26
933.36	5329.31
933.669	5373.6
933.977	5343.55
934.286	5303.77
934.594	5246.37
934.902	5218.13
935.21	5234.85
935.519	5179.26
935.827	5214.06
936.135	5191.91
936.443	5104.23
936.751	5137.45
937.059	5113.04
937.367	5090.45
937.674	5092.03
937.982	5054.06
938.29	5001.41
938.597	5006.83
938.905	4937.68
939.213	4917.12
939.52	4953.05
939.827	4934.07
940.135	4858.36
940.442	4872.6
940.749	4856.55
941.056	4853.62
941.363	4780.85
941.67	4798.48
941.977	4760.51
942.284	4752.83
942.591	4694.3
942.898	4660.4
943.205	4692.94
943.511	4702.21
943.818	4640.29
944.125	4624.92
944.431	4608.65
944.738	4573.85
945.044	4558.71
945.35	4543.12
945.657	4545.83
945.963	4507.41
946.269	4460.63
946.575	4479.16
946.881	4413.17
947.187	4436.23
947.493	4381.31
947.799	4384.93
948.105	4330.92
948.41	4346.96
948.716	4363.46
949.022	4287.53
949.327	4317.13
949.633	4277.81
949.938	4257.47
950.244	4273.29
950.549	4185.16
950.854	4261.54
951.16	4213.41
951.465	4152.84
951.77	4181.09
952.075	4152.84
952.38	4115.78
952.685	4076.69
952.99	4039.17
953.294	4062.68
953.599	4046.4
953.904	4019.06
954.209	4013.86
954.513	4012.06
954.818	4004.6
955.122	3976.58
955.426	3921.66
955.731	3931.83
956.035	3906.07
956.339	3917.14
956.643	3937.93
956.948	3873.08
957.252	3815.22
957.556	3835.56
957.86	3796.47
958.163	3805.06
958.467	3810.7
958.771	3771.84
959.075	3746.07
959.378	3750.59
959.682	3721.89
959.985	3713.76
960.289	3713.53
960.592	3671.27
960.896	3663.36
961.199	3660.65
961.502	3660.2
961.805	3603.03
962.108	3588.34
962.411	3561.22
962.714	3577.04
963.017	3557.6
963.32	3552.86
963.623	3520.09
963.926	3523.48
964.228	3477.83
964.531	3471.05
964.833	3475.12
965.136	3453.2
965.438	3433.54
965.741	3405.07
966.043	3415.24
966.345	3425.4
966.648	3352.19
966.95	3344.73
967.252	3344.28
967.554	3322.36
967.856	3337.95
968.158	3266.31
968.46	3276.71
968.761	3276.93
969.063	3265.63
969.365	3227.9
969.666	3234.9
969.968	3168.69
970.269	3205.52
970.571	3160.55
970.872	3166.65
971.174	3157.84
971.475	3149.03
971.776	3117.16
972.077	3119.2
972.378	3109.25
972.679	3126.88
972.98	3092.98
973.281	3045.53
973.582	3036.94
973.883	3044.85
974.183	3039.65
974.484	3017.96
974.785	2998.75
975.085	2976.38
975.386	3000.78
975.686	2972.53
975.986	2957.85
976.287	2913.1
976.587	2921.91
976.887	2891.18
977.187	2898.41
977.487	2908.81
977.787	2862.71
978.087	2853.22
978.387	2841.01
978.687	2845.08
978.987	2814.12
979.286	2822.93
979.586	2799.66
979.885	2780.68
980.185	2777.96
980.484	2769.6
980.784	2783.84
981.083	2724.63
981.382	2716.5
981.682	2738.19
981.981	2663.62
982.28	2688.02
982.579	2687.12
982.878	2683.05
983.177	2631.07
983.475	2637.18
983.774	2643.96
984.073	2614.8
984.372	2561.47
984.67	2592.21
984.969	2590.4
985.267	2558.31
985.566	2547.69
985.864	2548.37
986.162	2529.16
986.461	2515.82
986.759	2514.69
987.057	2482.6
987.355	2473.34
987.653	2468.82
987.951	2470.85
988.249	2449.38
988.547	2450.74
988.844	2457.52
989.142	2435.83
989.44	2383.4
989.737	2402.83
990.035	2412.55
990.332	2370.52
990.63	2370.29
990.927	2396.73
991.224	2336.62
991.521	2345.88
991.819	2342.72
992.116	2289.61
992.413	2314.7
992.71	2287.81
993.006	2281.48
993.303	2276.51
993.6	2259.11
993.897	2247.36
994.193	2243.51
994.49	2241.03
994.787	2232.89
995.083	2199.9
995.379	2206.45
995.676	2197.64
995.972	2175.95
996.268	2173.69
996.565	2171.65
996.861	2166.68
997.157	2143.4
997.453	2169.17
997.749	2119.45
998.044	2114.03
998.34	2126.91
998.636	2103.63
998.932	2081.48
999.227	2062.73
999.523	2053.46
999.818	2022.05
1000.114	2011.2
1000.409	2035.61
1000.704	1996.06
1001	2005.1
1001.295	1998.32
1001.59	1972.34
1001.885	1954.26
1002.18	1972.56
1002.475	1952.67
1002.77	1916.74
1003.065	1920.36
1003.359	1933.47
1003.654	1918.78
1003.949	1907.7
1004.243	1875.61
1004.538	1856.86
1004.832	1884.65
1005.127	1846.01
1005.421	1886.24
1005.715	1803.98
1006.009	1831.1
1006.304	1799.68
1006.598	1789.52
1006.892	1777.99
1007.186	1794.26
1007.48	1765.33
1007.773	1760.82
1008.067	1769.85
1008.361	1760.82
1008.655	1749.74
1008.948	1702.51
1009.242	1709.52
1009.535	1689.86
1009.829	1674.49
1010.122	1674.94
1010.415	1698.67
1010.708	1684.66
1011.001	1662.06
1011.295	1626.36
1011.588	1633.81
1011.881	1615.51
1012.173	1599.01
1012.466	1618.67
1012.759	1612.57
1013.052	1594.72
1013.344	1614.83
1013.637	1590.65
1013.93	1547.49
1014.222	1582.51
1014.514	1554.49
1014.807	1558.56
1015.099	1524.89
1015.391	1528.28
1015.683	1517.66
1015.976	1494.16
1016.268	1478.11
1016.56	1481.5
1016.851	1480.6
1017.143	1471.11
1017.435	1462.52
1017.727	1433.37
1018.018	1447.6
1018.31	1417.1
1018.602	1406.02
1018.893	1376.64
1019.185	1396.53
1019.476	1388.85
1019.767	1379.81
1020.058	1373.48
1020.35	1375.29
1020.641	1339.13
1020.932	1360.6
1021.223	1328.28
1021.514	1341.39
1021.804	1340.26
1022.095	1292.58
1022.386	1305.46
1022.677	1295.97
1022.967	1316.31
1023.258	1295.06
1023.548	1280.83
1023.839	1285.12
1024.129	1276.31
1024.419	1235.86
1024.709	1244.22
1025	1257.78
1025.29	1253.48
1025.58	1207.61
1025.87	1205.58
1026.16	1203.32
1026.449	1187.5
1026.739	1168.51
1027.029	1203.77
1027.319	1189.98
1027.608	1154.5
1027.898	1168.06
1028.187	1130.1
1028.477	1149.53
1028.766	1170.55
1029.055	1135.07
1029.344	1116.31
1029.634	1123.32
1029.923	1136.65
1030.212	1143.2
1030.501	1096.43
1030.79	1102.75
1031.078	1094.17
1031.367	1099.36
1031.656	1089.42
1031.945	1064.11
1032.233	1059.36
1032.522	1053.72
1032.81	1033.15
1033.099	1017.11
1033.387	1022.08
1033.675	994.28
1033.963	1000.84
1034.251	1008.97
1034.54	984.34
1034.828	1018.46
1035.116	1001.97
1035.403	970.1
1035.691	1011.91
1035.979	957.22
1036.267	960.84
1036.554	958.58
1036.842	954.06
1037.129	950.67
1037.417	949.99
1037.704	939.14
1037.992	937.79
1038.279	940.05
1038.566	903.89
1038.853	903.89
1039.14	903.89
