Data from hue_270_FLMS001491_00076.txt Node
Date: Tue Feb 07 15:57:41 GMT 2017
User: dcchb
Spectrometer: FLMS00149
Trigger mode: 0
Integration Time (sec): 2.000000E-2
Scans to average: 10
Electric dark correction enabled: true
Nonlinearity correction enabled: false
Boxcar width: 0
XAxis mode: Wavelengths
Number of Pixels in Spectrum: 2048
>>>>>Begin Spectral Data<<<<<
341.393	-23.66
341.776	-23.66
342.16	-23.66
342.543	-61.85
342.927	-67.5
343.31	-81.74
343.693	-54.39
344.077	-53.04
344.46	-51.23
344.843	-59.36
345.226	-50.78
345.61	-38.12
345.993	-13.94
346.376	0.97
346.759	12.5
347.142	32.16
347.525	38.49
347.908	65.83
348.291	68.32
348.674	93.63
349.057	90.69
349.44	129.33
349.823	138.15
350.206	161.42
350.588	210.46
350.971	214.98
351.354	211.14
351.737	223.12
352.119	223.57
352.502	242.78
352.884	247.97
353.267	278.48
353.65	289.33
354.032	278.93
354.414	285.03
354.797	323
355.179	307.41
355.562	311.93
355.944	316.9
356.326	311.02
356.709	325.03
357.091	308.31
357.473	334.07
357.855	315.09
358.238	341.98
358.62	332.04
359.002	351.93
359.384	323.23
359.766	355.32
360.148	323.23
360.53	314.19
360.912	361.64
361.294	329.55
361.676	309.89
362.057	321.42
362.439	312.6
362.821	316.22
363.203	335.2
363.584	334.53
363.966	329.33
364.348	318.93
364.729	303.34
365.111	314.64
365.493	287.97
365.874	315.99
366.256	315.54
366.637	304.92
367.019	321.64
367.4	305.83
367.781	309.89
368.163	302.66
368.544	294.98
368.925	286.16
369.306	330.91
369.688	283.9
370.069	318.93
370.45	295.66
370.831	283.23
371.212	310.57
371.593	304.02
371.974	306.73
372.355	311.93
372.736	309.22
373.117	306.5
373.498	299.95
373.879	320.74
374.26	289.78
374.641	290.23
375.021	330.23
375.402	316.22
375.783	306.73
376.163	281.19
376.544	303.34
376.925	327.75
377.305	315.77
377.686	309.89
378.066	314.41
378.447	314.41
378.827	300.18
379.208	325.71
379.588	329.33
379.968	323.9
380.349	310.57
380.729	312.83
381.109	329.33
381.489	328.42
381.87	346.5
382.25	326.16
382.63	311.93
383.01	323
383.39	321.87
383.77	328.88
384.15	325.26
384.53	327.07
384.91	341.08
385.29	353.28
385.67	338.82
386.049	343.34
386.429	344.24
386.809	358.03
387.189	343.79
387.568	363.9
387.948	339.5
388.328	335.2
388.707	346.95
389.087	368.2
389.466	361.19
389.846	361.87
390.225	353.28
390.605	368.42
390.984	344.69
391.363	348.54
391.743	367.74
392.122	359.16
392.501	366.61
392.881	382.66
393.26	372.04
393.639	362.09
394.018	387.86
394.397	387.86
394.776	392.38
395.155	364.58
395.534	370.23
395.913	375.88
396.292	358.03
396.671	375.2
397.05	375.88
397.429	371.36
397.808	393.96
398.186	407.74
398.565	397.35
398.944	395.99
399.323	390.12
399.701	379.04
400.08	396.22
400.458	405.48
400.837	419.04
401.215	400.96
401.594	413.39
401.972	430.79
402.351	432.83
402.729	429.89
403.107	440.74
403.486	442.32
403.864	438.93
404.242	444.58
404.62	446.39
404.999	433.96
405.377	441.64
405.755	449.55
406.133	438.7
406.511	428.76
406.889	446.84
407.267	443.67
407.645	477.8
408.023	486.16
408.401	483.9
408.779	490
409.156	480.28
409.534	485.71
409.912	494.75
410.29	502.2
410.667	520.96
411.045	513.28
411.422	509.44
411.8	537.91
412.178	515.31
412.555	545.37
412.933	546.5
413.31	552.82
413.687	562.99
414.065	584.46
414.442	588.3
414.819	553.95
415.197	570.9
415.574	582.65
415.951	606.83
416.328	606.16
416.705	597.12
417.082	628.3
417.46	630.56
417.837	627.4
418.214	619.49
418.591	626.27
418.967	664.01
419.344	676.21
419.721	654.97
420.098	665.59
420.475	673.27
420.852	680.96
421.228	695.19
421.605	732.71
421.982	703.33
422.358	712.37
422.735	737
423.111	741.29
423.488	744.01
423.864	770.45
424.241	799.6
424.617	798.24
424.994	801.86
425.37	812.48
425.746	835.3
426.123	842.53
426.499	832.82
426.875	840.05
427.251	847.96
427.627	856.32
428.003	887.96
428.379	877.56
428.756	886.15
429.132	904.23
429.507	918.69
429.883	935.41
430.259	935.41
430.635	936.54
431.011	960.72
431.387	984
431.763	1022.87
432.138	965.02
432.514	1010.21
432.89	999.37
433.265	1047.5
433.641	1063.77
434.016	1086.14
434.392	1069.42
434.767	1107.84
435.143	1124.79
435.518	1122.75
435.894	1154.84
436.269	1183.32
436.644	1198.01
437.02	1214.5
437.395	1208.17
437.77	1214.05
438.145	1247.5
438.52	1261.05
438.895	1277.1
439.271	1271
439.646	1330.43
440.021	1321.17
440.395	1335.85
440.77	1306.25
441.145	1372.69
441.52	1385.12
441.895	1375.18
442.27	1412.91
442.645	1411.78
443.019	1442.07
443.394	1447.49
443.769	1445.46
444.143	1436.42
444.518	1477.77
444.892	1438.9
445.267	1489.3
445.641	1485.68
446.016	1501.27
446.39	1520.48
446.764	1524.1
447.139	1521.16
447.513	1521.84
447.887	1552.35
448.262	1547.37
448.636	1546.02
449.01	1576.3
449.384	1578.33
449.758	1583.76
450.132	1616.53
450.506	1641.16
450.88	1614.04
451.254	1642.06
451.628	1651.78
452.002	1652.23
452.376	1673.02
452.75	1696.75
453.123	1690.2
453.497	1690.87
453.871	1711.89
454.244	1783.07
454.618	1764.54
454.992	1800.25
455.365	1801.15
455.739	1849.51
456.112	1846.58
456.486	1874.82
456.859	1847.93
457.232	1900.13
457.606	1910.75
457.979	1946.91
458.352	1952.11
458.725	1988.72
459.099	1947.59
459.472	1978.1
459.845	2033.24
460.218	2017.42
460.591	2010.19
460.964	2078.89
461.337	2100.81
461.71	2138.55
462.083	2149.39
462.456	2180.58
462.829	2178.54
463.201	2180.58
463.574	2228.26
463.947	2225.1
464.32	2291.76
464.692	2266.23
465.065	2300.35
465.438	2339.22
465.81	2342.83
466.183	2350.29
466.555	2412.66
466.928	2445.88
467.3	2376.28
467.672	2454.02
468.045	2505.99
468.417	2483.85
468.789	2515.71
469.161	2576.73
469.534	2605.43
469.906	2611.08
470.278	2624.63
470.65	2657.85
471.022	2709.83
471.394	2748.92
471.766	2788.47
472.138	2780.11
472.51	2828.02
472.882	2867.34
473.253	2866.66
473.625	2936.04
473.997	2969.71
474.369	2989.14
474.74	3037.05
475.112	3068.01
475.484	3095.81
475.855	3118.86
476.227	3148.46
476.598	3213.55
476.97	3243.15
477.341	3312.75
477.713	3349.14
478.084	3378.96
478.455	3427.33
478.827	3486.08
479.198	3530.15
479.569	3557.49
479.94	3604.04
480.311	3636.36
480.682	3691.27
481.053	3745.73
481.424	3785.51
481.795	3828.67
482.166	3853.3
482.537	3956.12
482.908	3995.67
483.279	4019.17
483.65	4056.01
484.021	4128.32
484.391	4127.87
484.762	4234.31
485.133	4220.07
485.503	4273.63
485.874	4326.28
486.244	4312.05
486.615	4446.28
486.985	4404.02
487.356	4531.7
487.726	4580.29
488.097	4624.13
488.467	4653.06
488.837	4753.84
489.207	4750.91
489.578	4794.52
489.948	4805.37
490.318	4897.57
490.688	4906.83
491.058	4922.2
491.428	5025.02
491.798	5063.89
492.168	5149.09
492.538	5155.42
492.908	5238.12
493.278	5279.93
493.648	5248.52
494.017	5324
494.387	5311.34
494.757	5392.02
495.126	5423.66
495.496	5424.11
495.866	5436.99
496.235	5526.25
496.605	5547.27
496.974	5534.84
497.344	5630.43
497.713	5627.49
498.082	5696.19
498.452	5737.55
498.821	5672.46
499.19	5735.74
499.559	5759.02
499.928	5782.74
500.298	5824.55
500.667	5850.99
501.036	5821.61
501.405	5893.93
501.774	5886.92
502.143	5926.24
502.512	5873.59
502.88	5976.18
503.249	5969.41
503.618	5984.32
503.987	6023.19
504.356	6081.72
504.724	6062.51
505.093	6074.71
505.462	6072
505.83	6103.64
506.199	6136.86
506.567	6181.15
506.936	6170.53
507.304	6239.23
507.672	6249.17
508.041	6266.12
508.409	6281.71
508.777	6332.79
509.145	6365.1
509.514	6351.32
509.882	6361.26
510.25	6340.02
510.618	6384.99
510.986	6432.22
511.354	6454.36
511.722	6454.59
512.09	6482.16
512.458	6515.38
512.826	6515.15
513.193	6532.78
513.561	6553.8
513.929	6545.89
514.297	6568.71
514.664	6618.88
515.032	6601.93
515.4	6608.94
515.767	6698.88
516.135	6688.48
516.502	6621.82
516.869	6725.32
517.237	6651.65
517.604	6658.43
517.972	6749.72
518.339	6701.59
518.706	6739.55
519.073	6761.93
519.44	6734.36
519.808	6810.29
520.175	6763.06
520.542	6888.48
520.909	6863.17
521.276	6835.6
521.643	6860.46
522.009	6938.19
522.376	6939.32
522.743	6942.26
523.11	6971.19
523.477	7035.37
523.843	7061.13
524.21	7030.17
524.577	7144.52
524.943	7099.77
525.31	7064.97
525.676	7192.65
526.043	7194.01
526.409	7236.72
526.776	7215.02
527.142	7251.41
527.508	7276.49
527.874	7268.35
528.241	7289.6
528.607	7288.92
528.973	7352.19
529.339	7314
529.705	7327.79
530.071	7381.57
530.437	7408.01
530.803	7427.67
531.169	7478.29
531.535	7443.72
531.901	7432.19
532.267	7502.02
532.632	7565.75
532.998	7489.82
533.364	7559.65
533.73	7570.27
534.095	7570.72
534.461	7611.17
534.826	7569.82
535.192	7600.32
535.557	7665.86
535.923	7565.07
536.288	7671.06
536.653	7657.95
537.019	7587.44
537.384	7655.46
537.749	7671.73
538.114	7660.89
538.479	7688.46
538.845	7672.64
539.21	7650.94
539.575	7654.56
539.94	7669.93
540.305	7749.7
540.67	7738.17
541.034	7703.6
541.399	7714.44
541.764	7739.98
542.129	7710.6
542.494	7761.22
542.858	7722.35
543.223	7766.87
543.587	7781.56
543.952	7761.45
544.316	7775.01
544.681	7760.54
545.045	7850.03
545.41	7830.6
545.774	7763.71
546.138	7838.28
546.503	7800.09
546.867	7824.95
547.231	7838.06
547.595	7855.68
547.959	7875.57
548.324	7880.32
548.688	7924.38
549.052	7840.54
549.416	7891.84
549.779	7909.47
550.143	7823.37
550.507	7890.26
550.871	7889.13
551.235	7864.04
551.599	7914.44
551.962	7984.27
552.326	7926.64
552.689	7936.36
553.053	7938.84
553.417	7893.65
553.78	8055.45
554.143	8012.97
554.507	7968.45
554.87	8062.91
555.234	8107.65
555.597	8024.72
555.96	8100.2
556.323	8007.77
556.686	8050.03
557.05	8047.54
557.413	8069.24
557.776	8116.47
558.139	8119.18
558.502	8125.73
558.865	8189.69
559.228	8141.33
559.59	8237.37
559.953	8219.74
560.316	8281.66
560.679	8226.97
561.041	8281.21
561.404	8322.56
561.767	8364.37
562.129	8291.83
562.492	8388.78
562.854	8420.41
563.217	8419.06
563.579	8431.26
563.941	8478.27
564.304	8502.9
564.666	8487.98
565.028	8549.22
565.39	8530.02
565.753	8539.96
566.115	8597.58
566.477	8644.36
566.839	8675.55
567.201	8749.22
567.563	8726.17
567.925	8786.05
568.287	8725.49
568.648	8758.26
569.01	8847.3
569.372	8922.55
569.734	8955.32
570.095	8925.71
570.457	8891.36
570.819	8887.52
571.18	8969.55
571.542	9086.39
571.903	9059.27
572.265	9054.97
572.626	9077.12
572.987	9143.78
573.349	9142.88
573.71	9141.53
574.071	9183.11
574.432	9187.63
574.794	9258.58
575.155	9288.19
575.516	9260.39
575.877	9306.72
576.238	9334.29
576.599	9457.9
576.96	9361.41
577.32	9429.43
577.681	9542.87
578.042	9488.41
578.403	9488.63
578.763	9494.06
579.124	9575.41
579.485	9629.42
579.845	9633.72
580.206	9616.09
580.566	9674.17
580.927	9701.06
581.287	9748.74
581.648	9749.64
582.008	9859.7
582.368	9802.75
582.728	9805.46
583.089	9852.24
583.449	9895.86
583.809	9995.51
584.169	9933.37
584.529	9954.16
584.889	10068.05
585.249	10060.6
585.609	10063.53
585.969	10110.09
586.329	10082.97
586.688	10207.26
587.048	10105.34
587.408	10156.87
587.768	10233.02
588.127	10241.61
588.487	10230.31
588.846	10261.04
589.206	10333.13
589.565	10316.18
589.925	10369.97
590.284	10348.5
590.643	10399.12
591.003	10448.38
591.362	10532.22
591.721	10503.52
592.08	10529.74
592.44	10510.98
592.799	10520.7
593.158	10605.67
593.517	10562.5
593.876	10664.2
594.235	10644.99
594.593	10652.45
594.952	10628.27
595.311	10696.96
595.67	10679.56
596.029	10739.9
596.387	10706.91
596.746	10760.92
597.104	10781.48
597.463	10792.56
597.822	10859.45
598.18	10736.96
598.538	10798.2
598.897	10852.89
599.255	10767.92
599.613	11016.73
599.972	10952.1
600.33	10941.25
600.688	10924.98
601.046	10900.57
601.404	10937.64
601.762	10965.43
602.12	10982.38
602.478	11002.72
602.836	10919.33
603.194	10916.39
603.552	10929.5
603.91	10938.09
604.268	11011.76
604.625	10971.08
604.983	11053.79
605.341	10945.09
605.698	11052.44
606.056	11110.51
606.413	11106.9
606.771	11139.89
607.128	11118.65
607.485	11087.91
607.843	11112.77
608.2	11177.86
608.557	11216.05
608.914	11112.55
609.272	11176.73
609.629	11178.76
609.986	11307.8
610.343	11212.88
610.7	11283.39
611.057	11269.38
611.414	11248.14
611.771	11247.46
612.127	11333.56
612.484	11391.86
612.841	11385.99
613.198	11370.39
613.554	11357.51
613.911	11340.11
614.267	11372.43
614.624	11366.33
614.98	11398.64
615.337	11388.7
615.693	11481.35
616.05	11433.89
616.406	11496.49
616.762	11519.99
617.118	11500.56
617.475	11447.23
617.831	11477.73
618.187	11493.1
618.543	11502.37
618.899	11472.76
619.255	11502.14
619.611	11490.62
619.967	11602.48
620.323	11623.72
620.678	11513.67
621.034	11535.81
621.39	11549.15
621.746	11521.8
622.101	11677.28
622.457	11576.04
622.812	11546.66
623.168	11552.76
623.523	11595.92
623.879	11661.68
624.234	11587.34
624.589	11617.62
624.945	11596.38
625.3	11598.86
625.655	11625.75
626.01	11561.12
626.365	11611.06
626.72	11578.07
627.075	11566.32
627.43	11602.48
627.785	11586.21
628.14	11579.43
628.495	11529.71
628.85	11582.82
629.205	11510.73
629.559	11568.13
629.914	11500.79
630.269	11518.19
630.623	11450.17
630.978	11432.76
631.332	11480.9
631.687	11476.15
632.041	11450.39
632.396	11426.21
632.75	11420.11
633.104	11463.95
633.459	11380.56
633.813	11404.06
634.167	11403.61
634.521	11338.76
634.875	11375.82
635.229	11322.26
635.583	11239.1
635.937	11399.54
636.291	11277.97
636.645	11309.38
636.999	11270.73
637.352	11287.91
637.706	11204.07
638.06	11285.42
638.413	11240
638.767	11189.61
639.121	11245.2
639.474	11135.82
639.828	11238.19
640.181	11171.3
640.534	11235.48
640.888	11094.92
641.241	11164.52
641.594	11142.15
641.947	11181.47
642.301	11239.78
642.654	11088.37
643.007	11124.75
643.36	11036.84
643.713	10987.58
644.066	11136.05
644.419	11075.71
644.771	11030.74
645.124	10949.39
645.477	10837.75
645.83	10825.77
646.182	10773.57
646.535	10756.4
646.888	10693.57
647.24	10654.48
647.593	10726.34
647.945	10733.57
648.298	10692.9
648.65	10680.47
649.002	10621.71
649.355	10682.5
649.707	10678.43
650.059	10706.91
650.411	10887.02
650.763	10859.22
651.115	10955.71
651.467	10971.08
651.819	10961.14
652.171	10937.64
652.523	10886.79
652.875	10875.26
653.227	10926.11
653.578	10910.74
653.93	10959.33
654.282	10866.68
654.633	10860.58
654.985	10894.02
655.337	10943.29
655.688	10967.69
656.039	10907.81
656.391	10894.02
656.742	10938.31
657.094	10879.33
657.445	10923.4
657.796	10945.55
658.147	10889.05
658.498	10952.55
658.849	10898.99
659.2	10868.03
659.551	10888.15
659.902	10955.26
660.253	10909.84
660.604	10920.46
660.955	10812.22
661.306	10880.24
661.656	10899.22
662.007	10969.95
662.358	10959.78
662.708	10922.04
663.059	10908.03
663.409	10879.33
663.76	10882.72
664.11	10938.54
664.461	10881.14
664.811	10874.81
665.161	10927.24
665.511	10888.82
665.862	10927.92
666.212	10944.19
666.562	10976.05
666.912	10894.02
667.262	10913
667.612	10908.03
667.962	10898.54
668.312	10889.05
668.662	10998.43
669.011	10905.32
669.361	10902.38
669.711	10825.55
670.06	10912.33
670.41	10843.85
670.76	10854.02
671.109	10813.35
671.459	10906.9
671.808	10838.88
672.157	10933.57
672.507	10768.83
672.856	10818.77
673.205	10836.85
673.554	10856.51
673.904	10832.55
674.253	10876.17
674.602	10802.5
674.951	10625.33
675.3	10585.78
675.649	10724.76
675.998	10769.05
676.346	10735.61
676.695	10805.21
677.044	10744.42
677.393	10833.91
677.741	10778.77
678.09	10757.53
678.438	10732.9
678.787	10737.42
679.135	10755.72
679.484	10667.13
679.832	10669.17
680.181	10576.29
680.529	10608.38
680.877	10557.53
681.225	10605.44
681.573	10633.24
681.922	10438.67
682.27	10482.73
682.618	10535.61
682.966	10503.52
683.314	10488.38
683.661	10482.96
684.009	10482.73
684.357	10359.12
684.705	10363.87
685.053	10364.32
685.4	10339.46
685.748	10294.04
686.095	10251.33
686.443	10276.64
686.79	10181.05
687.138	10287.94
687.485	10272.79
687.832	10155.28
688.18	10233.02
688.527	10163.87
688.874	10119.35
689.221	10081.16
689.568	10064.44
689.915	9974.27
690.262	9996.19
690.609	9941.28
690.956	9941.28
691.303	9924.1
691.65	9854.73
691.997	9839.36
692.344	9749.64
692.69	9763.43
693.037	9838.23
693.383	9699.02
693.73	9713.26
694.077	9669.87
694.423	9653.6
694.769	9583.1
695.116	9596.43
695.462	9559.59
695.808	9547.62
696.155	9513.49
696.501	9468.07
696.847	9456.55
697.193	9286.61
697.539	9359.37
697.885	9290.22
698.231	9273.73
698.577	9287.51
698.923	9242.54
699.269	9229.43
699.614	9174.74
699.96	9133.39
700.306	9109.89
700.651	9119.6
700.997	9033.96
701.342	9045.26
701.688	9058.14
702.033	8998.93
702.379	8972.94
702.724	8915.77
703.069	8965.71
703.415	8812.72
703.76	8875.09
704.105	8814.08
704.45	8776.11
704.795	8754.19
705.14	8730.91
705.485	8698.15
705.83	8617.92
706.175	8667.87
706.52	8595.78
706.865	8622.67
707.209	8603.91
707.554	8492.28
707.899	8541.99
708.243	8512.39
708.588	8476.23
708.932	8477.14
709.277	8413.41
709.621	8368.44
709.966	8371.38
710.31	8312.17
710.654	8323.69
710.998	8314.65
711.342	8357.36
711.687	8312.39
712.031	8339.74
712.375	8211.15
712.719	8183.81
713.063	8209.8
713.407	8208.44
713.75	8126.64
714.094	8101.33
714.438	8181.32
714.782	8099.97
715.125	8048.22
715.469	8065.17
715.812	8120.31
716.156	8043.02
716.499	8118.05
716.843	8067.2
717.186	8032.18
717.53	8005.28
717.873	8052.29
718.216	8000.31
718.559	7968
718.902	7909.47
719.246	7877.83
719.589	7944.49
719.932	7876.7
720.275	7920.99
720.617	7904.72
720.96	7904.5
721.303	7847.32
721.646	7876.47
721.989	7858.85
722.331	7882.8
722.674	7810.71
723.016	7877.83
723.359	7792.86
723.701	7819.3
724.044	7782.92
724.386	7704.95
724.729	7753.54
725.071	7765.06
725.413	7771.17
725.755	7790.37
726.097	7702.69
726.439	7695.69
726.782	7692.07
727.124	7723.26
727.465	7720.77
727.807	7723.94
728.149	7659.98
728.491	7639.42
728.833	7701.11
729.175	7619.98
729.516	7613.43
729.858	7617.27
730.199	7600.55
730.541	7587.67
730.882	7682.13
731.224	7650.49
731.565	7597.16
731.906	7649.36
732.248	7662.92
732.589	7667.44
732.93	7628.57
733.271	7612.75
733.612	7649.14
733.953	7615.69
734.294	7635.35
734.635	7552.64
734.976	7629.93
735.317	7628.12
735.658	7594
735.999	7606.65
736.339	7568.01
736.68	7644.39
737.021	7662.02
737.361	7620.44
737.702	7619.76
738.042	7630.15
738.383	7622.24
738.723	7652.07
739.063	7628.8
739.404	7628.57
739.744	7669.25
740.084	7656.59
740.424	7635.58
740.764	7667.21
741.104	7706.31
741.444	7642.58
741.784	7737.27
742.124	7678.74
742.464	7763.26
742.804	7718.74
743.143	7784.05
743.483	7765.06
743.823	7744.95
744.162	7740.21
744.502	7748.34
744.841	7796.93
745.181	7889.35
745.52	7829.24
745.86	7932.07
746.199	7936.36
746.538	8027.88
746.877	8040.09
747.216	8021.55
747.556	8112.63
747.895	8114.43
748.234	8116.69
748.573	8130.03
748.911	8207.09
749.25	8299.06
749.589	8250.7
749.928	8391.71
750.267	8544.48
750.605	8523.24
750.944	8597.36
751.283	8669.22
751.621	8732.5
751.96	8784.47
752.298	8836
752.636	8928.2
752.975	9009.55
753.313	9044.8
753.651	9238.7
753.989	9269.66
754.327	9370.67
754.666	9434.62
755.004	9572.93
755.342	9700.83
755.679	9820.15
756.017	9934.05
756.355	10048.62
756.693	10091.33
757.031	10275.51
757.368	10393.7
757.706	10488.38
758.044	10655.16
758.381	10807.92
758.719	10869.84
759.056	11108.48
759.394	11253.56
759.731	11297.85
760.068	11466.44
760.405	11615.58
760.743	11778.29
761.08	11941.45
761.417	12053.76
761.754	12164.72
762.091	12304.61
762.428	12461.21
762.765	12607.42
763.102	12841.77
763.438	12882.44
763.775	13016.9
764.112	13191.14
764.449	13394.29
764.785	13529.88
765.122	13620.28
765.458	13860.05
765.795	13945.69
766.131	14018.69
766.467	14157.44
766.804	14353.14
767.14	14453.48
767.476	14663.64
767.812	14730.53
768.148	14807.36
768.485	14933.46
768.821	15003.29
769.157	15137.3
769.492	15352.66
769.828	15448.48
770.164	15421.81
770.5	15584.97
770.836	15765.98
771.171	15709.49
771.507	15892.99
771.842	15921.69
772.178	16008.24
772.513	16173.88
772.849	16192.87
773.184	16264.95
773.519	16323.94
773.855	16480.54
774.19	16497.94
774.525	16483.7
774.86	16665.85
775.195	16769.35
775.53	16707.88
775.865	16737.26
776.2	16763.7
776.535	16800.08
776.87	16969.79
777.205	17011.6
777.539	16868.55
777.874	17057.25
778.209	17032.17
778.543	17072.39
778.878	16932.73
779.212	17076.01
779.547	17050.92
779.881	17168.21
780.215	17110.58
780.55	17192.39
780.884	17257.02
781.218	17223.35
781.552	17268.54
781.886	17183.57
782.22	17174.31
782.554	17206.17
782.888	17116
783.222	17156.68
783.556	17077.36
783.889	17112.84
784.223	17022.67
784.557	17206.17
784.89	17179.05
785.224	17109
785.557	17115.78
785.891	17165.27
786.224	17143.8
786.558	17055.44
786.891	17113.97
787.224	16933.41
787.557	16988.32
787.891	16966.86
788.224	16940.42
788.557	17084.14
788.89	17010.02
789.223	17016.8
789.556	16895.22
789.888	16829.46
790.221	16724.38
790.554	16762.57
790.887	16798.72
791.219	16687.54
791.552	16720.31
791.884	16626.07
792.217	16694.09
792.549	16616.58
792.882	16613.42
793.214	16532.29
793.546	16593.53
793.879	16456.81
794.211	16394.44
794.543	16509.69
794.875	16341.11
795.207	16421.11
795.539	16367.78
795.871	16400.09
796.203	16202.36
796.535	16265.41
796.867	16229.7
797.198	16194.67
797.53	16192.19
797.862	16053.21
798.193	16129.36
798.525	16098.4
798.856	15979.99
799.188	15939.09
799.519	15882.36
799.85	15804.63
800.182	15904.74
800.513	15783.61
800.844	15770.96
801.175	15825.87
801.506	15742.03
801.837	15708.36
802.168	15670.62
802.499	15654.35
802.83	15559.89
803.161	15571.41
803.491	15475.82
803.822	15585.42
804.153	15445.99
804.483	15338.88
804.814	15289.16
805.145	15194.93
805.475	15340.01
805.805	15204.42
806.136	15251.65
806.466	15230.4
806.796	15168.03
807.126	15142.27
807.457	15052.33
807.787	15074.25
808.117	15015.95
808.447	15078.77
808.777	14966.46
809.107	14928.27
809.436	14985.67
809.766	14878.78
810.096	14867.7
810.426	14798.55
810.755	14802.39
811.085	14818.89
811.414	14772.34
811.744	14648.72
812.073	14728.04
812.403	14667.93
812.732	14597.43
813.061	14591.1
813.39	14465.9
813.719	14481.27
814.049	14611.44
814.378	14476.53
814.707	14429.52
815.036	14464.55
815.365	14403.08
815.693	14328.51
816.022	14281.95
816.351	14318.34
816.68	14242.86
817.008	14212.58
817.337	14098.23
817.665	14111.79
817.994	14145.24
818.322	14015.07
818.651	14052.58
818.979	14091.9
819.307	14060.72
819.636	14042.19
819.964	13993.15
820.292	14086.48
820.62	13961.29
820.948	13926.48
821.276	13995.18
821.604	13907.73
821.932	13893.72
822.259	13923.77
822.587	13952.02
822.915	13900.5
823.243	13905.24
823.57	13854.85
823.898	13874.73
824.225	13945.69
824.553	13919.25
824.88	13966.71
825.207	13978.46
825.535	13888.07
825.862	13982.08
826.189	13919.25
826.516	14036.31
826.843	14004.67
827.17	14029.31
827.497	13984.79
827.824	13959.03
828.151	13978.23
828.478	13935.52
828.805	14070.44
829.131	13990.89
829.458	13995.18
829.785	13876.32
830.111	14032.24
830.438	14023.2
830.764	13912.47
831.09	13989.31
831.417	13940.72
831.743	13974.17
832.069	13982.75
832.395	13841.74
832.722	13965.81
833.048	13885.36
833.374	13895.3
833.7	13855.07
834.026	13914.28
834.351	13850.78
834.677	13901.17
835.003	13977.1
835.329	13876.32
835.654	13913.38
835.98	13754.51
836.306	13742.53
836.631	13757.9
836.956	13872.02
837.282	13788.86
837.607	13695.98
837.932	13681.97
838.258	13668.86
838.583	13632.48
838.908	13583.22
839.233	13679.94
839.558	13560.39
839.883	13584.12
840.208	13511.35
840.533	13504.12
840.858	13544.57
841.182	13571.69
841.507	13430
841.832	13422.09
842.156	13328.99
842.481	13412.37
842.805	13401.75
843.13	13414.18
843.454	13346.61
843.778	13244.02
844.103	13210.12
844.427	13237.01
844.751	13158.59
845.075	13152.49
845.399	13113.17
845.723	13036.79
846.047	13033.63
846.371	12955.89
846.695	12978.03
847.019	12830.92
847.343	12779.85
847.666	12733.97
847.99	12708.21
848.313	12654.88
848.637	12599.97
848.96	12483.81
849.284	12501.44
849.607	12456.69
849.931	12408.78
850.254	12294.66
850.577	12339.41
850.9	12185.06
851.223	12169.47
851.546	12113.88
851.869	12062.58
852.192	12135.57
852.515	11989.81
852.838	11941.68
853.161	11954.56
853.483	11846.09
853.806	11750.27
854.129	11803.38
854.451	11765.86
854.774	11682.02
855.096	11657.84
855.419	11611.29
855.741	11653.32
856.063	11506.89
856.385	11523.16
856.708	11517.96
857.03	11459.2
857.352	11467.11
857.674	11397.51
857.996	11414.91
858.318	11297.85
858.64	11296.04
858.961	11296.04
859.283	11309.15
859.605	11250.17
859.926	11205.43
860.248	11191.41
860.57	11095.82
860.891	11157.97
861.212	11056.73
861.534	11069.84
861.855	11060.12
862.176	11002.72
862.498	11092.66
862.819	11056.28
863.14	10986
863.461	10972.89
863.782	10880.01
864.103	10929.27
864.424	10871.65
864.745	10856.51
865.065	10788.04
865.386	10774.7
865.707	10763.86
866.027	10717.08
866.348	10754.14
866.668	10766.57
866.989	10713.69
867.309	10723.63
867.63	10721.37
867.95	10681.82
868.27	10569.28
868.59	10606.57
868.91	10567.25
869.23	10588.04
869.55	10523.41
869.87	10574.03
870.19	10533.13
870.51	10548.95
870.83	10534.03
871.15	10530.64
871.469	10529.06
871.789	10462.62
872.109	10491.77
872.428	10432.56
872.748	10463.07
873.067	10444.99
873.386	10406.35
873.706	10359.12
874.025	10346.69
874.344	10304.66
874.663	10330.19
874.982	10270.76
875.301	10311.89
875.62	10275.05
875.939	10253.59
876.258	10242.29
876.577	10167.03
876.896	10239.8
877.214	10190.31
877.533	10207.49
877.852	10083.65
878.17	10138.79
878.489	10084.33
878.807	10139.01
879.125	10096.53
879.444	10064.21
879.762	10000.71
880.08	10042.07
880.398	10018.34
880.716	10064.44
881.034	9943.09
881.352	9992.12
881.67	9970.43
881.988	9875.52
882.306	9862.41
882.624	9828.51
882.941	9821.28
883.259	9844.33
883.577	9734.5
883.894	9793.94
884.212	9806.82
884.529	9777.67
884.846	9751.9
885.164	9656.77
885.481	9638.91
885.798	9595.07
886.115	9572.93
886.432	9567.5
886.75	9603.89
887.067	9534.96
887.383	9499.71
887.7	9561.4
888.017	9457.45
888.334	9553.27
888.651	9398.24
888.967	9453.16
889.284	9340.39
889.6	9316.89
889.917	9225.14
890.233	9269.88
890.55	9284.8
890.866	9298.13
891.182	9225.59
891.498	9141.3
891.815	9157.34
892.131	9108.98
892.447	9098.14
892.763	9145.14
893.079	9075.31
893.395	9071.92
893.71	9042.77
894.026	8933.17
894.342	8960.74
894.657	8939.04
894.973	8903.57
895.289	8823.12
895.604	8888.88
895.92	8825.83
896.235	8737.92
896.55	8731.14
896.865	8702.44
897.181	8688.2
897.496	8641.2
897.811	8661.31
898.126	8548.09
898.441	8588.09
898.756	8498.15
899.071	8460.87
899.386	8476.91
899.7	8382.68
900.015	8377.93
900.33	8291.83
900.644	8335.9
900.959	8318.72
901.273	8227.65
901.588	8231.04
901.902	8162.34
902.216	8167.77
902.531	8152.17
902.845	8099.74
903.159	8040.76
903.473	8056.36
903.787	7998.05
904.101	7974.55
904.415	7971.39
904.729	7954.66
905.042	7909.02
905.356	7877.6
905.67	7863.37
905.984	7794.67
906.297	7845.74
906.611	7755.12
906.924	7780.43
907.237	7707.66
907.551	7682.81
907.864	7640.55
908.177	7570.49
908.491	7572.3
908.804	7574.11
909.117	7489.82
909.43	7501.57
909.743	7435.13
910.056	7505.41
910.368	7396.03
910.681	7357.62
910.994	7328.01
911.307	7296.6
911.619	7250.95
911.932	7229.26
912.244	7161.24
912.557	7120.79
912.869	7137.96
913.181	7113.33
913.494	7051.86
913.806	7031.98
914.118	6984.07
914.43	6964.86
914.742	7030.62
915.054	6993.56
915.366	6869.27
915.678	6881.25
915.99	6845.77
916.302	6804.19
916.613	6751.31
916.925	6787.01
917.236	6721.93
917.548	6742.27
917.859	6723.74
918.171	6665.66
918.482	6652.55
918.794	6538.88
919.105	6563.29
919.416	6553.12
919.727	6517.41
920.038	6513.8
920.349	6452.1
920.66	6462.5
920.971	6415.27
921.282	6416.4
921.593	6378.21
921.903	6337.98
922.214	6337.76
922.525	6278.55
922.835	6270.64
923.146	6193.81
923.456	6218.44
923.767	6225.9
924.077	6187.48
924.387	6126.92
924.697	6097.99
925.008	6119.91
925.318	6059.8
925.628	6067.71
925.938	6051.66
926.248	5995.85
926.558	5990.65
926.867	5984.32
927.177	5920.14
927.487	5861.84
927.796	5847.15
928.106	5836.75
928.416	5842.4
928.725	5782.07
929.034	5721.5
929.344	5746.13
929.653	5732.35
929.962	5682.86
930.271	5669.98
930.581	5660.03
930.89	5603.09
931.199	5588.85
931.508	5586.82
931.817	5574.39
932.125	5536.42
932.434	5571
932.743	5462.07
933.051	5498.91
933.36	5479.47
933.669	5440.83
933.977	5375.97
934.286	5427.27
934.594	5364.68
934.902	5335.3
935.21	5291.68
935.519	5308.86
935.827	5259.59
936.135	5199.93
936.443	5206.71
936.751	5131.46
937.059	5198.35
937.367	5175.08
937.674	5169.88
937.982	5121.97
938.29	5114.51
938.597	5094.4
938.905	5040.39
939.213	5038.13
939.52	5018.47
939.827	5031.8
940.135	4928.98
940.442	4958.13
940.749	4941.41
941.056	4882.88
941.363	4895.54
941.67	4810.79
941.977	4819.38
942.284	4792.94
942.591	4763.56
942.898	4781.87
943.205	4760.62
943.511	4753.17
943.818	4781.19
944.125	4695.54
944.431	4689.66
944.738	4674.75
945.044	4608.76
945.35	4613.28
945.657	4630.68
945.963	4564.02
946.269	4562.21
946.575	4575.32
946.881	4504.58
947.187	4518.14
947.493	4460.52
947.799	4446.96
948.105	4440.86
948.41	4432.95
948.716	4432.72
949.022	4395.44
949.327	4387.98
949.633	4310.47
949.938	4325.61
950.244	4327.64
950.549	4313.4
950.854	4295.55
951.16	4216.68
951.465	4253.74
951.77	4199.28
952.075	4170.81
952.38	4152.5
952.685	4191.6
952.99	4140.98
953.294	4136.69
953.599	4089.23
953.904	4055.78
954.209	4044.26
954.513	4075.67
954.818	4019.85
955.122	4013.07
955.426	4019.17
955.731	4023.69
956.035	3967.2
956.339	3913.41
956.643	3976.24
956.948	3941.44
957.252	3925.62
957.556	3894.43
957.86	3856.92
958.163	3878.39
958.467	3853.08
958.771	3886.75
959.075	3836.35
959.378	3816.92
959.682	3781.67
959.985	3769.91
960.289	3753.87
960.592	3706.41
960.896	3727.66
961.199	3722.91
961.502	3694.21
961.805	3623.03
962.108	3650.14
962.411	3664.38
962.714	3612.41
963.017	3608.11
963.32	3595
963.623	3576.93
963.926	3591.39
964.228	3542.58
964.531	3542.58
964.833	3563.14
965.136	3486.31
965.438	3482.92
965.741	3504.61
966.043	3409.7
966.345	3434.33
966.648	3396.59
966.95	3439.3
967.252	3390.49
967.554	3374.67
967.856	3347.55
968.158	3340.55
968.46	3303.71
968.761	3357.72
969.063	3318.85
969.365	3278.4
969.666	3269.14
969.968	3233.66
970.269	3253.09
970.571	3251.06
970.872	3199.53
971.174	3196.37
971.475	3196.6
971.776	3173.55
972.077	3173.77
972.378	3143.72
972.679	3167.67
972.98	3136.94
973.281	3096.94
973.582	3119.76
973.883	3075.7
974.183	3084.06
974.484	3049.48
974.785	3035.7
975.085	3007.9
975.386	3051.52
975.686	2969.94
975.986	3007
976.287	2956.38
976.587	2966.55
976.887	2950.05
977.187	2967.68
977.487	2944.85
977.787	2920.45
978.087	2893.78
978.387	2851.75
978.687	2885.87
978.987	2871.86
979.286	2825.31
979.586	2843.16
979.885	2804.29
980.185	2775.59
980.484	2799.32
980.784	2788.02
981.083	2774.46
981.382	2776.72
981.682	2736.95
981.981	2751.86
982.28	2703.5
982.579	2699.21
982.878	2677.74
983.177	2691.3
983.475	2669.83
983.774	2632.32
984.073	2668.93
984.372	2638.87
984.67	2615.37
984.969	2657.63
985.267	2577.4
985.566	2579.66
985.864	2586.9
986.162	2526.33
986.461	2559.78
986.759	2531.53
987.057	2514.81
987.355	2489.95
987.653	2529.04
987.951	2504.86
988.249	2502.15
988.547	2515.71
988.844	2444.3
989.142	2487.91
989.44	2445.66
989.737	2456.5
990.035	2436.62
990.332	2382.15
990.63	2388.93
990.927	2391.65
991.224	2389.84
991.521	2356.62
991.819	2371.08
992.116	2340.35
992.413	2326.11
992.71	2338.09
993.006	2330.86
993.303	2307.58
993.6	2262.38
993.897	2305.77
994.193	2266.9
994.49	2263.97
994.787	2232.78
995.083	2219.45
995.379	2221.03
995.676	2227.58
995.972	2171.31
996.268	2214.7
996.565	2180.58
996.861	2166.12
997.157	2172.44
997.453	2160.69
997.749	2138.32
998.044	2112.78
998.34	2104.2
998.636	2118.66
998.932	2089.73
999.227	2101.26
999.523	2100.81
999.818	2033.92
1000.114	2049.06
1000.409	2031.88
1000.704	2022.16
1001	1975.39
1001.295	2010.19
1001.59	1991.88
1001.885	2009.51
1002.18	1973.13
1002.475	1957.76
1002.77	1953.47
1003.065	1966.12
1003.359	1918.89
1003.654	1911.66
1003.949	1926.8
1004.243	1891.32
1004.538	1904.2
1004.832	1884.77
1005.127	1876.86
1005.421	1839.12
1005.715	1838.44
1006.009	1844.32
1006.304	1856.07
1006.598	1785.11
1006.892	1823.98
1007.186	1760.48
1007.48	1765.45
1007.773	1794.37
1008.067	1755.5
1008.361	1729.97
1008.655	1766.35
1008.948	1705.56
1009.242	1707.6
1009.535	1717.77
1009.829	1696.75
1010.122	1702.85
1010.415	1717.09
1010.708	1656.98
1011.001	1646.36
1011.295	1648.39
1011.588	1663.76
1011.881	1648.84
1012.173	1651.78
1012.466	1635.73
1012.759	1608.39
1013.052	1577.88
1013.344	1606.36
1013.637	1592.12
1013.93	1575.85
1014.222	1562.29
1014.514	1551.22
1014.807	1570.88
1015.099	1525.91
1015.391	1521.61
1015.683	1488.17
1015.976	1485.46
1016.268	1524.78
1016.56	1468.73
1016.851	1478.68
1017.143	1467.6
1017.435	1487.04
1017.727	1440.94
1018.018	1458.56
1018.31	1447.49
1018.602	1433.93
1018.893	1417.43
1019.185	1403.2
1019.476	1393.25
1019.767	1420.6
1020.058	1376.31
1020.35	1369.75
1020.641	1358
1020.932	1328.17
1021.223	1346.02
1021.514	1343.09
1021.804	1299.7
1022.095	1313.03
1022.386	1322.75
1022.677	1320.71
1022.967	1310.77
1023.258	1287.27
1023.548	1270.32
1023.839	1282.97
1024.129	1276.2
1024.419	1264.67
1024.709	1246.37
1025	1253.15
1025.29	1236.2
1025.58	1202.75
1025.87	1211.34
1026.16	1194.16
1026.449	1188.06
1026.739	1173.83
1027.029	1183.99
1027.319	1182.64
1027.608	1165.92
1027.898	1177.89
1028.187	1166.59
1028.477	1146.71
1028.766	1107.39
1029.055	1132.02
1029.344	1126.82
1029.634	1129.76
1029.923	1122.08
1030.212	1103.09
1030.501	1116.65
1030.79	1078.69
1031.078	1074.84
1031.367	1078.46
1031.656	1077.1
1031.945	1051.57
1032.233	1069.65
1032.522	1054.96
1032.81	1030.78
1033.099	1054.05
1033.387	1024.9
1033.675	1026.94
1033.963	1025.35
1034.251	997.33
1034.54	991.46
1034.828	1014.06
1035.116	1012.02
1035.403	972.02
1035.691	981.29
1035.979	983.32
1036.267	988.07
1036.554	962.98
1036.842	953.27
1037.129	952.36
1037.417	917.33
1037.704	940.84
1037.992	936.77
1038.279	927.73
1038.566	900.61
1038.853	900.61
1039.14	900.61
