Data from hue_350_FLMS001491_6.txt Node
Date: Mon Feb 06 15:37:29 GMT 2017
User: dcchb
Spectrometer: FLMS00149
Trigger mode: 0
Integration Time (sec): 2.000000E-2
Scans to average: 10
Electric dark correction enabled: true
Nonlinearity correction enabled: false
Boxcar width: 0
XAxis mode: Wavelengths
Number of Pixels in Spectrum: 2048
>>>>>Begin Spectral Data<<<<<
341.393	-27.68
341.776	-27.68
342.16	-27.68
342.543	-62.71
342.927	-62.03
343.31	-77.17
343.693	-77.17
344.077	-62.03
344.46	-52.77
344.843	-55.25
345.226	-53.67
345.61	-29.72
345.993	-16.61
346.376	4.18
346.759	10.96
347.142	24.97
347.525	37.63
347.908	59.55
348.291	69.94
348.674	113.1
349.057	104.07
349.44	122.14
349.823	138.19
350.206	160.79
350.588	182.93
350.971	193.55
351.354	238.98
351.737	223.16
352.119	248.02
352.502	267.9
352.884	267.45
353.267	272.65
353.65	276.72
354.032	282.37
354.414	300.67
354.797	313.1
355.179	325.75
355.562	304.96
355.944	315.81
356.326	330.05
356.709	328.24
357.091	334.79
357.473	328.69
357.855	316.49
358.238	339.54
358.62	324.17
359.002	335.02
359.384	335.92
359.766	340.22
360.148	362.82
360.53	325.08
360.912	334.34
361.294	318.07
361.676	339.99
362.057	316.04
362.439	330.27
362.821	346.54
363.203	317.84
363.584	315.36
363.966	306.55
364.348	314.46
364.729	330.95
365.111	301.57
365.493	304.51
365.874	309.03
366.256	311.74
366.637	312.42
367.019	329.82
367.4	309.03
367.781	289.6
368.163	297.05
368.544	304.74
368.925	322.59
369.306	319.43
369.688	311.74
370.069	304.96
370.45	309.26
370.831	294.57
371.212	299.31
371.593	324.4
371.974	307.22
372.355	319.65
372.736	302.03
373.117	331.4
373.498	304.51
373.879	305.87
374.26	285.3
374.641	305.64
375.021	316.94
375.402	330.27
375.783	325.3
376.163	331.4
376.544	296.6
376.925	315.13
377.305	325.75
377.686	300.67
378.066	308.81
378.447	312.2
378.827	333.21
379.208	335.7
379.588	316.94
379.968	333.21
380.349	326.66
380.729	347.45
381.109	334.12
381.489	306.09
381.87	341.8
382.25	325.53
382.63	334.34
383.01	319.2
383.39	342.25
383.77	340.44
384.15	339.09
384.53	329.82
384.91	355.36
385.29	330.95
385.67	333.66
386.049	356.94
386.429	353.78
386.809	330.27
387.189	332.99
387.568	357.62
387.948	335.47
388.328	337.05
388.707	340.67
389.087	356.26
389.466	338.41
389.846	351.29
390.225	360.33
390.605	361.01
390.984	358.07
391.363	373.66
391.743	356.94
392.122	360.78
392.501	335.25
392.881	362.59
393.26	359.65
393.639	370.95
394.018	365.75
394.397	359.43
394.776	362.14
395.155	360.78
395.534	397.62
395.913	352.65
396.292	387.45
396.671	381.35
397.05	380.22
397.429	371.85
397.808	365.53
398.186	361.69
398.565	385.41
398.944	401.68
399.323	393.1
399.701	383.83
400.08	396.26
400.458	370.95
400.837	391.29
401.215	391.52
401.594	395.13
401.972	389.93
402.351	392.65
402.729	405.98
403.107	397.39
403.486	395.36
403.864	400.55
404.242	408.92
404.62	412.53
404.999	421.57
405.377	414.34
405.755	427.67
406.133	421.12
406.511	412.98
406.889	422.02
407.267	440.1
407.645	436.71
408.023	438.07
408.401	423.83
408.779	453.21
409.156	410.5
409.534	440.33
409.912	446.65
410.29	426.09
410.667	441.23
411.045	465.86
411.422	451.17
411.8	460.44
412.178	456.37
412.555	453.89
412.933	492.53
413.31	461.12
413.687	488.91
414.065	462.02
414.442	480.78
414.819	469.93
415.197	504.51
415.574	498.4
415.951	493.21
416.328	488.24
416.705	471.74
417.082	510.38
417.46	515.13
417.837	510.38
418.214	503.6
418.591	502.7
418.967	507.9
419.344	536.14
419.721	518.07
420.098	518.07
420.475	536.37
420.852	534.56
421.228	527.78
421.605	546.54
421.982	547.9
422.358	551.06
422.735	565.07
423.111	585.18
423.488	565.75
423.864	555.8
424.241	559.65
424.617	569.36
424.994	575.24
425.37	590.15
425.746	576.82
426.123	588.57
426.499	587.89
426.875	593.09
427.251	614.79
427.627	613.66
428.003	582.47
428.379	620.21
428.756	643.26
429.132	616.14
429.507	636.03
429.883	639.19
430.259	656.37
430.635	661.34
431.011	662.92
431.387	659.98
431.763	666.31
432.138	660.43
432.514	670.38
432.89	693.2
433.265	718.06
433.641	696.59
434.016	709.25
434.392	714.22
434.767	717.61
435.143	729.36
435.518	703.15
435.894	718.06
436.269	739.08
436.644	711.73
437.02	738.62
437.395	731.85
437.77	755.57
438.145	749.7
438.52	739.75
438.895	779.08
439.271	763.48
439.646	793.09
440.021	791.73
440.395	786.53
440.77	795.8
441.145	788.79
441.52	818.17
441.895	790.37
442.27	838.06
442.645	828.57
443.019	815.46
443.394	831.73
443.769	835.35
444.143	841.45
444.518	843.93
444.892	847.32
445.267	833.99
445.641	856.36
446.016	845.51
446.39	870.15
446.764	879.64
447.139	863.59
447.513	887.32
447.887	884.84
448.262	875.34
448.636	892.07
449.01	868.56
449.384	899.07
449.758	893.87
450.132	911.5
450.506	911.95
450.88	909.69
451.254	894.1
451.628	960.77
452.002	931.84
452.376	954.21
452.75	942.24
453.123	956.47
453.497	990.37
453.871	969.58
454.244	953.53
454.618	978.39
454.992	997.15
455.365	980.2
455.739	1030.37
456.112	1023.81
456.486	1034.44
456.859	1034.66
457.232	1041.67
457.606	1027.88
457.979	1047.09
458.352	1076.47
458.725	1096.13
459.099	1081.89
459.472	1125.96
459.845	1109.46
460.218	1134.77
460.591	1108.11
460.964	1127.09
461.337	1132.29
461.71	1163.25
462.083	1196.47
462.456	1146.75
462.829	1182.45
463.201	1201.66
463.574	1207.09
463.947	1209.8
464.32	1253.64
464.692	1256.8
465.065	1258.84
465.438	1281.44
465.81	1299.51
466.183	1331.6
466.555	1332.28
466.928	1319.63
467.3	1363.92
467.672	1341.55
468.045	1393.97
468.417	1395.1
468.789	1388.55
469.161	1420.41
469.534	1402.11
469.906	1443.92
470.278	1457.7
470.65	1492.28
471.022	1506.51
471.394	1518.27
471.766	1563.46
472.138	1560.75
472.51	1571.37
472.882	1605.72
473.253	1616.34
473.625	1668.32
473.997	1674.19
474.369	1667.64
474.74	1716.68
475.112	1726.62
475.484	1730.69
475.855	1807.98
476.227	1803
476.598	1844.81
476.97	1886.39
477.341	1902.44
477.713	1959.38
478.084	1955.77
478.455	2004.13
478.827	2018.59
479.198	2078.25
479.569	2085.26
479.94	2146.5
480.311	2154.86
480.682	2205.25
481.053	2256.32
481.424	2263.78
481.795	2293.84
482.166	2301.07
482.537	2381.07
482.908	2399.82
483.279	2454.06
483.65	2463.78
484.021	2561.18
484.391	2597.33
484.762	2603.43
485.133	2597.56
485.503	2678.69
485.874	2706.03
486.244	2750.32
486.615	2780.38
486.985	2819.25
487.356	2894.27
487.726	2927.49
488.097	2952.58
488.467	3004.33
488.837	3068.96
489.207	3090.88
489.578	3102.63
489.948	3128.39
490.318	3224.21
490.688	3205.45
491.058	3224.43
491.428	3287.71
491.798	3345.34
492.168	3399.12
492.538	3434.82
492.908	3471.43
493.278	3514.14
493.648	3477.31
494.017	3556.4
494.387	3658.55
494.757	3669.4
495.126	3671.43
495.496	3673.69
495.866	3739.68
496.235	3772.9
496.605	3787.58
496.974	3808.6
497.344	3865.1
497.713	3926.79
498.082	3920.91
498.452	3930.63
498.821	3934.92
499.19	3984.19
499.559	4005.43
499.928	4055.6
500.298	4065.09
500.667	4071.42
501.036	4058.54
501.405	4157.29
501.774	4192.77
502.143	4167.01
502.512	4238.19
502.88	4225.76
503.249	4248.14
503.618	4297.4
503.987	4260.34
504.356	4307.34
504.724	4368.59
505.093	4374.24
505.462	4377.17
505.83	4384.86
506.199	4430.73
506.567	4492.88
506.936	4503.72
507.304	4517.28
507.672	4541.46
508.041	4545.3
508.409	4573.78
508.777	4605.87
509.145	4654.91
509.514	4595.02
509.882	4692.42
510.25	4674.11
510.618	4700.33
510.986	4730.16
511.354	4738.07
511.722	4750.95
512.09	4841.57
512.458	4828.69
512.826	4845.64
513.193	4849.03
513.561	4885.86
513.929	4911.85
514.297	4948.46
514.664	4935.35
515.032	4964.28
515.4	5001.56
515.767	5014.22
516.135	5024.39
516.502	4961.11
516.869	5108.23
517.237	5090.6
517.604	5071.84
517.972	5146.64
518.339	5124.5
518.706	5133.31
519.073	5192.29
519.44	5195
519.808	5250.37
520.175	5224.83
520.542	5269.13
520.909	5262.8
521.276	5291.73
521.643	5364.94
522.009	5397.49
522.376	5382.34
522.743	5423.25
523.11	5465.51
523.477	5465.73
523.843	5506.86
524.21	5503.47
524.577	5583.69
524.943	5584.82
525.31	5656.46
525.676	5657.59
526.043	5713.18
526.409	5717.25
526.776	5747.98
527.142	5758.38
527.508	5769.68
527.874	5863.69
528.241	5884.03
528.607	5899.39
528.973	5939.84
529.339	5941.88
529.705	5951.82
530.071	6039.95
530.437	6052.84
530.803	6042.21
531.169	6149.1
531.535	6146.84
531.901	6137.13
532.267	6185.04
532.632	6187.29
532.998	6206.5
533.364	6224.58
533.73	6242.21
534.095	6289.89
534.461	6335.77
534.826	6392.49
535.192	6377.12
535.557	6454.86
535.923	6469.32
536.288	6514.07
536.653	6515.87
537.019	6552.71
537.384	6525.82
537.749	6551.58
538.114	6554.97
538.479	6570.34
538.845	6587.74
539.21	6629.54
539.575	6691.69
539.94	6717.9
540.305	6769.2
540.67	6760.16
541.034	6804.45
541.399	6814.4
541.764	6788.64
542.129	6872.25
542.494	6868.41
542.858	6933.72
543.223	6904.56
543.587	7027.27
543.952	7004
544.316	7025.69
544.681	7014.84
545.045	7050.78
545.41	7097.55
545.774	7172.13
546.138	7127.84
546.503	7132.13
546.867	7178
547.231	7258
547.595	7275.4
547.959	7281.96
548.324	7334.38
548.688	7286.25
549.052	7332.35
549.416	7385
549.779	7379.13
550.143	7339.81
550.507	7429.07
550.871	7524.21
551.235	7510.88
551.599	7503.64
551.962	7570.08
552.326	7575.28
552.689	7611.21
553.053	7536.19
553.417	7585.68
553.78	7649.4
554.143	7714.26
554.507	7798.78
554.87	7759.23
555.234	7812.11
555.597	7805.78
555.96	7800.81
556.323	7807.59
556.686	7910.19
557.05	7947.93
557.413	7890.75
557.776	7912.22
558.139	8038.32
558.502	7994.48
558.865	8021.37
559.228	8073.57
559.59	8158.77
559.953	8134.59
560.316	8154.02
560.679	8202.61
561.041	8216.62
561.404	8250.52
561.767	8294.58
562.129	8281.7
562.492	8371.42
562.854	8324.19
563.217	8333
563.579	8415.71
563.941	8367.58
564.304	8478.31
564.666	8510.4
565.028	8591.07
565.39	8517.18
565.753	8596.05
566.115	8621.58
566.477	8641.69
566.839	8712.65
567.201	8692.54
567.563	8770.05
567.925	8721.24
568.287	8772.54
568.648	8812.76
569.01	8844.63
569.372	8943.15
569.734	8921.46
570.095	8995.36
570.457	9058.41
570.819	9076.94
571.18	9046.65
571.542	9089.37
571.903	9150.83
572.265	9186.31
572.626	9285.29
572.987	9286.2
573.349	9325.29
573.71	9409.58
574.071	9490.94
574.432	9446.19
574.794	9621.33
575.155	9654.77
575.516	9623.14
575.877	9689.12
576.238	9713.53
576.599	9864.26
576.96	9911.49
577.32	9915.78
577.681	10034.2
578.042	10073.52
578.403	10224.25
578.763	10271.71
579.124	10339.73
579.485	10473.51
579.845	10608.2
580.206	10629.66
580.566	10756.89
580.927	10817.46
581.287	10918.7
581.648	11087.51
582.008	11264.68
582.368	11335.41
582.728	11508.96
583.089	11626.93
583.449	11739.47
583.809	11921.38
584.169	12119.34
584.529	12265.1
584.889	12544.19
585.249	12628.48
585.609	12730.4
585.969	13015.82
586.329	13185.75
586.688	13418.07
587.048	13553.88
587.408	13707.78
587.768	13874.55
588.127	14157.93
588.487	14427.53
588.846	14673.85
589.206	14779.84
589.565	15079.94
589.925	15357.45
590.284	15553.38
590.643	15851.9
591.003	16033.59
591.362	16412.56
591.721	16542.5
592.08	16830.4
592.44	17100
592.799	17380.22
593.158	17657.05
593.517	17943.14
593.876	18242.35
594.235	18443.24
594.593	18774.76
594.952	19071.25
595.311	19301.07
595.67	19670.33
596.029	19942.64
596.387	20147.83
596.746	20535.17
597.104	20601.38
597.463	20976.74
597.822	21383.51
598.18	21508.25
598.538	21784.17
598.897	22139.42
599.255	22229.81
599.613	22835.44
599.972	22933.07
600.33	23370.12
600.688	23467.07
601.046	23843.33
601.404	24182.53
601.762	24440.15
602.12	24714.94
602.478	24989.96
602.836	25212.78
603.194	25326.23
603.552	25578.2
603.91	25834.69
604.268	26189.25
604.625	26349.7
604.983	26757.83
605.341	26797.37
605.698	27096.58
606.056	27414.08
606.413	27666.73
606.771	27867.4
607.128	28291.35
607.485	28184.46
607.843	28536.99
608.2	28914.38
608.557	29188.05
608.914	29327.93
609.272	29592.56
609.629	29876.62
609.986	30006.56
610.343	30256.04
610.7	30663.71
611.057	30670.49
611.414	30865.74
611.771	30950.49
612.127	31255.34
612.484	31425.95
612.841	31676.57
613.198	31783.68
613.554	31824.81
613.911	32115.2
614.267	32308.42
614.624	32368.08
614.98	32556.77
615.337	32950.66
615.693	32902.75
616.05	33083.54
616.406	33426.13
616.762	33342.29
617.118	33470.87
617.475	33618.66
617.831	33751.54
618.187	34095.26
618.543	34198.54
618.899	34469.94
619.255	34556.72
619.611	34624.74
619.967	34780.44
620.323	34987.22
620.678	35028.34
621.034	34888.46
621.39	35066.31
621.746	35268.34
622.101	35644.6
622.457	35326.87
622.812	35564.6
623.168	35777.48
623.523	35814.99
623.879	35959.85
624.234	35852.5
624.589	36039.84
624.945	36239.39
625.3	36253.85
625.655	36203
626.01	36338.59
626.365	36530.45
626.72	36332.72
627.075	36540.4
627.43	36656.55
627.785	36616.33
628.14	36773.84
628.495	36784
628.85	36813.38
629.205	36661.52
629.559	37104.9
629.914	36917.33
630.269	37024.68
630.623	36906.26
630.978	36937.67
631.332	37122.07
631.687	37214.95
632.041	37030.78
632.396	37143.54
632.75	37118.69
633.104	37184.45
633.459	36987.84
633.813	37103.77
634.167	37187.16
634.521	37156.42
634.875	37313.03
635.229	37273.48
635.583	37123.2
635.937	37134.96
636.291	37144.67
636.645	37202.52
636.999	37144.9
637.352	37400.49
637.706	37044.79
638.06	37281.39
638.413	37308.51
638.767	37171.79
639.121	37181.51
639.474	37110.32
639.828	37107.16
640.181	37227.61
640.534	37206.59
640.888	37109.42
641.241	36875.08
641.594	37135.18
641.947	37229.19
642.301	37071
642.654	37162.3
643.007	37104.45
643.36	36961.85
643.713	36969.76
644.066	37109.87
644.419	36964.11
644.771	36679.15
645.124	36396.67
645.477	36475.76
645.83	36153.51
646.182	36032.61
646.535	35947.87
646.888	35945.61
647.24	35792.17
647.593	36153.06
647.945	35881.43
648.298	35950.58
648.65	35711.49
649.002	35574.54
649.355	35909.9
649.707	35810.02
650.059	35952.16
650.411	36354.19
650.763	36531.81
651.115	36938.35
651.467	36748.3
651.819	36675.98
652.171	36542.2
652.523	36563.45
652.875	36522.32
653.227	36405.03
653.578	36679.15
653.93	36705.59
654.282	36359.16
654.633	36459.95
654.985	36465.37
655.337	36581.52
655.688	36486.16
656.039	36576.33
656.391	36349.67
656.742	36419.27
657.094	36396.67
657.445	36453.17
657.796	36391.92
658.147	36325.26
658.498	36298.59
658.849	36499.72
659.2	36299.5
659.551	36339.72
659.902	36539.72
660.253	36339.27
660.604	36510.57
660.955	36204.36
661.306	36354.64
661.656	36168.65
662.007	36348.99
662.358	36276.9
662.708	36254.07
663.059	36266.05
663.409	36019.73
663.76	36276.67
664.11	36225.83
664.461	36223.57
664.811	36311.02
665.161	36208.65
665.511	36116.68
665.862	36179.73
666.212	36183.79
666.562	36293.85
666.912	36140.86
667.262	36148.54
667.612	36129.78
667.962	36331.59
668.312	36194.19
668.662	36301.31
669.011	36216.34
669.361	36147.86
669.711	36127.75
670.06	36215.43
670.41	35940.64
670.76	36045.72
671.109	36021.99
671.459	36092.05
671.808	36009.79
672.157	36037.81
672.507	35934.76
672.856	35891.37
673.205	35895.67
673.554	36021.31
673.904	35981.31
674.253	36110.58
674.602	35915.33
674.951	35474.21
675.3	35360.31
675.649	35843.92
675.998	35739.06
676.346	35830.13
676.695	35725.05
677.044	35746.52
677.393	35711.04
677.741	35749.46
678.09	35761.88
678.438	35682.79
678.787	35650.02
679.135	35790.58
679.484	35408
679.832	35659.51
680.181	35401.44
680.529	35550.59
680.877	35441.44
681.225	35401.22
681.573	35512.17
681.922	35243.93
682.27	35177.49
682.618	35264.04
682.966	35108.57
683.314	35161
683.661	35017.27
684.009	34832.19
684.357	34871.29
684.705	34762.59
685.053	34924.39
685.4	34727.56
685.748	34703.16
686.095	34512.2
686.443	34572.99
686.79	34591.75
687.138	34555.36
687.485	34702.25
687.832	34458.19
688.18	34352.2
688.527	34331.41
688.874	34189.95
689.221	34157.63
689.568	34027.01
689.915	34008.48
690.262	33989.05
690.609	33893.91
690.956	33811.65
691.303	33715.61
691.65	33589.74
691.997	33416.41
692.344	33391.33
692.69	33345.45
693.037	33338.67
693.383	33108.85
693.73	33269.52
694.077	32967.16
694.423	32971.45
694.769	32935.74
695.116	32931.45
695.462	32825.46
695.808	32897.33
696.155	32773.94
696.501	32495.08
696.847	32447.17
697.193	32213.5
697.539	32420.5
697.885	32160.4
698.231	32173.73
698.577	31999.27
698.923	31948.88
699.269	31889.67
699.614	31656.23
699.96	31691.48
700.306	31652.61
700.651	31526.29
700.997	31454.43
701.342	31476.12
701.688	31302.11
702.033	31329.68
702.379	31134.21
702.724	31078.39
703.069	31208.11
703.415	30862.35
703.76	30890.15
704.105	30866.42
704.45	30757.04
704.795	30610.16
705.14	30497.62
705.485	30486.99
705.83	30351.63
706.175	30457.84
706.52	30416.71
706.865	30218.53
707.209	30122.94
707.554	30118.64
707.899	30163.84
708.243	29978.53
708.588	29867.8
708.932	29768.82
709.277	29792.1
709.621	29811.53
709.966	29572.67
710.31	29616.28
710.654	29266.91
710.998	29469.62
711.342	29484.08
711.687	29325.22
712.031	29074.83
712.375	29008.16
712.719	29197.31
713.063	29192.11
713.407	29149.86
713.75	29014.72
714.094	29008.16
714.438	28895.17
714.782	28960.03
715.125	28780.37
715.469	28696.08
715.812	28679.58
716.156	28595.75
716.499	28664.9
716.843	28551.68
717.186	28337.45
717.53	28513.49
717.873	28549.64
718.216	28348.97
718.559	28281.63
718.902	28145.81
719.246	28255.42
719.589	28213.16
719.932	27985.14
720.275	27992.82
720.617	27997.12
720.96	27948.76
721.303	27926.84
721.646	27904.69
721.989	27650.46
722.331	27806.16
722.674	27681.87
723.016	27691.59
723.359	27534.3
723.701	27586.73
724.044	27377.25
724.386	27278.72
724.729	27427.64
725.071	27210.92
725.413	27289.34
725.755	27348.09
726.097	27125.05
726.439	27192.17
726.782	27027.42
727.124	27159.17
727.465	27074.2
727.807	27120.53
728.149	26935.68
728.491	26918.73
728.833	26929.35
729.175	26914.66
729.516	26774.32
729.858	26785.17
730.199	26735.91
730.541	26721.44
730.882	26663.37
731.224	26688.22
731.565	26589.24
731.906	26503.37
732.248	26499.53
732.589	26328.69
732.93	26454.11
733.271	26374.79
733.612	26495.01
733.953	26450.26
734.294	26286.43
734.635	26151.29
734.976	26275.81
735.317	26099.54
735.658	26084.4
735.999	26046.66
736.339	26051.18
736.68	26152.65
737.021	25993.55
737.361	25817.51
737.702	26025.64
738.042	25889.38
738.383	25890.05
738.723	26021.12
739.063	25740.91
739.404	25816.61
739.744	25726.89
740.084	25686.67
740.424	25657.07
740.764	25645.31
741.104	25746.55
741.444	25565.09
741.784	25525.77
742.124	25524.87
742.464	25519.67
742.804	25310.18
743.143	25366.45
743.483	25402.16
743.823	25219.56
744.162	25306.79
744.502	25311.09
744.841	25176.17
745.181	25275.15
745.52	25116.29
745.86	25079.68
746.199	25112.45
746.538	25068.83
746.877	25034.03
747.216	25035.16
747.556	25041.04
747.895	25104.31
748.234	24919.23
748.573	24781.83
748.911	24875.84
749.25	24686.47
749.589	24688.28
749.928	24768.28
750.267	24671.78
750.605	24698.67
750.944	24659.13
751.283	24570.77
751.621	24502.75
751.96	24342.52
752.298	24315.63
752.636	24321.06
752.975	24288.97
753.313	24179.36
753.651	24221.62
753.989	24232.02
754.327	24118.57
754.666	23962.65
755.004	24005.36
755.342	23994.06
755.679	23996.32
756.017	23878.36
756.355	23923.55
756.693	23857.34
757.031	23878.58
757.368	23627.74
757.706	23645.59
758.044	23554.07
758.381	23592.26
758.719	23509.55
759.056	23568.76
759.394	23415.99
759.731	23335.54
760.068	23246.73
760.405	23129
760.743	23114.99
761.08	23066.85
761.417	22983.24
761.754	22922.9
762.091	22896.01
762.428	22823.02
762.765	22677.03
763.102	22698.27
763.438	22595
763.775	22491.5
764.112	22561.78
764.449	22566.3
764.785	22356.14
765.122	22286.98
765.458	22166.08
765.795	22197.04
766.131	22159.76
766.467	22029.82
766.804	22005.64
767.14	21880.44
767.476	21834.12
767.812	21844.28
768.148	21820.78
768.485	21625.99
768.821	21537.63
769.157	21476.38
769.492	21559.09
769.828	21397.06
770.164	21141.93
770.5	21075.27
770.836	21178.31
771.171	21040.92
771.507	20928.15
771.842	20844.76
772.178	20884.08
772.513	20771.77
772.849	20668.95
773.184	20596.41
773.519	20612
773.855	20455.17
774.19	20390.09
774.525	20293.59
774.86	20324.32
775.195	20307.15
775.53	20144.44
775.865	20066.03
776.2	19976.99
776.535	19762.53
776.87	19842.53
777.205	19832.59
777.539	19588.52
777.874	19689.99
778.209	19561.41
778.543	19537.68
778.878	19381.75
779.212	19369.77
779.547	19230.12
779.881	19341.3
780.215	19058.82
780.55	19195.99
780.884	18999.84
781.218	19082.78
781.552	19044.13
781.886	18797.81
782.22	18752.16
782.554	18758.49
782.888	18526.86
783.222	18496.8
783.556	18455.22
783.889	18409.8
784.223	18239.18
784.557	18182.23
784.89	18247.09
785.224	18130.71
785.557	17957.38
785.891	18009.58
786.224	17995.35
786.558	17979.08
786.891	17744.28
787.224	17638.07
787.557	17660.44
787.891	17706.31
788.224	17605.53
788.557	17556.94
788.89	17438.07
789.223	17449.82
789.556	17309.04
789.888	17267.68
790.221	17177.97
790.554	17137.97
790.887	17089.61
791.219	16979.78
791.552	17035.37
791.884	16882.61
792.217	16828.37
792.549	16760.12
792.882	16723.74
793.214	16662.73
793.546	16717.87
793.879	16560.81
794.211	16328.5
794.543	16514.48
794.875	16431.55
795.207	16488.49
795.539	16365.11
795.871	16220.48
796.203	16161.5
796.535	16200.36
796.867	16075.62
797.198	16041.05
797.53	16071.55
797.862	15877.66
798.193	15977.32
798.525	15792.24
798.856	15833.59
799.188	15721.96
799.519	15679.93
799.85	15558.35
800.182	15601.96
800.513	15510.21
800.844	15394.06
801.175	15485.36
801.506	15463.21
801.837	15380.73
802.168	15265.02
802.499	15213.5
802.83	15238.58
803.161	15269.99
803.491	15059.6
803.822	15085.82
804.153	14881.98
804.483	14903.22
804.814	14914.75
805.145	14915.65
805.475	14821.64
805.805	14807.63
806.136	14781.19
806.466	14818.03
806.796	14640.63
807.126	14574.42
807.457	14557.47
807.787	14516.79
808.117	14434.54
808.447	14475.89
808.777	14531.03
809.107	14419.17
809.436	14406.51
809.766	14296.23
810.096	14247.42
810.426	14183.47
810.755	14302.56
811.085	14245.84
811.414	14214.43
811.744	14090.82
812.073	13980.76
812.403	13992.97
812.732	13973.53
813.061	13835
813.39	13877.71
813.719	13848.56
814.049	13939.63
814.378	13811.28
814.707	13814.89
815.036	13759.07
815.365	13701.9
815.693	13602.47
816.022	13658.51
816.351	13496.48
816.68	13475.01
817.008	13590.72
817.337	13345.98
817.665	13441.12
817.994	13403.83
818.322	13371.51
818.651	13251.74
818.979	13262.14
819.307	13348.46
819.636	13155.25
819.964	13167.22
820.292	13213.78
820.62	13230.73
820.948	13184.85
821.276	13226.88
821.604	13061.69
821.932	13103.5
822.259	13162.25
822.587	13091.07
822.915	13096.04
823.243	13182.59
823.57	13103.05
823.898	13122.71
824.225	13016.49
824.553	13020.11
824.88	13054.46
825.207	13085.87
825.535	13000.45
825.862	13068.47
826.189	12978.3
826.516	13100.56
826.843	13131.07
827.17	13072.54
827.497	13129.94
827.824	13045.42
828.151	13129.03
828.478	13021.47
828.805	13066.21
829.131	13054.01
829.458	13039.09
829.785	12998.87
830.111	13051.97
830.438	13080.67
830.764	12957.06
831.09	13013.33
831.417	12940.34
831.743	13103.95
832.069	13030.96
832.395	12899.21
832.722	13007.68
833.048	12917.06
833.374	12907.57
833.7	12939.89
834.026	12925.87
834.351	12985.08
834.677	12862.83
835.003	12933.11
835.329	12894.46
835.654	12833.45
835.98	12727.24
836.306	12795.93
836.631	12743.51
836.956	12797.29
837.282	12723.85
837.607	12716.84
837.932	12695.82
838.258	12629.39
838.583	12679.55
838.908	12596.62
839.233	12669.84
839.558	12501.71
839.883	12490.86
840.208	12500.35
840.533	12508.71
840.858	12446.11
841.182	12415.15
841.507	12456.28
841.832	12396.62
842.156	12408.6
842.481	12374.93
842.805	12334.93
843.13	12375.83
843.454	12269.39
843.778	12240.47
844.103	12184.43
844.427	12177.87
844.751	12197.08
845.075	12082.06
845.399	12107.14
845.723	11984.88
846.047	11978.1
846.371	11959.12
846.695	11952.34
847.019	11804.32
847.343	11842.74
847.666	11712.35
847.99	11624.89
848.313	11714.61
848.637	11590.54
848.96	11624.67
849.284	11612.91
849.607	11524.56
849.931	11420.38
850.254	11398.23
850.577	11305.58
850.9	11208.63
851.223	11233.26
851.546	11232.81
851.869	11114.62
852.192	11220.16
852.515	11053.38
852.838	11019.03
853.161	11066.71
853.483	10907.85
853.806	10920.28
854.129	10942.2
854.451	10936.77
854.774	10802.31
855.096	10851.58
855.419	10752.82
855.741	10819.26
856.063	10705.82
856.385	10660.4
856.708	10659.49
857.03	10566.84
857.352	10574.07
857.674	10571.13
857.996	10535.88
858.318	10442.1
858.64	10480.52
858.961	10455.66
859.283	10402.78
859.605	10367.07
859.926	10381.31
860.248	10231.26
860.57	10301.54
860.891	10260.63
861.212	10173.4
861.534	10196.68
861.855	10091.83
862.176	10144.93
862.498	10112.62
862.819	10200.07
863.14	10101.99
863.461	10018.83
863.782	9934.77
864.103	10090.24
864.424	9978.38
864.745	9981.32
865.065	9963.69
865.386	9896.12
865.707	9976.35
866.027	9940.64
866.348	9884.37
866.668	9926.41
866.989	9896.8
867.309	9837.59
867.63	9833.3
867.95	9784.94
868.27	9787.2
868.59	9798.5
868.91	9800.53
869.23	9746.52
869.55	9624.49
869.87	9772.51
870.19	9703.13
870.51	9688.9
870.83	9701.78
871.15	9596.47
871.469	9556.02
871.789	9586.98
872.109	9616.36
872.428	9630.82
872.748	9536.36
873.067	9551.73
873.386	9597.37
873.706	9580.43
874.025	9445.06
874.344	9428.11
874.663	9492.52
874.982	9435.35
875.301	9482.8
875.62	9444.61
875.939	9421.79
876.258	9394.89
876.577	9368.68
876.896	9261.11
877.214	9331.17
877.533	9311.96
877.852	9324.61
878.17	9323.03
878.489	9308.12
878.807	9280.55
879.125	9223.15
879.444	9265.86
879.762	9228.57
880.08	9204.16
880.398	9162.13
880.716	9176.37
881.034	9125.52
881.352	9084.17
881.67	9048.46
881.988	9010.05
882.306	9100.66
882.624	9059.99
882.941	9022.47
883.259	8987.45
883.577	8990.84
883.894	8952.65
884.212	8960.1
884.529	8950.39
884.846	8883.95
885.164	8852.54
885.481	8874.46
885.798	8788.13
886.115	8729.15
886.432	8797.62
886.75	8764.4
887.067	8785.64
887.383	8773.22
887.7	8753.33
888.017	8681.24
888.334	8707.68
888.651	8678.08
888.967	8695.03
889.284	8584.75
889.6	8571.19
889.917	8536.39
890.233	8539.1
890.55	8496.84
890.866	8504.3
891.182	8439.21
891.498	8414.81
891.815	8446.22
892.131	8373
892.447	8397.41
892.763	8371.19
893.079	8307.01
893.395	8295.71
893.71	8281.48
894.026	8271.76
894.342	8224.3
894.657	8214.59
894.973	8211.2
895.289	8145.21
895.604	8129.16
895.92	8052.78
896.235	7985.67
896.55	8099.34
896.865	8024.99
897.181	8004.2
897.496	8027.02
897.811	7926.91
898.126	7948.6
898.441	7896.4
898.756	7872.9
899.071	7870.19
899.386	7845.78
899.7	7726.24
900.015	7728.95
900.33	7649.4
900.644	7729.63
900.959	7634.04
901.273	7635.39
901.588	7617.31
901.902	7502.51
902.216	7495.28
902.531	7522.85
902.845	7477.88
903.159	7352.01
903.473	7400.37
903.787	7368.96
904.101	7356.08
904.415	7382.29
904.729	7281.5
905.042	7295.97
905.356	7262.07
905.67	7230.66
905.984	7269.98
906.297	7204.22
906.611	7205.35
906.924	7183.65
907.237	7165.57
907.551	7075.63
907.864	7068.63
908.177	7049.19
908.491	6960.38
908.804	7005.35
909.117	6906.37
909.43	6970.1
909.743	6921.51
910.056	6859.82
910.368	6831.8
910.681	6811.46
910.994	6740.95
911.307	6745.02
911.619	6699.15
911.932	6715.64
912.244	6676.32
912.557	6614.18
912.869	6662.99
913.181	6596.78
913.494	6571.92
913.806	6545.25
914.118	6554.97
914.43	6423.22
914.742	6428.42
915.054	6434.75
915.366	6406.95
915.678	6384.35
915.99	6354.07
916.302	6313.17
916.613	6295.99
916.925	6291.25
917.236	6244.24
917.548	6210.57
917.859	6226.62
918.171	6165.6
918.482	6120.18
918.794	6108.65
919.105	6082.44
919.416	6034.98
919.727	6070.46
920.038	6074.76
920.349	5996.79
920.66	5950.69
920.971	5976.45
921.282	5961.76
921.593	5865.27
921.903	5895.33
922.214	5834.31
922.525	5888.77
922.835	5817.36
923.146	5769
923.456	5760.41
923.767	5747.98
924.077	5729.68
924.387	5692.39
924.697	5697.82
925.008	5657.14
925.318	5584.37
925.628	5592.06
925.938	5604.71
926.248	5524.04
926.558	5588.67
926.867	5515.22
927.177	5465.73
927.487	5445.62
927.796	5444.49
928.106	5403.36
928.416	5362.01
928.725	5354.55
929.034	5327.2
929.344	5323.14
929.653	5308
929.962	5244.27
930.271	5229.13
930.581	5236.59
930.89	5235.91
931.199	5176.02
931.508	5232.29
931.817	5158.4
932.125	5112.52
932.434	5145.51
932.743	5081.34
933.051	5057.61
933.36	5002.47
933.669	4981
933.977	4984.16
934.286	4974.9
934.594	4933.32
934.902	4884.73
935.21	4877.05
935.519	4914.56
935.827	4848.8
936.135	4825.97
936.443	4764.06
936.751	4718.18
937.059	4808.35
937.367	4733.32
937.674	4764.28
937.982	4653.55
938.29	4711.4
938.597	4666.2
938.905	4635.92
939.213	4624.4
939.52	4622.82
939.827	4614.23
940.135	4533.33
940.442	4573.33
940.749	4550.05
941.056	4567.45
941.363	4469.15
941.67	4463.5
941.977	4480.45
942.284	4414.01
942.591	4435.7
942.898	4396.16
943.205	4400.22
943.511	4364.97
943.818	4312.09
944.125	4337.85
944.431	4287.68
944.738	4287.01
945.044	4255.37
945.35	4234.35
945.657	4237.97
945.963	4256.27
946.269	4194.13
946.575	4204.52
946.881	4174.92
947.187	4170.85
947.493	4110.06
947.799	4145.99
948.105	4100.8
948.41	4066.9
948.716	4049.72
949.022	4030.52
949.327	4002.27
949.633	3970.63
949.938	3986.9
950.244	3941.25
950.549	3927.47
950.854	3886.34
951.16	3927.47
951.465	3903.74
951.77	3918.2
952.075	3891.76
952.38	3881.59
952.685	3855.6
952.99	3801.37
953.294	3793.23
953.599	3809.5
953.904	3821.48
954.209	3795.95
954.513	3743.52
954.818	3737.64
955.122	3737.42
955.426	3708.26
955.731	3623.97
956.035	3647.25
956.339	3652.22
956.643	3628.94
956.948	3596.18
957.252	3590.53
957.556	3597.76
957.86	3536.29
958.163	3542.62
958.467	3547.59
958.771	3537.87
959.075	3555.5
959.378	3501.49
959.682	3473.69
959.985	3473.47
960.289	3444.32
960.592	3419.68
960.896	3417.2
961.199	3413.13
961.502	3361.83
961.805	3391.21
962.108	3363.41
962.411	3313.47
962.714	3328.84
963.017	3321.83
963.32	3312.34
963.623	3323.19
963.926	3287.26
964.228	3260.82
964.531	3246.13
964.833	3248.62
965.136	3210.2
965.438	3184.66
965.741	3200.93
966.043	3217.88
966.345	3146.02
966.648	3184.21
966.95	3153.93
967.252	3117.32
967.554	3070.31
967.856	3136.53
968.158	3090.88
968.46	3047.26
968.761	3044.78
969.063	3036.19
969.365	3051.11
969.666	3055.17
969.968	3010.2
970.269	2981.73
970.571	3002.52
970.872	2935.86
971.174	2937.89
971.475	2928.4
971.776	2953.03
972.077	2887.04
972.378	2906.25
972.679	2880.26
972.98	2905.8
973.281	2851.34
973.582	2881.39
973.883	2842.98
974.183	2830.1
974.484	2814.5
974.785	2830.77
975.085	2779.47
975.386	2826.93
975.686	2740.15
975.986	2772.02
976.287	2745.58
976.587	2690.66
976.887	2744.45
977.187	2722.75
977.487	2698.35
977.787	2681.85
978.087	2673.72
978.387	2646.6
978.687	2667.61
978.987	2652.92
979.286	2633.04
979.586	2624.68
979.885	2636.43
980.185	2576.32
980.484	2547.62
980.784	2558.01
981.083	2576.99
981.382	2555.3
981.682	2541.29
981.981	2547.84
982.28	2509.43
982.579	2475.98
982.878	2502.87
983.177	2509.43
983.475	2501.97
983.774	2485.02
984.073	2453.61
984.372	2475.08
984.67	2424.91
984.969	2401.86
985.267	2438.01
985.566	2407.51
985.864	2425.13
986.162	2358.24
986.461	2384.68
986.759	2344.01
987.057	2348.53
987.355	2344.46
987.653	2331.8
987.951	2313.95
988.249	2318.92
988.547	2292.03
988.844	2252.26
989.142	2251.35
989.44	2263.1
989.737	2275.99
990.035	2243.22
990.332	2257.68
990.63	2201.64
990.927	2214.74
991.224	2238.92
991.521	2202.54
991.819	2181.98
992.116	2164.58
992.413	2182.2
992.71	2149.21
993.006	2142.43
993.303	2108.53
993.6	2123
993.897	2133.16
994.193	2118.25
994.49	2117.57
994.787	2099.04
995.083	2065.82
995.379	2077.35
995.676	2068.31
995.972	2054.52
996.268	2057.91
996.565	1998.03
996.861	2012.94
997.157	2014.07
997.453	2015.65
997.749	2010.46
998.044	2000.74
998.34	1964.81
998.636	1943.56
998.932	1938.37
999.227	1926.84
999.523	1938.37
999.818	1919.84
1000.114	1911.25
1000.409	1912.83
1000.704	1884.36
1001	1887.75
1001.295	1887.97
1001.59	1874.19
1001.885	1845.71
1002.18	1837.58
1002.475	1846.17
1002.77	1805.94
1003.065	1799.84
1003.359	1805.04
1003.654	1790.57
1003.949	1770.69
1004.243	1760.52
1004.538	1776.34
1004.832	1767.75
1005.127	1758.48
1005.421	1749.45
1005.715	1741.76
1006.009	1757.81
1006.304	1720.97
1006.598	1720.75
1006.892	1694.53
1007.186	1681.42
1007.48	1677.58
1007.773	1658.6
1008.067	1671.48
1008.361	1623.35
1008.655	1624.48
1008.948	1633.74
1009.242	1640.97
1009.535	1626.74
1009.829	1603.91
1010.122	1607.08
1010.415	1591.94
1010.708	1571.6
1011.001	1584.7
1011.295	1557.59
1011.588	1550.35
1011.881	1551.71
1012.173	1523.69
1012.466	1547.19
1012.759	1548.32
1013.052	1506.06
1013.344	1498.15
1013.637	1469.45
1013.93	1478.94
1014.222	1449.11
1014.514	1471.49
1014.807	1474.2
1015.099	1457.25
1015.391	1445.95
1015.683	1404.6
1015.976	1437.14
1016.268	1409.12
1016.56	1408.21
1016.851	1412.73
1017.143	1381.77
1017.435	1366.86
1017.727	1344.03
1018.018	1344.48
1018.31	1380.19
1018.602	1347.2
1018.893	1348.1
1019.185	1327.08
1019.476	1329.12
1019.767	1313.07
1020.058	1315.78
1020.35	1311.04
1020.641	1269.23
1020.932	1301.32
1021.223	1276.92
1021.514	1269.01
1021.804	1253.41
1022.095	1256.35
1022.386	1231.27
1022.677	1200.53
1022.967	1224.26
1023.258	1246.86
1023.548	1231.27
1023.839	1222.68
1024.129	1202.57
1024.419	1196.01
1024.709	1191.04
1025	1165.96
1025.29	1189.01
1025.58	1163.02
1025.87	1151.04
1026.16	1157.14
1026.449	1147.43
1026.739	1135.22
1027.029	1115.79
1027.319	1122.57
1027.608	1141.33
1027.898	1109.24
1028.187	1091.84
1028.477	1083.47
1028.766	1097.03
1029.055	1074.21
1029.344	1079.63
1029.634	1052.74
1029.923	1005.96
1030.212	1073.53
1030.501	1066.98
1030.79	1043.02
1031.078	1031.72
1031.367	1026.75
1031.656	1028.33
1031.945	1036.24
1032.233	1000.54
1032.522	1019.3
1032.81	993.53
1033.099	998.73
1033.387	992.63
1033.675	999.18
1033.963	983.59
1034.251	955.57
1034.54	975.68
1034.828	970.71
1035.116	959.41
1035.403	951.27
1035.691	911.73
1035.979	924.61
1036.267	911.5
1036.554	937.04
1036.842	903.59
1037.129	896.13
1037.417	895.91
1037.704	916.47
1037.992	901.33
1038.279	912.86
1038.566	894.33
1038.853	894.33
1039.14	894.33
