Data from hue_220_FLMS001491_00040.txt Node
Date: Tue Feb 07 16:39:23 GMT 2017
User: dcchb
Spectrometer: FLMS00149
Trigger mode: 0
Integration Time (sec): 2.000000E-2
Scans to average: 10
Electric dark correction enabled: true
Nonlinearity correction enabled: false
Boxcar width: 0
XAxis mode: Wavelengths
Number of Pixels in Spectrum: 2048
>>>>>Begin Spectral Data<<<<<
341.393	5.97
341.776	5.97
342.16	5.97
342.543	-57.98
342.927	-64.08
343.31	-55.94
343.693	-61.37
344.077	-62.27
344.46	-49.84
344.843	-53.01
345.226	-44.65
345.61	-26.57
345.993	-31.99
346.376	-12.56
346.759	-4.65
347.142	22.25
347.525	42.13
347.908	63.37
348.291	72.41
348.674	103.37
349.057	99.31
349.44	143.82
349.823	141.79
350.206	158.51
350.588	208.45
350.971	190.83
351.354	208
351.737	226.53
352.119	242.8
352.502	239.41
352.884	280.77
353.267	285.29
353.65	303.14
354.032	298.85
354.414	290.26
354.797	318.51
355.179	323.25
355.562	309.02
355.944	304.95
356.326	322.8
356.709	329.81
357.091	344.5
357.473	317.83
357.855	320.77
358.238	340.2
358.62	348.34
359.002	334.33
359.384	326.42
359.766	341.78
360.148	337.04
360.53	313.54
360.912	334.55
361.294	307.66
361.676	328
362.057	322.58
362.439	335.68
362.821	332.52
363.203	339.3
363.584	283.26
363.966	305.63
364.348	322.12
364.729	310.37
365.111	308.11
365.493	318.73
365.874	319.41
366.256	313.08
366.637	325.06
367.019	305.63
367.4	310.37
367.781	317.38
368.163	309.24
368.544	325.74
368.925	303.37
369.306	318.06
369.688	315.8
370.069	288.68
370.45	305.63
370.831	301.79
371.212	297.72
371.593	332.07
371.974	305.85
372.355	311.5
372.736	304.05
373.117	315.34
373.498	286.65
373.879	317.83
374.26	295.01
374.641	305.4
375.021	312.63
375.402	306.98
375.783	315.34
376.163	320.77
376.544	306.31
376.925	326.19
377.305	325.29
377.686	323.71
378.066	342.46
378.447	326.87
378.827	307.44
379.208	337.49
379.588	320.77
379.968	323.25
380.349	334.78
380.729	306.98
381.109	322.12
381.489	318.96
381.87	324.84
382.25	333.65
382.63	342.91
383.01	330.03
383.39	326.42
383.77	319.19
384.15	333.42
384.53	352.86
384.91	325.06
385.29	356.02
385.67	347.43
386.049	351.73
386.429	349.24
386.809	349.47
387.189	350.6
387.568	358.28
387.948	330.03
388.328	356.02
388.707	336.14
389.087	354.89
389.466	356.25
389.846	333.42
390.225	342.69
390.605	349.02
390.984	358.73
391.363	358.96
391.743	357.38
392.122	344.95
392.501	372.07
392.881	377.04
393.26	376.81
393.639	367.77
394.018	360.09
394.397	386.3
394.776	346.53
395.155	364.84
395.534	396.02
395.913	369.13
396.292	382.24
396.671	376.36
397.05	402.57
397.429	409.35
397.808	384.72
398.186	403.48
398.565	410.71
398.944	397.15
399.323	377.26
399.701	414.78
400.08	396.92
400.458	416.81
400.837	398.05
401.215	415.91
401.594	391.5
401.972	413.65
402.351	425.85
402.729	433.76
403.107	429.69
403.486	427.21
403.864	410.48
404.242	433.76
404.62	410.03
404.999	421.78
405.377	433.76
405.755	443.25
406.133	438.96
406.511	452.74
406.889	455
407.267	466.53
407.645	448.67
408.023	441.44
408.401	481.89
408.779	475.11
409.156	478.05
409.534	483.02
409.912	494.78
410.29	505.4
410.667	506.53
411.045	525.28
411.422	524.38
411.8	524.15
412.178	545.17
412.555	544.94
412.933	547.66
413.31	561.67
413.687	560.31
414.065	585.39
414.442	576.13
414.819	572.97
415.197	609.57
415.574	612.74
415.951	621.33
416.328	617.71
416.705	613.19
417.082	624.26
417.46	637.14
417.837	654.54
418.214	654.54
418.591	660.42
418.967	663.81
419.344	662.68
419.721	685.5
420.098	714.88
420.475	686.41
420.852	714.66
421.228	709.91
421.605	722.79
421.982	728.89
422.358	765.28
422.735	757.82
423.111	768.21
423.488	787.87
423.864	768.67
424.241	813.86
424.617	820.64
424.994	817.03
425.37	858.38
425.746	857.7
426.123	862
426.499	864.03
426.875	896.35
427.251	906.74
427.627	923.69
428.003	918.49
428.379	927.76
428.756	984.48
429.132	968.21
429.507	960.3
429.883	975.44
430.259	984.48
430.635	1003.91
431.011	1006.63
431.387	1038.49
431.763	1027.19
432.138	1055.66
432.514	1089.56
432.89	1074.87
433.265	1114.42
433.641	1139.96
434.016	1156
434.392	1172.05
434.767	1191.93
435.143	1195.55
435.518	1237.35
435.894	1247.3
436.269	1295.66
436.644	1266.51
437.02	1295.88
437.395	1304.7
437.77	1320.97
438.145	1368.42
438.52	1387.41
438.895	1395.77
439.271	1396.45
439.646	1463.11
440.021	1483
440.395	1454.07
440.77	1457.91
441.145	1483.45
441.52	1520.74
441.895	1522.32
442.27	1559.38
442.645	1574.75
443.019	1581.3
443.394	1605.48
443.769	1598.7
444.143	1614.52
444.518	1659.72
444.892	1670.11
445.267	1646.16
445.641	1691.58
446.016	1674.63
446.39	1735.65
446.764	1723.67
447.139	1736.55
447.513	1738.58
447.887	1748.3
448.262	1770.22
448.636	1771.35
449.01	1771.8
449.384	1791.01
449.758	1845.02
450.132	1825.14
450.506	1821.75
450.88	1887.05
451.254	1859.03
451.628	1885.47
452.002	1927.05
452.376	1901.97
452.75	1942.87
453.123	1934.29
453.497	1985.81
453.871	2000.95
454.244	2005.7
454.618	2029.2
454.992	2074.39
455.365	2046.82
455.739	2132.92
456.112	2127.5
456.486	2120.27
456.859	2126.6
457.232	2185.58
457.606	2219.93
457.979	2220.38
458.352	2315.29
458.725	2278.68
459.099	2291.34
459.472	2374.5
459.845	2332.01
460.218	2362.52
460.591	2382.18
460.964	2381.28
461.337	2440.94
461.71	2460.15
462.083	2500.82
462.456	2505.12
462.829	2532.69
463.201	2557.32
463.574	2542.18
463.947	2599.8
464.32	2676.64
464.692	2693.36
465.065	2715.73
465.438	2745.34
465.81	2753.02
466.183	2815.39
466.555	2852.68
466.928	2833.7
467.3	2856.29
467.672	2903.3
468.045	2953.02
468.417	3005.22
468.789	2985.56
469.161	3028.04
469.534	3052.67
469.906	3137.64
470.278	3158.43
470.65	3152.78
471.022	3195.95
471.394	3254.93
471.766	3291.09
472.138	3341.48
472.51	3418.09
472.882	3408.82
473.253	3451.76
473.625	3498.09
473.997	3591.19
474.369	3576.5
474.74	3602.26
475.112	3683.17
475.484	3708.93
475.855	3748.93
476.227	3833.9
476.598	3906.44
476.97	3925.19
477.341	4019.2
477.713	4075.7
478.084	4074.57
478.455	4212.87
478.827	4178.97
479.198	4290.83
479.569	4310.49
479.94	4394.79
480.311	4441.79
480.682	4493.77
481.053	4600.66
481.424	4642.46
481.795	4658.28
482.166	4722.23
482.537	4827.77
482.908	4875.9
483.279	4884.04
483.65	4989.12
484.021	5100.98
484.391	5091.49
484.762	5157.25
485.133	5196.12
485.503	5246.29
485.874	5342.33
486.244	5338.26
486.615	5493.29
486.985	5542.55
487.356	5586.39
487.726	5612.83
488.097	5743.22
488.467	5734.41
488.837	5822.77
489.207	5865.26
489.578	5928.3
489.948	5973.05
490.318	6100.96
490.688	6121.75
491.058	6159.48
491.428	6237
491.798	6235.19
492.168	6406.48
492.538	6407.84
492.908	6439.48
493.278	6524.67
493.648	6448.29
494.017	6558.12
494.387	6592.02
494.757	6682.41
495.126	6683.54
495.496	6730.09
495.866	6735.74
496.235	6813.71
496.605	6892.57
496.974	6867.71
497.344	6928.96
497.713	6890.09
498.082	6973.47
498.452	7058.9
498.821	7086.69
499.19	7115.39
499.559	7085.79
499.928	7188.38
500.298	7192.23
500.667	7190.19
501.036	7251.21
501.405	7298.44
501.774	7292.11
502.143	7321.04
502.512	7362.39
502.88	7363.3
503.249	7344.99
503.618	7400.13
503.987	7411.2
504.356	7426.57
504.724	7477.42
505.093	7448.26
505.462	7484.87
505.83	7472.9
506.199	7472.22
506.567	7582.72
506.936	7601.03
507.304	7686
507.672	7669.5
508.041	7744.3
508.409	7721.25
508.777	7736.17
509.145	7812.1
509.514	7722.16
509.882	7824.98
510.25	7767.58
510.618	7810.97
510.986	7847.58
511.354	7845.54
511.722	7984.52
512.09	7921.02
512.458	7946.56
512.826	7913.34
513.193	8008.7
513.561	8015.03
513.929	8029.49
514.297	8008.7
514.664	8039.21
515.032	8000.79
515.4	8062.03
515.767	8046.21
516.135	8120.34
516.502	7996.5
516.869	8134.12
517.237	8160.11
517.604	8067.91
517.972	8125.99
518.339	8177.06
518.706	8113.78
519.073	8097.29
519.44	8107
519.808	8160.56
520.175	8175.25
520.542	8216.83
520.909	8142.26
521.276	8125.76
521.643	8142.71
522.009	8197.62
522.376	8198.08
522.743	8250.28
523.11	8302.25
523.477	8289.82
523.843	8278.3
524.21	8335.7
524.577	8383.38
524.943	8310.84
525.31	8307
525.676	8339.99
526.043	8337.28
526.409	8360.11
526.776	8439.2
527.142	8354.23
527.508	8439.88
527.874	8379.99
528.241	8441.46
528.607	8392.42
528.973	8450.95
529.339	8359.65
529.705	8435.81
530.071	8460.44
530.437	8405.08
530.803	8509.03
531.169	8520.55
531.535	8397.84
531.901	8369.82
532.267	8433.1
532.632	8390.61
532.998	8438.07
533.364	8421.12
533.73	8369.82
534.095	8382.7
534.461	8443.27
534.826	8452.31
535.192	8342.48
535.557	8362.82
535.923	8381.57
536.288	8357.17
536.653	8411.86
537.019	8255.93
537.384	8270.39
537.749	8278.07
538.114	8229.71
538.479	8203.27
538.845	8286.66
539.21	8146.55
539.575	8221.13
539.94	8126.66
540.305	8210.96
540.67	8115.82
541.034	8083.73
541.399	8160.34
541.764	8069.72
542.129	8017.06
542.494	8025.88
542.858	8002.6
543.223	8002.37
543.587	8054.35
543.952	7947.46
544.316	7947.91
544.681	7922.15
545.045	7948.59
545.41	7914.24
545.774	7932.77
546.138	7898.87
546.503	7851.19
546.867	7779.56
547.231	7845.09
547.595	7824.53
547.959	7811.19
548.324	7797.41
548.688	7752.89
549.052	7755.15
549.416	7705.88
549.779	7644.87
550.143	7654.13
550.507	7693.46
550.871	7652.78
551.235	7696.62
551.599	7639.45
551.962	7579.79
552.326	7582.27
552.689	7558.32
553.053	7464.76
553.417	7525.78
553.78	7502.73
554.143	7490.3
554.507	7447.13
554.87	7427.47
555.234	7535.49
555.597	7387.25
555.96	7426.12
556.323	7410.98
556.686	7433.12
557.05	7408.94
557.413	7442.16
557.776	7365.55
558.139	7387.02
558.502	7428.15
558.865	7373.92
559.228	7387.7
559.59	7358.55
559.953	7315.61
560.316	7410.3
560.679	7372.11
561.041	7410.53
561.404	7359.23
561.767	7367.81
562.129	7396.06
562.492	7449.17
562.854	7323.3
563.217	7431.99
563.579	7353.13
563.941	7430.64
564.304	7410.98
564.666	7381.6
565.028	7422.5
565.39	7422.95
565.753	7392.9
566.115	7417.76
566.477	7477.64
566.839	7433.58
567.201	7446.23
567.563	7438.77
567.925	7528.71
568.287	7464.08
568.648	7493.46
569.01	7530.97
569.372	7488.04
569.734	7492.78
570.095	7509.73
570.457	7550.41
570.819	7532.56
571.18	7543.86
571.542	7563.29
571.903	7542.05
572.265	7567.81
572.626	7610.07
572.987	7625.89
573.349	7628.37
573.71	7615.49
574.071	7647.36
574.432	7620.92
574.794	7749.73
575.155	7689.16
575.516	7680.12
575.877	7715.15
576.238	7744.53
576.599	7759.22
576.96	7708.6
577.32	7772.78
577.681	7815.03
578.042	7781.82
578.403	7790.4
578.763	7840.12
579.124	7859.78
579.485	7806.9
579.845	7876.28
580.206	7807.58
580.566	7875.15
580.927	7916.73
581.287	7983.39
581.648	7927.35
582.008	7975.93
582.368	7937.97
582.728	8023.16
583.089	8004.41
583.449	7923.73
583.809	8036.05
584.169	8102.48
584.529	8031.3
584.889	8127.79
585.249	8099.32
585.609	8010.74
585.969	8096.84
586.329	8049.83
586.688	8108.36
587.048	8129.6
587.408	8123.73
587.768	8111.3
588.127	8129.6
588.487	8134.35
588.846	8239.43
589.206	8197.17
589.565	8245.76
589.925	8250.5
590.284	8209.6
590.643	8282.59
591.003	8245.08
591.362	8286.43
591.721	8295.02
592.08	8356.72
592.44	8391.06
592.799	8385.19
593.158	8319.65
593.517	8292.76
593.876	8327.56
594.235	8348.81
594.593	8382.03
594.952	8364.62
595.311	8341.12
595.67	8383.61
596.029	8413.66
596.387	8473.1
596.746	8457.28
597.104	8430.16
597.463	8422.48
597.822	8534.56
598.18	8453.66
598.538	8471.29
598.897	8513.55
599.255	8392.42
599.613	8498.86
599.972	8472.87
600.33	8503.83
600.688	8472.19
601.046	8516.26
601.404	8521.46
601.762	8581.57
602.12	8611.4
602.478	8548.12
602.836	8573.21
603.194	8606.2
603.552	8599.65
603.91	8558.52
604.268	8568.69
604.625	8561.91
604.983	8577.05
605.341	8572.3
605.698	8573.21
606.056	8620.21
606.413	8632.41
606.771	8637.16
607.128	8593.77
607.485	8618.4
607.843	8628.35
608.2	8688.68
608.557	8708.34
608.914	8655.46
609.272	8684.39
609.629	8692.07
609.986	8814.78
610.343	8684.84
610.7	8725.29
611.057	8735.24
611.414	8753.54
611.771	8732.52
612.127	8761.68
612.484	8759.19
612.841	8801.45
613.198	8737.27
613.554	8707.89
613.911	8783.14
614.267	8802.35
614.624	8767.78
614.98	8817.04
615.337	8850.71
615.693	8846.87
616.05	8758.51
616.406	8853.88
616.762	8833.09
617.118	8798.96
617.475	8894.1
617.831	8905.63
618.187	8835.35
618.543	8902.92
618.899	8969.58
619.255	8885.51
619.611	8886.87
619.967	8932.75
620.323	8978.85
620.678	8950.82
621.034	8903.59
621.39	8933.65
621.746	8922.8
622.101	8989.47
622.457	8898.85
622.812	8934.33
623.168	8913.54
623.523	8935.23
623.879	8889.81
624.234	8988.56
624.589	8979.3
624.945	8969.81
625.3	8962.8
625.655	8932.29
626.01	8982.91
626.365	8960.77
626.72	8930.49
627.075	8904.5
627.43	8932.75
627.785	8970.26
628.14	8931.39
628.495	8964.38
628.85	8920.99
629.205	8879.64
629.559	9003.93
629.914	8907.66
630.269	8882.8
630.623	8876.7
630.978	8890.49
631.332	8830.15
631.687	8914.21
632.041	8898.17
632.396	8897.49
632.75	8826.76
633.104	8777.5
633.459	8808.23
633.813	8773.88
634.167	8742.02
634.521	8772.98
634.875	8758.74
635.229	8740.89
635.583	8776.59
635.937	8742.47
636.291	8706.08
636.645	8721
636.999	8708.12
637.352	8726.2
637.706	8660.66
638.06	8743.6
638.413	8629.02
638.767	8671.74
639.121	8678.29
639.474	8560.55
639.828	8650.04
640.181	8628.8
640.534	8645.75
640.888	8572.75
641.241	8540.44
641.594	8645.97
641.947	8570.27
642.301	8566.88
642.654	8526.43
643.007	8550.83
643.36	8571.4
643.713	8511.74
644.066	8555.13
644.419	8538.41
644.771	8510.84
645.124	8429.71
645.477	8426.09
645.83	8362.36
646.182	8316.94
646.535	8306.77
646.888	8309.94
647.24	8283.72
647.593	8279.88
647.945	8284.63
648.298	8254.35
648.65	8264.51
649.002	8196.49
649.355	8277.4
649.707	8259.32
650.059	8304.06
650.411	8366.43
650.763	8406.88
651.115	8507.22
651.467	8473.55
651.819	8454.57
652.171	8460.22
652.523	8439.42
652.875	8498.41
653.227	8386.77
653.578	8506.99
653.93	8522.36
654.282	8426.32
654.633	8462.02
654.985	8425.19
655.337	8466.32
655.688	8416.37
656.039	8465.64
656.391	8378.41
656.742	8486.88
657.094	8491.4
657.445	8512.87
657.796	8591.29
658.147	8508.58
658.498	8445.53
658.849	8417.96
659.2	8422.25
659.551	8480.33
659.902	8531.17
660.253	8470.84
660.604	8548.35
660.955	8492.08
661.306	8528.69
661.656	8504.06
662.007	8562.13
662.358	8478.52
662.708	8545.64
663.059	8577.5
663.409	8468.35
663.76	8575.24
664.11	8609.59
664.461	8515.36
664.811	8519.87
665.161	8515.13
665.511	8510.38
665.862	8573.66
666.212	8553.32
666.562	8535.02
666.912	8548.35
667.262	8565.98
667.612	8579.31
667.962	8562.59
668.312	8528.69
668.662	8506.09
669.011	8533.43
669.361	8502.7
669.711	8440.33
670.06	8553.77
670.41	8508.58
670.76	8494.11
671.109	8521.91
671.459	8487.56
671.808	8453.89
672.157	8496.37
672.507	8471.74
672.856	8462.93
673.205	8481.01
673.554	8468.8
673.904	8406.21
674.253	8504.73
674.602	8505.41
674.951	8450.72
675.3	8287.56
675.649	8395.36
675.998	8408.01
676.346	8440.78
676.695	8479.42
677.044	8371.4
677.393	8422.02
677.741	8434.91
678.09	8414.11
678.438	8340.9
678.787	8344.74
679.135	8341.12
679.484	8272.2
679.832	8320.78
680.181	8245.98
680.529	8260.9
680.877	8255.48
681.225	8265.64
681.573	8297.28
681.922	8236.27
682.27	8217.96
682.618	8215.48
682.966	8212.76
683.314	8238.07
683.661	8236.27
684.009	8085.54
684.357	8086.44
684.705	8047.12
685.053	8110.17
685.4	8093.45
685.748	8049.6
686.095	8069.49
686.443	8031.98
686.79	7951.53
687.138	7970.74
687.485	8013.22
687.832	7959.66
688.18	7943.17
688.527	7886.45
688.874	7925.31
689.221	7895.94
689.568	7879.21
689.915	7855.71
690.262	7770.97
690.609	7852.32
690.956	7754.47
691.303	7783.17
691.65	7660.01
691.997	7659.11
692.344	7590.86
692.69	7622.05
693.037	7632.44
693.383	7567.81
693.73	7534.14
694.077	7508.83
694.423	7454.14
694.769	7434.93
695.116	7451.2
695.462	7443.29
695.808	7397.19
696.155	7443.97
696.501	7394.93
696.847	7369.4
697.193	7250.76
697.539	7308.61
697.885	7242.85
698.231	7194.49
698.577	7239.91
698.923	7257.54
699.269	7175.96
699.614	7155.84
699.96	7087.37
700.306	7121.95
700.651	7074.94
700.997	7059.12
701.342	7024.55
701.688	7019.58
702.033	6975.73
702.379	6975.73
702.724	6908.39
703.069	6889.18
703.415	6858.22
703.76	6884.21
704.105	6839.92
704.45	6799.47
704.795	6739.81
705.14	6679.47
705.485	6707.49
705.83	6698.68
706.175	6690.77
706.52	6646.25
706.865	6661.84
707.209	6627.5
707.554	6620.04
707.899	6570.77
708.243	6573.71
708.588	6565.8
708.932	6537.33
709.277	6532.36
709.621	6498.91
709.966	6477.44
710.31	6478.8
710.654	6423.88
710.998	6375.75
711.342	6427.95
711.687	6429.99
712.031	6357.67
712.375	6348.41
712.719	6378.46
713.063	6349.76
713.407	6386.15
713.75	6262.31
714.094	6328.07
714.438	6306.37
714.782	6248.3
715.125	6264.57
715.469	6287.84
715.812	6233.38
716.156	6228.86
716.499	6218.47
716.843	6182.08
717.186	6163.78
717.53	6152.71
717.873	6218.24
718.216	6166.94
718.559	6107.73
718.902	6130.56
719.246	6147.28
719.589	6104.57
719.932	6111.35
720.275	6106.38
720.617	6044.69
720.96	6088.07
721.303	6058.47
721.646	6126.72
721.989	6055.98
722.331	6101.86
722.674	6049.21
723.016	6071.13
723.359	6059.37
723.701	6036.32
724.044	5986.83
724.386	6032.48
724.729	6060.28
725.071	6023.9
725.413	6021.41
725.755	5997.91
726.097	5992.71
726.439	5934.18
726.782	5925.37
727.124	5949.55
727.465	5999.94
727.807	5951.58
728.149	5997.68
728.491	5961.52
728.833	5944.58
729.175	6006.27
729.516	5960.39
729.858	5934.18
730.199	6012.6
730.541	6004.01
730.882	5955.87
731.224	5988.64
731.565	5943.9
731.906	5939.38
732.248	5971.24
732.589	5934.63
732.93	5910
733.271	5946.38
733.612	5963.56
733.953	5993.39
734.294	5961.07
734.635	5967.4
734.976	5959.72
735.317	6026.38
735.658	5910.45
735.999	5982.99
736.339	5940.73
736.68	5998.36
737.021	5976.44
737.361	5983.44
737.702	6001.97
738.042	6012.6
738.383	5936.89
738.723	5997.91
739.063	6016.44
739.404	6004.01
739.744	6032.93
740.084	6016.66
740.424	6081.52
740.764	6012.37
741.104	6133.5
741.444	6053.73
741.784	6069.54
742.124	6133.27
742.464	6083.55
742.804	6135.53
743.143	6138.02
743.483	6158.58
743.823	6133.27
744.162	6151.35
744.502	6296.43
744.841	6221.4
745.181	6340.05
745.52	6307.5
745.86	6300.27
746.199	6376.2
746.538	6399.93
746.877	6455.52
747.216	6538.68
747.556	6513.37
747.895	6591.56
748.234	6595.18
748.573	6666.59
748.911	6676.08
749.25	6828.85
749.589	6774.16
749.928	6881.5
750.267	6975.06
750.605	7006.47
750.944	7074.94
751.283	7116.52
751.621	7204.43
751.96	7287.36
752.298	7370.98
752.636	7433.12
752.975	7549.28
753.313	7643.29
753.651	7791.76
753.989	7807.8
754.327	7949.27
754.666	8013
755.004	8150.17
755.342	8307.45
755.679	8415.02
756.017	8514.45
756.355	8647.33
756.693	8750.83
757.031	8849.36
757.368	9072.85
757.706	9142.91
758.044	9333.41
758.381	9455.44
758.719	9584.71
759.056	9756.45
759.394	9903.79
759.731	10042.55
760.068	10185.37
760.405	10228.08
760.743	10374.52
761.08	10663.77
761.417	10825.8
761.754	10887.72
762.091	11155.96
762.428	11310.08
762.765	11344.89
763.102	11609.29
763.438	11771.31
763.775	11873.01
764.112	12110.74
764.449	12290.62
764.785	12404.29
765.122	12515.48
765.458	12713.21
765.795	12844.96
766.131	13104.39
766.467	13189.58
766.804	13336.47
767.14	13403.36
767.476	13626.63
767.812	13709.57
768.148	13876.8
768.485	14009.22
768.821	14067.98
769.157	14283.57
769.492	14414.86
769.828	14514.07
770.164	14598.13
770.5	14741.18
770.836	14817.34
771.171	14934.4
771.507	15016.2
771.842	15085.58
772.178	15226.82
772.513	15395.85
772.849	15400.15
773.184	15439.92
773.519	15624.32
773.855	15646.02
774.19	15648.05
774.525	15760.59
774.86	15809.63
775.195	15924.65
775.53	16003.75
775.865	15956.29
776.2	15961.94
776.535	15955.61
776.87	16115.38
777.205	16165.32
777.539	16207.36
777.874	16324.42
778.209	16276.51
778.543	16346.11
778.878	16311.99
779.212	16321.93
779.547	16345.66
779.881	16460.91
780.215	16426.56
780.55	16592.66
780.884	16479.21
781.218	16558.08
781.552	16611.64
781.886	16591.75
782.22	16551.3
782.554	16617.29
782.888	16571.19
783.222	16597.63
783.556	16516.27
783.889	16558.76
784.223	16428.82
784.557	16431.98
784.89	16623.62
785.224	16517.18
785.557	16531.87
785.891	16474.92
786.224	16485.09
786.558	16548.82
786.891	16396.28
787.224	16410.51
787.557	16366.22
787.891	16475.15
788.224	16423.17
788.557	16480.8
788.89	16413.9
789.223	16490.29
789.556	16376.84
789.888	16311.53
790.221	16368.03
790.554	16255.49
790.887	16273.57
791.219	16270.41
791.552	16172.33
791.884	16134.36
792.217	16156.06
792.549	16128.49
792.882	16140.92
793.214	16062.28
793.546	16038.32
793.879	15961.71
794.211	15931.66
794.543	15955.61
794.875	15938.44
795.207	16057.08
795.539	15890.53
795.871	15863.18
796.203	15768.27
796.535	15743.87
796.867	15798.33
797.198	15664.77
797.53	15742.06
797.862	15622.74
798.193	15665.9
798.525	15590.42
798.856	15569.18
799.188	15437.66
799.519	15410.54
799.85	15337.32
800.182	15441.5
800.513	15454.61
800.844	15315.4
801.175	15421.61
801.506	15364.44
801.837	15273.14
802.168	15215.52
802.499	15165.35
802.83	15114.05
803.161	15061.85
803.491	15086.48
803.822	15090.32
804.153	15016.2
804.483	14895.75
804.814	14834.29
805.145	14844
805.475	14929.88
805.805	14860.73
806.136	14858.92
806.466	14884.91
806.796	14833.83
807.126	14739.37
807.457	14656.44
807.787	14730.56
808.117	14631.13
808.447	14593.84
808.777	14627.51
809.107	14576.44
809.436	14505.71
809.766	14502.32
810.096	14481.3
810.426	14444.24
810.755	14449.89
811.085	14430
811.414	14385.48
811.744	14338.93
812.073	14326.95
812.403	14284.24
812.732	14205.83
813.061	14240.18
813.39	14144.59
813.719	14088.32
814.049	14239.72
814.378	14205.38
814.707	14021.88
815.036	14055.32
815.365	14034.98
815.693	13904.82
816.022	13908.21
816.351	13889.68
816.68	13818.27
817.008	13952.05
817.337	13686.52
817.665	13662.79
817.994	13809.23
818.322	13734.88
818.651	13651.94
818.979	13690.59
819.307	13689.46
819.636	13749.12
819.964	13610.59
820.292	13635.22
820.62	13697.59
820.948	13603.13
821.276	13610.81
821.604	13622.34
821.932	13640.19
822.259	13636.58
822.587	13558.39
822.915	13617.14
823.243	13606.97
823.57	13568.56
823.898	13632.28
824.225	13559.29
824.553	13532.4
824.88	13585.05
825.207	13539.86
825.535	13601.32
825.862	13599.97
826.189	13595.22
826.516	13606.07
826.843	13740.98
827.17	13601.32
827.497	13645.16
827.824	13589.12
828.151	13686.52
828.478	13690.81
828.805	13686.07
829.131	13595.9
829.458	13674.99
829.785	13562.23
830.111	13606.29
830.438	13663.92
830.764	13713.18
831.09	13620.53
831.417	13583.47
831.743	13610.36
832.069	13605.16
832.395	13595.9
832.722	13557.71
833.048	13442.23
833.374	13571.72
833.7	13465.51
834.026	13507.77
834.351	13561.32
834.677	13587.54
835.003	13490.14
835.329	13531.49
835.654	13500.99
835.98	13394.1
836.306	13468.22
836.631	13399.29
836.956	13420.08
837.282	13460.76
837.607	13454.21
837.932	13296.25
838.258	13415.79
838.583	13338.28
838.908	13297.38
839.233	13302.12
839.558	13227.77
839.883	13202.46
840.208	13238.62
840.533	13179.41
840.858	13133.09
841.182	13145.29
841.507	13182.35
841.832	13109.13
842.156	13153.43
842.481	13039.08
842.805	13051.51
843.13	12974.22
843.454	12936.03
843.778	12966.76
844.103	12903.26
844.427	12841.34
844.751	12895.13
845.075	12779.65
845.399	12756.83
845.723	12654.23
846.047	12717.96
846.371	12623.5
846.695	12735.13
847.019	12606.1
847.343	12514.57
847.666	12477.28
847.99	12392.09
848.313	12444.07
848.637	12235.26
848.96	12280.23
849.284	12300.57
849.607	12096.28
849.931	12051.31
850.254	12073.45
850.577	11967.92
850.9	11965.43
851.223	11888.37
851.546	11864.19
851.869	11825.32
852.192	11883.63
852.515	11725.21
852.838	11674.59
853.161	11734.03
853.483	11584.65
853.806	11548.5
854.129	11557.76
854.451	11589.62
854.774	11429.85
855.096	11381.95
855.419	11416.52
855.741	11425.79
856.063	11361.16
856.385	11366.58
856.708	11269.86
857.03	11218.79
857.352	11212.91
857.674	11215.85
857.996	11117.77
858.318	11092.69
858.64	11085.46
858.961	11024.22
859.283	11033.48
859.605	10949.87
859.926	10968.4
860.248	10867.38
860.57	10934.73
860.891	10838.01
861.212	10909.87
861.534	10857.89
861.855	10774.96
862.176	10740.83
862.498	10824.45
862.819	10760.27
863.14	10731.79
863.461	10684.11
863.782	10666.26
864.103	10634.17
864.424	10668.52
864.745	10700.83
865.065	10537.67
865.386	10554.17
865.707	10505.59
866.027	10511.23
866.348	10496.77
866.668	10513.95
866.989	10534.51
867.309	10404.35
867.63	10416.55
867.95	10350.56
868.27	10341.3
868.59	10397.34
868.91	10320.28
869.23	10249.55
869.55	10272.6
869.87	10334.29
870.19	10228.76
870.51	10301.3
870.83	10287.51
871.15	10203.9
871.469	10195.54
871.789	10242.99
872.109	10195.09
872.428	10182.66
872.748	10290.68
873.067	10191.02
873.386	10111.25
873.706	10132.71
874.025	10021.53
874.344	10067.63
874.663	10140.85
874.982	10109.44
875.301	10094.75
875.62	10048.65
875.939	9960.74
876.258	10021.76
876.577	9967.97
876.896	9929.1
877.214	9894.75
877.533	9861.53
877.852	9966.39
878.17	9917.8
878.489	9896.11
878.807	9908.54
879.125	9861.08
879.444	9860.18
879.762	9845.26
880.08	9843.68
880.398	9794.87
880.716	9770.69
881.034	9729.33
881.352	9777.92
881.67	9652.95
881.988	9658.6
882.306	9646.17
882.624	9647.08
882.941	9637.13
883.259	9603.01
883.577	9551.49
883.894	9520.98
884.212	9471.26
884.529	9482.79
884.846	9523.01
885.164	9489.34
885.481	9397.82
885.798	9396.69
886.115	9405.05
886.432	9341.32
886.75	9358.72
887.067	9369.8
887.383	9327.31
887.7	9257.48
888.017	9260.19
888.334	9271.27
888.651	9231.95
888.967	9211.61
889.284	9212.51
889.6	9133.19
889.917	9057.94
890.233	9067.88
890.55	9076.92
890.866	9065.85
891.182	9010.03
891.498	9031.5
891.815	8932.29
892.131	8988.56
892.447	8852.52
892.763	8878.51
893.079	8844.16
893.395	8852.52
893.71	8860.2
894.026	8814.1
894.342	8752.64
894.657	8719.64
894.973	8721.23
895.289	8671.28
895.604	8643.94
895.92	8584.73
896.235	8537.5
896.55	8568.01
896.865	8523.94
897.181	8481.46
897.496	8501.12
897.811	8437.84
898.126	8352.2
898.441	8350.61
898.756	8298.64
899.071	8325.3
899.386	8311.52
899.7	8255.02
900.015	8206.89
900.33	8121.24
900.644	8124.18
900.959	8176.16
901.273	8127.12
901.588	8103.16
901.902	8083.95
902.216	7977.06
902.531	7970.96
902.845	7968.02
903.159	7880.34
903.473	7864.98
903.787	7873.34
904.101	7794.02
904.415	7813.45
904.729	7798.76
905.042	7762.38
905.356	7741.14
905.67	7637.19
905.984	7712.89
906.297	7625.21
906.611	7570.52
906.924	7546.79
907.237	7557.19
907.551	7532.1
907.864	7480.81
908.177	7432.45
908.491	7472.9
908.804	7389.06
909.117	7356.06
909.43	7307.48
909.743	7172.34
910.056	7282.85
910.368	7255.5
910.681	7166.92
910.994	7206.46
911.307	7130.98
911.619	7064.09
911.932	7102.51
912.244	7056.86
912.557	7058.9
912.869	6974.38
913.181	6891.67
913.494	6976.64
913.806	6827.94
914.118	6865
914.43	6876.98
914.742	6824.55
915.054	6784.33
915.366	6773.48
915.678	6778.45
915.99	6723.76
916.302	6656.42
916.613	6670.21
916.925	6621.62
917.236	6607.16
917.548	6530.77
917.859	6555.18
918.171	6491.23
918.482	6465.01
918.794	6490.55
919.105	6506.82
919.416	6457.33
919.727	6379.59
920.038	6413.94
920.349	6367.16
920.66	6348.63
920.971	6326.94
921.282	6308.18
921.593	6249.88
921.903	6234.51
922.214	6218.92
922.525	6137.11
922.835	6142.08
923.146	6116.32
923.456	6051.92
923.767	6097.34
924.077	6061.63
924.387	6048.3
924.697	5992.48
925.008	5976.44
925.318	5963.33
925.628	5948.19
925.938	5931.24
926.248	5867.74
926.558	5883.79
926.867	5830
927.177	5816.9
927.487	5796.1
927.796	5768.08
928.106	5768.99
928.416	5730.12
928.725	5758.59
929.034	5641.98
929.344	5682.66
929.653	5611.7
929.962	5601.99
930.271	5570.57
930.581	5532.83
930.89	5542.78
931.199	5494.42
931.508	5555.43
931.817	5428.2
932.125	5429.79
932.434	5425.72
932.743	5378.71
933.051	5374.42
933.36	5345.04
933.669	5287.87
933.977	5300.3
934.286	5283.35
934.594	5255.78
934.902	5233.18
935.21	5211.49
935.519	5203.8
935.827	5171.26
936.135	5193.86
936.443	5133.75
936.751	5137.14
937.059	5099.85
937.367	5091.94
937.674	5074.09
937.982	5064.82
938.29	5000.87
938.597	5007.88
938.905	4963.36
939.213	4934.88
939.52	4904.83
939.827	4910.25
940.135	4853.3
940.442	4889.24
940.749	4833.19
941.056	4872.29
941.363	4802.91
941.67	4773.76
941.977	4793.87
942.284	4770.37
942.591	4745.06
942.898	4687.66
943.205	4688.56
943.511	4678.85
943.818	4688.56
944.125	4603.37
944.431	4604.72
944.738	4555.91
945.044	4546.87
945.35	4522.01
945.657	4487.66
945.963	4492.41
946.269	4454.9
946.575	4449.7
946.881	4442.47
947.187	4398.18
947.493	4371.06
947.799	4386.2
948.105	4378.97
948.41	4357.5
948.716	4343.94
949.022	4352.3
949.327	4356.14
949.633	4268.24
949.938	4249.7
950.244	4255.35
950.549	4233.89
950.854	4230.04
951.16	4226.65
951.465	4197.05
951.77	4163.83
952.075	4148.01
952.38	4086.55
952.685	4105.3
952.99	4035.7
953.294	4067.11
953.599	4034.34
953.904	3983.72
954.209	3996.6
954.513	3993.67
954.818	3982.82
955.122	3988.92
955.426	3943.05
955.731	3884.06
956.035	3966.32
956.339	3913.67
956.643	3891.3
956.948	3892.65
957.252	3804.07
957.556	3854.91
957.86	3850.39
958.163	3779.89
958.467	3802.94
958.771	3798.19
959.075	3763.16
959.378	3737.85
959.682	3747.8
959.985	3704.63
960.289	3721.36
960.592	3694.24
960.896	3668.93
961.199	3640.91
961.502	3679.32
961.805	3603.39
962.108	3524.3
962.411	3582.38
962.714	3560.46
963.017	3544.19
963.32	3583.96
963.623	3542.38
963.926	3537.63
964.228	3503.28
964.531	3493.34
964.833	3460.8
965.136	3431.2
965.438	3485.2
965.741	3403.17
966.043	3388.71
966.345	3411.99
966.648	3348.71
966.95	3385.77
967.252	3336.51
967.554	3331.76
967.856	3329.5
968.158	3305.55
968.46	3267.58
968.761	3269.84
969.063	3280.01
969.365	3237.3
969.666	3265.32
969.968	3206.34
970.269	3229.17
970.571	3210.86
970.872	3164.76
971.174	3156.63
971.475	3167.7
971.776	3124.54
972.077	3095.84
972.378	3096.51
972.679	3123.86
972.98	3099.45
973.281	3051.32
973.582	3035.5
973.883	3057.42
974.183	3059
974.484	3032.79
974.785	3018.32
975.085	3000.92
975.386	3012.68
975.686	2980.36
975.986	2956.18
976.287	2966.12
976.587	2934.94
976.887	2937.65
977.187	2885.9
977.487	2892
977.787	2893.58
978.087	2852.91
978.387	2868.95
978.687	2825.34
978.987	2816.75
979.286	2812.23
979.586	2806.58
979.885	2770.42
980.185	2775.17
980.484	2767.26
980.784	2748.73
981.083	2746.02
981.382	2701.5
981.682	2716.41
981.981	2716.86
982.28	2683.64
982.579	2692.68
982.878	2692.23
983.177	2668.96
983.475	2619.47
983.774	2603.42
984.073	2610.43
984.372	2592.12
984.67	2600.48
984.969	2592.8
985.267	2578.34
985.566	2582.86
985.864	2571.78
986.162	2545.57
986.461	2507.6
986.759	2530.88
987.057	2475.29
987.355	2472.12
987.653	2475.51
987.951	2502.18
988.249	2451.56
988.547	2454.72
988.844	2465.12
989.142	2432.13
989.44	2416.76
989.737	2393.26
990.035	2385.8
990.332	2382.41
990.63	2367.95
990.927	2353.94
991.224	2359.81
991.521	2315.74
991.819	2301.51
992.116	2318.91
992.413	2328.17
992.71	2299.7
993.006	2322.75
993.303	2285.69
993.6	2292.92
993.897	2252.24
994.193	2250.89
994.49	2246.82
994.787	2226.93
995.083	2196.43
995.379	2216.76
995.676	2199.59
995.972	2156.65
996.268	2151.68
996.565	2118.91
996.861	2150.32
997.157	2150.32
997.453	2125.24
997.749	2079.82
998.044	2086.37
998.34	2083.89
998.636	2083.21
998.932	2082.76
999.227	2095.19
999.523	2035.3
999.818	2040.5
1000.114	1996.66
1000.409	2012.93
1000.704	2022.87
1001	1987.62
1001.295	2012.02
1001.59	1991.46
1001.885	1981.06
1002.18	1981.97
1002.475	1923.44
1002.77	1961.4
1003.065	1925.47
1003.359	1909.43
1003.654	1908.07
1003.949	1908.98
1004.243	1866.94
1004.538	1878.92
1004.832	1887.05
1005.127	1880.28
1005.421	1866.49
1005.715	1846.15
1006.009	1819.03
1006.304	1799.37
1006.598	1812.25
1006.892	1813.38
1007.186	1806.83
1007.48	1763.44
1007.773	1762.99
1008.067	1725.7
1008.361	1746.49
1008.655	1762.76
1008.948	1736.1
1009.242	1706.72
1009.535	1698.81
1009.829	1720.96
1010.122	1664.91
1010.415	1698.59
1010.708	1667.17
1011.001	1636.67
1011.295	1661.98
1011.588	1615.88
1011.881	1589.66
1012.173	1631.69
1012.466	1627.17
1012.759	1595.99
1013.052	1603.9
1013.344	1562.54
1013.637	1565.26
1013.93	1553.28
1014.222	1538.59
1014.514	1546.27
1014.807	1548.53
1015.099	1549.44
1015.391	1529.78
1015.683	1516.67
1015.976	1513.73
1016.268	1462.21
1016.56	1485.26
1016.851	1469.44
1017.143	1448.42
1017.435	1464.47
1017.727	1446.61
1018.018	1413.4
1018.31	1437.12
1018.602	1410.91
1018.893	1427.63
1019.185	1379.27
1019.476	1397.58
1019.767	1373.85
1020.058	1374.3
1020.35	1356.67
1020.641	1343.11
1020.932	1343.57
1021.223	1316.22
1021.514	1341.31
1021.804	1316.67
1022.095	1327.97
1022.386	1311.02
1022.677	1315.32
1022.967	1286.39
1023.258	1287.52
1023.548	1265.15
1023.839	1268.99
1024.129	1271.93
1024.419	1252.5
1024.709	1231.25
1025	1221.08
1025.29	1237.58
1025.58	1226.51
1025.87	1209.11
1026.16	1199.84
1026.449	1179.95
1026.739	1172.5
1027.029	1152.38
1027.319	1164.14
1027.608	1155.32
1027.898	1164.14
1028.187	1165.72
1028.477	1153.74
1028.766	1135.21
1029.055	1132.05
1029.344	1131.14
1029.634	1115.78
1029.923	1124.82
1030.212	1111.03
1030.501	1083.01
1030.79	1086.4
1031.078	1073.97
1031.367	1067.64
1031.656	1067.87
1031.945	1065.83
1032.233	1044.59
1032.522	1030.58
1032.81	1034.42
1033.099	1005.95
1033.387	1037.59
1033.675	1008.21
1033.963	1004.59
1034.251	1013.18
1034.54	992.16
1034.828	998.04
1035.116	978.38
1035.403	998.94
1035.691	981.54
1035.979	956.68
1036.267	970.24
1036.554	983.12
1036.842	940.19
1037.129	952.16
1037.417	921.88
1037.704	946.74
1037.992	939.06
1038.279	912.39
1038.566	927.76
1038.853	927.76
1039.14	927.76
