Data from hue_110_FLMS001491_00021.txt Node
Date: Tue Feb 07 17:01:05 GMT 2017
User: dcchb
Spectrometer: FLMS00149
Trigger mode: 0
Integration Time (sec): 2.000000E-2
Scans to average: 10
Electric dark correction enabled: true
Nonlinearity correction enabled: false
Boxcar width: 0
XAxis mode: Wavelengths
Number of Pixels in Spectrum: 2048
>>>>>Begin Spectral Data<<<<<
341.393	3.59
341.776	3.59
342.16	3.59
342.543	-68.05
342.927	-64.66
343.31	-70.76
343.693	-64.21
344.077	-53.81
344.46	-55.85
344.843	-65.56
345.226	-23.08
345.61	-37.54
345.993	-23.08
346.376	-10.42
346.759	4.04
347.142	20.76
347.525	35
347.908	57.15
348.291	87.65
348.674	89.91
349.057	109.8
349.44	95.34
349.823	118.16
350.206	152.74
350.588	189.8
350.971	186.41
351.354	212.62
351.737	231.38
352.119	244.71
352.502	268.89
352.884	271.15
353.267	270.7
353.65	287.87
354.032	289.91
354.414	306.86
354.797	314.09
355.179	318.61
355.562	334.88
355.944	319.29
356.326	333.75
356.709	324.93
357.091	340.98
357.473	352.28
357.855	337.14
358.238	344.6
358.62	359.74
359.002	349.79
359.384	342.56
359.766	331.49
360.148	325.84
360.53	350.25
360.912	350.92
361.294	341.66
361.676	325.61
362.057	311.83
362.439	330.58
362.821	337.14
363.203	329
363.584	313.41
363.966	319.51
364.348	328.32
364.729	337.36
365.111	328.55
365.493	342.11
365.874	305.5
366.256	313.64
366.637	328.55
367.019	314.77
367.4	306.4
367.781	303.47
368.163	282.22
368.544	297.37
368.925	314.09
369.306	300.53
369.688	305.05
370.069	314.77
370.45	306.18
370.831	322
371.212	324.26
371.593	314.09
371.974	313.18
372.355	282.9
372.736	297.14
373.117	314.54
373.498	317.25
373.879	307.99
374.26	322
374.641	317.25
375.021	300.53
375.402	306.18
375.783	294.2
376.163	337.82
376.544	325.39
376.925	324.93
377.305	306.18
377.686	314.31
378.066	314.54
378.447	302.11
378.827	347.76
379.208	328.78
379.588	338.04
379.968	326.97
380.349	327.42
380.729	336.01
381.109	357.25
381.489	330.81
381.87	346.63
382.25	336.23
382.63	340.08
383.01	329
383.39	355.44
383.77	333.97
384.15	346.63
384.53	348.21
384.91	346.86
385.29	349.34
385.67	341.21
386.049	341.88
386.429	329.45
386.809	352.5
387.189	359.28
387.568	354.54
387.948	339.17
388.328	335.33
388.707	349.79
389.087	335.56
389.466	361.09
389.846	364.48
390.225	338.72
390.605	377.59
390.984	356.35
391.363	372.39
391.743	369
392.122	357.7
392.501	345.73
392.881	354.31
393.26	381.66
393.639	373.3
394.018	387.98
394.397	364.71
394.776	365.16
395.155	363.35
395.534	364.48
395.913	364.48
396.292	388.44
396.671	380.53
397.05	387.98
397.429	385.95
397.808	376.46
398.186	380.75
398.565	358.38
398.944	380.3
399.323	388.66
399.701	397.02
400.08	380.98
400.458	380.07
400.837	391.83
401.215	379.4
401.594	391.37
401.972	396.35
402.351	400.64
402.729	406.06
403.107	404.03
403.486	405.61
403.864	387.53
404.242	394.31
404.62	398.83
404.999	406.97
405.377	404.93
405.755	404.71
406.133	421.66
406.511	438.83
406.889	431.6
407.267	424.14
407.645	436.34
408.023	430.92
408.401	431.37
408.779	433.86
409.156	424.14
409.534	442.67
409.912	447.42
410.29	440.19
410.667	451.03
411.045	452.62
411.422	455.55
411.8	451.03
412.178	441.09
412.555	459.39
412.933	479.06
413.31	479.96
413.687	459.85
414.065	483.57
414.442	467.53
414.819	478.15
415.197	472.5
415.574	465.27
415.951	468.43
416.328	482.9
416.705	475.89
417.082	487.42
417.46	484.93
417.837	502.56
418.214	508.43
418.591	500.98
418.967	502.33
419.344	517.7
419.721	509.79
420.098	505.72
420.475	516.79
420.852	518.15
421.228	512.95
421.605	521.54
421.982	556.34
422.358	533.29
422.735	526.74
423.111	531.26
423.488	518.15
423.864	542.78
424.241	545.27
424.617	555.44
424.994	564.25
425.37	539.17
425.746	545.27
426.123	551.82
426.499	564.25
426.875	556.57
427.251	585.95
427.627	584.14
428.003	585.95
428.379	594.53
428.756	586.17
429.132	590.92
429.507	597.92
429.883	608.09
430.259	605.83
430.635	612.39
431.011	622.1
431.387	613.97
431.763	630.24
432.138	632.05
432.514	607.87
432.89	641.08
433.265	634.31
433.641	659.62
434.016	656
434.392	647.41
434.767	672.27
435.143	676.11
435.518	677.69
435.894	689.67
436.269	707.3
436.644	685.6
437.02	717.92
437.395	680.63
437.77	700.29
438.145	735.55
438.52	710.01
438.895	736.22
439.271	729.9
439.646	716.34
440.021	716.11
440.395	732.16
440.77	758.6
441.145	753.4
441.52	755.66
441.895	755.88
442.27	767.41
442.645	783.23
443.019	766.96
443.394	787.52
443.769	787.3
444.143	802.89
444.518	791.36
444.892	801.53
445.267	811.02
445.641	813.96
446.016	820.52
446.39	824.36
446.764	807.18
447.139	824.13
447.513	820.06
447.887	827.52
448.262	847.18
448.636	855.54
449.01	854.41
449.384	859.38
449.758	866.39
450.132	852.38
450.506	886.28
450.88	876.78
451.254	875.65
451.628	864.81
452.002	886.28
452.376	901.42
452.75	919.04
453.123	931.25
453.497	930.12
453.871	934.18
454.244	958.14
454.618	971.47
454.992	959.49
455.365	960.85
455.739	1025.71
456.112	991.58
456.486	1041.3
456.859	1025.26
457.232	1024.8
457.606	1036.78
457.979	1060.73
458.352	1062.77
458.725	1059.6
459.099	1080.17
459.472	1096.67
459.845	1116.1
460.218	1119.94
460.591	1133.05
460.964	1118.59
461.337	1147.74
461.71	1180.73
462.083	1197
462.456	1194.29
462.829	1217.34
463.201	1226.61
463.574	1232.93
463.947	1228.87
464.32	1285.36
464.692	1288.53
465.065	1298.47
465.438	1335.76
465.81	1347.28
466.183	1365.13
466.555	1407.39
466.928	1403.55
467.3	1408.75
467.672	1437.22
468.045	1495.07
468.417	1475.19
468.789	1517.45
469.161	1510.21
469.534	1558.57
469.906	1574.85
470.278	1614.62
470.65	1656.43
471.022	1672.24
471.394	1714.5
471.766	1735.75
472.138	1742.52
472.51	1832.24
472.882	1870.21
473.253	1879.24
473.625	1936.42
473.997	1932.58
474.369	2022.29
474.74	2023.2
475.112	2065.68
475.484	2125.34
475.855	2201.5
476.227	2248.27
476.598	2325.33
476.97	2339.12
477.341	2418.21
477.713	2472.45
478.084	2521.04
478.455	2583.41
478.827	2661.37
479.198	2768.49
479.569	2811.65
479.94	2908.14
480.311	2992.21
480.682	3042.83
481.053	3149.04
481.424	3251.64
481.795	3317.62
482.166	3408.24
482.537	3521.91
482.908	3646.43
483.279	3709.03
483.65	3825.86
484.021	3925.97
484.391	4005.74
484.762	4111.28
485.133	4204.83
485.503	4310.37
485.874	4461.1
486.244	4566.86
486.615	4718.72
486.985	4795.78
487.356	4933.4
487.726	5066.96
488.097	5253.62
488.467	5297.01
488.837	5437.79
489.207	5598.02
489.578	5784.68
489.948	5875.52
490.318	5999.14
490.688	6076.2
491.058	6247.27
491.428	6475.96
491.798	6535.17
492.168	6797.31
492.538	6825.78
492.908	6993.46
493.278	7132.89
493.648	7167.69
494.017	7377.4
494.387	7534.69
494.757	7692.65
495.126	7800.67
495.496	7831.18
495.866	8017.61
496.235	8163.37
496.605	8296.48
496.974	8451.05
497.344	8565.17
497.713	8676.35
498.082	8825.73
498.452	8853.75
498.821	9065.95
499.19	9058.04
499.559	9292.38
499.928	9352.72
500.298	9426.62
500.667	9574.41
501.036	9645.37
501.405	9782.99
501.774	9748.19
502.143	9918.13
502.512	10011.01
502.88	10199.25
503.249	10245.8
503.618	10337.78
503.987	10447.15
504.356	10469.98
504.724	10571.67
505.093	10599.02
505.462	10750.42
505.83	10808.05
506.199	10928.05
506.567	10994.71
506.936	11095.73
507.304	11248.49
507.672	11231.54
508.041	11260.01
508.409	11373.01
508.777	11489.39
509.145	11524.41
509.514	11629.27
509.882	11681.7
510.25	11666.33
510.618	11772.09
510.986	11831.07
511.354	11916.95
511.722	11964.85
512.09	12045.53
512.458	12081.01
512.826	12135.92
513.193	12183.15
513.561	12208.24
513.929	12345.41
514.297	12432.64
514.664	12506.54
515.032	12510.6
515.4	12627.44
515.767	12626.98
516.135	12615.46
516.502	12612.3
516.869	12772.74
517.237	12788.34
517.604	12708.34
517.972	12912.85
518.339	12864.27
518.706	12948.78
519.073	12986.07
519.44	12987.43
519.808	13037.6
520.175	13023.58
520.542	13104.26
520.909	13160.98
521.276	13138.84
521.643	13262.22
522.009	13252.73
522.376	13298.15
522.743	13352.84
523.11	13414.99
523.477	13524.59
523.843	13513.06
524.21	13527.3
524.577	13563.68
524.943	13576.79
525.31	13670.8
525.676	13678.03
526.043	13648.88
526.409	13765.03
526.776	13840.06
527.142	13783.56
527.508	13859.72
527.874	13900.85
528.241	13787.63
528.607	13825.82
528.973	13907.85
529.339	13856.33
529.705	13928.42
530.071	14037.57
530.437	13928.87
530.803	13931.13
531.169	13965.25
531.535	13931.36
531.901	13896.78
532.267	14025.14
532.632	13986.72
532.998	13948.53
533.364	13980.4
533.73	13903.79
534.095	14014.29
534.461	13932.49
534.826	14009.77
535.192	14001.86
535.557	14056.33
535.923	13879.15
536.288	13916.89
536.653	13894.3
537.019	13804.13
537.384	13787.63
537.749	13762.77
538.114	13758.71
538.479	13739.05
538.845	13814.75
539.21	13690.01
539.575	13664.47
539.94	13671.02
540.305	13629.67
540.67	13618.82
541.034	13648.2
541.399	13597.81
541.764	13570.01
542.129	13514.87
542.494	13455.44
542.858	13503.57
543.223	13463.35
543.587	13432.84
543.952	13402.56
544.316	13355.1
544.681	13348.55
545.045	13361.43
545.41	13300.41
545.774	13326.18
546.138	13279.4
546.503	13183.58
546.867	13169.34
547.231	13274.2
547.595	13145.84
547.959	13138.16
548.324	13099.51
548.688	13097.03
549.052	13118.04
549.416	13050.25
549.779	12984.04
550.143	12937.48
550.507	12914.43
550.871	12958.28
551.235	12885.06
551.599	12877.37
551.962	12861.33
552.326	12846.41
552.689	12873.98
553.053	12721.9
553.417	12700.65
553.78	12828.79
554.143	12783.59
554.507	12704.95
554.87	12743.14
555.234	12738.85
555.597	12629.47
555.96	12622.46
556.323	12649.36
556.686	12648.68
557.05	12635.8
557.413	12642.8
557.776	12606.19
558.139	12590.15
558.502	12572.97
558.865	12593.09
559.228	12631.05
559.59	12623.82
559.953	12579.3
560.316	12684.16
560.679	12673.31
561.041	12667.89
561.404	12610.49
561.767	12710.6
562.129	12593.76
562.492	12614.56
562.854	12639.87
563.217	12594.89
563.579	12625.18
563.941	12684.84
564.304	12709.69
564.666	12749.24
565.028	12752.4
565.39	12698.62
565.753	12776.13
566.115	12752.63
566.477	12805.74
566.839	12774.78
567.201	12786.75
567.563	12840.54
567.925	12913.76
568.287	12836.47
568.648	12812.52
569.01	12865.17
569.372	12906.3
569.734	12893.42
570.095	12931.16
570.457	12901.78
570.819	12916.92
571.18	12897.94
571.542	12985.17
571.903	13027.2
572.265	13014.32
572.626	13058.39
572.987	12963.47
573.349	13033.08
573.71	12990.59
574.071	13041.21
574.432	13073.07
574.794	13108.78
575.155	13109.91
575.516	13070.81
575.877	13062
576.238	13051.83
576.599	13116.91
576.96	13092.28
577.32	13105.84
577.681	13169.79
578.042	13108.33
578.403	13112.85
578.763	13124.6
579.124	13130.25
579.485	13156.01
579.845	13153.07
580.206	13160.98
580.566	13084.83
580.927	13186.52
581.287	13164.15
581.648	13076.24
582.008	13132.28
582.368	13151.49
582.728	13159.17
583.089	13133.64
583.449	13113.75
583.809	13203.01
584.169	13129.8
584.529	13026.07
584.889	13188.78
585.249	13017.71
585.609	13056.35
585.969	13071.04
586.329	13003.25
586.688	13055.45
587.048	13057.48
587.408	12986.97
587.768	13017.48
588.127	12968.67
588.487	12953.98
588.846	13091.15
589.206	12925.73
589.565	12949.24
589.925	13021.55
590.284	13029.69
590.643	12939.52
591.003	13039.18
591.362	13046.63
591.721	12877.83
592.08	12951.27
592.44	13023.81
592.799	12980.2
593.158	12980.87
593.517	12960.08
593.876	12995.56
594.235	12870.14
594.593	12908.11
594.952	12862.46
595.311	12744.95
595.67	12871.95
596.029	12891.16
596.387	12850.71
596.746	12990.36
597.104	12853.87
597.463	12852.29
597.822	12885.06
598.18	12817.26
598.538	12795.79
598.897	12923.93
599.255	12786.75
599.613	12977.03
599.972	12822.91
600.33	12890.71
600.688	12759.18
601.046	12855.9
601.404	12923.02
601.762	12809.13
602.12	12956.47
602.478	12912.17
602.836	12850.03
603.194	12850.71
603.552	12854.77
603.91	12763.25
604.268	12847.09
604.625	12852.52
604.983	12862.23
605.341	12796.25
605.698	12851.61
606.056	12854.77
606.413	12895
606.771	12956.47
607.128	12891.61
607.485	12839.86
607.843	12904.27
608.2	12937.48
608.557	13005.73
608.914	12841.67
609.272	12974.77
609.629	12921.89
609.986	13058.39
610.343	12966.86
610.7	13020.87
611.057	12960.53
611.414	12965.51
611.771	12935.22
612.127	13144.48
612.484	13001.21
612.841	13107.88
613.198	13054.32
613.554	12969.12
613.911	13163.69
614.267	13165.95
614.624	13002.57
614.98	13114.43
615.337	13069.01
615.693	13132.96
616.05	13090.48
616.406	13127.31
616.762	13109.46
617.118	13139.29
617.475	13073.75
617.831	13144.26
618.187	13139.74
618.543	13252.5
618.899	13203.01
619.255	13286.85
619.611	13298.83
619.967	13226.74
620.323	13337.47
620.678	13319.4
621.034	13243.69
621.39	13267.42
621.746	13146.52
622.101	13317.59
622.457	13184.71
622.812	13268.32
623.168	13262.22
623.523	13268.1
623.879	13331.6
624.234	13204.6
624.589	13314.42
624.945	13248.89
625.3	13331.37
625.655	13255.67
626.01	13248.89
626.365	13311.03
626.72	13242.56
627.075	13203.47
627.43	13255.89
627.785	13217.03
628.14	13226.29
628.495	13288.44
628.85	13220.19
629.205	13156.24
629.559	13307.42
629.914	13111.72
630.269	13144.03
630.623	13103.13
630.978	13065.62
631.332	13280.75
631.687	13184.71
632.041	13108.1
632.396	13189.91
632.75	12998.5
633.104	13113.07
633.459	13056.35
633.813	13088.44
634.167	13011.61
634.521	13014.32
634.875	13079.18
635.229	13029.69
635.583	13040.76
635.937	13007.77
636.291	12966.41
636.645	12920.31
636.999	12925.73
637.352	12945.17
637.706	12898.62
638.06	12894.1
638.413	12841.22
638.767	12804.61
639.121	12883.02
639.474	12718.06
639.828	12771.61
640.181	12909.91
640.534	12921.21
640.888	12722.8
641.241	12718.96
641.594	12787.43
641.947	12764.16
642.301	12748.11
642.654	12753.76
643.007	12720.09
643.36	12689.58
643.713	12714.67
644.066	12877.37
644.419	12660.66
644.771	12607.32
645.124	12518.51
645.477	12547.89
645.83	12382.47
646.182	12298.86
646.535	12313.32
646.888	12330.72
647.24	12234.45
647.593	12418.63
647.945	12298.63
648.298	12215.92
648.65	12278.07
649.002	12216.83
649.355	12361.23
649.707	12227.22
650.059	12297.73
650.411	12456.37
650.763	12438.29
651.115	12654.33
651.467	12566.2
651.819	12512.64
652.171	12541.56
652.523	12546.31
652.875	12526.2
653.227	12461.34
653.578	12599.19
653.93	12512.64
654.282	12525.74
654.633	12487.55
654.985	12522.35
655.337	12527.1
655.688	12516.25
656.039	12619.75
656.391	12422.7
656.742	12542.01
657.094	12557.16
657.445	12576.14
657.796	12635.57
658.147	12537.72
658.498	12545.18
658.849	12592.18
659.2	12467.89
659.551	12476.71
659.902	12550.83
660.253	12555.12
660.604	12578.17
660.955	12581.11
661.306	12610.71
661.656	12610.26
662.007	12569.36
662.358	12574.56
662.708	12657.04
663.059	12675.34
663.409	12555.8
663.76	12671.05
664.11	12713.76
664.461	12634.22
664.811	12733.87
665.161	12641.22
665.511	12593.54
665.862	12583.14
666.212	12692.75
666.562	12684.84
666.912	12568
667.262	12690.03
667.612	12560.32
667.962	12571.84
668.312	12609.58
668.662	12713.76
669.011	12607.1
669.361	12612.97
669.711	12591.73
670.06	12570.49
670.41	12529.59
670.76	12520.09
671.109	12550.38
671.459	12573.2
671.808	12527.55
672.157	12618.62
672.507	12445.75
672.856	12511.06
673.205	12566.42
673.554	12559.87
673.904	12509.47
674.253	12587.66
674.602	12570.71
674.951	12340.44
675.3	12251.18
675.649	12410.27
675.998	12486.88
676.346	12408.01
676.695	12449.81
677.044	12334.79
677.393	12386.09
677.741	12390.61
678.09	12290.5
678.438	12330.72
678.787	12321.68
679.135	12412.98
679.484	12223.61
679.832	12316.03
680.181	12277.16
680.529	12229.48
680.877	12176.15
681.225	12212.76
681.573	12271.51
681.922	12136.15
682.27	12194.91
682.618	12161.91
682.966	12115.59
683.314	12112.2
683.661	12098.64
684.009	11980.22
684.357	12001.69
684.705	11984.52
685.053	11999.43
685.4	11947.23
685.748	11930.05
686.095	11950.17
686.443	11905.42
686.79	11798.08
687.138	11871.3
687.485	11902.71
687.832	11836.27
688.18	11765.54
688.527	11658.2
688.874	11722.83
689.221	11611.87
689.568	11613.9
689.915	11632.43
690.262	11595.37
690.609	11595.37
690.956	11500.69
691.303	11413.46
691.65	11481.48
691.997	11436.73
692.344	11308.83
692.69	11287.58
693.037	11340.01
693.383	11253.69
693.73	11253.01
694.077	11177.76
694.423	11106.12
694.769	11149.74
695.116	11099.79
695.462	11019.12
695.808	10987.25
696.155	11017.99
696.501	10979.57
696.847	10908.16
697.193	10831.33
697.539	10898.22
697.885	10767.37
698.231	10721.5
698.577	10732.12
698.923	10697.32
699.269	10655.96
699.614	10591.56
699.96	10546.81
700.306	10547.04
700.651	10523.08
700.997	10429.53
701.342	10385.46
701.688	10384.33
702.033	10333.49
702.379	10303.2
702.724	10323.09
703.069	10290.1
703.415	10197.44
703.76	10219.36
704.105	10163.55
704.45	10137.56
704.795	10065.7
705.14	10048.97
705.485	10034.28
705.83	10017.34
706.175	9945.7
706.52	9880.39
706.865	9914.29
707.209	9878.58
707.554	9830.22
707.899	9882.2
708.243	9740.96
708.588	9825.48
708.932	9734.63
709.277	9643.56
709.621	9692.15
709.966	9601.08
710.31	9706.16
710.654	9559.04
710.998	9571.25
711.342	9560.17
711.687	9500.74
712.031	9481.53
712.375	9461.42
712.719	9435.88
713.063	9412.83
713.407	9445.15
713.75	9392.49
714.094	9406.5
714.438	9351.59
714.782	9450.8
715.125	9310.01
715.469	9378.26
715.812	9302.55
716.156	9168.77
716.499	9229.33
716.843	9282.67
717.186	9189.79
717.53	9311.59
717.873	9187.3
718.216	9228.88
718.559	9153.63
718.902	9062.33
719.246	9113.4
719.589	9121.77
719.932	9029.56
720.275	9141.2
720.617	9053.29
720.96	9033.86
721.303	9095.33
721.646	9105.27
721.989	9064.14
722.331	9063.24
722.674	9039.06
723.016	9017.59
723.359	8976.91
723.701	9026.85
724.044	8978.94
724.386	8892.85
724.729	8995.22
725.071	8926.29
725.413	8949.34
725.755	8925.16
726.097	8888.55
726.439	8888.55
726.782	8875.9
727.124	8879.06
727.465	8874.99
727.807	8851.04
728.149	8900.3
728.491	8821.66
728.833	8876.8
729.175	8841.77
729.516	8849.46
729.858	8826.41
730.199	8864.15
730.541	8816.46
730.882	8835.45
731.224	8838.61
731.565	8788.22
731.906	8797.48
732.248	8812.85
732.589	8779.18
732.93	8731.95
733.271	8743.7
733.612	8760.19
733.953	8754.32
734.294	8757.71
734.635	8831.38
734.976	8845.84
735.317	8813.75
735.658	8740.98
735.999	8826.41
736.339	8818.27
736.68	8832.06
737.021	8821.66
737.361	8722.23
737.702	8818.5
738.042	8771.27
738.383	8816.01
738.723	8804.49
739.063	8858.27
739.404	8864.82
739.744	8860.76
740.084	8847.2
740.424	8951.6
740.764	8932.17
741.104	8894.2
741.444	8877.25
741.784	8912.73
742.124	8997.93
742.464	8954.99
742.804	8973.3
743.143	9004.03
743.483	9098.04
743.823	9113.86
744.162	8997.48
744.502	9118.15
744.841	9124.48
745.181	9148.66
745.52	9174.65
745.86	9245.15
746.199	9265.72
746.538	9364.47
746.877	9420.29
747.216	9463.9
747.556	9391.14
747.895	9505.71
748.234	9529.66
748.573	9597.01
748.911	9645.59
749.25	9733.05
749.589	9735.53
749.928	9861.41
750.267	9934.63
750.605	9986.83
750.944	10004.45
751.283	10115.41
751.621	10161.74
751.96	10302.75
752.298	10355.63
752.636	10451
752.975	10535.74
753.313	10649.18
753.651	10824.09
753.989	10838.56
754.327	10940.02
754.666	11033.58
755.004	11170.3
755.342	11356.51
755.679	11428.15
756.017	11506.79
756.355	11707.91
756.693	11800.34
757.031	11982.26
757.368	12079.88
757.706	12242.81
758.044	12375.24
758.381	12559.42
758.719	12657.27
759.056	12778.39
759.394	12933.87
759.731	13129.8
760.068	13285.5
760.405	13424.48
760.743	13589.44
761.08	13806.84
761.417	13851.81
761.754	13999.83
762.091	14236.66
762.428	14405.02
762.765	14531.79
763.102	14722.75
763.438	14798.9
763.775	14944.44
764.112	15113.92
764.449	15330.64
764.785	15505.1
765.122	15539.9
765.458	15583.06
765.795	15961.59
766.131	16005.43
766.467	16098.08
766.804	16238.87
767.14	16366.32
767.476	16460.1
767.812	16671.85
768.148	16826.65
768.485	16834.56
768.821	16905.52
769.157	17025.06
769.492	17129.46
769.828	17298.5
770.164	17247.43
770.5	17347.09
770.836	17534.2
771.171	17577.81
771.507	17698.26
771.842	17720.41
772.178	17844.25
772.513	17894.42
772.849	17988.43
773.184	17910.91
773.519	18116.11
773.855	18174.18
774.19	18133.51
774.525	18317.46
774.86	18353.39
775.195	18362.43
775.53	18443.1
775.865	18431.35
776.2	18369.66
776.535	18284.69
776.87	18544.79
777.205	18479.26
777.539	18514.74
777.874	18551.57
778.209	18482.42
778.543	18507.06
778.878	18467.73
779.212	18572.14
779.547	18622.08
779.881	18597
780.215	18596.09
780.55	18618.92
780.884	18509.54
781.218	18583.89
781.552	18656.43
781.886	18566.94
782.22	18534.85
782.554	18567.85
782.888	18544.12
783.222	18575.53
783.556	18460.5
783.889	18438.13
784.223	18348.87
784.557	18313.39
784.89	18404.01
785.224	18329.89
785.557	18217.35
785.891	18265.25
786.224	18265.93
786.558	18399.71
786.891	18232.03
787.224	18217.8
787.557	18126.5
787.891	18281.07
788.224	18216.22
788.557	18173.05
788.89	18198.36
789.223	18286.04
789.556	17990.69
789.888	17975.54
790.221	17959.95
790.554	17887.41
790.887	17980.74
791.219	17934.64
791.552	17746.62
791.884	17794.53
792.217	17791.82
792.549	17803.35
792.882	17709.11
793.214	17632.05
793.546	17597.93
793.879	17500.75
794.211	17510.7
794.543	17572.17
794.875	17427.99
795.207	17559.51
795.539	17435.67
795.871	17422.34
796.203	17235.22
796.535	17271.16
796.867	17257.15
797.198	17218.95
797.53	17194.77
797.862	17154.55
798.193	17081.33
798.525	16975.34
798.856	17086.3
799.188	16857.38
799.519	16826.2
799.85	16731.06
800.182	16850.15
800.513	16764.95
800.844	16644.73
801.175	16743.49
801.506	16678.18
801.837	16691.06
802.168	16533.77
802.499	16555.02
802.83	16426.21
803.161	16512.76
803.491	16469.82
803.822	16395.47
804.153	16345.08
804.483	16290.16
804.814	16190.28
805.145	16139.66
805.475	16115.48
805.805	16111.41
806.136	16096.72
806.466	16124.07
806.796	16138.76
807.126	16030.28
807.457	15965.2
807.787	15972.66
808.117	15884.75
808.447	15880.23
808.777	15849.05
809.107	15813.57
809.436	15705.32
809.766	15735.38
810.096	15693.57
810.426	15611.09
810.755	15676.17
811.085	15461.26
811.414	15574.7
811.744	15501.71
812.073	15395.73
812.403	15452.9
812.732	15452.9
813.061	15307.82
813.39	15175.17
813.719	15300.81
814.049	15342.62
814.378	15255.62
814.707	15153.25
815.036	15180.36
815.365	15163.41
815.693	15015.17
816.022	15066.02
816.351	14965.23
816.68	14915.74
817.008	14997.77
817.337	14841.84
817.665	14817.44
817.994	14837.55
818.322	14905.34
818.651	14778.57
818.979	14703.77
819.307	14817.21
819.636	14738.34
819.964	14631.45
820.292	14781.28
820.62	14644.33
820.948	14646.14
821.276	14718.23
821.604	14612.47
821.932	14657.89
822.259	14638.68
822.587	14672.58
822.915	14624.45
823.243	14617.89
823.57	14586.48
823.898	14579.93
824.225	14534.28
824.553	14560.94
824.88	14692.24
825.207	14665.12
825.535	14610.44
825.862	14642.3
826.189	14613.82
826.516	14640.04
826.843	14628.29
827.17	14627.84
827.497	14750.09
827.824	14612.92
828.151	14689.53
828.478	14595.97
828.805	14718.91
829.131	14597.55
829.458	14706.93
829.785	14621.06
830.111	14656.76
830.438	14663.99
830.764	14631.23
831.09	14672.35
831.417	14639.13
831.743	14602.3
832.069	14563.43
832.395	14501.51
832.722	14693.14
833.048	14595.07
833.374	14581.06
833.7	14455.41
834.026	14481.4
834.351	14530.21
834.677	14507.84
835.003	14482.3
835.329	14520.04
835.654	14478.69
835.98	14397.56
836.306	14466.26
836.631	14465.81
836.956	14489.31
837.282	14367.5
837.607	14365.24
837.932	14370.89
838.258	14273.27
838.583	14323.66
838.908	14205.25
839.233	14276.66
839.558	14165.7
839.883	14165.47
840.208	14189.88
840.533	14167.73
840.858	14135.65
841.182	14105.14
841.507	14094.29
841.832	13998.7
842.156	13992.82
842.481	14017.46
842.805	13956.89
843.13	13970.45
843.454	13920.51
843.778	13843
844.103	13795.77
844.427	13752.6
844.751	13780.17
845.075	13765.49
845.399	13715.54
845.723	13595.55
846.047	13639.16
846.371	13519.84
846.695	13515.77
847.019	13405.72
847.343	13297.25
847.666	13286.63
847.99	13251.6
848.313	13203.01
848.637	13153.3
848.96	13164.37
849.284	13090.48
849.607	13022.45
849.931	13029.46
850.254	12901.55
850.577	12841.44
850.9	12815
851.223	12736.13
851.546	12667.44
851.869	12602.58
852.192	12652.29
852.515	12649.13
852.838	12564.84
853.161	12500.66
853.483	12448.91
853.806	12477.61
854.129	12388.12
854.451	12287.78
854.774	12263.6
855.096	12215.24
855.419	12195.58
855.741	12109.94
856.063	12107.68
856.385	12114
856.708	12038.3
857.03	11994.91
857.352	12015.02
857.674	11948.81
857.996	11874.69
858.318	11810.73
858.64	11826.55
858.961	11850.96
859.283	11726.44
859.605	11677.18
859.926	11747.69
860.248	11601.25
860.57	11657.07
860.891	11601.93
861.212	11539.1
861.534	11561.02
861.855	11473.34
862.176	11524.87
862.498	11580.23
862.819	11476.73
863.14	11500.23
863.461	11394.7
863.782	11371.2
864.103	11366.68
864.424	11309.05
864.745	11403.97
865.065	11275.16
865.386	11277.87
865.707	11218.43
866.027	11266.79
866.348	11218.89
866.668	11220.24
866.989	11160.13
867.309	11164.42
867.63	11123.97
867.95	11086.46
868.27	11013.69
868.59	11063.41
868.91	11066.12
869.23	10978.44
869.55	11007.82
869.87	11010.08
870.19	10975.73
870.51	10993.81
870.83	10978.44
871.15	10908.84
871.469	10854.6
871.789	10902.96
872.109	10887.6
872.428	10827.71
872.748	10871.32
873.067	10870.42
873.386	10808.5
873.706	10770.31
874.025	10757.2
874.344	10746.58
874.663	10717.43
874.982	10681.27
875.301	10704.55
875.62	10675.4
875.939	10707.49
876.258	10658.22
876.577	10621.16
876.896	10695.28
877.214	10542.07
877.533	10574.61
877.852	10616.64
878.17	10539.81
878.489	10519.02
878.807	10566.93
879.125	10514.05
879.444	10528.28
879.762	10493.26
880.08	10469.75
880.398	10411.22
880.716	10386.37
881.034	10421.17
881.352	10344.11
881.67	10359.47
881.988	10310.21
882.306	10367.61
882.624	10200.83
882.941	10195.41
883.259	10187.95
883.577	10170.1
883.894	10131.68
884.212	10162.42
884.529	10119.93
884.846	10062.98
885.164	10092.36
885.481	10024.57
885.798	10047.62
886.115	10006.04
886.432	9971.91
886.75	9956.77
887.067	9965.81
887.383	9879.49
887.7	9927.17
888.017	9865.25
888.334	9882.88
888.651	9814.18
888.967	9833.61
889.284	9691.02
889.6	9714.97
889.917	9675.65
890.233	9696.67
890.55	9584.8
890.866	9679.27
891.182	9602.21
891.498	9571.25
891.815	9510.68
892.131	9502.55
892.447	9531.47
892.763	9507.07
893.079	9487.18
893.395	9402.44
893.71	9388.65
894.026	9372.83
894.342	9323.79
894.657	9233.4
894.973	9257.81
895.289	9281.76
895.604	9212.84
895.92	9153.63
896.235	9077.02
896.55	9128.09
896.865	9071.15
897.181	9064.37
897.496	9032.95
897.811	9013.97
898.126	8965.61
898.441	8919.96
898.756	8883.35
899.071	8882.68
899.386	8851.72
899.7	8796.58
900.015	8726.97
900.33	8694.66
900.644	8717.48
900.959	8658.28
901.273	8677.26
901.588	8555.45
901.902	8573.08
902.216	8527.21
902.531	8553.19
902.845	8466.42
903.159	8425.51
903.473	8355.68
903.787	8351.62
904.101	8353.2
904.415	8362.01
904.729	8281.56
905.042	8282.92
905.356	8222.58
905.67	8163.82
905.984	8180.32
906.297	8166.54
906.611	8070.27
906.924	8090.83
907.237	8067.78
907.551	8011.51
907.864	8001.12
908.177	7999.08
908.491	7974.68
908.804	7891.06
909.117	7836.6
909.43	7757.51
909.743	7777.39
910.056	7755.25
910.368	7734.01
910.681	7664.4
910.994	7720.45
911.307	7672.99
911.619	7599.77
911.932	7580.56
912.244	7482.03
912.557	7503.73
912.869	7488.14
913.181	7435.26
913.494	7375.15
913.806	7304.64
914.118	7401.59
914.43	7254.92
914.742	7270.97
915.054	7188.94
915.366	7177.86
915.678	7205.43
915.99	7169.73
916.302	7103.74
916.613	7073.91
916.925	7063.74
917.236	7020.35
917.548	7019
917.859	6962.5
918.171	6942.61
918.482	6922.28
918.794	6923.86
919.105	6908.94
919.416	6838.44
919.727	6827.14
920.038	6754.82
920.349	6794.14
920.66	6755.95
920.971	6789.62
921.282	6723.86
921.593	6650.87
921.903	6582.62
922.214	6612.91
922.525	6550.76
922.835	6470.54
923.146	6494.26
923.456	6454.49
923.767	6474.15
924.077	6452.01
924.387	6417.66
924.697	6416.07
925.008	6339.24
925.318	6303.53
925.628	6329.97
925.938	6285.68
926.248	6196.64
926.558	6219.92
926.867	6190.54
927.177	6141.73
927.487	6139.25
927.796	6102.86
928.106	6079.59
928.416	6047.04
928.725	6058.12
929.034	5984.22
929.344	6001.4
929.653	5946.93
929.962	5943.09
930.271	5938.8
930.581	5871.46
930.89	5864.9
931.199	5796.2
931.508	5863.55
931.817	5808.86
932.125	5785.36
932.434	5840.04
932.743	5774.51
933.051	5679.14
933.36	5688.64
933.669	5629.43
933.977	5654.29
934.286	5619.03
934.594	5588.98
934.902	5600.5
935.21	5562.31
935.519	5544.23
935.827	5514.85
936.135	5527.06
936.443	5412.26
936.751	5437.57
937.059	5424.69
937.367	5377.01
937.674	5343.11
937.982	5333.39
938.29	5312.6
938.597	5260.4
938.905	5249.1
939.213	5239.16
939.52	5214.75
939.827	5249.1
940.135	5165.49
940.442	5144.7
940.749	5175.43
941.056	5146.5
941.363	5076.67
941.67	5090.46
941.977	5057.24
942.284	5054.75
942.591	4993.96
942.898	5010.91
943.205	4928.66
943.511	4893.85
943.818	4915.77
944.125	4892.05
944.431	4924.14
944.738	4884.36
945.044	4856.57
945.35	4795.33
945.657	4787.42
945.963	4758.04
946.269	4741.99
946.575	4744.25
946.881	4722.11
947.187	4724.82
947.493	4664.26
947.799	4673.3
948.105	4638.72
948.41	4627.65
948.716	4602.11
949.022	4538.84
949.327	4548.33
949.633	4588.55
949.938	4557.14
950.244	4475.56
950.549	4473.75
950.854	4414.32
951.16	4441.44
951.465	4430.36
951.77	4405.96
952.075	4407.09
952.38	4363.02
952.685	4382.68
952.99	4317.15
953.294	4330.93
953.599	4285.28
953.904	4282.35
954.209	4262.01
954.513	4277.83
954.818	4198.05
955.122	4201.9
955.426	4179.52
955.731	4189.69
956.035	4163.7
956.339	4140.43
956.643	4076.93
956.948	4082.58
957.252	4066.76
957.556	4097.04
957.86	4037.61
958.163	4078.51
958.467	4019.53
958.771	3979.08
959.075	3947.44
959.378	3952.18
959.682	3967.78
959.985	3912.19
960.289	3912.41
960.592	3894.11
960.896	3837.84
961.199	3833.32
961.502	3888.01
961.805	3837.61
962.108	3782.25
962.411	3798.52
962.714	3802.58
963.017	3766.88
963.32	3760.1
963.623	3725.75
963.926	3704.73
964.228	3669.25
964.531	3664.28
964.833	3680.78
965.136	3638.07
965.438	3662.02
965.741	3637.39
966.043	3581.35
966.345	3582.7
966.648	3572.76
966.95	3538.41
967.252	3534.79
967.554	3529.6
967.856	3495.47
968.158	3439.66
968.46	3464.06
968.761	3447.56
969.063	3433.1
969.365	3456.83
969.666	3393.33
969.968	3344.52
970.269	3415.02
970.571	3365.53
970.872	3366.21
971.174	3311.98
971.475	3319.21
971.776	3307.91
972.077	3326.44
972.378	3292.54
972.679	3297.29
972.98	3298.64
973.281	3240.56
973.582	3265.42
973.883	3219.77
974.183	3201.92
974.484	3215.71
974.785	3185.65
975.085	3180.45
975.386	3134.35
975.686	3122.38
975.986	3151.08
976.287	3122.15
976.587	3061.13
976.887	3055.03
977.187	3097.97
977.487	3034.92
977.787	3035.37
978.087	3012.55
978.387	3043.06
978.687	2964.41
978.987	2999.67
979.286	2942.04
979.586	2964.19
979.885	2909.73
980.185	2919.44
980.484	2897.75
980.784	2916.28
981.083	2840.58
981.382	2840.8
981.682	2849.84
981.981	2849.61
982.28	2834.25
982.579	2801.25
982.878	2806.23
983.177	2789.28
983.475	2773.01
983.774	2714.25
984.073	2745.21
984.372	2714.7
984.67	2737.07
984.969	2724.42
985.267	2722.16
985.566	2697.08
985.864	2679
986.162	2688.04
986.461	2683.29
986.759	2658.88
987.057	2618.66
987.355	2631.54
987.653	2614.37
987.951	2619.56
988.249	2599.23
988.547	2552.67
988.844	2582.73
989.142	2553.8
989.44	2536.4
989.737	2540.7
990.035	2495.05
990.332	2491.43
990.63	2504.54
990.927	2489.4
991.224	2443.07
991.521	2454.14
991.819	2451.21
992.116	2424.54
992.413	2420.93
992.71	2403.75
993.006	2422.28
993.303	2441.26
993.6	2410.98
993.897	2369.85
994.193	2363.53
994.49	2371.43
994.787	2340.02
995.083	2313.81
995.379	2316.97
995.676	2286.69
995.972	2305.9
996.268	2268.39
996.565	2272.45
996.861	2247.82
997.157	2234.94
997.453	2261.83
997.749	2220.93
998.044	2220.7
998.34	2199.01
998.636	2181.16
998.932	2160.14
999.227	2163.08
999.523	2174.83
999.818	2130.09
1000.114	2170.31
1000.409	2138.22
1000.704	2152.23
1001	2114.49
1001.295	2117.43
1001.59	2078.11
1001.885	2085.11
1002.18	2043.76
1002.475	2062.97
1002.77	2043.53
1003.065	2053.93
1003.359	2044.44
1003.654	2025.23
1003.949	2004.66
1004.243	1979.81
1004.538	1965.8
1004.832	1976.42
1005.127	1961.05
1005.421	1952.01
1005.715	1930.54
1006.009	1907.72
1006.304	1921.96
1006.598	1898.23
1006.892	1874.27
1007.186	1888.74
1007.48	1850.54
1007.773	1862.52
1008.067	1825.91
1008.361	1822.75
1008.655	1805.12
1008.948	1827.95
1009.242	1807.38
1009.535	1779.59
1009.829	1795.18
1010.122	1798.12
1010.415	1772.58
1010.708	1757.67
1011.001	1745.24
1011.295	1728.06
1011.588	1696.88
1011.881	1698.23
1012.173	1675.18
1012.466	1682.19
1012.759	1667.05
1013.052	1662.07
1013.344	1679.48
1013.637	1678.35
1013.93	1643.09
1014.222	1603.55
1014.514	1629.31
1014.807	1605.58
1015.099	1601.74
1015.391	1608.74
1015.683	1601.74
1015.976	1610.1
1016.268	1559.03
1016.56	1557.67
1016.851	1556.77
1017.143	1530.78
1017.435	1520.84
1017.727	1534.62
1018.018	1519.25
1018.31	1479.25
1018.602	1505.47
1018.893	1478.12
1019.185	1481.51
1019.476	1449.43
1019.767	1490.1
1020.058	1448.07
1020.35	1423.21
1020.641	1420.95
1020.932	1418.47
1021.223	1442.65
1021.514	1393.38
1021.804	1371.46
1022.095	1380.05
1022.386	1365.13
1022.677	1345.47
1022.967	1359.71
1023.258	1330.11
1023.548	1329.88
1023.839	1325.81
1024.129	1338.69
1024.419	1332.59
1024.709	1310.22
1025	1291.92
1025.29	1279.94
1025.58	1288.07
1025.87	1266.83
1026.16	1258.92
1026.449	1256.89
1026.739	1255.98
1027.029	1251.92
1027.319	1253.5
1027.608	1176.44
1027.898	1220.28
1028.187	1202.2
1028.477	1202.43
1028.766	1182.09
1029.055	1177.12
1029.344	1170.56
1029.634	1180.28
1029.923	1161.3
1030.212	1142.54
1030.501	1128.53
1030.79	1129.89
1031.078	1122.88
1031.367	1118.81
1031.656	1111.58
1031.945	1095.99
1032.233	1104.35
1032.522	1095.31
1032.81	1085.14
1033.099	1079.72
1033.387	1065.48
1033.675	1043.33
1033.963	1069.77
1034.251	1068.42
1034.54	1027.06
1034.828	1063.22
1035.116	1037.46
1035.403	1020.28
1035.691	1009.89
1035.979	1015.09
1036.267	1004.24
1036.554	1014.18
1036.842	990.45
1037.129	969.21
1037.417	979.16
1037.704	989.1
1037.992	942.55
1038.279	966.05
1038.566	945.94
1038.853	945.94
1039.14	945.94
