Data from hue_230_FLMS001491_00045.txt Node
Date: Tue Feb 07 16:37:17 GMT 2017
User: dcchb
Spectrometer: FLMS00149
Trigger mode: 0
Integration Time (sec): 2.000000E-2
Scans to average: 10
Electric dark correction enabled: true
Nonlinearity correction enabled: false
Boxcar width: 0
XAxis mode: Wavelengths
Number of Pixels in Spectrum: 2048
>>>>>Begin Spectral Data<<<<<
341.393	-3.28
341.776	-3.28
342.16	-3.28
342.543	-70.85
342.927	-69.72
343.31	-68.81
343.693	-62.71
344.077	-79.66
344.46	-66.78
344.843	-50.51
345.226	-47.57
345.61	-27.23
345.993	-9.15
346.376	-8.7
346.759	15.93
347.142	33.11
347.525	46.44
347.908	52.09
348.291	79.88
348.674	94.8
349.057	98.87
349.44	136.38
349.823	119.21
350.206	154.01
350.588	191.52
350.971	189.94
351.354	217.96
351.737	231.75
352.119	233.1
352.502	249.37
352.884	274.91
353.267	276.49
353.65	277.85
354.032	274.46
354.414	299.31
354.797	324.4
355.179	321.46
355.562	314.68
355.944	334.34
356.326	329.82
356.709	326.43
357.091	329.82
357.473	352.65
357.855	313.1
358.238	342.48
358.62	337.96
359.002	339.77
359.384	329.14
359.766	326.88
360.148	318.52
360.53	323.27
360.912	326.43
361.294	333.21
361.676	318.97
362.057	322.59
362.439	316.26
362.821	337.28
363.203	321.23
363.584	309.48
363.966	340.22
364.348	319.88
364.729	312.87
365.111	317.17
365.493	304.51
365.874	293.44
366.256	301.57
366.637	303.16
367.019	302.93
367.4	306.77
367.781	321.46
368.163	290.27
368.544	285.08
368.925	285.98
369.306	299.09
369.688	301.12
370.069	314.68
370.45	309.71
370.831	300.22
371.212	288.02
371.593	281.01
371.974	299.54
372.355	307.9
372.736	302.7
373.117	306.09
373.498	303.61
373.879	310.39
374.26	314.46
374.641	292.99
375.021	309.48
375.402	323.04
375.783	318.75
376.163	302.93
376.544	317.62
376.925	319.43
377.305	297.51
377.686	305.19
378.066	322.36
378.447	323.72
378.827	323.27
379.208	303.61
379.588	319.43
379.968	315.58
380.349	309.71
380.729	343.83
381.109	318.97
381.489	342.7
381.87	321.46
382.25	345.19
382.63	343.15
383.01	330.95
383.39	343.38
383.77	319.43
384.15	344.28
384.53	354.91
384.91	339.77
385.29	351.29
385.67	335.7
386.049	346.32
386.429	331.4
386.809	329.82
387.189	341.12
387.568	348.58
387.948	330.95
388.328	344.74
388.707	340.89
389.087	343.38
389.466	355.36
389.846	351.06
390.225	349.03
390.605	335.7
390.984	362.82
391.363	342.02
391.743	346.09
392.122	380.22
392.501	364.4
392.881	363.04
393.26	351.06
393.639	358.97
394.018	364.4
394.397	354
394.776	387.22
395.155	371.4
395.534	349.03
395.913	367.33
396.292	363.95
396.671	361.01
397.05	369.59
397.429	376.15
397.808	372.98
398.186	380.22
398.565	399.65
398.944	388.35
399.323	390.39
399.701	393.32
400.08	386.32
400.458	370.27
400.837	394.68
401.215	411.4
401.594	375.24
401.972	405.75
402.351	400.33
402.729	407.79
403.107	417.28
403.486	411.85
403.864	412.53
404.242	405.75
404.62	407.79
404.999	419.54
405.377	428.8
405.755	418.41
406.133	421.34
406.511	426.32
406.889	450.95
407.267	456.82
407.645	434.9
408.023	446.43
408.401	448.91
408.779	460.21
409.156	468.12
409.534	444.85
409.912	463.15
410.29	496.82
410.667	477.39
411.045	506.09
411.422	478.74
411.8	485.07
412.178	509.93
412.555	525.75
412.933	518.29
413.31	518.07
413.687	535.92
414.065	543.83
414.442	539.53
414.819	529.36
415.197	556.26
415.574	579.08
415.951	553.09
416.328	561.68
416.705	586.31
417.082	599.65
417.46	613.2
417.837	588.8
418.214	603.03
418.591	592.19
418.967	622.7
419.344	604.62
419.721	612.3
420.098	641.68
420.475	625.18
420.852	666.08
421.228	637.84
421.605	670.6
421.982	664.5
422.358	711.51
422.735	697.5
423.111	697.5
423.488	731.85
423.864	708.34
424.241	741.79
424.617	752.86
424.994	744.73
425.37	766.42
425.746	768.23
426.123	776.59
426.499	787.44
426.875	793.31
427.251	823.37
427.627	819.07
428.003	830.83
428.379	831.5
428.756	830.83
429.132	865.4
429.507	858.85
429.883	859.75
430.259	899.07
430.635	909.24
431.011	896.81
431.387	923.25
431.763	915.57
432.138	939.98
432.514	951.73
432.89	950.6
433.265	987.66
433.641	1019.75
434.016	1012.29
434.392	1019.3
434.767	1034.21
435.143	1034.21
435.518	1053.64
435.894	1096.36
436.269	1113.98
436.644	1125.73
437.02	1127.54
437.395	1175.68
437.77	1150.37
438.145	1200.31
438.52	1205.05
438.895	1219.97
439.271	1216.13
439.646	1229.91
440.021	1259.06
440.395	1280.53
440.77	1283.47
441.145	1288.21
441.52	1307.2
441.895	1329.8
442.27	1341.55
442.645	1346.29
443.019	1364.82
443.394	1347.42
443.769	1374.77
444.143	1360.53
444.518	1417.02
444.892	1400.75
445.267	1409.57
445.641	1451.83
446.016	1450.92
446.39	1428.55
446.764	1460.64
447.139	1468.77
447.513	1490.92
447.887	1457.02
448.262	1486.18
448.636	1485.72
449.01	1506.06
449.384	1524.14
449.758	1542.9
450.132	1566.63
450.506	1567.76
450.88	1587.42
451.254	1562.11
451.628	1593.52
452.002	1618.83
452.376	1615.89
452.75	1625.61
453.123	1647.08
453.497	1691.37
453.871	1699.28
454.244	1711.93
454.618	1695.66
454.992	1737.92
455.365	1727.98
455.739	1757.58
456.112	1809.56
456.486	1826.96
456.859	1826.96
457.232	1831.48
457.606	1830.8
457.979	1872.61
458.352	1896.79
458.725	1937.24
459.099	1924.13
459.472	1954.64
459.845	1979.5
460.218	2007.29
460.591	2031.47
460.964	2017.01
461.337	2094.07
461.71	2114.63
462.083	2098.81
462.456	2088.65
462.829	2113.05
463.201	2164.58
463.574	2158.7
463.947	2179.72
464.32	2265.36
464.692	2263.33
465.065	2250.9
465.438	2275.76
465.81	2326.38
466.183	2366.83
466.555	2403.21
466.928	2402.31
467.3	2395.3
467.672	2403.89
468.045	2507.62
468.417	2486.15
468.789	2509.65
469.161	2542.65
469.534	2561.18
469.906	2664.68
470.278	2639.37
470.65	2666.94
471.022	2717.33
471.394	2727.72
471.766	2757.33
472.138	2795.52
472.51	2876.65
472.882	2885.46
473.253	2920.26
473.625	2973.82
473.997	2998.9
474.369	3016.53
474.74	2994.61
475.112	3065.12
475.484	3140.14
475.855	3187.83
476.227	3164.1
476.598	3235.06
476.97	3268.5
477.341	3328.39
477.713	3377.88
478.084	3409.06
478.455	3509.4
478.827	3511.21
479.198	3585.1
479.569	3614.03
479.94	3716.4
480.311	3710.07
480.682	3799.79
481.053	3775.83
481.424	3917.07
481.795	3898.09
482.166	3979.44
482.537	4006.56
482.908	4075.26
483.279	4125.65
483.65	4185.77
484.021	4249.49
484.391	4307.57
484.762	4288.14
485.133	4332.65
485.503	4377.4
485.874	4450.39
486.244	4503.27
486.615	4611.97
486.985	4608.13
487.356	4679.76
487.726	4746.2
488.097	4816.48
488.467	4799.53
488.837	4927.67
489.207	4963.15
489.578	4995.01
489.948	5086.98
490.318	5054.44
490.688	5091.73
491.058	5208.79
491.428	5266.42
491.798	5230.26
492.168	5376.69
492.538	5364.49
492.908	5445.39
493.278	5492.62
493.648	5483.36
494.017	5512.06
494.387	5573.75
494.757	5654.43
495.126	5718.61
495.496	5650.13
495.866	5720.87
496.235	5799.06
496.605	5791.37
496.974	5793.86
497.344	5865.27
497.713	5910.01
498.082	5874.76
498.452	5943.69
498.821	5977.58
499.19	5957.92
499.559	6036.79
499.928	6063.68
500.298	6070.46
500.667	6096.45
501.036	6107.75
501.405	6141.87
501.774	6149.33
502.143	6249.44
502.512	6207.41
502.88	6242.21
503.249	6287.18
503.618	6255.09
503.987	6335.99
504.356	6315.2
504.724	6314.52
505.093	6352.04
505.462	6376.89
505.83	6412.15
506.199	6400.62
506.567	6446.5
506.936	6474.52
507.304	6537.12
507.672	6558.36
508.041	6502.54
508.409	6628.87
508.777	6592.71
509.145	6646.72
509.514	6652.37
509.882	6645.14
510.25	6675.19
510.618	6690.78
510.986	6657.11
511.354	6729.43
511.722	6746.6
512.09	6765.58
512.458	6770.78
512.826	6799.93
513.193	6832.48
513.561	6799.93
513.929	6865.24
514.297	6871.34
514.664	6907.73
515.032	6879.25
515.4	6871.12
515.767	6943.21
516.135	6896.88
516.502	6897.33
516.869	6957.9
517.237	6958.8
517.604	6945.24
517.972	7052.36
518.339	7004
518.706	6960.16
519.073	6944.11
519.44	7020.27
519.808	7047.16
520.175	7041.51
520.542	7082.41
520.909	7047.39
521.276	6989.08
521.643	7097.78
522.009	7079.7
522.376	7087.16
522.743	7149.3
523.11	7132.35
523.477	7215.29
523.843	7222.97
524.21	7195.18
524.577	7221.84
524.943	7286.25
525.31	7275.18
525.676	7337.1
526.043	7319.02
526.409	7311.33
526.776	7290.09
527.142	7361.28
527.508	7330.77
527.874	7367.6
528.241	7385.23
528.607	7302.97
528.973	7388.85
529.339	7337.1
529.705	7369.64
530.071	7433.59
530.437	7384.1
530.803	7408.96
531.169	7424.55
531.535	7452.12
531.901	7329.41
532.267	7312.69
532.632	7413.7
532.998	7376.87
533.364	7430.2
533.73	7331.22
534.095	7443.08
534.461	7402.63
534.826	7364.67
535.192	7405.57
535.557	7422.97
535.923	7372.12
536.288	7299.13
536.653	7345.91
537.019	7291.9
537.384	7328.73
537.749	7348.17
538.114	7338.9
538.479	7283.31
538.845	7289.19
539.21	7267.49
539.575	7210.77
539.94	7230.43
540.305	7255.52
540.67	7213.26
541.034	7255.29
541.399	7237.66
541.764	7207.16
542.129	7223.43
542.494	7256.65
542.858	7183.88
543.223	7129.19
543.587	7200.6
543.952	7107.72
544.316	7186.36
544.681	7105.91
545.045	7168.74
545.41	7117.67
545.774	7091.68
546.138	7092.13
546.503	7071.57
546.867	7030.44
547.231	7074.96
547.595	7061.62
547.959	7036.54
548.324	6987.95
548.688	6964.45
549.052	7013.04
549.416	6999.7
549.779	6987.05
550.143	6956.77
550.507	6952.92
550.871	6963.09
551.235	6924.68
551.599	6900.5
551.962	6923.32
552.326	6868.63
552.689	6909.31
553.053	6915.41
553.417	6794.74
553.78	6899.37
554.143	6829.31
554.507	6865.24
554.87	6858.24
555.234	6883.32
555.597	6821.85
555.96	6843.32
556.323	6836.09
556.686	6844.45
557.05	6851.68
557.413	6866.15
557.776	6838.58
558.139	6814.85
558.502	6818.01
558.865	6811.91
559.228	6829.54
559.59	6911.8
559.953	6845.36
560.316	6913.6
560.679	6902.53
561.041	6880.38
561.404	6867.28
561.767	6935.3
562.129	6867.28
562.492	6907.73
562.854	6923.55
563.217	6893.94
563.579	6867.5
563.941	6886.49
564.304	6936.88
564.666	6941.17
565.028	6938.24
565.39	7001.51
565.753	6963.32
566.115	6999.7
566.477	7061.17
566.839	7003.09
567.201	7093.71
567.563	7029.53
567.925	7080.38
568.287	7146.82
568.648	7103.66
569.01	7085.58
569.372	7107.27
569.734	7112.69
570.095	7144.11
570.457	7112.24
570.819	7193.37
571.18	7205.57
571.542	7182.07
571.903	7162.18
572.265	7221.39
572.626	7211.9
572.987	7267.72
573.349	7252.13
573.71	7292.35
574.071	7240.37
574.432	7314.04
574.794	7367.38
575.155	7346.13
575.516	7329.41
575.877	7383.65
576.238	7325.12
576.599	7421.16
576.96	7420.48
577.32	7345.46
577.681	7464.55
578.042	7422.74
578.403	7451.44
578.763	7526.69
579.124	7526.02
579.485	7511.78
579.845	7544.55
580.206	7547.26
580.566	7587.48
580.927	7518.11
581.287	7516.98
581.648	7511.1
582.008	7630.19
582.368	7620.48
582.728	7625
583.089	7589.74
583.449	7628.61
583.809	7637.2
584.169	7672.68
584.529	7618.22
584.889	7725.11
585.249	7697.31
585.609	7703.19
585.969	7708.16
586.329	7677.2
586.688	7702.51
587.048	7749.51
587.408	7686.69
587.768	7780.7
588.127	7812.56
588.487	7756.29
588.846	7826.8
589.206	7737.99
589.565	7771.43
589.925	7830.64
590.284	7841.04
590.643	7873.13
591.003	7911.77
591.362	7872.67
591.721	7893.01
592.08	7876.06
592.44	7893.01
592.799	7923.07
593.158	7952.45
593.517	7897.08
593.876	7922.62
594.235	7919
594.593	7908.61
594.952	7932.11
595.311	7973.46
595.67	7966.23
596.029	7968.72
596.387	7956.74
596.746	8020.02
597.104	8019.56
597.463	7948.83
597.822	7983.18
598.18	8016.4
598.538	8000.58
598.897	8037.42
599.255	7993.35
599.613	8014.14
599.972	8051.65
600.33	8086.45
600.688	8028.83
601.046	8099.56
601.404	8052.1
601.762	8113.57
602.12	8097.3
602.478	8135.49
602.836	8117.19
603.194	8085.78
603.552	8104.31
603.91	8004.65
604.268	8098.21
604.625	8049.84
604.983	8159.45
605.341	8145.44
605.698	8097.53
606.056	8167.81
606.413	8146.34
606.771	8175.94
607.128	8188.15
607.485	8116.74
607.843	8215.49
608.2	8217.98
608.557	8249.39
608.914	8170.97
609.272	8261.36
609.629	8237.18
609.986	8259.1
610.343	8231.76
610.7	8313.34
611.057	8222.27
611.414	8241.93
611.771	8272.21
612.127	8271.53
612.484	8236.73
612.841	8291.87
613.198	8274.25
613.554	8217.3
613.911	8358.76
614.267	8297.07
614.624	8311.76
614.98	8348.14
615.337	8406.22
615.693	8343.85
616.05	8346.33
616.406	8431.98
616.762	8367.35
617.118	8391.53
617.475	8382.04
617.831	8420.91
618.187	8381.81
618.543	8404.86
618.899	8448.7
619.255	8421.13
619.611	8406.45
619.967	8477.4
620.323	8448.7
620.678	8474.92
621.034	8472.88
621.39	8362.6
621.746	8465.65
622.101	8559.89
622.457	8486.9
622.812	8495.71
623.168	8524.63
623.523	8458.87
623.879	8493.22
624.234	8382.49
624.589	8466.56
624.945	8467.91
625.3	8454.13
625.655	8474.47
626.01	8492.55
626.365	8438.31
626.72	8502.94
627.075	8491.87
627.43	8421.13
627.785	8427.46
628.14	8488.7
628.495	8458.65
628.85	8434.47
629.205	8410.74
629.559	8436.95
629.914	8377.75
630.269	8380.23
630.623	8371.42
630.978	8423.17
631.332	8404.64
631.687	8405.32
632.041	8391.76
632.396	8382.04
632.75	8403.73
633.104	8361.93
633.459	8305.43
633.813	8295.04
634.167	8299.78
634.521	8289.84
634.875	8370.51
635.229	8326
635.583	8245.09
635.937	8278.54
636.291	8168.71
636.645	8273.79
636.999	8203.74
637.352	8238.31
637.706	8181.59
638.06	8238.54
638.413	8122.61
638.767	8199.67
639.121	8232.44
639.474	8158.77
639.828	8091.65
640.181	8161.93
640.534	8123.74
640.888	8102.72
641.241	8074.02
641.594	8053.23
641.947	8141.37
642.301	8066.79
642.654	8104.08
643.007	8096.4
643.36	8097.3
643.713	8111.09
644.066	8090.52
644.419	8108.83
644.771	7986.34
645.124	7975.27
645.477	7925.1
645.83	7861.38
646.182	7807.59
646.535	7844.2
646.888	7817.31
647.24	7784.54
647.593	7786.8
647.945	7791.32
648.298	7773.02
648.65	7758.1
649.002	7804.65
649.355	7776.41
649.707	7777.54
650.059	7797.2
650.411	7907.25
650.763	7936.63
651.115	7970.98
651.467	7984.99
651.819	8000.58
652.171	7966.01
652.523	7974.82
652.875	7879.45
653.227	7962.84
653.578	7978.66
653.93	7900.24
654.282	7959
654.633	7892.33
654.985	7946.34
655.337	7968.94
655.688	7950.19
656.039	7989.51
656.391	7923.52
656.742	7929.85
657.094	7969.17
657.445	7970.75
657.796	7917.64
658.147	7943.41
658.498	7933.69
658.849	7919.45
659.2	7949.06
659.551	7919.45
659.902	7998.77
660.253	7962.84
660.604	7935.95
660.955	7935.95
661.306	7966.91
661.656	7891.2
662.007	7924.88
662.358	7988.83
662.708	7962.16
663.059	7966.68
663.409	7906.12
663.76	7996.29
664.11	7926.68
664.461	7969.39
664.811	7974.82
665.161	7968.72
665.511	7902.96
665.862	7906.57
666.212	7966.23
666.562	7983.86
666.912	7970.07
667.262	7935.72
667.612	8011.2
667.962	8024.31
668.312	7954.71
668.662	8017.3
669.011	7968.04
669.361	7982.5
669.711	7929.4
670.06	7934.82
670.41	7936.4
670.76	7888.72
671.109	7893.01
671.459	7917.64
671.808	7933.92
672.157	7873.13
672.507	7870.19
672.856	7895.72
673.205	7875.39
673.554	7914.71
673.904	7878.78
674.253	7870.87
674.602	7906.35
674.951	7776.18
675.3	7730.53
675.649	7811.21
675.998	7819.34
676.346	7895.95
676.695	7784.77
677.044	7760.36
677.393	7841.71
677.741	7792.9
678.09	7806.24
678.438	7778.67
678.787	7853.47
679.135	7796.07
679.484	7751.1
679.832	7808.5
680.181	7693.24
680.529	7703.87
680.877	7678.33
681.225	7668.61
681.573	7730.98
681.922	7667.03
682.27	7676.75
682.618	7588.39
682.966	7622.51
683.314	7611.66
683.661	7599.91
684.009	7560.82
684.357	7542.51
684.705	7577.31
685.053	7544.55
685.4	7541.38
685.748	7454.38
686.095	7506.36
686.443	7499.8
686.79	7429.52
687.138	7429.75
687.485	7459.35
687.832	7440.37
688.18	7375.74
688.527	7361.95
688.874	7335.51
689.221	7301.39
689.568	7294.61
689.915	7269.3
690.262	7301.62
690.609	7246.48
690.956	7188.4
691.303	7194.05
691.65	7164.67
691.997	7197.44
692.344	7183.43
692.69	7099.81
693.037	7053.94
693.383	7065.46
693.73	7088.29
694.077	7003.54
694.423	7000.83
694.769	6989.76
695.116	6892.14
695.462	6977.33
695.808	6957.67
696.155	6912.47
696.501	6895.07
696.847	6874.51
697.193	6865.24
697.539	6845.13
697.885	6827.96
698.231	6725.81
698.577	6794.74
698.923	6788.41
699.269	6704.8
699.614	6674.97
699.96	6679.26
700.306	6678.81
700.651	6606.04
700.997	6607.62
701.342	6597.45
701.688	6510.22
702.033	6552.48
702.379	6522.2
702.724	6477.23
703.069	6513.61
703.415	6447.63
703.76	6424.12
704.105	6456.67
704.45	6402.88
704.795	6314.98
705.14	6375.99
705.485	6267.29
705.83	6317.69
706.175	6281.98
706.52	6318.14
706.865	6225.49
707.209	6242.43
707.554	6201.98
707.899	6209.22
708.243	6210.12
708.588	6246.73
708.932	6174.64
709.277	6130.35
709.621	6144.36
709.966	6090.35
710.31	6114.98
710.654	6078.37
710.998	6081.99
711.342	6061.87
711.687	5993.4
712.031	6011.03
712.375	6013.06
712.719	6030.69
713.063	6019.16
713.407	6012.84
713.75	5983.46
714.094	5962.89
714.438	5938.26
714.782	5955.66
715.125	5896.68
715.469	5908.43
715.812	5940.75
716.156	5852.84
716.499	5825.5
716.843	5848.09
717.186	5811.94
717.53	5837.25
717.873	5841.99
718.216	5838.38
718.559	5793.86
718.902	5797.02
719.246	5834.76
719.589	5763.8
719.932	5758.83
720.275	5749.57
720.617	5759.74
720.96	5741.43
721.303	5762.67
721.646	5772.16
721.989	5710.92
722.331	5725.61
722.674	5765.84
723.016	5702.79
723.359	5741.66
723.701	5746.63
724.044	5670.02
724.386	5662.11
724.729	5702.11
725.071	5744.37
725.413	5635.67
725.755	5680.87
726.097	5679.74
726.439	5658.27
726.782	5627.31
727.124	5689
727.465	5655.56
727.807	5613.07
728.149	5636.35
728.491	5600.42
728.833	5628.67
729.175	5635.67
729.516	5619.85
729.858	5679.74
730.199	5648.55
730.541	5648.55
730.882	5635.67
731.224	5707.53
731.565	5599.97
731.906	5657.59
732.248	5686.74
732.589	5575.11
732.93	5588.21
733.271	5647.2
733.612	5642.22
733.953	5584.37
734.294	5631.15
734.635	5609.46
734.976	5626.41
735.317	5591.83
735.658	5583.24
735.999	5610.13
736.339	5638.83
736.68	5629.8
737.021	5647.2
737.361	5602.45
737.702	5632.96
738.042	5637.93
738.383	5604.49
738.723	5599.06
739.063	5677.25
739.404	5652.85
739.744	5679.74
740.084	5680.64
740.424	5642.45
740.764	5629.8
741.104	5716.57
741.444	5699.4
741.784	5697.14
742.124	5726.06
742.464	5701.88
742.804	5735.78
743.143	5753.86
743.483	5752.5
743.823	5726.74
744.162	5751.6
744.502	5803.58
744.841	5816.01
745.181	5806.74
745.52	5854.87
745.86	5900.97
746.199	5893.52
746.538	5946.85
746.877	5993.85
747.216	5960.63
747.556	6041.99
747.895	6058.48
748.234	6092.16
748.573	6134.19
748.911	6188.2
749.25	6224.81
749.589	6248.76
749.928	6252.6
750.267	6322.66
750.605	6361.08
750.944	6439.49
751.283	6472.03
751.621	6534.4
751.96	6577.79
752.298	6650.79
752.636	6702.99
752.975	6766.94
753.313	6774.4
753.651	6920.83
753.989	6967.61
754.327	7078.34
754.666	7011.91
755.004	7159.25
755.342	7375.96
755.679	7391.78
756.017	7462.74
756.355	7539.58
756.693	7712.45
757.031	7841.26
757.368	7839
757.706	7981.37
758.044	8047.36
758.381	8191.99
758.719	8253.91
759.056	8430.17
759.394	8444.41
759.731	8635.82
760.068	8763.05
760.405	8764.63
760.743	8956.26
761.08	9069.48
761.417	9131.85
761.754	9323.26
762.091	9440.77
762.428	9529.58
762.765	9556.02
763.102	9781.55
763.438	9903.58
763.775	9904.26
764.112	10158.94
764.449	10237.58
764.785	10289.56
765.122	10373.4
765.458	10490.91
765.795	10635.99
766.131	10725.93
766.467	10801.86
766.804	10901.97
767.14	11005.7
767.476	11104.91
767.812	11184
768.148	11269.65
768.485	11354.62
768.821	11404.56
769.157	11478
769.492	11567.27
769.828	11712.12
770.164	11677.32
770.5	11784.44
770.836	11864.66
771.171	11884.55
771.507	12008.61
771.842	11980.59
772.178	12135.39
772.513	12248.38
772.849	12172.9
773.184	12250.64
773.519	12442.95
773.855	12374.7
774.19	12465.32
774.525	12450.63
774.86	12482.5
775.195	12563.62
775.53	12623.28
775.865	12559.78
776.2	12527.92
776.535	12550.97
776.87	12652.89
777.205	12651.08
777.539	12729.5
777.874	12715.26
778.209	12652.44
778.543	12705.32
778.878	12699.21
779.212	12821.02
779.547	12678.88
779.881	12755.03
780.215	12775.37
780.55	12814.47
780.884	12724.75
781.218	12801.58
781.552	12786.9
781.886	12798.65
782.22	12767.23
782.554	12769.49
782.888	12667.12
783.222	12720.91
783.556	12708.25
783.889	12670.74
784.223	12633.23
784.557	12643.4
784.89	12669.38
785.224	12720.46
785.557	12640.46
785.891	12569.73
786.224	12666.45
786.558	12715.94
786.891	12528.15
787.224	12561.14
787.557	12490.86
787.891	12580.8
788.224	12505.77
788.557	12560.91
788.89	12498.99
789.223	12470.75
789.556	12468.71
789.888	12460.8
790.221	12432.55
790.554	12324.76
790.887	12247.02
791.219	12344.87
791.552	12263.97
791.884	12195.5
792.217	12309.17
792.549	12244.08
792.882	12193.69
793.214	12124.99
793.546	12115.05
793.879	12123.86
794.211	12089.96
794.543	12113.92
794.875	12060.59
795.207	12115.5
795.539	12028.27
795.871	11976.97
796.203	12005.45
796.535	11850.2
796.867	11926.81
797.198	11924.77
797.53	11839.35
797.862	11840.71
798.193	11770.88
798.525	11762.74
798.856	11744.89
799.188	11662.41
799.519	11554.39
799.85	11568.4
800.182	11572.01
800.513	11578.57
800.844	11473.26
801.175	11605.68
801.506	11593.93
801.837	11392.81
802.168	11465.8
802.499	11483.2
802.83	11456.99
803.161	11373.15
803.491	11409.08
803.822	11393.49
804.153	11341.96
804.483	11301.96
804.814	11192.36
805.145	11277.1
805.475	11248.18
805.805	11196.2
806.136	11154.4
806.466	11182.42
806.796	11200.95
807.126	11061.97
807.457	11005.7
807.787	11095.41
808.117	11019.03
808.447	10986.04
808.777	11054.96
809.107	10969.99
809.436	10898.81
809.766	10905.36
810.096	10888.64
810.426	10803.22
810.755	10856.1
811.085	10853.16
811.414	10773.39
811.744	10715.99
812.073	10687.06
812.403	10720.74
812.732	10623.34
813.061	10633.96
813.39	10577.01
813.719	10557.58
814.049	10619.04
814.378	10630.34
814.707	10557.8
815.036	10577.01
815.365	10494.98
815.693	10422.89
816.022	10435.09
816.351	10395.77
816.68	10406.85
817.008	10427.64
817.337	10302.89
817.665	10304.93
817.994	10348.54
818.322	10317.13
818.651	10264.02
818.979	10193.07
819.307	10318.03
819.636	10249.34
819.964	10160.52
820.292	10231.26
820.62	10245.95
820.948	10249.34
821.276	10233.29
821.604	10201.2
821.932	10273.74
822.259	10215.66
822.587	10091.6
822.915	10134.54
823.243	10277.58
823.57	10129.11
823.898	10204.14
824.225	10163.01
824.553	10151.26
824.88	10157.59
825.207	10142.9
825.535	10178.38
825.862	10179.73
826.189	10143.35
826.516	10212.05
826.843	10235.78
827.17	10237.36
827.497	10136.57
827.824	10178.83
828.151	10221.77
828.478	10168.89
828.805	10270.8
829.131	10104.48
829.458	10130.69
829.785	10103.35
830.111	10141.09
830.438	10127.08
830.764	10196.23
831.09	10201.65
831.417	10186.96
831.743	10184.48
832.069	10197.58
832.395	10104.25
832.722	10130.24
833.048	10086.85
833.374	10104.48
833.7	10054.54
834.026	10101.77
834.351	10133.86
834.677	10080.98
835.003	10179.05
835.329	10169.79
835.654	10082.11
835.98	10010.7
836.306	10050.47
836.631	10026.52
836.956	10060.41
837.282	10055.67
837.607	10002.34
837.932	9948.33
838.258	9937.7
838.583	9977.7
838.908	9917.82
839.233	9953.52
839.558	9884.82
839.883	9923.24
840.208	9841.89
840.533	9854.77
840.858	9887.31
841.182	9875.33
841.507	9903.36
841.832	9781.55
842.156	9781.32
842.481	9705.17
842.805	9734.09
843.13	9736.81
843.454	9676.92
843.778	9709.01
844.103	9693.19
844.427	9675.34
844.751	9590.37
845.075	9582.01
845.399	9606.41
845.723	9463.82
846.047	9500.43
846.371	9469.02
846.695	9424.5
847.019	9412.52
847.343	9337.49
847.666	9369.81
847.99	9291.17
848.313	9292.3
848.637	9231.96
848.96	9287.33
849.284	9164.84
849.607	9151.51
849.931	9055.47
850.254	9011.85
850.577	9001.46
850.9	8933.66
851.223	8918.75
851.546	8964.4
851.869	8851.41
852.192	8886.88
852.515	8784.51
852.838	8766.66
853.161	8717.17
853.483	8701.58
853.806	8668.59
854.129	8636.27
854.451	8664.07
854.774	8604.86
855.096	8535.03
855.419	8597.63
855.741	8543.84
856.063	8466.33
856.385	8446.67
856.708	8437.18
857.03	8441.25
857.352	8421.59
857.674	8375.71
857.996	8338.42
858.318	8346.33
858.64	8342.72
858.961	8267.69
859.283	8258.43
859.605	8210.74
859.926	8242.16
860.248	8175.72
860.57	8222.72
860.891	8178.66
861.212	8155.15
861.534	8131.2
861.855	8080.13
862.176	8097.75
862.498	8098.21
862.819	8124.87
863.14	8053.46
863.461	8126.68
863.782	7967.14
864.103	8031.09
864.424	7990.86
864.745	8046.23
865.065	7914.48
865.386	7928.04
865.707	7880.36
866.027	7934.37
866.348	7856.18
866.668	7849.62
866.989	7899.11
867.309	7802.17
867.63	7794.71
867.95	7778.89
868.27	7782.96
868.59	7849.4
868.91	7795.84
869.23	7802.17
869.55	7713.13
869.87	7780.93
870.19	7766.46
870.51	7723.53
870.83	7751.55
871.15	7722.85
871.469	7720.59
871.789	7687.37
872.109	7688.72
872.428	7663.41
872.748	7627.71
873.067	7624.09
873.386	7690.53
873.706	7593.36
874.025	7475.85
874.344	7548.84
874.663	7584.09
874.982	7540.93
875.301	7584.09
875.62	7515.17
875.939	7497.32
876.258	7543.87
876.577	7506.36
876.896	7426.58
877.214	7491.22
877.533	7473.14
877.852	7446.92
878.17	7456.64
878.489	7432.23
878.807	7444.66
879.125	7408.73
879.444	7382.97
879.762	7426.13
880.08	7378.22
880.398	7305.46
880.716	7402.63
881.034	7336.64
881.352	7358.11
881.67	7314.27
881.988	7340.71
882.306	7263.42
882.624	7225.69
882.941	7198.12
883.259	7254.84
883.577	7181.85
883.894	7152.02
884.212	7172.35
884.529	7179.59
884.846	7173.48
885.164	7189.08
885.481	7090.1
885.798	7106.14
886.115	7035.63
886.432	7023.88
886.75	7036.99
887.067	7042.64
887.383	7037.22
887.7	7034.73
888.017	7013.04
888.334	6989.31
888.651	6956.31
888.967	6912.7
889.284	6864.11
889.6	6884.68
889.917	6874.51
890.233	6865.24
890.55	6804.68
890.866	6834.51
891.182	6767.39
891.498	6719.26
891.815	6706.83
892.131	6758.13
892.447	6719.26
892.763	6721.07
893.079	6667.51
893.395	6652.14
893.71	6578.25
894.026	6630
894.342	6629.09
894.657	6541.18
894.973	6498.02
895.289	6566.95
895.604	6529.21
895.92	6482.43
896.235	6436.78
896.55	6448.76
896.865	6452.37
897.181	6416.67
897.496	6436.33
897.811	6374.18
898.126	6357.91
898.441	6389.78
898.756	6328.99
899.071	6222.77
899.386	6256.45
899.7	6219.61
900.015	6175.32
900.33	6178.03
900.644	6159.73
900.959	6146.17
901.273	6120.86
901.588	6102.78
901.902	6074.3
902.216	6057.35
902.531	6028.43
902.845	5999.5
903.159	6001.99
903.473	5976.68
903.787	5931.71
904.101	5852.61
904.415	5896.91
904.729	5884.93
905.042	5827.08
905.356	5861.43
905.67	5790.92
905.984	5856.46
906.297	5781.43
906.611	5761.54
906.924	5744.37
907.237	5728.32
907.551	5682.22
907.864	5638.83
908.177	5611.26
908.491	5638.61
908.804	5596.58
909.117	5651.04
909.43	5557.93
909.743	5566.52
910.056	5480.65
910.368	5502.34
910.681	5465.05
910.994	5489.69
911.307	5455.79
911.619	5413.76
911.932	5425.96
912.244	5355.9
912.557	5367.88
912.869	5310.93
913.181	5326.3
913.494	5271.16
913.806	5207.43
914.118	5241.11
914.43	5226.19
914.742	5195.46
915.054	5218.28
915.366	5136.7
915.678	5151.62
915.99	5102.58
916.302	5043.14
916.613	5039.98
916.925	5093.99
917.236	5057.83
917.548	5043.14
917.859	4997.27
918.171	4984.61
918.482	4975.35
918.794	4907.78
919.105	4916.37
919.416	4885.41
919.727	4917.95
920.038	4899.42
920.349	4815.58
920.66	4827.78
920.971	4857.84
921.282	4763.83
921.593	4758.41
921.903	4745.75
922.214	4743.72
922.525	4764.51
922.835	4688.13
923.146	4681.35
923.456	4670.95
923.767	4658.3
924.077	4622.82
924.387	4611.29
924.697	4593.66
925.008	4579.2
925.318	4590.5
925.628	4527.23
925.938	4540.33
926.248	4454.91
926.558	4491.75
926.867	4448.36
927.177	4433.89
927.487	4403.61
927.796	4397.51
928.106	4360.22
928.416	4373.78
928.725	4337.85
929.034	4343.5
929.344	4356.16
929.653	4319.55
929.962	4287.23
930.271	4279.1
930.581	4270.06
930.89	4204.75
931.199	4171.98
931.508	4195.48
931.817	4185.77
932.125	4180.12
932.434	4186.9
932.743	4125.88
933.051	4079.78
933.36	4127.46
933.669	4047.92
933.977	4035.26
934.286	4103.73
934.594	4037.97
934.902	4009.27
935.21	3992.1
935.519	3998.88
935.827	3985.77
936.135	3926.11
936.443	3912.78
936.751	3940.8
937.059	3896.96
937.367	3906.45
937.674	3875.27
937.982	3888.15
938.29	3833.46
938.597	3830.29
938.905	3776.51
939.213	3779.67
939.52	3759.56
939.827	3762.95
940.135	3734.25
940.442	3742.39
940.749	3719.34
941.056	3722.95
941.363	3689.28
941.67	3675.5
941.977	3682.5
942.284	3612.67
942.591	3609.74
942.898	3625.1
943.205	3623.97
943.511	3606.8
943.818	3587.36
944.125	3527.93
944.431	3540.13
944.738	3518.21
945.044	3530.87
945.35	3540.81
945.657	3477.76
945.963	3473.24
946.269	3449.51
946.575	3444.77
946.881	3410.19
947.187	3434.37
947.493	3389.85
947.799	3392.79
948.105	3384.88
948.41	3344.43
948.716	3379.46
949.022	3311.21
949.327	3340.14
949.633	3290.65
949.938	3331.32
950.244	3279.57
950.549	3264.66
950.854	3235.73
951.16	3233.02
951.465	3198.9
951.77	3214.49
952.075	3201.84
952.38	3167.94
952.685	3172.01
952.99	3149.18
953.294	3177.2
953.599	3122.74
953.904	3066.7
954.209	3110.09
954.513	3100.14
954.818	3067.6
955.122	3040.94
955.426	3003.88
955.731	3023.99
956.035	2996.64
956.339	3043.2
956.643	3001.16
956.948	2968.85
957.252	2977.66
957.556	2988.96
957.86	2919.58
958.163	2961.39
958.467	2906.03
958.771	2898.34
959.075	2902.64
959.378	2891.56
959.682	2857.44
959.985	2856.99
960.289	2841.39
960.592	2861.51
960.896	2835.74
961.199	2802.53
961.502	2826.93
961.805	2786.25
962.108	2816.08
962.411	2730.44
962.714	2752.81
963.017	2722.98
963.32	2746.26
963.623	2749.42
963.926	2717.1
964.228	2693.6
964.531	2703.09
964.833	2694.96
965.136	2644.11
965.438	2664.68
965.741	2638.46
966.043	2650.21
966.345	2626.48
966.648	2663.32
966.95	2638.46
967.252	2620.38
967.554	2588.29
967.856	2561.18
968.158	2559.59
968.46	2548.29
968.761	2534.06
969.063	2560.95
969.365	2494.74
969.666	2515.08
969.968	2494.28
970.269	2484.12
970.571	2472.59
970.872	2450.67
971.174	2447.05
971.475	2471.23
971.776	2423.1
972.077	2448.18
972.378	2456.32
972.679	2434.85
972.98	2412.25
973.281	2405.7
973.582	2357.34
973.883	2330.45
974.183	2396.21
974.484	2327.96
974.785	2329.09
975.085	2317.79
975.386	2298.13
975.686	2328.41
975.986	2272.6
976.287	2294.52
976.587	2254.52
976.887	2276.66
977.187	2278.7
977.487	2243.67
977.787	2281.86
978.087	2236.66
978.387	2242.09
978.687	2231.92
978.987	2215.87
979.286	2186.04
979.586	2212.48
979.885	2167.97
980.185	2172.26
980.484	2163.9
980.784	2158.02
981.083	2148.98
981.382	2138.14
981.682	2143.79
981.981	2115.54
982.28	2108.98
982.579	2081.64
982.878	2087.06
983.177	2028.08
983.475	2070.34
983.774	2069.89
984.073	2068.53
984.372	2065.6
984.67	2052.26
984.969	2014.52
985.267	1991.02
985.566	2024.69
985.864	2019.72
986.162	1969.55
986.461	1971.81
986.759	1956.67
987.057	1948.99
987.355	1938.82
987.653	1928.2
987.951	1933.4
988.249	1920.06
988.547	1904.02
988.844	1945.37
989.142	1921.42
989.44	1905.83
989.737	1912.15
990.035	1915.77
990.332	1895.88
990.63	1877.13
990.927	1856.79
991.224	1826.28
991.521	1821.99
991.819	1859.73
992.116	1819.05
992.413	1829.22
992.71	1832.38
993.006	1798.26
993.303	1769.56
993.6	1784.92
993.897	1790.57
994.193	1798.71
994.49	1778.6
994.787	1756.9
995.083	1735.21
995.379	1765.94
995.676	1740.41
995.972	1706.51
996.268	1721.2
996.565	1694.53
996.861	1694.76
997.157	1690.46
997.453	1695.89
997.749	1651.82
998.044	1644.59
998.34	1630.8
998.636	1673.06
998.932	1629.67
999.227	1627.64
999.523	1626.06
999.818	1604.82
1000.114	1609.34
1000.409	1619.28
1000.704	1582.9
1001	1570.02
1001.295	1581.09
1001.59	1595.1
1001.885	1592.16
1002.18	1559.39
1002.475	1534.54
1002.77	1558.26
1003.065	1513.29
1003.359	1500.86
1003.654	1520.3
1003.949	1506.29
1004.243	1488.21
1004.538	1501.54
1004.832	1486.4
1005.127	1493.18
1005.421	1480.07
1005.715	1462.45
1006.009	1429
1006.304	1435.78
1006.598	1421.54
1006.892	1438.49
1007.186	1410.7
1007.48	1421.32
1007.773	1388.1
1008.067	1406.86
1008.361	1411.83
1008.655	1380.64
1008.948	1366.18
1009.242	1347.2
1009.535	1363.47
1009.829	1387.65
1010.122	1347.65
1010.415	1346.52
1010.708	1328.21
1011.001	1354.2
1011.295	1323.69
1011.588	1321.43
1011.881	1303.58
1012.173	1310.59
1012.466	1295.22
1012.759	1309.68
1013.052	1291.38
1013.344	1303.36
1013.637	1279.63
1013.93	1250.7
1014.222	1245.28
1014.514	1252.96
1014.807	1231.04
1015.099	1230.82
1015.391	1220.65
1015.683	1219.74
1015.976	1214.32
1016.268	1205.05
1016.56	1206.18
1016.851	1178.39
1017.143	1176.58
1017.435	1177.03
1017.727	1177.03
1018.018	1164.15
1018.31	1155.56
1018.602	1154.21
1018.893	1148.33
1019.185	1135.45
1019.476	1131.38
1019.767	1129.35
1020.058	1142.68
1020.35	1089.58
1020.641	1119.18
1020.932	1099.07
1021.223	1109.69
1021.514	1103.59
1021.804	1067.66
1022.095	1077.82
1022.386	1077.15
1022.677	1050.93
1022.967	1066.07
1023.258	1063.14
1023.548	1053.87
1023.839	1035.57
1024.129	1022.68
1024.419	1014.78
1024.709	1027.43
1025	1031.95
1025.29	1000.99
1025.58	995.34
1025.87	988.56
1026.16	993.31
1026.449	992.86
1026.739	989.01
1027.029	988.11
1027.319	970.48
1027.608	958.73
1027.898	951.95
1028.187	966.87
1028.477	955.57
1028.766	941.56
1029.055	948.56
1029.344	927.77
1029.634	918.73
1029.923	926.64
1030.212	911.73
1030.501	906.76
1030.79	904.95
1031.078	898.85
1031.367	902.24
1031.656	888.23
1031.945	874.89
1032.233	860.43
1032.522	886.19
1032.81	863.37
1033.099	866.76
1033.387	848.45
1033.675	841.22
1033.963	837.83
1034.251	848.23
1034.54	849.58
1034.828	844.16
1035.116	824.72
1035.403	820.88
1035.691	828.57
1035.979	820.88
1036.267	821.33
1036.554	825.4
1036.842	791.05
1037.129	824.72
1037.417	784.73
1037.704	771.84
1037.992	759.19
1038.279	783.6
1038.566	784.73
1038.853	784.73
1039.14	784.73
