Data from hue_140_FLMS001491_00095.txt Node
Date: Tue Feb 07 16:56:41 GMT 2017
User: dcchb
Spectrometer: FLMS00149
Trigger mode: 0
Integration Time (sec): 2.000000E-2
Scans to average: 10
Electric dark correction enabled: true
Nonlinearity correction enabled: false
Boxcar width: 0
XAxis mode: Wavelengths
Number of Pixels in Spectrum: 2048
>>>>>Begin Spectral Data<<<<<
341.393	-12.44
341.776	-12.44
342.16	-12.44
342.543	-62.16
342.927	-63.52
343.31	-47.24
343.693	-82.05
344.077	-81.37
344.46	-63.52
344.843	-48.83
345.226	-45.66
345.61	-41.14
345.993	-24.42
346.376	0.44
346.759	2.25
347.142	22.81
347.525	56.48
347.908	60.1
348.291	71.17
348.674	96.93
349.057	124.05
349.44	118.85
349.823	139.19
350.206	166.54
350.588	191.17
350.971	200.88
351.354	231.17
351.737	195.69
352.119	237.95
352.502	264.84
352.884	267.78
353.267	262.13
353.65	298.51
354.032	293.76
354.414	308.9
354.797	297.61
355.179	333.31
355.562	316.36
355.944	304.84
356.326	328.79
356.709	320.66
357.091	352.52
357.473	336.25
357.855	333.54
358.238	346.64
358.62	346.87
359.002	331.95
359.384	327.66
359.766	321.11
360.148	335.12
360.53	317.04
360.912	330.82
361.294	345.29
361.676	327.21
362.057	324.5
362.439	325.85
362.821	329.47
363.203	328.34
363.584	321.33
363.966	320.88
364.348	340.09
364.729	304.84
365.111	315.91
365.493	323.59
365.874	325.85
366.256	310.94
366.637	311.62
367.019	310.49
367.4	300.09
367.781	308
368.163	317.04
368.544	331.05
368.925	304.61
369.306	314.1
369.688	305.51
370.069	301.45
370.45	308
370.831	311.62
371.212	318.85
371.593	291.5
371.974	298.51
372.355	308.45
372.736	296.7
373.117	307.32
373.498	317.94
373.879	319.53
374.26	311.39
374.641	312.52
375.021	310.03
375.402	314.78
375.783	333.76
376.163	339.19
376.544	297.83
376.925	341.22
377.305	326.3
377.686	319.07
378.066	342.12
378.447	327.43
378.827	339.86
379.208	322.24
379.588	329.92
379.968	327.66
380.349	327.43
380.729	332.86
381.109	302.35
381.489	342.58
381.87	322.46
382.25	339.41
382.63	351.39
383.01	354.1
383.39	328.34
383.77	326.76
384.15	291.73
384.53	355.68
384.91	360.65
385.29	352.97
385.67	334.44
386.049	359.98
386.429	358.62
386.809	362.01
387.189	345.06
387.568	358.62
387.948	347.55
388.328	355
388.707	371.95
389.087	375.12
389.466	362.69
389.846	364.72
390.225	364.5
390.605	354.1
390.984	363.82
391.363	364.95
391.743	365.63
392.122	374.67
392.501	394.78
392.881	364.72
393.26	357.26
393.639	370.6
394.018	372.63
394.397	390.03
394.776	362.46
395.155	376.7
395.534	388
395.913	367.21
396.292	415.12
396.671	409.24
397.05	393.65
397.429	383.48
397.808	384.38
398.186	385.74
398.565	372.41
398.944	392.07
399.323	389.81
399.701	388.45
400.08	413.53
400.458	388.9
400.837	396.59
401.215	394.78
401.594	407.21
401.972	393.2
402.351	411.27
402.729	386.42
403.107	402.01
403.486	417.38
403.864	412.18
404.242	413.53
404.62	429.58
404.999	399.3
405.377	410.82
405.755	424.61
406.133	438.62
406.511	428.9
406.889	428
407.267	432.29
407.645	430.93
408.023	451.5
408.401	432.97
408.779	444.49
409.156	437.71
409.534	446.98
409.912	433.87
410.29	447.43
410.667	457.37
411.045	449.47
411.422	465.96
411.8	460.54
412.178	463.48
412.555	472.74
412.933	474.78
413.31	493.08
413.687	510.48
414.065	505.06
414.442	480.65
414.819	491.5
415.197	509.35
415.574	496.47
415.951	494.89
416.328	515.45
416.705	521.55
417.082	518.16
417.46	522.91
417.837	534.44
418.214	537.82
418.591	512.51
418.967	527.66
419.344	522.46
419.721	536.24
420.098	510.03
420.475	560.2
420.852	503.25
421.228	546.41
421.605	551.38
421.982	546.86
422.358	556.13
422.735	528.79
423.111	567.88
423.488	557.26
423.864	557.94
424.241	572.17
424.617	578.5
424.994	564.04
425.37	572.63
425.746	581.21
426.123	593.87
426.499	577.6
426.875	600.87
427.251	574.66
427.627	604.49
428.003	588.9
428.379	610.82
428.756	602
429.132	621.66
429.507	635.9
429.883	630.93
430.259	650.82
430.635	637.26
431.011	655.56
431.387	654.88
431.763	650.36
432.138	695.56
432.514	678.84
432.89	692.17
433.265	679.29
433.641	683.13
434.016	676.8
434.392	715.67
434.767	721.1
435.143	710.48
435.518	713.64
435.894	726.75
436.269	738.05
436.644	707.09
437.02	728.1
437.395	728.1
437.77	742.11
438.145	729.23
438.52	760.19
438.895	773.52
439.271	771.94
439.646	773.07
440.021	779.85
440.395	775.11
440.77	784.37
441.145	804.48
441.52	804.71
441.895	789.12
442.27	821.43
442.645	790.47
443.019	809.23
443.394	823.92
443.769	854.2
444.143	845.16
444.518	845.84
444.892	846.97
445.267	852.62
445.641	844.48
446.016	847.42
446.39	849.23
446.764	872.51
447.139	879.96
447.513	876.35
447.887	874.09
448.262	880.19
448.636	883.8
449.01	893.3
449.384	895.78
449.758	895.33
450.132	941.43
450.506	916.12
450.88	942.79
451.254	947.76
451.628	932.39
452.002	998.6
452.376	959.51
452.75	974.42
453.123	999.51
453.497	1003.35
453.871	980.98
454.244	1019.85
454.618	1006.97
454.992	1030.24
455.365	1038.38
455.739	1062.33
456.112	1049
456.486	1058.04
456.859	1077.02
457.232	1117.7
457.606	1092.84
457.979	1113.63
458.352	1147.07
458.725	1145.94
459.099	1157.7
459.472	1187.07
459.845	1206.06
460.218	1229.33
460.591	1199.28
460.964	1230.91
461.337	1241.31
461.71	1234.08
462.083	1248.31
462.456	1248.09
462.829	1288.31
463.201	1300.52
463.574	1281.53
463.947	1341.87
464.32	1382.1
464.692	1375.32
465.065	1408.31
465.438	1418.93
465.81	1453.73
466.183	1464.58
466.555	1445.6
466.928	1503.68
467.3	1524.01
467.672	1525.37
468.045	1564.01
468.417	1605.37
468.789	1604.69
469.161	1620.51
469.534	1688.98
469.906	1691.92
470.278	1725.14
470.65	1778.7
471.022	1766.49
471.394	1825.02
471.766	1808.98
472.138	1875.64
472.51	1919.94
472.882	1964.23
473.253	1989.31
473.625	2035.19
473.997	2056.88
474.369	2102.08
474.74	2129.87
475.112	2232.7
475.484	2252.13
475.855	2306.37
476.227	2369.64
476.598	2442.63
476.97	2443.31
477.341	2545.68
477.713	2586.36
478.084	2626.58
478.455	2715.39
478.827	2787.71
479.198	2861.61
479.569	2956.07
479.94	3050.53
480.311	3072.9
480.682	3196.96
481.053	3282.61
481.424	3368.48
481.795	3482.61
482.166	3534.13
482.537	3622.04
482.908	3713.33
483.279	3857.74
483.65	3925.08
484.021	4054.57
484.391	4146.54
484.762	4237.16
485.133	4317.84
485.503	4437.84
485.874	4556.02
486.244	4658.85
486.615	4803.48
486.985	4912.4
487.356	5009.35
487.726	5145.16
488.097	5307.42
488.467	5347.64
488.837	5544.47
489.207	5666.73
489.578	5806.16
489.948	5925.93
490.318	6077.11
490.688	6238.24
491.058	6322.08
491.428	6477.33
491.798	6542.64
492.168	6758.45
492.538	6829.86
492.908	6968.84
493.278	7131.55
493.648	7230.08
494.017	7316.4
494.387	7449.73
494.757	7603.63
495.126	7833.45
495.496	7847.92
495.866	7984.63
496.235	8106.21
496.605	8228.47
496.974	8351.86
497.344	8429.37
497.713	8557.05
498.082	8696.93
498.452	8789.13
498.821	8920.2
499.19	8957.94
499.559	9162.23
499.928	9223.7
500.298	9256.24
500.667	9461.66
501.036	9486.52
501.405	9630.02
501.774	9642.22
502.143	9790.24
502.512	9858.03
502.88	10005.15
503.249	9932.61
503.618	10109.78
503.987	10159.49
504.356	10302.54
504.724	10353.39
505.093	10418.24
505.462	10479.48
505.83	10575.75
506.199	10646.49
506.567	10813.03
506.936	10795.63
507.304	10946.59
507.672	11013.03
508.041	11093.48
508.409	11123.99
508.777	11256.19
509.145	11334.83
509.514	11379.8
509.882	11436.07
510.25	11415.5
510.618	11470.42
510.986	11479.68
511.354	11656.85
511.722	11711.09
512.09	11844.19
512.458	11769.62
512.826	11912.22
513.193	11979.33
513.561	11833.35
513.929	11991.76
514.297	12123.73
514.664	12162.15
515.032	12147.46
515.4	12298.65
515.767	12260.91
516.135	12373.22
516.502	12226.11
516.869	12423.84
517.237	12450.51
517.604	12389.94
517.972	12528.7
518.339	12627.9
518.706	12587.23
519.073	12556.49
519.44	12651.63
519.808	12743.15
520.175	12639.2
520.542	12752.19
520.909	12816.15
521.276	12798.07
521.643	12827.9
522.009	12899.76
522.376	12934.79
522.743	12984.05
523.11	13049.13
523.477	13067.89
523.843	13127.78
524.21	13241.22
524.577	13290.48
524.943	13214.55
525.31	13242.35
525.676	13320.31
526.043	13416.36
526.409	13386.75
526.776	13451.84
527.142	13439.63
527.508	13358.73
527.874	13399.18
528.241	13583.58
528.607	13468.11
528.973	13492.96
529.339	13447.77
529.705	13558.95
530.071	13575.45
530.437	13602.79
530.803	13592.4
531.169	13629.91
531.535	13555.34
531.901	13560.53
532.267	13605.73
532.632	13491.16
532.998	13585.84
533.364	13572.96
533.73	13558.73
534.095	13575.22
534.461	13544.04
534.826	13589.01
535.192	13522.34
535.557	13579.06
535.923	13508.33
536.288	13462.23
536.653	13538.84
537.019	13447.32
537.384	13439.63
537.749	13466.07
538.114	13465.85
538.479	13313.76
538.845	13328.22
539.21	13334.32
539.575	13277.6
539.94	13191.96
540.305	13257.04
540.67	13218.85
541.034	13170.49
541.399	13243.48
541.764	13208.68
542.129	13239.86
542.494	13045.29
542.858	13079.19
543.223	13053.88
543.587	13096.14
543.952	12935.69
544.316	12890.72
544.681	12895.24
545.045	12888.01
545.41	13015.46
545.774	12832.87
546.138	12743.38
546.503	12750.84
546.867	12708.13
547.231	12738.86
547.595	12687.34
547.959	12693.44
548.324	12618.64
548.688	12621.35
549.052	12579.54
549.416	12601.01
549.779	12526.21
550.143	12495.48
550.507	12497.74
550.871	12501.35
551.235	12401.47
551.599	12500.9
551.962	12386.55
552.326	12429.72
552.689	12472.88
553.053	12390.62
553.417	12272.43
553.78	12369.15
554.143	12304.52
554.507	12234.24
554.87	12232.21
555.234	12309.49
555.597	12184.52
555.96	12218.87
556.323	12137.75
556.686	12152.66
557.05	12242.6
557.413	12221.81
557.776	12192.66
558.139	12172.1
558.502	12137.97
558.865	12132.77
559.228	12181.59
559.59	12155.37
559.953	12120.12
560.316	12230.62
560.679	12113.79
561.041	12204.64
561.404	12206.9
561.767	12303.39
562.129	12099.55
562.492	12255.48
562.854	12198.31
563.217	12105.2
563.579	12171.64
563.941	12199.89
564.304	12248.93
564.666	12141.14
565.028	12189.95
565.39	12256.16
565.753	12241.92
566.115	12258.42
566.477	12281.24
566.839	12251.42
567.201	12312.2
567.563	12305.2
567.925	12326.22
568.287	12363.5
568.648	12314.92
569.01	12353.79
569.372	12421.35
569.734	12365.76
570.095	12490.5
570.457	12387
570.819	12411.41
571.18	12387.46
571.542	12451.18
571.903	12439.43
572.265	12523.72
572.626	12528.02
572.987	12471.3
573.349	12419.77
573.71	12519.66
574.071	12503.61
574.432	12528.92
574.794	12563.5
575.155	12572.99
575.516	12464.06
575.877	12596.72
576.238	12595.36
576.599	12646.43
576.96	12615.47
577.32	12543.16
577.681	12574.12
578.042	12638.3
578.403	12597.39
578.763	12581.12
579.124	12602.82
579.485	12616.38
579.845	12632.65
580.206	12572.76
580.566	12587.9
580.927	12608.47
581.287	12592.88
581.648	12604.4
582.008	12720.1
582.368	12584.51
582.728	12534.12
583.089	12579.54
583.449	12599.43
583.809	12550.62
584.169	12543.38
584.529	12561.92
584.889	12709.26
585.249	12523.95
585.609	12579.32
585.969	12532.99
586.329	12594.68
586.688	12572.31
587.048	12517.17
587.408	12501.58
587.768	12454.12
588.127	12429.04
588.487	12470.39
588.846	12598.07
589.206	12345.88
589.565	12425.87
589.925	12467.23
590.284	12475.59
590.643	12448.47
591.003	12504.29
591.362	12537.74
591.721	12468.81
592.08	12492.09
592.44	12431.52
592.799	12454.57
593.158	12294.13
593.517	12307.01
593.876	12526.44
594.235	12297.97
594.593	12313.79
594.952	12266.1
595.311	12303.17
595.67	12252.77
596.029	12422.03
596.387	12357.85
596.746	12449.38
597.104	12317.63
597.463	12358.98
597.822	12370.28
598.18	12358.76
598.538	12248.48
598.897	12413.9
599.255	12279.89
599.613	12507.45
599.972	12401.69
600.33	12281.47
600.688	12340.9
601.046	12300.91
601.404	12397.4
601.762	12382.71
602.12	12423.16
602.478	12448.25
602.836	12396.72
603.194	12318.76
603.552	12305.88
603.91	12359.66
604.268	12280.57
604.625	12309.94
604.983	12385.42
605.341	12338.19
605.698	12300.91
606.056	12366.44
606.413	12421.35
606.771	12367.57
607.128	12420.45
607.485	12311.75
607.843	12295.48
608.2	12368.02
608.557	12460.22
608.914	12391.3
609.272	12380.23
609.629	12442.14
609.986	12467
610.343	12330.06
610.7	12534.57
611.057	12487.57
611.414	12484.4
611.771	12532.31
612.127	12495.48
612.484	12474.46
612.841	12563.05
613.198	12506.32
613.554	12540.9
613.911	12554.91
614.267	12598.75
614.624	12558.3
614.98	12618.41
615.337	12608.92
615.693	12542.48
616.05	12564.85
616.406	12625.19
616.762	12535.02
617.118	12621.8
617.475	12533.67
617.831	12645.53
618.187	12717.62
618.543	12696.6
618.899	12703.38
619.255	12668.58
619.611	12671.52
619.967	12695.25
620.323	12774.11
620.678	12685.08
621.034	12676.49
621.39	12639.88
621.746	12650.73
622.101	12745.41
622.457	12645.08
622.812	12655.02
623.168	12683.49
623.523	12710.39
623.879	12893.21
624.234	12752.42
624.589	12694.79
624.945	12677.84
625.3	12778.41
625.655	12703.83
626.01	12764.62
626.365	12679.43
626.72	12692.76
627.075	12644.17
627.43	12749.03
627.785	12712.19
628.14	12657.73
628.495	12657.96
628.85	12650.5
629.205	12638.52
629.559	12712.19
629.914	12622.93
630.269	12640.11
630.623	12600.33
630.978	12553.1
631.332	12603.5
631.687	12593.78
632.041	12528.47
632.396	12568.24
632.75	12515.81
633.104	12583.61
633.459	12502.03
633.813	12496.15
634.167	12562.59
634.521	12455.25
634.875	12419.09
635.229	12435.59
635.583	12421.13
635.937	12464.97
636.291	12384.29
636.645	12393.78
636.999	12371.64
637.352	12380
637.706	12333.9
638.06	12331.41
638.413	12281.7
638.767	12270.4
639.121	12323.05
639.474	12204.86
639.828	12264.97
640.181	12184.75
640.534	12230.17
640.888	12171.64
641.241	12090.97
641.594	12144.75
641.947	12241.47
642.301	12225.2
642.654	12212.55
643.007	12314.01
643.36	12209.38
643.713	12153.34
644.066	12220.68
644.419	12100.91
644.771	12075.15
645.124	11993.34
645.477	11915.15
645.83	11882.39
646.182	11761.94
646.535	11768.72
646.888	11835.61
647.24	11698.44
647.593	11817.75
647.945	11764.42
648.298	11732.33
648.65	11639.91
649.002	11707.25
649.355	11729.17
649.707	11684.2
650.059	11731.88
650.411	11915.83
650.763	11860.92
651.115	11957.86
651.467	12019.33
651.819	11996.05
652.171	11961.48
652.523	11924.42
652.875	12016.62
653.227	11931.2
653.578	12006.9
653.93	11968.71
654.282	11942.04
654.633	11982.5
654.985	11979.33
655.337	11886.23
655.688	11873.12
656.039	12015.72
656.391	11859.56
656.742	11968.94
657.094	12006.68
657.445	12023.4
657.796	11968.03
658.147	11946.56
658.498	11954.7
658.849	11977.75
659.2	11909.05
659.551	11959.67
659.902	12033.79
660.253	12038.31
660.604	12003.74
660.955	11980.46
661.306	12020.91
661.656	11988.6
662.007	12022.49
662.358	12041.93
662.708	12047.13
663.059	11981.14
663.409	11928.49
663.76	12002.38
664.11	11991.31
664.461	12004.87
664.811	12046
665.161	12030.4
665.511	12050.97
665.862	12051.87
666.212	12147.24
666.562	12070.63
666.912	12066.79
667.262	12111.53
667.612	12003.51
667.962	12016.17
668.312	11975.26
668.662	12046
669.011	12026.34
669.361	11973.46
669.711	12013
670.06	12027.69
670.41	11960.8
670.76	11860.92
671.109	12038.77
671.459	11907.7
671.808	12065.66
672.157	11996.28
672.507	11934.14
672.856	11971.65
673.205	11915.38
673.554	11955.6
673.904	11839.22
674.253	12052.55
674.602	11950.18
674.951	11715.61
675.3	11714.93
675.649	11868.37
675.998	11834.25
676.346	11780.24
676.695	11902.95
677.044	11753.12
677.393	11824.08
677.741	11834.02
678.09	11815.49
678.438	11812.1
678.787	11787.7
679.135	11793.57
679.484	11748.6
679.832	11662.73
680.181	11654.37
680.529	11653.24
680.877	11748.6
681.225	11616.4
681.573	11703.41
681.922	11566.69
682.27	11602.62
682.618	11556.74
682.966	11468.84
683.314	11611.66
683.661	11464.09
684.009	11482.62
684.357	11398.1
684.705	11373.7
685.053	11386.13
685.4	11441.49
685.748	11321.5
686.095	11331.21
686.443	11351.55
686.79	11256.19
687.138	11302.74
687.485	11262.51
687.832	11279.46
688.18	11234.72
688.527	11170.09
688.874	11155.17
689.221	11121.28
689.568	11079.92
689.915	11105.68
690.262	11112.91
690.609	10992.24
690.956	10995.63
691.303	10987.49
691.65	10891.9
691.997	10829.53
692.344	10792.7
692.69	10759.03
693.037	10766.93
693.383	10666.37
693.73	10682.64
694.077	10610.55
694.423	10726.94
694.769	10553.61
695.116	10528.75
695.462	10472.93
695.808	10465.25
696.155	10454.85
696.501	10296.89
696.847	10395.87
697.193	10324.23
697.539	10354.97
697.885	10216.67
698.231	10242.65
698.577	10203.11
698.923	10214.41
699.269	10054.64
699.614	10088.31
699.96	10101.64
700.306	9964.24
700.651	9951.81
700.997	9889.44
701.342	9950.23
701.688	9910.01
702.033	9872.04
702.379	9824.81
702.724	9864.36
703.069	9867.97
703.415	9668.88
703.76	9696
704.105	9724.48
704.45	9686.51
704.795	9608.55
705.14	9561.77
705.485	9548.66
705.83	9598.83
706.175	9553.86
706.52	9472.96
706.865	9522.67
707.209	9443.58
707.554	9369.68
707.899	9415.56
708.243	9297.59
708.588	9288.78
708.932	9265.96
709.277	9286.52
709.621	9269.35
709.966	9214.21
710.31	9248.33
710.654	9127.66
710.998	9104.61
711.342	9138.73
711.687	9191.61
712.031	9095.57
712.375	9032.97
712.719	9076.13
713.063	9043.14
713.407	9124.72
713.75	9096.24
714.094	8972.86
714.438	8973.76
714.782	9009.69
715.125	8929.02
715.469	8924.72
715.812	8899.41
716.156	8804.05
716.499	8849.24
716.843	8849.47
717.186	8797.72
717.53	8831.84
717.873	8848.57
718.216	8823.26
718.559	8800.66
718.902	8687.22
719.246	8724.73
719.589	8707.33
719.932	8654.9
720.275	8692.19
720.617	8639.53
720.96	8574.45
721.303	8658.29
721.646	8651.51
721.989	8588.01
722.331	8645.18
722.674	8633.66
723.016	8613.09
723.359	8555.02
723.701	8627.56
724.044	8562.25
724.386	8509.14
724.729	8572.19
725.071	8528.58
725.413	8578.07
725.755	8541.23
726.097	8471.85
726.439	8462.36
726.782	8512.08
727.124	8489.71
727.465	8539.42
727.807	8407.67
728.149	8461.01
728.491	8413.55
728.833	8457.84
729.175	8439.99
729.516	8411.74
729.858	8413.55
730.199	8459.42
730.541	8418.3
730.882	8416.04
731.224	8426.88
731.565	8406.54
731.906	8449.48
732.248	8444.51
732.589	8343.72
732.93	8367.22
733.271	8381.69
733.612	8391.18
733.953	8421.23
734.294	8368.13
734.635	8357.28
734.976	8403.83
735.317	8319.09
735.658	8385.3
735.999	8388.01
736.339	8404.96
736.68	8376.71
737.021	8364.29
737.361	8355.7
737.702	8414.45
738.042	8398.41
738.383	8388.01
738.723	8460.1
739.063	8416.71
739.404	8456.03
739.744	8437.96
740.084	8448.35
740.424	8452.42
740.764	8497.62
741.104	8556.82
741.444	8534.45
741.784	8518.86
742.124	8514.34
742.464	8489.25
742.804	8526.32
743.143	8538.74
743.483	8564.51
743.823	8619.65
744.162	8618.29
744.502	8581.46
744.841	8690.6
745.181	8692.64
745.52	8696.71
745.86	8735.58
746.199	8860.54
746.538	8783.94
746.877	8960.2
747.216	8933.31
747.556	9070.26
747.895	9039.52
748.234	8990.71
748.573	9098.28
748.911	9110.25
749.25	9205.39
749.589	9191.83
749.928	9345.5
750.267	9409
750.605	9447.2
750.944	9501.2
751.283	9539.62
751.621	9718.83
751.96	9725.83
752.298	9797.92
752.636	9884.92
752.975	10003.11
753.313	10069.78
753.651	10219.38
753.989	10324.91
754.327	10356.55
754.666	10422.08
755.004	10639.71
755.342	10763.09
755.679	10860.94
756.017	10962.64
756.355	11042.86
756.693	11170.54
757.031	11363.98
757.368	11461.83
757.706	11503.41
758.044	11735.04
758.381	11856.85
758.719	12020.69
759.056	12191.08
759.394	12310.85
759.731	12433.11
760.068	12613.89
760.405	12727.79
760.743	12881.91
761.08	13064.28
761.417	13190.37
761.754	13331.16
762.091	13456.81
762.428	13673.3
762.765	13719.85
763.102	13984.02
763.438	14064.25
763.775	14281.42
764.112	14455.88
764.449	14646.61
764.785	14783.1
765.122	14853.38
765.458	14984.22
765.795	15134.73
766.131	15288.62
766.467	15463.31
766.804	15630.31
767.14	15572.01
767.476	15751.44
767.812	15871.21
768.148	16131.77
768.485	16076.85
768.821	16279.33
769.157	16331.53
769.492	16469.61
769.828	16663.5
770.164	16665.08
770.5	16724.52
770.836	16918.19
771.171	16883.16
771.507	17038.86
771.842	16974.45
772.178	17221.45
772.513	17334.22
772.849	17341.22
773.184	17366.08
773.519	17525.63
773.855	17603.36
774.19	17627.09
774.525	17649.92
774.86	17792.96
775.195	17846.52
775.53	17815.11
775.865	17827.09
776.2	17817.6
776.535	17889.91
776.87	17915.22
777.205	17951.38
777.539	17980.3
777.874	18109.11
778.209	18048.32
778.543	18143.69
778.878	18147.31
779.212	18151.37
779.547	18126.97
779.881	18228.21
780.215	18093.97
780.55	18266.4
780.884	18178.49
781.218	18317.92
781.552	18231.82
781.886	18161.54
782.22	18261.65
782.554	18301.88
782.888	18074.09
783.222	18164.03
783.556	18071.15
783.889	18141.43
784.223	18046.29
784.557	17989.34
784.89	18088.78
785.224	18014.65
785.557	18065.95
785.891	18023.01
786.224	18004.03
786.558	18020.08
786.891	17912.51
787.224	17931.49
787.557	17836.58
787.891	17926.75
788.224	17857.82
788.557	17881.1
788.89	17819.63
789.223	17826.41
789.556	17773.98
789.888	17702.35
790.221	17666.87
790.554	17616.47
790.887	17669.13
791.219	17578.05
791.552	17572.86
791.884	17487.66
792.217	17500.54
792.549	17500.32
792.882	17428.68
793.214	17364.95
793.546	17388
793.879	17209.48
794.211	17213.54
794.543	17400.21
794.875	17211.96
795.207	17336.93
795.539	17174.45
795.871	17260.1
796.203	17058.29
796.535	16996.15
796.867	16961.57
797.198	17025.53
797.53	16996.38
797.862	16822.59
798.193	16884.06
798.525	16743.05
798.856	16800.9
799.188	16678.87
799.519	16636.84
799.85	16489.5
800.182	16703.73
800.513	16562.94
800.844	16394.58
801.175	16578.31
801.506	16556.61
801.837	16463.06
802.168	16399.55
802.499	16369.05
802.83	16389.16
803.161	16274.36
803.491	16263.97
803.822	16183.97
804.153	16160.46
804.483	16166.79
804.814	16049.28
805.145	16037.98
805.475	16036.85
805.805	15901.04
806.136	15957.76
806.466	15897.65
806.796	15902.17
807.126	15716.86
807.457	15791.44
807.787	15815.62
808.117	15664.88
808.447	15661.95
808.777	15712.34
809.107	15694.49
809.436	15590.54
809.766	15537.43
810.096	15428.28
810.426	15414.95
810.755	15500.14
811.085	15478.22
811.414	15423.08
811.744	15263.99
812.073	15301.05
812.403	15202.98
812.732	15308.96
813.061	15160.94
813.39	15110.1
813.719	15079.14
814.049	15124.11
814.378	15097.67
814.707	15062.41
815.036	15035.52
815.365	14890.22
815.693	14827.62
816.022	14874.62
816.351	14813.61
816.68	14736.1
817.008	14845.02
817.337	14765.47
817.665	14658.13
817.994	14777.9
818.322	14637.34
818.651	14653.39
818.979	14602.09
819.307	14649.32
819.636	14605.03
819.964	14556.89
820.292	14608.19
820.62	14651.35
820.948	14532.03
821.276	14527.06
821.604	14461.07
821.932	14529.55
822.259	14520.96
822.587	14461.75
822.915	14469.21
823.243	14494.29
823.57	14476.89
823.898	14477.35
824.225	14413.17
824.553	14465.14
824.88	14537
825.207	14443.9
825.535	14447.52
825.862	14496.78
826.189	14435.99
826.516	14439.83
826.843	14558.47
827.17	14570.22
827.497	14623.1
827.824	14460.62
828.151	14530.45
828.478	14490
828.805	14686.83
829.131	14517.57
829.458	14509.43
829.785	14477.8
830.111	14448.87
830.438	14500.17
830.764	14490
831.09	14479.83
831.417	14407.29
831.743	14553.5
832.069	14544.91
832.395	14453.17
832.722	14522.77
833.048	14470.34
833.374	14414.97
833.7	14414.75
834.026	14420.4
834.351	14423.79
834.677	14322.32
835.003	14397.8
835.329	14358.7
835.654	14320.97
835.98	14250.01
836.306	14366.16
836.631	14309.44
836.956	14346.73
837.282	14384.47
837.607	14197.58
837.932	14264.7
838.258	14303.34
838.583	14154.19
838.908	14114.42
839.233	14146.28
839.558	14092.27
839.883	14042.78
840.208	14081.65
840.533	14063.8
840.858	14119.61
841.182	13935.89
841.507	13981.09
841.832	13946.29
842.156	13899.96
842.481	13927.98
842.805	13859.28
843.13	13848.44
843.454	13798.95
843.778	13771.38
844.103	13721.88
844.427	13718.95
844.751	13754.65
845.075	13637.59
845.399	13599.18
845.723	13592.62
846.047	13557.14
846.371	13386.75
846.695	13421.78
847.019	13321.22
847.343	13294.78
847.666	13228.34
847.99	13148.79
848.313	13110.15
848.637	13054.33
848.96	13053.2
849.284	12980.44
849.607	12932.98
849.931	12847.11
850.254	12781.8
850.577	12697.96
850.9	12673.1
851.223	12663.83
851.546	12563.95
851.869	12553.1
852.192	12591.29
852.515	12461.35
852.838	12354.92
853.161	12325.31
853.483	12326.67
853.806	12331.64
854.129	12304.07
854.451	12195.82
854.774	12218.2
855.096	12080.57
855.419	12067.01
855.741	12060.01
856.063	11883.06
856.385	11924.87
856.708	11930.97
857.03	11830.86
857.352	11946.79
857.674	11872.44
857.996	11848.49
858.318	11766.68
858.64	11694.59
858.961	11669.28
859.283	11670.64
859.605	11640.58
859.926	11584.31
860.248	11648.49
860.57	11578.21
860.891	11572.56
861.212	11489.18
861.534	11462.28
861.855	11425
862.176	11429.74
862.498	11416.41
862.819	11390.65
863.14	11395.62
863.461	11409.4
863.782	11316.75
864.103	11298.22
864.424	11303.64
864.745	11332.12
865.065	11227.04
865.386	11170.77
865.707	11156.3
866.027	11135.51
866.348	11228.17
866.668	11105.23
866.989	11128.05
867.309	11014.61
867.63	11063.42
867.95	11040.83
868.27	11030.2
868.59	11022.97
868.91	11019.81
869.23	10961.51
869.55	10903.2
869.87	10974.84
870.19	10865.69
870.51	10914.5
870.83	10966.93
871.15	10876.54
871.469	10789.08
871.789	10952.69
872.109	10860.27
872.428	10784.56
872.748	10847.38
873.067	10768.52
873.386	10849.64
873.706	10752.47
874.025	10713.83
874.344	10701.63
874.663	10718.35
874.982	10673.83
875.301	10666.82
875.62	10641.51
875.939	10627.5
876.258	10631.8
876.577	10550.89
876.896	10542.99
877.214	10536.88
877.533	10592.48
877.852	10591.8
878.17	10489.88
878.489	10557.45
878.807	10508.64
879.125	10451.46
879.444	10486.72
879.762	10447.39
880.08	10397.23
880.398	10380.05
880.716	10371.46
881.034	10297.79
881.352	10384.35
881.67	10283.11
881.988	10294.4
882.306	10297.34
882.624	10227.29
882.941	10159.72
883.259	10103.68
883.577	10124.92
883.894	10111.58
884.212	10087.18
884.529	10083.11
884.846	10052.83
885.164	9990.91
885.481	9968.54
885.798	10052.38
886.115	9912.72
886.432	9893.06
886.75	9883.57
887.067	9898.71
887.383	9833.17
887.7	9872.49
888.017	9764.47
888.334	9833.4
888.651	9750.24
888.967	9745.72
889.284	9677.02
889.6	9650.81
889.917	9646.51
890.233	9623.69
890.55	9630.92
890.866	9627.76
891.182	9531.03
891.498	9549.11
891.815	9491.04
892.131	9502.79
892.447	9476.8
892.763	9396.12
893.079	9426.4
893.395	9371.72
893.71	9332.17
894.026	9223.47
894.342	9315.9
894.657	9199.74
894.973	9267.31
895.289	9220.53
895.604	9178.95
895.92	9100.76
896.235	9024.61
896.55	9035.45
896.865	9035.23
897.181	9020.09
897.496	8973.54
897.811	8906.42
898.126	8898.51
898.441	8861.9
898.756	8807.89
899.071	8789.36
899.386	8810.83
899.7	8731.73
900.015	8650.38
900.33	8608.12
900.644	8581.46
900.959	8642.7
901.273	8613.09
901.588	8520.21
901.902	8540.55
902.216	8474.11
902.531	8480.44
902.845	8451.29
903.159	8383.95
903.473	8405.19
903.787	8390.5
904.101	8271.18
904.415	8248.58
904.729	8256.72
905.042	8213.78
905.356	8141.47
905.67	8175.36
905.984	8115.48
906.297	8142.37
906.611	8089.72
906.924	8048.59
907.237	8000.68
907.551	7960.45
907.864	7992.32
908.177	7905.09
908.491	7910.29
908.804	7778.54
909.117	7790.52
909.43	7736.51
909.743	7705.55
910.056	7705.09
910.368	7646.79
910.681	7662.61
910.994	7618.77
911.307	7554.59
911.619	7551.2
911.932	7464.87
912.244	7439.56
912.557	7449.06
912.869	7403.18
913.181	7407.02
913.494	7404.99
913.806	7297.65
914.118	7233.24
914.43	7254.26
914.742	7202.51
915.054	7235.5
915.366	7162.06
915.678	7118.67
915.99	7131.1
916.302	7085
916.613	7015.85
916.925	6981.27
917.236	6968.39
917.548	7008.84
917.859	6963.19
918.171	6909.41
918.482	6920.93
918.794	6851.33
919.105	6858.11
919.416	6846.13
919.727	6781.73
920.038	6753.48
920.349	6672.8
920.66	6687.72
920.971	6759.13
921.282	6635.29
921.593	6604.11
921.903	6581.28
922.214	6557.78
922.525	6504.67
922.835	6508.06
923.146	6479.82
923.456	6478.01
923.767	6405.69
924.077	6439.36
924.387	6329.31
924.697	6351.23
925.008	6316.2
925.318	6275.08
925.628	6238.01
925.938	6306.26
926.248	6190.11
926.558	6156.89
926.867	6162.54
927.177	6120.05
927.487	6083.67
927.796	6072.59
928.106	6031.24
928.416	6038.92
928.725	6021.52
929.034	5937
929.344	5962.99
929.653	5948.53
929.962	5920.73
930.271	5909.66
930.581	5859.27
930.89	5816.78
931.199	5781.3
931.508	5862.43
931.817	5805.03
932.125	5747.86
932.434	5734.52
932.743	5710.8
933.051	5635.32
933.36	5709.67
933.669	5661.53
933.977	5590.12
934.286	5581.53
934.594	5572.95
934.902	5567.75
935.21	5531.82
935.519	5477.58
935.827	5506.73
936.135	5450.01
936.443	5403.23
936.751	5360.07
937.059	5372.73
937.367	5375.21
937.674	5351.94
937.982	5356.46
938.29	5293.63
938.597	5292.28
938.905	5234.42
939.213	5233.52
939.52	5218.83
939.827	5183.8
940.135	5171.6
940.442	5116.46
940.749	5101.55
941.056	5127.99
941.363	5031.04
941.67	5058.84
941.977	5002.57
942.284	5015.67
942.591	5023.81
942.898	4983.13
943.205	4977.48
943.511	4965.28
943.818	4910.82
944.125	4873.3
944.431	4884.6
944.738	4866.52
945.044	4840.08
945.35	4785.17
945.657	4779.75
945.963	4744.49
946.269	4770.48
946.575	4698.39
946.881	4709.69
947.187	4658.85
947.493	4641.9
947.799	4640.32
948.105	4626.53
948.41	4586.98
948.716	4552.63
949.022	4543.82
949.327	4570.71
949.633	4536.14
949.938	4459.53
950.244	4477.61
950.549	4448.91
950.854	4465.86
951.16	4441
951.465	4438.51
951.77	4426.54
952.075	4347.22
952.38	4378.4
952.685	4296.37
952.99	4265.64
953.294	4301.57
953.599	4280.33
953.904	4227.9
954.209	4242.36
954.513	4229.93
954.818	4226.77
955.122	4183.83
955.426	4147.9
955.731	4157.84
956.035	4124.4
956.339	4070.39
956.643	4125.08
956.948	4043.95
957.252	4038.98
957.556	4049.37
957.86	4032.65
958.163	4025.87
958.467	3982.93
958.771	3965.98
959.075	3937.74
959.378	3918.3
959.682	3932.54
959.985	3907.91
960.289	3887.79
960.592	3857.51
960.896	3871.3
961.199	3852.99
961.502	3857.06
961.805	3830.85
962.108	3763.05
962.411	3771.64
962.714	3685.31
963.017	3694.35
963.32	3760.79
963.623	3702.26
963.926	3716.95
964.228	3669.95
964.531	3627.69
964.833	3656.61
965.136	3615.94
965.438	3630.17
965.741	3562.6
966.043	3582.49
966.345	3586.56
966.648	3558.54
966.95	3528.48
967.252	3533.68
967.554	3507.46
967.856	3486.67
968.158	3484.41
968.46	3467.92
968.761	3467.69
969.063	3443.74
969.365	3406.68
969.666	3433.34
969.968	3403.06
970.269	3395.6
970.571	3374.59
970.872	3344.3
971.174	3330.75
971.475	3366.68
971.776	3271.76
972.077	3316.96
972.378	3248.94
972.679	3292.78
972.98	3222.5
973.281	3214.59
973.582	3220.69
973.883	3234.48
974.183	3175.27
974.484	3156.06
974.785	3146.34
975.085	3136.17
975.386	3106.12
975.686	3135.5
975.986	3128.49
976.287	3087.14
976.587	3058.66
976.887	3067.93
977.187	3059.57
977.487	3012.11
977.787	2975.27
978.087	3004.2
978.387	2984.77
978.687	3028.15
978.987	2985.22
979.286	2977.08
979.586	2915.39
979.885	2918.1
980.185	2895.73
980.484	2893.47
980.784	2887.37
981.083	2909.97
981.382	2877.88
981.682	2850.53
981.981	2859.57
982.28	2815.05
982.579	2797.43
982.878	2787.03
983.177	2798.33
983.475	2802.85
983.774	2773.92
984.073	2731.44
984.372	2734.6
984.67	2723.98
984.969	2707.71
985.267	2696.19
985.566	2690.31
985.864	2679.01
986.162	2649.41
986.461	2671.1
986.759	2641.5
987.057	2605.57
987.355	2593.14
987.653	2608.28
987.951	2590.2
988.249	2596.53
988.547	2621.39
988.844	2555.62
989.142	2554.95
989.44	2536.42
989.737	2535.29
990.035	2509.52
990.332	2517.21
990.63	2520.37
990.927	2472.46
991.224	2439.24
991.521	2432.01
991.819	2443.09
992.116	2439.7
992.413	2419.36
992.71	2405.8
993.006	2436.98
993.303	2403.31
993.6	2367.61
993.897	2399.02
994.193	2349.3
994.49	2346.36
994.787	2358.34
995.083	2317.44
995.379	2303.2
995.676	2329.19
995.972	2265.01
996.268	2281.28
996.565	2263.88
996.861	2248.51
997.157	2246.48
997.453	2231.57
997.749	2227.72
998.044	2171.23
998.34	2180.49
998.636	2178.69
998.932	2179.59
999.227	2132.81
999.523	2162.41
999.818	2166.26
1000.114	2140.49
1000.409	2117.22
1000.704	2094.85
1001	2119.03
1001.295	2122.19
1001.59	2092.13
1001.885	2080.84
1002.18	2071.34
1002.475	2046.26
1002.77	1996.32
1003.065	1978.69
1003.359	2012.59
1003.654	1991.57
1003.949	1953.38
1004.243	1974.4
1004.538	1977.34
1004.832	1944.57
1005.127	1950.67
1005.421	1924.91
1005.715	1924
1006.009	1925.13
1006.304	1902.31
1006.598	1886.72
1006.892	1852.82
1007.186	1859.15
1007.48	1852.59
1007.773	1821.18
1008.067	1829.32
1008.361	1827.73
1008.655	1804.68
1008.948	1814.63
1009.242	1799.03
1009.535	1793.61
1009.829	1773.5
1010.122	1759.94
1010.415	1758.36
1010.708	1750.9
1011.001	1744.12
1011.295	1704.8
1011.588	1703.44
1011.881	1704.57
1012.173	1672.71
1012.466	1680.39
1012.759	1662.09
1013.052	1641.98
1013.344	1688.76
1013.637	1653.28
1013.93	1604.46
1014.222	1606.5
1014.514	1611.47
1014.807	1606.95
1015.099	1623.45
1015.391	1614.86
1015.683	1617.57
1015.976	1596.78
1016.268	1563.56
1016.56	1553.39
1016.851	1540.06
1017.143	1495.77
1017.435	1532.37
1017.727	1503.22
1018.018	1523.34
1018.31	1490.57
1018.602	1476.33
1018.893	1475.88
1019.185	1462.32
1019.476	1470.46
1019.767	1477.01
1020.058	1420.06
1020.35	1460.96
1020.641	1394.07
1020.932	1438.59
1021.223	1409.21
1021.514	1376.67
1021.804	1397.92
1022.095	1359.5
1022.386	1373.28
1022.677	1368.54
1022.967	1358.37
1023.258	1364.02
1023.548	1331.25
1023.839	1338.26
1024.129	1323.34
1024.419	1305.04
1024.709	1288.54
1025	1292.16
1025.29	1294.64
1025.58	1289.44
1025.87	1273.85
1026.16	1256
1026.449	1232.04
1026.739	1253.51
1027.029	1270.91
1027.319	1225.49
1027.608	1212.16
1027.898	1234.76
1028.187	1186.62
1028.477	1211.48
1028.766	1161.09
1029.055	1168.54
1029.344	1199.95
1029.634	1176.45
1029.923	1157.47
1030.212	1166.06
1030.501	1160.41
1030.79	1116.57
1031.078	1124.25
1031.367	1093.06
1031.656	1140.97
1031.945	1145.04
1032.233	1097.36
1032.522	1108.21
1032.81	1093.06
1033.099	1080.86
1033.387	1086.74
1033.675	1058.94
1033.963	1048.09
1034.251	1034.31
1034.54	1049.22
1034.828	1051.71
1035.116	1043.8
1035.403	1047.42
1035.691	1009.68
1035.979	1026.17
1036.267	1007.42
1036.554	966.51
1036.842	968.55
1037.129	987.08
1037.417	996.12
1037.704	965.61
1037.992	960.19
1038.279	994.08
1038.566	949.57
1038.853	949.57
1039.14	949.57
