Data from hue_36_FLMS001491_00094.txt Node
Date: Tue Feb 07 17:30:32 GMT 2017
User: dcchb
Spectrometer: FLMS00149
Trigger mode: 0
Integration Time (sec): 2.000000E-2
Scans to average: 10
Electric dark correction enabled: true
Nonlinearity correction enabled: false
Boxcar width: 0
XAxis mode: Wavelengths
Number of Pixels in Spectrum: 2048
>>>>>Begin Spectral Data<<<<<
341.393	-6.91
341.776	-6.91
342.16	-6.91
342.543	-60.01
342.927	-65.89
343.31	-64.08
343.693	-65.21
344.077	-72.44
344.46	-56.62
344.843	-61.82
345.226	-29.5
345.61	-49.62
345.993	-22.05
346.376	-5.32
346.759	20.89
347.142	14.34
347.525	37.84
347.908	62.7
348.291	89.14
348.674	81.45
349.057	120.32
349.44	112.64
349.823	149.02
350.206	159.64
350.588	198.06
350.971	218.85
351.354	248.23
351.737	229.47
352.119	252.75
352.502	257.72
352.884	283.48
353.267	285.29
353.65	310.83
354.032	275.8
354.414	291.84
354.797	316.47
355.179	323.03
355.562	334.55
355.944	336.36
356.326	328.68
356.709	331.39
357.091	331.39
357.473	351.73
357.855	338.4
358.238	343.14
358.62	346.98
359.002	325.74
359.384	379.75
359.766	330.71
360.148	341.33
360.53	340.2
360.912	341.56
361.294	336.36
361.676	312.18
362.057	342.24
362.439	335.68
362.821	335.46
363.203	316.02
363.584	324.16
363.966	325.06
364.348	310.37
364.729	323.25
365.111	314.44
365.493	298.17
365.874	327.55
366.256	328.23
366.637	328.9
367.019	340.43
367.4	311.28
367.781	320.77
368.163	313.99
368.544	318.28
368.925	302.01
369.306	337.49
369.688	317.15
370.069	310.83
370.45	305.18
370.831	313.76
371.212	326.42
371.593	309.02
371.974	318.28
372.355	345.63
372.736	312.41
373.117	328.9
373.498	301.11
373.879	332.07
374.26	316.02
374.641	341.78
375.021	318.96
375.402	330.03
375.783	338.17
376.163	325.29
376.544	337.72
376.925	338.62
377.305	336.81
377.686	304.95
378.066	320.54
378.447	332.75
378.827	336.36
379.208	324.61
379.588	310.15
379.968	331.39
380.349	326.64
380.729	348.56
381.109	309.7
381.489	339.52
381.87	337.27
382.25	335.01
382.63	316.47
383.01	358.28
383.39	341.56
383.77	324.84
384.15	339.75
384.53	359.64
384.91	349.69
385.29	347.89
385.67	343.59
386.049	352.63
386.429	332.52
386.809	360.54
387.189	348.11
387.568	363.25
387.948	336.14
388.328	351.5
388.707	346.3
389.087	344.72
389.466	359.64
389.846	367.55
390.225	370.48
390.605	354.21
390.984	373.65
391.363	371.16
391.743	368
392.122	377.94
392.501	353.76
392.881	381.78
393.26	375.91
393.639	374.55
394.018	385.17
394.397	375.23
394.776	379.98
395.155	378.39
395.534	383.59
395.913	394.44
396.292	386.76
396.671	362.12
397.05	386.08
397.429	383.59
397.808	379.98
398.186	381.78
398.565	386.3
398.944	382.24
399.323	393.76
399.701	401.44
400.08	394.21
400.458	379.75
400.837	405.06
401.215	395.12
401.594	407.32
401.972	404.83
402.351	391.95
402.729	392.4
403.107	384.95
403.486	403.03
403.864	395.57
404.242	433.31
404.62	440.77
404.999	410.48
405.377	402.35
405.755	429.69
406.133	422.69
406.511	405.06
406.889	431.95
407.267	420.2
407.645	447.54
408.023	421.78
408.401	452.06
408.779	456.81
409.156	431.95
409.534	428.79
409.912	449.58
410.29	453.42
410.667	437.83
411.045	453.65
411.422	445.06
411.8	466.53
412.178	454.55
412.555	466.75
412.933	462.46
413.31	444.15
413.687	448
414.065	492.29
414.442	454.1
414.819	476.24
415.197	473.53
415.574	477.37
415.951	487.54
416.328	475.57
416.705	490.03
417.082	477.83
417.46	485.06
417.837	499.52
418.214	488.45
418.591	508.56
418.967	506.98
419.344	508.79
419.721	531.16
420.098	497.26
420.475	520.09
420.852	497.03
421.228	525.51
421.605	508.33
421.982	525.28
422.358	506.53
422.735	527.77
423.111	546.53
423.488	545.17
423.864	536.58
424.241	538.16
424.617	536.13
424.994	541.33
425.37	547.88
425.746	542.68
426.123	563.93
426.499	564.6
426.875	578.39
427.251	560.08
427.627	567.99
428.003	596.92
428.379	564.15
428.756	576.58
429.132	570.48
429.507	608.44
429.883	584.72
430.259	604.38
430.635	592.4
431.011	610.93
431.387	603.7
431.763	634.21
432.138	607.54
432.514	635.56
432.89	631.27
433.265	662.23
433.641	648.67
434.016	667.2
434.392	647.09
434.767	658.39
435.143	680.53
435.518	667.65
435.894	665.84
436.269	680.08
436.644	670.59
437.02	695.45
437.395	704.71
437.77	690.93
438.145	664.26
438.52	714.43
438.895	717.82
439.271	715.79
439.646	733.64
440.021	721.89
440.395	746.29
440.77	734.99
441.145	722.34
441.52	750.59
441.895	770.02
442.27	768.44
442.645	745.84
443.019	759.4
443.394	749.91
443.769	781.55
444.143	771.15
444.518	785.39
444.892	785.16
445.267	793.75
445.641	783.81
446.016	769.57
446.39	774.99
446.764	756.24
447.139	784.26
447.513	801.66
447.887	799.63
448.262	829.23
448.636	805.05
449.01	826.97
449.384	836.46
449.758	819.06
450.132	841.21
450.506	844.14
450.88	833.52
451.254	835.33
451.628	862.22
452.002	854.09
452.376	877.14
452.75	904.03
453.123	879.4
453.497	885.27
453.871	882.79
454.244	915.33
454.618	894.54
454.992	923.24
455.365	909
455.739	967.53
456.112	953.52
456.486	950.58
456.859	969.56
457.232	996.23
457.606	981.54
457.979	975.21
458.352	1007.98
458.725	1025.38
459.099	1010.02
459.472	1027.19
459.845	1043.01
460.218	1056.34
460.591	1072.61
460.964	1083.01
461.337	1124.36
461.71	1119.84
462.083	1127.07
462.456	1114.19
462.829	1140.41
463.201	1165.27
463.574	1148.77
463.947	1181.99
464.32	1176.79
464.692	1187.19
465.065	1198.26
465.438	1199.16
465.81	1253.4
466.183	1261.08
466.555	1319.61
466.928	1300.63
467.3	1305.15
467.672	1345.15
468.045	1354.87
468.417	1385.37
468.789	1367.29
469.161	1393.96
469.534	1418.37
469.906	1478.03
470.278	1477.12
470.65	1459.5
471.022	1507.86
471.394	1536.78
471.766	1554.41
472.138	1588.98
472.51	1617.68
472.882	1643.67
473.253	1674.86
473.625	1695.42
473.997	1725.7
474.369	1773.39
474.74	1790.33
475.112	1812.48
475.484	1878.92
475.855	1894.74
476.227	1934.74
476.598	1982.42
476.97	2003.89
477.341	2078.69
477.713	2079.82
478.084	2119.59
478.455	2255.18
478.827	2252.92
479.198	2354.61
479.569	2344.67
479.94	2446.81
480.311	2508.96
480.682	2533.59
481.053	2663.98
481.424	2723.87
481.795	2745.11
482.166	2827.14
482.537	2893.81
482.908	2959.8
483.279	3002.28
483.65	3145.33
484.021	3191.2
484.391	3223.52
484.762	3285.66
485.133	3418.31
485.503	3474.81
485.874	3585.54
486.244	3635.03
486.615	3778.53
486.985	3883.16
487.356	3959.99
487.726	3974.46
488.097	4095.13
488.467	4228.24
488.837	4290.83
489.207	4390.49
489.578	4469.59
489.948	4560.66
490.318	4697.6
490.688	4789.35
491.058	4869.35
491.428	4971.27
491.798	5042.68
492.168	5184.37
492.538	5220.3
492.908	5336.91
493.278	5446.74
493.648	5475.44
494.017	5629.78
494.387	5760.4
494.757	5771.47
495.126	5885.14
495.496	5963.56
495.866	6038.36
496.235	6130.79
496.605	6222.76
496.974	6331.91
497.344	6411.68
497.713	6538.46
498.082	6652.81
498.452	6716.76
498.821	6752.01
499.19	6801.05
499.559	6893.48
499.928	6949.52
500.298	7064.09
500.667	7134.15
501.036	7202.85
501.405	7296.63
501.774	7378.89
502.143	7460.92
502.512	7444.65
502.88	7548.15
503.249	7628.15
503.618	7727.35
503.987	7762.15
504.356	7793.79
504.724	7952.43
505.093	7969.15
505.462	8016.61
505.83	8048.7
506.199	8190.84
506.567	8290.73
506.936	8291.41
507.304	8429.48
507.672	8470.16
508.041	8556.48
508.409	8557.39
508.777	8688.23
509.145	8746.99
509.514	8779.53
509.882	8840.54
510.25	8856.14
510.618	8976.13
510.986	9047.09
511.354	9102.91
511.722	9202.57
512.09	9238.27
512.458	9188.56
512.826	9359.63
513.193	9453.18
513.561	9415.67
513.929	9525.05
514.297	9617.47
514.664	9663.57
515.032	9713.52
515.4	9779.5
515.767	9883
516.135	9918.93
516.502	9821.08
516.869	10028.76
517.237	10032.83
517.604	10078.48
517.972	10153.73
518.339	10253.84
518.706	10262.2
519.073	10282.99
519.44	10392.37
519.808	10438.02
520.175	10440.28
520.542	10522.76
520.909	10614.96
521.276	10669.2
521.643	10756.43
522.009	10865.58
522.376	10864.45
522.743	10918.68
523.11	11112.8
523.477	11141.05
523.843	11239.58
524.21	11267.15
524.577	11294.94
524.943	11372.91
525.31	11388.95
525.676	11569.96
526.043	11625.1
526.409	11615.84
526.776	11762.05
527.142	11788.49
527.508	11894.93
527.874	11922.27
528.241	12042.95
528.607	12036.84
528.973	12271.87
529.339	12174.69
529.705	12331.75
530.071	12414.24
530.437	12380.11
530.803	12533.33
531.169	12546.44
531.535	12592.99
531.901	12672.08
532.267	12714.34
532.632	12744.17
532.998	12848.8
533.364	12924.5
533.73	12959.76
534.095	13081.11
534.461	13040.43
534.826	13148.45
535.192	13164.95
535.557	13354.32
535.923	13301.9
536.288	13281.33
536.653	13449.91
537.019	13421.21
537.384	13495.79
537.749	13584.83
538.114	13584.15
538.479	13585.28
538.845	13679.97
539.21	13682.9
539.575	13763.58
539.94	13811.94
540.305	13791.37
540.67	13850.58
541.034	13959.28
541.399	13953.86
541.764	13996.79
542.129	14141.87
542.494	14240.63
542.858	14263.23
543.223	14292.6
543.587	14326.5
543.952	14411.47
544.316	14390.68
544.681	14436.33
545.045	14555.87
545.41	14655.53
545.774	14688.07
546.138	14691.24
546.503	14747.51
546.867	14686.72
547.231	14840.39
547.595	14866.6
547.959	14912.48
548.324	15034.51
548.688	15074.96
549.052	15115.41
549.416	15136.42
549.779	15191.56
550.143	15253.71
550.507	15341.62
550.871	15416.19
551.235	15352.01
551.599	15493.25
551.962	15569.63
552.326	15522.18
552.689	15691.66
553.053	15570.31
553.417	15596.75
553.78	15819.12
554.143	15736.18
554.507	15913.8
554.87	15890.98
555.234	16083.97
555.597	16039.45
555.96	16088.72
556.323	16197.19
556.686	16187.47
557.05	16245.32
557.413	16342.27
557.776	16382.27
558.139	16374.58
558.502	16544.07
558.865	16541.36
559.228	16566.44
559.59	16646.44
559.953	16637.85
560.316	16914
560.679	16802.14
561.041	16982.25
561.404	16957.17
561.767	17133.43
562.129	17096.82
562.492	17410.71
562.854	17257.72
563.217	17215.92
563.579	17342.69
563.941	17488.45
564.304	17594.21
564.666	17644.83
565.028	17574.78
565.39	17688
565.753	17862
566.115	17860.65
566.477	17881.21
566.839	17890.48
567.201	18032.17
567.563	18058.83
567.925	18152.39
568.287	18178.38
568.648	18251.82
569.01	18384.47
569.372	18508.99
569.734	18429.22
570.095	18588.54
570.457	18588.99
570.819	18598.25
571.18	18731.81
571.542	18900.84
571.903	18942.88
572.265	19078.69
572.626	19165.7
572.987	19231.01
573.349	19257.9
573.71	19270.55
574.071	19525.01
574.432	19459.93
574.794	19701.05
575.155	19614.5
575.516	19688.85
575.877	19948.5
576.238	20007.26
576.599	20138.55
576.96	20232.79
577.32	20260.36
577.681	20502.61
578.042	20513.46
578.403	20673.23
578.763	20775.37
579.124	20929.94
579.485	21145.08
579.845	21284.51
580.206	21340.55
580.566	21378.75
580.927	21644.28
581.287	21805.18
581.648	21890.82
582.008	22160.42
582.368	22237.93
582.728	22376.46
583.089	22528.55
583.449	22738.94
583.809	22925.6
584.169	23124.24
584.529	23182.09
584.889	23594.73
585.249	23540.5
585.609	23805.57
585.969	24058.45
586.329	24234.49
586.688	24511.09
587.048	24629.06
587.408	24970.97
587.768	25051.64
588.127	25319.21
588.487	25579.31
588.846	25756.94
589.206	25836.03
589.565	26125.74
589.925	26405.05
590.284	26563.02
590.643	26850.92
591.003	27139.72
591.362	27479.15
591.721	27530
592.08	27800.27
592.44	28153.48
592.799	28250.2
593.158	28483.64
593.517	28739.23
593.876	28987.13
594.235	29251.31
594.593	29397.97
594.952	29632.77
595.311	29836.15
595.67	30026.2
596.029	30395.91
596.387	30647.2
596.746	30877.03
597.104	30855.78
597.463	31147.53
597.822	31473.85
598.18	31606.5
598.538	31760.62
598.897	32022.31
599.255	31970.56
599.613	32635.17
599.972	32681.73
600.33	32849.18
600.688	32894.6
601.046	33260.92
601.404	33541.59
601.762	33640.8
602.12	34013.67
602.478	34189.03
602.836	34343.15
603.194	34316.71
603.552	34574.78
603.91	34679.41
604.268	34877.37
604.625	34960.99
604.983	35119.63
605.341	35259.96
605.698	35498.83
606.056	35730.46
606.413	35987.4
606.771	36044.8
607.128	36246.83
607.485	36222.2
607.843	36388.07
608.2	36692.24
608.557	36948.96
608.914	36937.88
609.272	37251.32
609.629	37351.66
609.986	37556.17
610.343	37499.68
610.7	37894.02
611.057	37886.56
611.414	38052.88
611.771	38178.3
612.127	38391.41
612.484	38402.25
612.841	38806.99
613.198	38828.46
613.554	38819.64
613.911	39115
614.267	39217.6
614.624	39184.38
614.98	39235.68
615.337	39538.49
615.693	39630.7
616.05	39586.85
616.406	40023.23
616.762	39769.45
617.118	39875.43
617.475	39998.37
617.831	40155.2
618.187	40252.6
618.543	40364.46
618.899	40561.97
619.255	40662.76
619.611	40568.3
619.967	40678.58
620.323	40866.59
620.678	40811.46
621.034	40807.84
621.39	41053.03
621.746	40880.38
622.101	41425.68
622.457	41262.52
622.812	41252.57
623.168	41462.74
623.523	41519.01
623.879	41640.36
624.234	41534.37
624.589	41742.5
624.945	41780.7
625.3	41789.06
625.655	41781.15
626.01	41944.76
626.365	41935.49
626.72	41926
627.075	42009.84
627.43	41954.48
627.785	41958.09
628.14	42189.5
628.495	42085.09
628.85	42177.75
629.205	41971.42
629.559	42310.85
629.914	42034.47
630.269	42170.74
630.623	42062.27
630.978	42157.41
631.332	42314.92
631.687	42290.74
632.041	42072.21
632.396	42257.07
632.75	42039.22
633.104	42250.29
633.459	42108.37
633.813	42055.26
634.167	42140.23
634.521	42087.13
634.875	42208.03
635.229	42097.75
635.583	42067.02
635.937	42017.98
636.291	42076.05
636.645	42211.19
636.999	42057.3
637.352	42189.27
637.706	42066.56
638.06	42275.37
638.413	42075.15
638.767	41995.15
639.121	42051.65
639.474	41754.93
639.828	41936.17
640.181	41978.43
640.534	41878.32
640.888	41836.96
641.241	41707.25
641.594	41919.9
641.947	41859.34
642.301	41835.61
642.654	41835.61
643.007	41883.07
643.36	41844.42
643.713	41788.83
644.066	41942.27
644.419	41667.93
644.771	41436.07
645.124	41023.2
645.477	41073.6
645.83	40734.4
646.182	40710.44
646.535	40585.92
646.888	40716.99
647.24	40580.27
647.593	40738.01
647.945	40560.61
648.298	40448.07
648.65	40400.84
649.002	40333.73
649.355	40408.3
649.707	40485.36
650.059	40645.13
650.411	41106.36
650.763	41161.5
651.115	41450.31
651.467	41321.95
651.819	41290.09
652.171	41326.02
652.523	41211.22
652.875	41223.42
653.227	41058.68
653.578	41316.98
653.93	41207.83
654.282	41025.69
654.633	40884
654.985	40958.8
655.337	41001.51
655.688	41122.41
656.039	41162.41
656.391	40952.02
656.742	40936.2
657.094	41057.78
657.445	41143.2
657.796	40996.76
658.147	41059.36
658.498	40960.6
658.849	41102.29
659.2	41036.53
659.551	40883.09
659.902	41018.91
660.253	40937.55
660.604	40899.36
660.955	40824.79
661.306	41077.66
661.656	40838.35
662.007	40987.72
662.358	40844
662.708	40920.83
663.059	40945.46
663.409	40625.92
663.76	40940.04
664.11	40924.22
664.461	40848.97
664.811	40969.87
665.161	40922.19
665.511	40595.87
665.862	40890.32
666.212	40854.39
666.562	40874.05
666.912	40772.81
667.262	40786.82
667.612	40689.65
667.962	40884.22
668.312	40750.44
668.662	40945.91
669.011	40819.59
669.361	40651.01
669.711	40749.76
670.06	40609.43
670.41	40558.58
670.76	40523.78
671.109	40672.48
671.459	40637.67
671.808	40461.63
672.157	40573.5
672.507	40376.66
672.856	40562.65
673.205	40420.5
673.554	40469.77
673.904	40431.8
674.253	40699.14
674.602	40535.76
674.951	40000.4
675.3	39652.16
675.649	40361.98
675.998	40325.37
676.346	40426.38
676.695	40478.81
677.044	40251.92
677.393	40282.66
677.741	40371.69
678.09	40195.65
678.438	40128.54
678.787	40227.29
679.135	40293.95
679.484	39933.06
679.832	40174.64
680.181	39917.24
680.529	39960.18
680.877	39934.42
681.225	39831.59
681.573	40098.93
681.922	39835.89
682.27	39616.91
682.618	39706.17
682.966	39742.78
683.314	39599.06
683.661	39583.01
684.009	39434.77
684.357	39308.9
684.705	39203.14
685.053	39407.2
685.4	39241.33
685.748	39011.5
686.095	39127.43
686.443	38997.94
686.79	39043.59
687.138	39010.15
687.485	39068
687.832	38949.58
688.18	38930.37
688.527	38756.14
688.874	38722.7
689.221	38486.54
689.568	38532.65
689.915	38562.02
690.262	38519.54
690.609	38304.4
690.956	38289.71
691.303	38137.85
691.65	37886.56
691.997	38169.72
692.344	37862.61
692.69	37706
693.037	37696.73
693.383	37496.29
693.73	37508.04
694.077	37347.82
694.423	37307.37
694.769	37229.85
695.116	37164.09
695.462	37160.48
695.808	37015.62
696.155	37143.3
696.501	36793.93
696.847	36817.89
697.193	36677.1
697.539	36695.18
697.885	36492.92
698.231	36307.62
698.577	36472.81
698.923	36327.28
699.269	36023.56
699.614	35922.32
699.96	36007.97
700.306	35943.56
700.651	35805.71
700.997	35690.01
701.342	35675.32
701.688	35726.39
702.033	35518.04
702.379	35507.87
702.724	35398.04
703.069	35418.15
703.415	34911.5
703.76	35081.89
704.105	35018.61
704.45	35035.56
704.795	34711.5
705.14	34784.27
705.485	34679.19
705.83	34511.28
706.175	34686.42
706.52	34535.69
706.865	34358.07
707.209	34249.82
707.554	34183.15
707.899	34228.13
708.243	33987.23
708.588	33978.41
708.932	33821.13
709.277	33906.55
709.621	33803.05
709.966	33628.14
710.31	33734.81
710.654	33425.43
710.998	33481.7
711.342	33522.38
711.687	33349.5
712.031	33315.38
712.375	33161.71
712.719	33319.45
713.063	33137.31
713.407	33154.26
713.75	33010.76
714.094	33011.66
714.438	32982.06
714.782	32796.75
715.125	32794.04
715.469	32703.87
715.812	32563.08
716.156	32412.58
716.499	32478.34
716.843	32552.92
717.186	32329.87
717.53	32405.8
717.873	32514.72
718.216	32296.65
718.559	32036.09
718.902	31900.05
719.246	32176.2
719.589	31906.38
719.932	31801.52
720.275	31818.92
720.617	31763.11
720.96	31786.38
721.303	31737.34
721.646	31713.39
721.989	31640.17
722.331	31691.92
722.674	31461.87
723.016	31502.1
723.359	31372.16
723.701	31485.15
724.044	31245.6
724.386	31178.94
724.729	31225.27
725.071	31239.5
725.413	31192.05
725.755	31184.82
726.097	30882.22
726.439	30760.19
726.782	31032.05
727.124	30922.45
727.465	30794.09
727.807	30829.57
728.149	30740.31
728.491	30692.17
728.833	30648.78
729.175	30594.77
729.516	30503.7
729.858	30465.74
730.199	30472.07
730.541	30419.19
730.882	30334.22
731.224	30443.59
731.565	30104.62
731.906	30177.38
732.248	30308.68
732.589	30063.04
732.93	29974.68
733.271	30072.08
733.612	29999.31
733.953	30066.2
734.294	29855.81
734.635	29865.3
734.976	29983.27
735.317	29765.87
735.658	29691.75
735.999	29676.15
736.339	29658.3
736.68	29644.74
737.021	29618.08
737.361	29442.26
737.702	29619.66
738.042	29544.86
738.383	29360.46
738.723	29534.01
739.063	29349.16
739.404	29435.94
739.744	29338.08
740.084	29189.61
740.424	29310.06
740.764	29244.08
741.104	29284.98
741.444	29094.48
741.784	29040.69
742.124	29055.15
742.464	28984.2
742.804	28924.31
743.143	28866.46
743.483	28919.56
743.823	28754.82
744.162	28565
744.502	28741.49
744.841	28585.79
745.181	28596.41
745.52	28585.79
745.86	28663.98
746.199	28463.08
746.538	28524.77
746.877	28611.1
747.216	28396.19
747.556	28337.21
747.895	28396.64
748.234	28252.24
748.573	28189.41
748.911	28195.29
749.25	28075.07
749.589	28115.07
749.928	28056.99
750.267	27998.01
750.605	28012.92
750.944	27827.39
751.283	27753.27
751.621	27901.51
751.96	27649.77
752.298	27754.17
752.636	27741.29
752.975	27481.86
753.313	27437.8
753.651	27656.55
753.989	27325.71
754.327	27407.06
754.666	27331.13
755.004	27323.45
755.342	27303.34
755.679	27297.91
756.017	27127.75
756.355	27215.2
756.693	27009.33
757.031	27034.87
757.368	26876.45
757.706	26841.88
758.044	26699.28
758.381	26836.68
758.719	26648.44
759.056	26638.49
759.394	26535.67
759.731	26377.03
760.068	26426.07
760.405	26444.6
760.743	26194.89
761.08	26236.7
761.417	26050.04
761.754	26017.27
762.091	25952.18
762.428	26003.71
762.765	25693.43
763.102	25823.6
763.438	25656.15
763.775	25614.11
764.112	25556.49
764.449	25484.17
764.785	25513.55
765.122	25290.73
765.458	25291.19
765.795	25203.28
766.131	25228.59
766.467	25017.29
766.804	24801.48
767.14	24800.35
767.476	24856.62
767.812	24671.99
768.148	24683.97
768.485	24567.81
768.821	24378.89
769.157	24427.71
769.492	24318.56
769.828	24312.23
770.164	24045.12
770.5	24026.59
770.836	24007.38
771.171	23895.06
771.507	23786.82
771.842	23500.5
772.178	23584.11
772.513	23516.09
772.849	23515.64
773.184	23366.26
773.519	23389.77
773.855	23334.85
774.19	23128.3
774.525	23067.97
774.86	23074.29
775.195	23044.92
775.53	22855.09
775.865	22730.12
776.2	22666.17
776.535	22487.87
776.87	22538.26
777.205	22445.61
777.539	22356.12
777.874	22398.38
778.209	22132.4
778.543	22025.51
778.878	21955.68
779.212	22005.85
779.547	21814.89
779.881	21888.11
780.215	21714.78
780.55	21775.57
780.884	21576.48
781.218	21466.88
781.552	21543.94
781.886	21262.14
782.22	21307.56
782.554	21261.46
782.888	20981.47
783.222	20901.24
783.556	20915.03
783.889	20814.01
784.223	20690.63
784.557	20600.01
784.89	20718.2
785.224	20515.72
785.557	20498.32
785.891	20458.77
786.224	20322.28
786.558	20314.37
786.891	20177.87
787.224	20061.04
787.557	20019.23
787.891	20021.04
788.224	19991.89
788.557	19902.4
788.89	19896.07
789.223	19867.15
789.556	19701.73
789.888	19666.25
790.221	19560.49
790.554	19415.41
790.887	19471.23
791.219	19318.46
791.552	19329.53
791.884	19102.2
792.217	19178.13
792.549	19072.37
792.882	18916.89
793.214	18841.86
793.546	18865.37
793.879	18713.05
794.211	18667.63
794.543	18755.54
794.875	18639.38
795.207	18654.3
795.539	18585.15
795.871	18510.35
796.203	18377.47
796.535	18238.94
796.867	18306.74
797.198	18179.51
797.53	18173.63
797.862	18099.96
798.193	18099.96
798.525	17907.42
798.856	18016.12
799.188	17746.52
799.519	17705.85
799.85	17598.51
800.182	17614.78
800.513	17663.59
800.844	17426.31
801.175	17625.17
801.506	17572.52
801.837	17363.48
802.168	17391.51
802.499	17281.45
802.83	17203.49
803.161	17174.79
803.491	17202.81
803.822	17213.43
804.153	17091.17
804.483	16974.79
804.814	16841.69
805.145	16862.48
805.475	16784.97
805.805	16741.13
806.136	16829.94
806.466	16829.71
806.796	16770.51
807.126	16556.27
807.457	16621.13
807.787	16546.56
808.117	16534.58
808.447	16414.36
808.777	16444.86
809.107	16300.46
809.436	16290.52
809.766	16256.62
810.096	16168.49
810.426	16160.13
810.755	16193.8
811.085	16128.71
811.414	16107.47
811.744	15915.16
812.073	15875.39
812.403	15909.96
812.732	15825.45
813.061	15815.73
813.39	15740.48
813.719	15730.98
814.049	15829.06
814.378	15732.11
814.707	15629.52
815.036	15570.76
815.365	15509.52
815.693	15421.61
816.022	15341.84
816.351	15444.44
816.68	15252.81
817.008	15330.77
817.337	15223.88
817.665	15145.46
817.994	15111.79
818.322	15145.69
818.651	15028.4
818.979	15049.19
819.307	15067.73
819.636	15062.53
819.964	14840.84
820.292	15082.41
820.62	14938.69
820.948	14949.54
821.276	14989.54
821.604	14846.71
821.932	14854.85
822.259	14851.69
822.587	14880.61
822.915	14780.95
823.243	14896.88
823.57	14796.32
823.898	14891.91
824.225	14725.14
824.553	14747.51
824.88	14875.19
825.207	14788.41
825.535	14844.23
825.862	14755.64
826.189	14730.56
826.516	14798.35
826.843	14813.72
827.17	14953.15
827.497	14885.13
827.824	14817.11
828.151	14856.66
828.478	14771.69
828.805	14823.66
829.131	14787.51
829.458	14771.91
829.785	14657.11
830.111	14756.32
830.438	14893.04
830.764	14751.35
831.09	14749.09
831.417	14782.76
831.743	14720.39
832.069	14767.85
832.395	14644.46
832.722	14729.88
833.048	14704.35
833.374	14708.19
833.7	14673.16
834.026	14706.6
834.351	14612.6
834.677	14604.23
835.003	14602.65
835.329	14594.52
835.654	14539.15
835.98	14536.21
836.306	14518.81
836.631	14566.95
836.956	14469.77
837.282	14531.47
837.607	14468.19
837.932	14359.5
838.258	14409.44
838.583	14381.87
838.908	14246.5
839.233	14275.88
839.558	14229.56
839.883	14225.94
840.208	14204.92
840.533	14184.81
840.858	14148.43
841.182	14103.91
841.507	14161.08
841.832	14060.29
842.156	14050.12
842.481	14039.73
842.805	14007.19
843.13	13956.12
843.454	13975.78
843.778	13927.87
844.103	13839.96
844.427	13825.5
844.751	13853.75
845.075	13853.52
845.399	13679.97
845.723	13726.07
846.047	13714.77
846.371	13578.95
846.695	13601.32
847.019	13417.15
847.343	13456.69
847.666	13362.23
847.99	13318.62
848.313	13330.82
848.637	13165.4
848.96	13156.59
849.284	13148
849.607	13080.88
849.931	12956.14
850.254	12972.19
850.577	12887.9
850.9	12785.3
851.223	12798.63
851.546	12690.84
851.869	12632.31
852.192	12713.21
852.515	12522.48
852.838	12503.72
853.161	12536.94
853.483	12471.64
853.806	12408.13
854.129	12399.32
854.451	12247.46
854.774	12219.21
855.096	12174.47
855.419	12171.53
855.741	12125.88
856.063	12054.02
856.385	12120.01
856.708	12063.74
857.03	11946.9
857.352	12007.24
857.674	11939.9
857.996	11877.07
858.318	11768.15
858.64	11846.79
858.961	11801.82
859.283	11721.15
859.605	11661.71
859.926	11738.55
860.248	11705.78
860.57	11605.67
860.891	11623.3
861.212	11562.28
861.534	11503.75
861.855	11517.31
862.176	11492.68
862.498	11496.07
862.819	11454.71
863.14	11435.28
863.461	11369.97
863.782	11348.5
864.103	11406.58
864.424	11271.67
864.745	11293.59
865.065	11262.18
865.386	11242.52
865.707	11266.92
866.027	11214.27
866.348	11205.45
866.668	11177.21
866.989	11189.64
867.309	11115.06
867.63	11140.82
867.95	11118.22
868.27	11012.69
868.59	11078.23
868.91	11035.29
869.23	11022.86
869.55	10926.14
869.87	11024.89
870.19	10948.29
870.51	11007.04
870.83	10980.83
871.15	10890.66
871.469	10850.89
871.789	10927.72
872.109	10882.07
872.428	10816.99
872.748	10955.07
873.067	10853.37
873.386	10871.9
873.706	10824.22
874.025	10779.48
874.344	10701.51
874.663	10801.17
874.982	10654.06
875.301	10739.25
875.62	10652.02
875.939	10685.02
876.258	10657.9
876.577	10651.57
876.896	10609.76
877.214	10530.22
877.533	10542.87
877.852	10568.41
878.17	10551.69
878.489	10569.76
878.807	10528.64
879.125	10532.48
879.444	10468.75
879.762	10371.35
880.08	10409.32
880.398	10391.69
880.716	10393.5
881.034	10378.58
881.352	10389.66
881.67	10216.1
881.988	10303.1
882.306	10372.71
882.624	10216.1
882.941	10203.67
883.259	10203.45
883.577	10130.68
883.894	10162.09
884.212	10126.84
884.529	10135.43
884.846	10082.55
885.164	10068.08
885.481	10040.06
885.798	10091.36
886.115	9947.86
886.432	9985.83
886.75	9961.19
887.067	9928.88
887.383	9872.83
887.7	9908.31
888.017	9840.52
888.334	9891.82
888.651	9815.89
888.967	9777.24
889.284	9719.17
889.6	9719.84
889.917	9693.18
890.233	9644.59
890.55	9608.21
890.866	9640.3
891.182	9539.28
891.498	9551.03
891.815	9571.6
892.131	9479.85
892.447	9472.17
892.763	9481.43
893.079	9496.57
893.395	9396.24
893.71	9412.51
894.026	9428.33
894.342	9325.73
894.657	9214.09
894.973	9264.04
895.289	9238.5
895.604	9224.26
895.92	9107.43
896.235	9128.22
896.55	9133.42
896.865	9054.55
897.181	8988.56
897.496	9008.9
897.811	8985.85
898.126	8971.39
898.441	8915.12
898.756	8899.53
899.071	8801.22
899.386	8812.97
899.7	8709.93
900.015	8791.96
900.33	8692.53
900.644	8720.77
900.959	8622.47
901.273	8646.88
901.588	8569.59
901.902	8533.21
902.216	8551.51
902.531	8508.8
902.845	8531.4
903.159	8445.3
903.473	8471.97
903.787	8346.32
904.101	8325.08
904.415	8379.54
904.729	8266.32
905.042	8315.13
905.356	8212.76
905.67	8205.76
905.984	8210.05
906.297	8163.27
906.611	8079.89
906.924	8091.64
907.237	8073.11
907.551	8025.42
907.864	7970.74
908.177	8010.51
908.491	8026.1
908.804	7870.63
909.117	7883.06
909.43	7781.59
909.743	7814.36
910.056	7795.83
910.368	7727.81
910.681	7715.15
910.994	7723.96
911.307	7649.16
911.619	7626.79
911.932	7650.75
912.244	7573.01
912.557	7546.34
912.869	7447.13
913.181	7519
913.494	7430.86
913.806	7429.28
914.118	7405.1
914.43	7299.34
914.742	7350.87
915.054	7261.38
915.366	7270.87
915.678	7233.36
915.99	7212.34
916.302	7125.11
916.613	7106.35
916.925	7079.91
917.236	7104.77
917.548	7053.02
917.859	7077.2
918.171	6965.11
918.482	7015.96
918.794	6957.88
919.105	6947.26
919.416	6827.72
919.727	6821.16
920.038	6782.29
920.349	6761.95
920.66	6775.51
920.971	6749.98
921.282	6708.85
921.593	6636.76
921.903	6610.77
922.214	6589.53
922.525	6598.57
922.835	6544.11
923.146	6537.33
923.456	6519.93
923.767	6483.32
924.077	6527.16
924.387	6407.84
924.697	6379.37
925.008	6417.33
925.318	6352.25
925.628	6313.38
925.938	6281.97
926.248	6280.61
926.558	6236.77
926.867	6213.49
927.177	6154.06
927.487	6172.82
927.796	6146.38
928.106	6104.8
928.416	6057.57
928.725	6088.3
929.034	6007.4
929.344	6010.79
929.653	5971.47
929.962	5927.17
930.271	5921.98
930.581	5911.36
930.89	5824.58
931.199	5874.97
931.508	5818.93
931.817	5795.88
932.125	5785.03
932.434	5780.96
932.743	5705.71
933.051	5654.19
933.36	5671.81
933.669	5639.27
933.977	5627.75
934.286	5585.94
934.594	5591.36
934.902	5532.38
935.21	5527.86
935.519	5481.08
935.827	5479.73
936.135	5443.12
936.443	5400.63
936.751	5389.79
937.059	5337.81
937.367	5360.64
937.674	5328.55
937.982	5330.81
938.29	5280.86
938.597	5309.79
938.905	5243.12
939.213	5174.43
939.52	5174.65
939.827	5197.7
940.135	5167.87
940.442	5134.2
940.749	5096.46
941.056	5118.38
941.363	5065.5
941.67	5058.72
941.977	5034.99
942.284	4963.81
942.591	4995.67
942.898	4907.09
943.205	4947.54
943.511	4979.18
943.818	4936.24
944.125	4855.11
944.431	4834.32
944.738	4873.19
945.044	4783.7
945.35	4816.24
945.657	4738.73
945.963	4723.14
946.269	4759.97
946.575	4742.57
946.881	4673.87
947.187	4633.65
947.493	4665.51
947.799	4640.43
948.105	4576.02
948.41	4522.01
948.716	4631.84
949.022	4541.22
949.327	4524.27
949.633	4514.1
949.938	4470.72
950.244	4486.76
950.549	4461.45
950.854	4450.15
951.16	4452.41
951.465	4399.08
951.77	4382.58
952.075	4343.26
952.38	4364.28
952.685	4336.93
952.99	4279.31
953.294	4305.97
953.599	4234.79
953.904	4204.73
954.209	4223.72
954.513	4225.3
954.818	4168.58
955.122	4194.79
955.426	4181.91
955.731	4151.63
956.035	4051.74
956.339	4109.37
956.643	4066.21
956.948	4051.29
957.252	4014.91
957.556	4057.39
957.86	3983.04
958.163	4021.46
958.467	3986.89
958.771	3955.7
959.075	3952.31
959.378	3947.79
959.682	3926.32
959.985	3877.29
960.289	3856.04
960.592	3823.05
960.896	3841.13
961.199	3832.54
961.502	3812.65
961.805	3814.01
962.108	3793.67
962.411	3755.48
962.714	3733.79
963.017	3720.68
963.32	3721.81
963.623	3768.36
963.926	3710.51
964.228	3664.64
964.531	3686.1
964.833	3643.39
965.136	3589.38
965.438	3601.81
965.741	3597.97
966.043	3522.72
966.345	3561.81
966.648	3523.4
966.95	3541.47
967.252	3511.42
967.554	3511.64
967.856	3491.31
968.158	3465.09
968.46	3442.95
968.761	3427.13
969.063	3431.42
969.365	3406.56
969.666	3397.52
969.968	3363.63
970.269	3353.23
970.571	3355.94
970.872	3347.81
971.174	3329.5
971.475	3320.69
971.776	3283.18
972.077	3278.2
972.378	3283.63
972.679	3242.05
972.98	3212.22
973.281	3222.84
973.582	3200.92
973.883	3211.31
974.183	3227.81
974.484	3161.37
974.785	3141.26
975.085	3143.75
975.386	3145.1
975.686	3120.02
975.986	3092.9
976.287	3101.03
976.587	3030.3
976.887	3068.72
977.187	3045.67
977.487	3045.22
977.787	3003.41
978.087	3004.54
978.387	2978.78
978.687	2982.17
978.987	2944.88
979.286	2931.32
979.586	2963.86
979.885	2922.51
980.185	2888.38
980.484	2890.19
980.784	2867.59
981.083	2833.02
981.382	2846.35
981.682	2817.43
981.981	2840.48
982.28	2791.21
982.579	2791.44
982.878	2783.3
983.177	2763.87
983.475	2781.95
983.774	2738.11
984.073	2724.32
984.372	2713.25
984.67	2692.68
984.969	2704.43
985.267	2708.05
985.566	2689.52
985.864	2665.57
986.162	2659.92
986.461	2609.75
986.759	2622.63
987.057	2597.77
987.355	2580.82
987.653	2592.12
987.951	2576.53
988.249	2554.83
988.547	2607.04
988.844	2523.65
989.142	2525.68
989.44	2514.38
989.737	2490.43
990.035	2510.54
990.332	2493.82
990.63	2452.01
990.927	2461.73
991.224	2464.67
991.521	2470.32
991.819	2434.39
992.116	2410.66
992.413	2425.12
992.71	2415.4
993.006	2391
993.303	2388.51
993.6	2390.54
993.897	2330.66
994.193	2377.89
994.49	2308.96
994.787	2348.96
995.083	2340.15
995.379	2334.27
995.676	2324.11
995.972	2312.13
996.268	2311
996.565	2249.98
996.861	2238.68
997.157	2245.24
997.453	2261.51
997.749	2218.8
998.044	2204.33
998.34	2190.32
998.636	2189.87
998.932	2223.54
999.227	2152.58
999.523	2137.44
999.818	2152.13
1000.114	2097.44
1000.409	2102.19
1000.704	2122.98
1001	2054.73
1001.295	2092.7
1001.59	2069.2
1001.885	2059.93
1002.18	2043.21
1002.475	2043.66
1002.77	2030.78
1003.065	2016.09
1003.359	1983.32
1003.654	2014.51
1003.949	1951.69
1004.243	1977.22
1004.538	1961.18
1004.832	1934.06
1005.127	1932.03
1005.421	1934.51
1005.715	1912.82
1006.009	1938.8
1006.304	1895.87
1006.598	1946.49
1006.892	1871.91
1007.186	1846.83
1007.48	1817
1007.773	1888.64
1008.067	1818.58
1008.361	1838.24
1008.655	1805.25
1008.948	1808.86
1009.242	1818.81
1009.535	1792.82
1009.829	1781.29
1010.122	1778.81
1010.415	1778.58
1010.708	1720.28
1011.001	1717.34
1011.295	1728.19
1011.588	1748.53
1011.881	1694.74
1012.173	1685.7
1012.466	1710.11
1012.759	1664.69
1013.052	1692.26
1013.344	1659.94
1013.637	1646.16
1013.93	1623.56
1014.222	1617.91
1014.514	1606.84
1014.807	1584.01
1015.099	1601.86
1015.391	1563
1015.683	1608.87
1015.976	1583.33
1016.268	1585.37
1016.56	1554.41
1016.851	1505.14
1017.143	1550.11
1017.435	1546.95
1017.727	1520.06
1018.018	1519.61
1018.31	1498.59
1018.602	1498.14
1018.893	1480.51
1019.185	1471.7
1019.476	1470.34
1019.767	1476.9
1020.058	1446.61
1020.35	1438.93
1020.641	1422.66
1020.932	1414.07
1021.223	1397.58
1021.514	1397.12
1021.804	1381.98
1022.095	1411.81
1022.386	1375.66
1022.677	1366.84
1022.967	1359.61
1023.258	1345.83
1023.548	1339.95
1023.839	1337.01
1024.129	1298.82
1024.419	1297.69
1024.709	1316.45
1025	1291.36
1025.29	1292.27
1025.58	1271.48
1025.87	1264.25
1026.16	1250.46
1026.449	1238.48
1026.739	1252.95
1027.029	1233.29
1027.319	1212.95
1027.608	1242.55
1027.898	1218.6
1028.187	1206.62
1028.477	1219.5
1028.766	1197.36
1029.055	1181.08
1029.344	1155.32
1029.634	1163.23
1029.923	1166.17
1030.212	1160.07
1030.501	1132.5
1030.79	1134.98
1031.078	1131.82
1031.367	1119.17
1031.656	1102.22
1031.945	1115.55
1032.233	1091.37
1032.522	1089.34
1032.81	1091.82
1033.099	1076.91
1033.387	1076.45
1033.675	1069.45
1033.963	1090.01
1034.251	1051.37
1034.54	1037.13
1034.828	1039.85
1035.116	1033.07
1035.403	1017.93
1035.691	1029.9
1035.979	1024.7
1036.267	1011.82
1036.554	985.84
1036.842	997.36
1037.129	989.23
1037.417	986.29
1037.704	984.03
1037.992	956.01
1038.279	971.6
1038.566	952.84
1038.853	952.84
1039.14	952.84
