Data from hue_270_FLMS001491_00087.txt Node
Date: Tue Feb 07 15:57:49 GMT 2017
User: dcchb
Spectrometer: FLMS00149
Trigger mode: 0
Integration Time (sec): 2.000000E-2
Scans to average: 10
Electric dark correction enabled: true
Nonlinearity correction enabled: false
Boxcar width: 0
XAxis mode: Wavelengths
Number of Pixels in Spectrum: 2048
>>>>>Begin Spectral Data<<<<<
341.393	-16.21
341.776	-16.21
342.16	-16.21
342.543	-62.09
342.927	-68.19
343.31	-67.29
343.693	-77.46
344.077	-65.7
344.46	-42.65
344.843	-45.37
345.226	-59.38
345.61	-41.52
345.993	-20.73
346.376	-8.98
346.759	4.12
347.142	24.46
347.525	31.69
347.908	72.6
348.291	80.51
348.674	97.91
349.057	117.79
349.44	120.28
349.823	133.16
350.206	170.9
350.588	182.42
350.971	211.58
351.354	212.93
351.737	224.46
352.119	257.45
352.502	249.09
352.884	281.63
353.267	284.57
353.65	283.21
354.032	277.56
354.414	296.55
354.797	329.54
355.179	312.59
355.562	294.96
355.944	299.03
356.326	314.17
356.709	323.44
357.091	315.53
357.473	329.31
357.855	333.38
358.238	349.65
358.62	342.19
359.002	343.55
359.384	306.94
359.766	343.78
360.148	326.6
360.53	331.35
360.912	313.49
361.294	318.24
361.676	320.27
362.057	329.54
362.439	326.6
362.821	341.29
363.203	308.75
363.584	306.04
363.966	329.99
364.348	311.46
364.729	314.62
365.111	322.53
365.493	314.17
365.874	310.56
366.256	317.11
366.637	307.85
367.019	322.31
367.4	311.01
367.781	316.43
368.163	312.82
368.544	300.16
368.925	314.4
369.306	320.73
369.688	299.71
370.069	291.12
370.45	312.36
370.831	319.6
371.212	301.97
371.593	324.79
371.974	325.02
372.355	310.78
372.736	301.29
373.117	303.1
373.498	319.6
373.879	312.14
374.26	299.94
374.641	304.91
375.021	309.88
375.402	318.47
375.783	313.27
376.163	332.48
376.544	316.21
376.925	330.22
377.305	317.34
377.686	299.71
378.066	312.59
378.447	337.67
378.827	319.6
379.208	316.66
379.588	324.79
379.968	329.99
380.349	335.64
380.729	338.13
381.109	337.45
381.489	342.19
381.87	319.6
382.25	335.64
382.63	335.19
383.01	335.41
383.39	358.69
383.77	340.16
384.15	341.74
384.53	346.94
384.91	346.04
385.29	351.23
385.67	333.16
386.049	322.76
386.429	357.34
386.809	358.24
387.189	340.61
387.568	360.05
387.948	370.67
388.328	362.31
388.707	367.73
389.087	346.71
389.466	350.78
389.846	374.28
390.225	375.41
390.605	356.43
390.984	367.5
391.363	377.22
391.743	368.18
392.122	390.78
392.501	376.77
392.881	386.71
393.26	375.87
393.639	401.18
394.018	375.64
394.397	378.8
394.776	403.21
395.155	391.46
395.534	381.97
395.913	378.13
396.292	416.32
396.671	391.23
397.05	394.85
397.429	405.7
397.808	403.66
398.186	414.96
398.565	402.31
398.944	414.51
399.323	428.75
399.701	407.5
400.08	413.38
400.458	421.74
400.837	420.16
401.215	412.93
401.594	422.42
401.972	423.32
402.351	442.98
402.729	432.14
403.107	448.41
403.486	431.46
403.864	437.33
404.242	430.78
404.62	435.53
404.999	425.81
405.377	446.82
405.755	454.73
406.133	449.31
406.511	471
406.889	472.81
407.267	474.85
407.645	478.69
408.023	470.55
408.401	469.65
408.779	476.88
409.156	501.51
409.534	503.77
409.912	487.28
410.29	520.49
410.667	514.39
411.045	539.7
411.422	539.25
411.8	540.61
412.178	558.23
412.555	548.52
412.933	555.3
413.31	559.59
413.687	566.37
414.065	563.66
414.442	590.1
414.819	593.49
415.197	587.84
415.574	602.53
415.951	623.99
416.328	609.08
416.705	629.64
417.082	619.02
417.46	617.44
417.837	628.29
418.214	663.32
418.591	642.07
418.967	648.63
419.344	685.01
419.721	688.4
420.098	669.19
420.475	695.86
420.852	693.82
421.228	695.63
421.605	726.14
421.982	733.6
422.358	731.34
422.735	738.57
423.111	740.15
423.488	754.39
423.864	788.28
424.241	780.15
424.617	817.89
424.994	805.23
425.37	824.22
425.746	822.18
426.123	815.18
426.499	847.27
426.875	848.4
427.251	882.52
427.627	883.42
428.003	882.75
428.379	872.8
428.756	896.98
429.132	924.1
429.507	918
429.883	940.82
430.259	947.15
430.635	918.22
431.011	983.53
431.387	1005.23
431.763	992.35
432.138	999.58
432.514	1006.13
432.89	1021.95
433.265	1046.81
433.641	1055.4
434.016	1094.27
434.392	1094.04
434.767	1117.99
435.143	1128.39
435.518	1152.34
435.894	1170.87
436.269	1166.81
436.644	1198.67
437.02	1207.48
437.395	1242.06
437.77	1226.92
438.145	1270.76
438.52	1280.7
438.895	1304.43
439.271	1294.94
439.646	1343.3
440.021	1349.4
440.395	1358.66
440.77	1323.64
441.145	1376.74
441.52	1393.92
441.895	1390.53
442.27	1404.54
442.645	1402.96
443.019	1437.76
443.394	1425.56
443.769	1445.22
444.143	1472.79
444.518	1466.46
444.892	1460.36
445.267	1481.83
445.641	1502.39
446.016	1521.82
446.39	1526.57
446.764	1516.85
447.139	1555.72
447.513	1547.13
447.887	1562.95
448.262	1552.11
448.636	1569.96
449.01	1572.9
449.384	1626.68
449.758	1639.56
450.132	1622.84
450.506	1624.42
450.88	1663.52
451.254	1666.91
451.628	1675.49
452.002	1644.31
452.376	1689.05
452.75	1716.17
453.123	1708.49
453.497	1745.32
453.871	1758.2
454.244	1770.63
454.618	1795.94
454.992	1814.02
455.365	1801.37
455.739	1824.19
456.112	1851.99
456.486	1883.17
456.859	1888.37
457.232	1899.44
457.606	1893.11
457.979	1943.28
458.352	1937.18
458.725	1955.03
459.099	1987.12
459.472	2051.08
459.845	2030.96
460.218	2061.92
460.591	2097.85
460.964	2069.83
461.337	2090.17
461.71	2139.21
462.083	2179.21
462.456	2151.86
462.829	2126.33
463.201	2205.65
463.574	2202.26
463.947	2243.16
464.32	2279.54
464.692	2308.92
465.065	2324.74
465.438	2311.18
465.81	2348.7
466.183	2340.33
466.555	2419.43
466.928	2438.18
467.3	2428.24
467.672	2481.57
468.045	2525.41
468.417	2534.23
468.789	2548.24
469.161	2577.84
469.534	2595.69
469.906	2633.21
470.278	2656.03
470.65	2665.75
471.022	2721.79
471.394	2742.13
471.766	2782.81
472.138	2790.04
472.51	2817.61
472.882	2875.24
473.253	2874.56
473.625	2942.13
473.997	2957.49
474.369	3009.24
474.74	3027.77
475.112	3044.27
475.484	3165.17
475.855	3147.54
476.227	3170.37
476.598	3275
476.97	3257.82
477.341	3321.78
477.713	3349.8
478.084	3370.14
478.455	3433.41
478.827	3451.04
479.198	3539.62
479.569	3547.99
479.94	3657.59
480.311	3636.35
480.682	3693.29
481.053	3805.15
481.424	3859.16
481.795	3807.41
482.166	3909.78
482.537	3894.87
482.908	4008.54
483.279	4004.24
483.65	4042.21
484.021	4109.55
484.391	4144.81
484.762	4235.2
485.133	4235.2
485.503	4255.54
485.874	4370.56
486.244	4414.86
486.615	4485.59
486.985	4459.37
487.356	4567.85
487.726	4589.31
488.097	4640.61
488.467	4680.84
488.837	4732.59
489.207	4776.88
489.578	4878.8
489.948	4844.22
490.318	4875.41
490.688	4903.2
491.058	4960.15
491.428	5019.36
491.798	5079.02
492.168	5090.09
492.538	5165.8
492.908	5173.93
493.278	5290.99
493.648	5290.54
494.017	5287.15
494.387	5340.03
494.757	5323.53
495.126	5425
495.496	5433.59
495.866	5448.5
496.235	5507.03
496.605	5559.01
496.974	5535.96
497.344	5559.68
497.713	5618.21
498.082	5671.55
498.452	5716.29
498.821	5707.7
499.19	5715.16
499.559	5740.02
499.928	5799.9
500.298	5773.01
500.667	5836.51
501.036	5828.83
501.405	5915.38
501.774	5889.39
502.143	5959.22
502.512	5932.1
502.88	5967.58
503.249	5951.31
503.618	6005.1
503.987	6017.98
504.356	6008.94
504.724	6035.15
505.093	6051.87
505.462	6147.24
505.83	6150.18
506.199	6179.56
506.567	6194.7
506.936	6260
507.304	6246.67
507.672	6210.51
508.041	6275.37
508.409	6343.62
508.777	6353.79
509.145	6333.22
509.514	6315.6
509.882	6353.56
510.25	6355.14
510.618	6368.93
510.986	6410.96
511.354	6509.72
511.722	6480.34
512.09	6534.12
512.458	6445.08
512.826	6544.52
513.193	6568.25
513.561	6498.64
513.929	6572.99
514.297	6642.59
514.664	6621.58
515.032	6612.54
515.4	6676.94
515.767	6610.73
516.135	6662.25
516.502	6591.97
516.869	6664.51
517.237	6725.98
517.604	6694.8
517.972	6746.09
518.339	6770.05
518.706	6735.02
519.073	6781.12
519.44	6786.09
519.808	6884.4
520.175	6818.41
520.542	6878.75
520.909	6881.91
521.276	6853.66
521.643	6862.7
522.009	6943.38
522.376	6996.03
522.743	7030.61
523.11	6975.69
523.477	7058.18
523.843	7069.93
524.21	7110.15
524.577	7098.4
524.943	7135.46
525.31	7093.43
525.676	7201.22
526.043	7212.97
526.409	7216.59
526.776	7289.58
527.142	7279.87
527.508	7250.49
527.874	7355.8
528.241	7316.02
528.607	7404.83
528.973	7419.07
529.339	7418.84
529.705	7480.99
530.071	7456.36
530.437	7528.22
530.803	7546.52
531.169	7566.86
531.535	7513.53
531.901	7535
532.267	7525.28
532.632	7610.48
532.998	7556.24
533.364	7581.55
533.73	7618.39
534.095	7561.44
534.461	7621.55
534.826	7710.59
535.192	7652.51
535.557	7697.26
535.923	7680.31
536.288	7686.86
536.653	7721.89
537.019	7704.03
537.384	7751.72
537.749	7717.82
538.114	7715.11
538.479	7718.5
538.845	7761.89
539.21	7751.72
539.575	7761.66
539.94	7760.76
540.305	7710.81
540.67	7816.8
541.034	7800.3
541.399	7819.96
541.764	7821.77
542.129	7815.44
542.494	7823.13
542.858	7891.6
543.223	7852.51
543.587	7892.28
543.952	7914.65
544.316	7862.22
544.681	7885.5
545.045	7921.66
545.41	7931.6
545.774	7958.94
546.138	7840.75
546.503	7902.22
546.867	7895.44
547.231	8007.76
547.595	7911.26
547.959	7982.67
548.324	7941.99
548.688	7944.03
549.052	7970.02
549.416	8026.06
549.779	8017.7
550.143	7959.62
550.507	8014.99
550.871	7968.66
551.235	8032.61
551.599	8034.87
551.962	8063.8
552.326	8042.33
552.689	8054.31
553.053	8044.59
553.417	8065.38
553.78	8149.9
554.143	8095.44
554.507	8092.73
554.87	8174.3
555.234	8184.25
555.597	8171.37
555.96	8190.8
556.323	8158.49
556.686	8200.52
557.05	8273.51
557.413	8237.35
557.776	8221.99
558.139	8302.44
558.502	8293.62
558.865	8304.92
559.228	8394.86
559.59	8354.87
559.953	8363.23
560.316	8429.21
560.679	8432.6
561.041	8531.81
561.404	8532.04
561.767	8551.24
562.129	8481.64
562.492	8610.9
562.854	8547.85
563.217	8597.34
563.579	8601.19
563.941	8622.2
564.304	8671.24
564.666	8692.71
565.028	8762.09
565.39	8789.88
565.753	8782.2
566.115	8809.09
566.477	8830.56
566.839	8850.45
567.201	8911.46
567.563	8906.49
567.925	8929.77
568.287	8983.1
568.648	8960.05
569.01	9025.13
569.372	9077.78
569.734	9039.37
570.095	9125.01
570.457	9186.26
570.819	9098.57
571.18	9187.39
571.542	9243.2
571.903	9283.88
572.265	9307.83
572.626	9290.66
572.987	9402.75
573.349	9399.58
573.71	9468.51
574.071	9461.73
574.432	9544.44
574.794	9557.09
575.155	9513.48
575.516	9511.44
575.877	9589.86
576.238	9577.66
576.599	9663.53
576.96	9664.21
577.32	9691.1
577.681	9706.02
578.042	9739.69
578.403	9762.74
578.763	9800.7
579.124	9838.22
579.485	9914.6
579.845	9981.04
580.206	9936.07
580.566	9970.64
580.927	9934.03
581.287	10092.22
581.648	9958.21
582.008	10068.04
582.368	10082.05
582.728	10160.92
583.089	10095.61
583.449	10144.65
583.809	10195.95
584.169	10235.95
584.529	10187.81
584.889	10306.68
585.249	10287.47
585.609	10293.35
585.969	10274.36
586.329	10332.44
586.688	10418.31
587.048	10426.22
587.408	10424.42
587.768	10440.69
588.127	10528.14
588.487	10432.55
588.846	10543.28
589.206	10455.37
589.565	10548.93
589.925	10685.43
590.284	10637.52
590.643	10694.01
591.003	10701.47
591.362	10785.76
591.721	10694.01
592.08	10702.6
592.44	10762.26
592.799	10804.07
593.158	10837.96
593.517	10825.99
593.876	10843.61
594.235	10807
594.593	10845.87
594.952	10859.66
595.311	10853.1
595.67	10916.83
596.029	10990.5
596.387	10984.85
596.746	10934.23
597.104	10985.3
597.463	10965.19
597.822	11018.98
598.18	10986.66
598.538	11007.45
598.897	11088.58
599.255	10921.58
599.613	11150.27
599.972	11120.22
600.33	11151.63
600.688	11092.65
601.046	11155.92
601.404	11222.59
601.762	11219.65
602.12	11226.43
602.478	11234.34
602.836	11184.85
603.194	11221.68
603.552	11263.72
603.91	11209.71
604.268	11307.78
604.625	11249.03
604.983	11290.61
605.341	11241.79
605.698	11272.53
606.056	11290.38
606.413	11309.14
606.771	11377.61
607.128	11356.37
607.485	11357.27
607.843	11393.43
608.2	11403.37
608.557	11444.73
608.914	11421.45
609.272	11451.28
609.629	11510.94
609.986	11491.05
610.343	11465.74
610.7	11530.83
611.057	11545.52
611.414	11559.75
611.771	11473.88
612.127	11625.51
612.484	11573.99
612.841	11622.12
613.198	11542.58
613.554	11681.33
613.911	11687.43
614.267	11692.18
614.624	11576.7
614.98	11668.22
615.337	11744.38
615.693	11670.48
616.05	11641.56
616.406	11727.21
616.762	11659.18
617.118	11653.76
617.475	11692.86
617.831	11832.29
618.187	11778.5
618.543	11741.44
618.899	11865.06
619.255	11805.62
619.611	11772.63
619.967	11841.78
620.323	11855.56
620.678	11781.22
621.034	11833.87
621.39	11790.93
621.746	11827.54
622.101	11912.29
622.457	11847.43
622.812	11862.8
623.168	11863.7
623.523	11850.59
623.879	11914.55
624.234	11805.17
624.589	11851.27
624.945	11781.22
625.3	11853.53
625.655	11884.72
626.01	11917.26
626.365	11905.28
626.72	11784.61
627.075	11876.58
627.43	11864.83
627.785	11800.88
628.14	11901.66
628.495	11868.9
628.85	11818.05
629.205	11741.44
629.559	11828.9
629.914	11765.17
630.269	11815.11
630.623	11773.53
630.978	11725.4
631.332	11795.68
631.687	11771.5
632.041	11764.72
632.396	11839.75
632.75	11710.71
633.104	11721.1
633.459	11673.2
633.813	11679.98
634.167	11637.72
634.521	11688.79
634.875	11651.5
635.229	11649.02
635.583	11609.92
635.937	11651.73
636.291	11589.13
636.645	11533.54
636.999	11561.79
637.352	11550.94
637.706	11538.96
638.06	11562.01
638.413	11561.79
638.767	11446.31
639.121	11476.14
639.474	11442.47
639.828	11496.48
640.181	11447.44
640.534	11515.23
640.888	11396.37
641.241	11369.25
641.594	11477.95
641.947	11411.73
642.301	11397.27
642.654	11359.08
643.007	11450.83
643.36	11369.7
643.713	11330.83
644.066	11405.86
644.419	11321.57
644.771	11256.03
645.124	11152.76
645.477	11119.09
645.83	11069.6
646.182	11010.16
646.535	10917.06
646.888	10974.91
647.24	10931.07
647.593	10939.66
647.945	10946.21
648.298	10855.14
648.65	10924.06
649.002	10894.46
649.355	10930.39
649.707	10951.41
650.059	10962.25
650.411	11136.26
650.763	11125.19
651.115	11253.77
651.467	11135.13
651.819	11163.6
652.171	11228.69
652.523	11137.39
652.875	11158.86
653.227	11113.66
653.578	11230.95
653.93	11196.15
654.282	11084.28
654.633	11078.64
654.985	11176.94
655.337	11121.35
655.688	11112.98
656.039	11140.78
656.391	11102.14
656.742	11175.81
657.094	11196.15
657.445	11237.73
657.796	11222.13
658.147	11167.22
658.498	11174.9
658.849	11166.54
659.2	11165.41
659.551	11161.12
659.902	11207.9
660.253	11129.48
660.604	11199.31
660.955	11139.65
661.306	11141.68
661.656	11201.12
662.007	11179.65
662.358	11192.3
662.708	11245.86
663.059	11108.69
663.409	11157.5
663.76	11183.72
664.11	11205.64
664.461	11193.66
664.811	11214.68
665.161	11195.92
665.511	11166.77
665.862	11211.29
666.212	11247.44
666.562	11246.99
666.912	11162.02
667.262	11136.03
667.612	11123.83
667.962	11198.41
668.312	11199.31
668.662	11246.99
669.011	11179.65
669.361	11124.06
669.711	11210.16
670.06	11172.42
670.41	11079.77
670.76	11109.59
671.109	11181.01
671.459	11130.61
671.808	11094
672.157	11114.57
672.507	11075.02
672.856	11071.86
673.205	11037.51
673.554	11148.69
673.904	11053.1
674.253	11065.08
674.602	11056.71
674.951	10924.97
675.3	10853.1
675.649	11030.27
675.998	10981.69
676.346	10985.53
676.695	11065.53
677.044	10964.74
677.393	11061.91
677.741	11006.09
678.09	10875.02
678.438	10936.27
678.787	10927.45
679.135	10934.91
679.484	10863.95
679.832	10859.66
680.181	10860.11
680.529	10814.01
680.877	10817.85
681.225	10807.23
681.573	10827.34
681.922	10779.66
682.27	10738.76
682.618	10759.1
682.966	10738.53
683.314	10711.64
683.661	10671.87
684.009	10654.92
684.357	10623.28
684.705	10606.78
685.053	10611.08
685.4	10600.46
685.748	10508.25
686.095	10539.67
686.443	10423.51
686.79	10492.89
687.138	10462.38
687.485	10517.07
687.832	10439.56
688.18	10445.88
688.527	10395.26
688.874	10335.83
689.221	10312.55
689.568	10259.67
689.915	10270.07
690.262	10271.2
690.609	10200.24
690.956	10182.16
691.303	10129.73
691.65	10138.77
691.997	10114.59
692.344	10077.76
692.69	10061.94
693.037	10089.73
693.383	9897.88
693.73	10015.84
694.077	9899.46
694.423	9845
694.769	9852.68
695.116	9828.72
695.462	9782.62
695.808	9764.32
696.155	9729.07
696.501	9674.38
696.847	9704.89
697.193	9619.01
697.539	9612.01
697.885	9583.53
698.231	9552.35
698.577	9418.11
698.923	9482.52
699.269	9434.61
699.614	9351.68
699.96	9412.92
700.306	9332.01
700.651	9349.64
700.997	9326.14
701.342	9275.97
701.688	9236.2
702.033	9200.49
702.379	9145.35
702.724	9123.43
703.069	9151.68
703.415	8988.75
703.76	9043.43
704.105	9097.22
704.45	9059.25
704.795	8900.61
705.14	8908.97
705.485	8967.5
705.83	8864.46
706.175	8937.9
706.52	8815.19
706.865	8879.37
707.209	8818.58
707.554	8761.63
707.899	8775.64
708.243	8666.5
708.588	8700.62
708.932	8610.68
709.277	8571.36
709.621	8650.9
709.966	8560.96
710.31	8606.38
710.654	8489.55
710.998	8524.13
711.342	8481.87
711.687	8457.69
712.031	8485.94
712.375	8425.37
712.719	8471.7
713.063	8414.07
713.407	8428.54
713.75	8311.93
714.094	8390.12
714.438	8329.55
714.782	8381.98
715.125	8354.19
715.469	8331.14
715.812	8300.86
716.156	8214.3
716.499	8272.61
716.843	8265.6
717.186	8166.4
717.53	8183.57
717.873	8228.09
718.216	8206.17
718.559	8230.35
718.902	8149.9
719.246	8156.23
719.589	8092.95
719.932	8083.23
720.275	8119.84
720.617	8074.65
720.96	8072.84
721.303	8080.75
721.646	8067.41
721.989	8070.13
722.331	8090.01
722.674	8051.37
723.016	8081.2
723.359	8061.77
723.701	8047.75
724.044	8031.94
724.386	7871.71
724.729	7995.55
725.071	7978.83
725.413	7973.86
725.755	7949.9
726.097	7965.04
726.439	7941.32
726.782	7901.32
727.124	7920.07
727.465	7890.47
727.807	7923.92
728.149	7911.26
728.491	7880.3
728.833	7935.67
729.175	7860.41
729.516	7898.83
729.858	7844.37
730.199	7840.75
730.541	7846.18
730.882	7824.48
731.224	7886.18
731.565	7853.18
731.906	7826.74
732.248	7881.88
732.589	7810.47
732.93	7790.36
733.271	7829.68
733.612	7872.39
733.953	7805.73
734.294	7863.8
734.635	7782
734.976	7822.68
735.317	7828.78
735.658	7811.38
735.999	7833.52
736.339	7845.5
736.68	7895.44
737.021	7824.26
737.361	7798.5
737.702	7855.67
738.042	7856.57
738.383	7867.19
738.723	7838.49
739.063	7785.61
739.404	7838.27
739.744	7846.63
740.084	7850.25
740.424	7880.08
740.764	7849.34
741.104	7910.58
741.444	7884.37
741.784	7865.16
742.124	7924.59
742.464	7875.56
742.804	7896.35
743.143	7937.7
743.483	7882.56
743.823	7917.81
744.162	7955.78
744.502	8029.22
744.841	8003.24
745.181	8099.5
745.52	8005.27
745.86	8137.02
746.199	8094.98
746.538	8090.47
746.877	8198.48
747.216	8257.69
747.556	8285.71
747.895	8310.35
748.234	8344.92
748.573	8379.05
748.911	8410.23
749.25	8516.22
749.589	8508.53
749.928	8618.13
750.267	8523.45
750.605	8706.95
750.944	8769.09
751.283	8841.41
751.621	8889.99
751.96	8911.46
752.298	9008.41
752.636	9079.82
752.975	9122.3
753.313	9180.61
753.651	9363.65
753.989	9359.36
754.327	9530.43
754.666	9556.64
755.004	9746.01
755.342	9859.23
755.679	9999.57
756.017	10042.28
756.355	10217.87
756.693	10278.43
757.031	10440.91
757.368	10544.19
757.706	10675.26
758.044	10915.25
758.381	11035.92
758.719	11142.81
759.056	11257.84
759.394	11345.07
759.731	11446.08
760.068	11621.22
760.405	11757.04
760.743	11923.58
761.08	12136.91
761.417	12203.58
761.754	12426.62
762.091	12571.7
762.428	12664.13
762.765	12905.93
763.102	12976.21
763.438	13077.23
763.775	13291.01
764.112	13416.88
764.449	13657.32
764.785	13651.9
765.122	13867.94
765.458	13953.14
765.795	14206.46
766.131	14358.1
766.467	14450.98
766.804	14594.25
767.14	14667.47
767.476	14805.32
767.812	14884.18
768.148	15199.66
768.485	15186.32
768.821	15271.75
769.157	15458.86
769.492	15633.32
769.828	15665.41
770.164	15796.7
770.5	15889.13
770.836	16008.9
771.171	16064.49
771.507	16084.38
771.842	16170.93
772.178	16284.37
772.513	16433.75
772.849	16528.89
773.184	16608.21
773.519	16691.14
773.855	16708.77
774.19	16807.52
774.525	16856.11
774.86	16952.15
775.195	17126.84
775.53	17046.39
775.865	17075.09
776.2	17072.15
776.535	17100.17
776.87	17232.82
777.205	17259.94
777.539	17236.21
777.874	17364.35
778.209	17226.5
778.543	17409.77
778.878	17306.49
779.212	17400.28
779.547	17388.07
779.881	17525.7
780.215	17433.04
780.55	17580.16
780.884	17614.51
781.218	17537
781.552	17635.98
781.886	17599.82
782.22	17510.56
782.554	17548.97
782.888	17390.56
783.222	17434.85
783.556	17504
783.889	17489.09
784.223	17395.53
784.557	17399.37
784.89	17556.88
785.224	17412.25
785.557	17364.8
785.891	17391.01
786.224	17449.77
786.558	17482.08
786.891	17335.42
787.224	17362.54
787.557	17373.16
787.891	17392.37
788.224	17402.08
788.557	17363.44
788.89	17366.38
789.223	17355.53
789.556	17280.51
789.888	17291.35
790.221	17241.86
790.554	17203.22
790.887	17173.39
791.219	17106.27
791.552	17071.92
791.884	17083
792.217	17092.26
792.549	16998.25
792.882	16908.54
793.214	16885.26
793.546	16971.14
793.879	16874.64
794.211	16740.18
794.543	16866.28
794.875	16850.46
795.207	16892.95
795.539	16759.39
795.871	16786.06
796.203	16672.16
796.535	16587.42
796.867	16584.03
797.198	16599.62
797.53	16484.14
797.862	16400.76
798.193	16565.72
798.525	16371.38
798.856	16440.75
799.188	16250.7
799.519	16257.48
799.85	16265.62
800.182	16223.58
800.513	16215.45
800.844	16065.85
801.175	16155.34
801.506	16109.24
801.837	16132.29
802.168	16053.87
802.499	15959.64
802.83	15885.74
803.161	15803.03
803.491	15934.1
803.822	15880.77
804.153	15792.86
804.483	15765.97
804.814	15671.51
805.145	15657.05
805.475	15676.71
805.805	15556.71
806.136	15652.53
806.466	15571.4
806.796	15685.29
807.126	15437.84
807.457	15452.53
807.787	15454.34
808.117	15339.54
808.447	15337.28
808.777	15399.65
809.107	15349.03
809.436	15292.31
809.766	15215.25
810.096	15152.65
810.426	15197.62
810.755	15173.44
811.085	15117.63
811.414	15097.51
811.744	15001.02
812.073	15042.6
812.403	15071.75
812.732	14906.78
813.061	14899.78
813.39	14900.68
813.719	14853.68
814.049	14889.61
814.378	14891.64
814.707	14728.93
815.036	14801.25
815.365	14710.18
815.693	14637.64
816.022	14714.92
816.351	14580.24
816.68	14514.48
817.008	14557.19
817.337	14454.37
817.665	14396.06
817.994	14425.44
818.322	14487.81
818.651	14353.58
818.979	14294.82
819.307	14347.93
819.636	14411.65
819.964	14328.27
820.292	14433.35
820.62	14382.5
820.948	14281.71
821.276	14335.05
821.604	14292.79
821.932	14296.86
822.259	14351.77
822.587	14310.64
822.915	14237.65
823.243	14319
823.57	14281.71
823.898	14282.17
824.225	14166.69
824.553	14272.22
824.88	14247.14
825.207	14335.5
825.535	14288.27
825.862	14322.17
826.189	14299.57
826.516	14385.21
826.843	14365.78
827.17	14417.98
827.497	14392.67
827.824	14376.63
828.151	14420.24
828.478	14356.74
828.805	14508.15
829.131	14340.92
829.458	14344.76
829.785	14265.44
830.111	14308.61
830.438	14389.73
830.764	14356.52
831.09	14309.74
831.417	14185.67
831.743	14283.75
832.069	14317.42
832.395	14170.98
832.722	14305.22
833.048	14182.96
833.374	14271.77
833.7	14235.61
834.026	14210.3
834.351	14222.73
834.677	14172.79
835.003	14144.09
835.329	14129.18
835.654	14181.83
835.98	14092.57
836.306	14083.3
836.631	14056.18
836.956	14064.55
837.282	14126.69
837.607	13986.13
837.932	13994.72
838.258	14039.91
838.583	13970.31
838.908	13955.17
839.233	14005.79
839.558	13901.61
839.883	13872.69
840.208	13838.34
840.533	13840.37
840.858	13825.46
841.182	13833.82
841.507	13807.15
841.832	13743.2
842.156	13654.84
842.481	13674.95
842.805	13696.19
843.13	13627.04
843.454	13622.75
843.778	13602.18
844.103	13572.35
844.427	13516.31
844.751	13598.12
845.075	13572.58
845.399	13416.88
845.723	13338.69
846.047	13436.54
846.371	13253.04
846.695	13309.76
847.019	13186.6
847.343	13105.7
847.666	13080.39
847.99	13011.24
848.313	12952.26
848.637	12844.46
848.96	12919.26
849.284	12903.45
849.607	12791.58
849.931	12725.37
850.254	12627.52
850.577	12563.34
850.9	12566.28
851.223	12524.25
851.546	12386.62
851.869	12249
852.192	12424.59
852.515	12332.61
852.838	12202.9
853.161	12187.08
853.483	12192.73
853.806	12121.55
854.129	12162.67
854.451	12092.62
854.774	12016.46
855.096	11974.2
855.419	11993.41
855.741	11940.31
856.063	11854.66
856.385	11791.16
856.708	11798.84
857.03	11798.84
857.352	11849.24
857.674	11681.33
857.996	11632.52
858.318	11585.74
858.64	11617.6
858.961	11505.06
859.283	11493.09
859.605	11444.28
859.926	11437.27
860.248	11455.57
860.57	11436.59
860.891	11367.22
861.212	11416.03
861.534	11360.21
861.855	11334
862.176	11301.68
862.498	11274.79
862.819	11178.07
863.14	11284.73
863.461	11217.84
863.782	11152.53
864.103	11188.01
864.424	11192.98
864.745	11127.67
865.065	11026.43
865.386	11136.26
865.707	11061.69
866.027	11030.05
866.348	11007.9
866.668	10980.56
866.989	10994.34
867.309	10925.64
867.63	10931.07
867.95	10997.96
868.27	10768.13
868.59	10839.32
868.91	10871.64
869.23	10838.42
869.55	10790.06
869.87	10823.95
870.19	10844.07
870.51	10835.25
870.83	10800.68
871.15	10700.11
871.469	10777.4
871.789	10804.97
872.109	10681.81
872.428	10722.49
872.748	10671.19
873.067	10665.31
873.386	10687.46
873.706	10693.11
874.025	10498.99
874.344	10534.24
874.663	10571.98
874.982	10555.49
875.301	10547.12
875.62	10517.52
875.939	10491.08
876.258	10443.17
876.577	10419.9
876.896	10448.14
877.214	10366.34
877.533	10394.13
877.852	10370.41
878.17	10391.65
878.489	10447.01
878.807	10376.28
879.125	10351.42
879.444	10335.6
879.762	10268.04
880.08	10322.04
880.398	10142.61
880.716	10221.26
881.034	10232.78
881.352	10127.47
881.67	10124.31
881.988	10134.25
882.306	10149.39
882.624	10074.37
882.941	10020.13
883.259	10008.61
883.577	10005.9
883.894	10070.98
884.212	9998.66
884.529	10003.18
884.846	9933.13
885.164	9909.17
885.481	9763.19
885.798	9889.74
886.115	9801.15
886.432	9814.94
886.75	9743.08
887.067	9795.28
887.383	9783.08
887.7	9791.89
888.017	9664.89
888.334	9718.67
888.651	9619.24
888.967	9680.48
889.284	9632.8
889.6	9559.58
889.917	9477.32
890.233	9546.47
890.55	9450.2
890.866	9433.03
891.182	9491.56
891.498	9384.89
891.815	9426.48
892.131	9393.93
892.447	9319.36
892.763	9328.85
893.079	9178.35
893.395	9192.13
893.71	9185.8
894.026	9201.85
894.342	9119.82
894.657	9086.15
894.973	9131.12
895.289	9108.07
895.604	9046.82
895.92	8926.83
896.235	8933.83
896.55	8986.26
896.865	8974.74
897.181	8889.09
897.496	8886.83
897.811	8839.37
898.126	8800.73
898.441	8745.14
898.756	8748.3
899.071	8689.77
899.386	8734.52
899.7	8616.1
900.015	8589.44
900.33	8495.2
900.644	8562.09
900.959	8464.69
901.273	8491.81
901.588	8386.73
901.902	8372.27
902.216	8355.32
902.531	8345.37
902.845	8288.88
903.159	8225.38
903.473	8267.64
903.787	8183.12
904.101	8109.45
904.415	8095.44
904.729	8113.74
905.042	8069.45
905.356	8056.79
905.67	8017.47
905.984	8077.13
906.297	7968.66
906.611	7913.97
906.924	7914.2
907.237	7873.3
907.551	7838.04
907.864	7834.2
908.177	7749.01
908.491	7751.49
908.804	7745.84
909.117	7685.5
909.43	7589.01
909.743	7620.2
910.056	7565.96
910.368	7603.7
910.681	7502.01
910.994	7540.65
911.307	7500.65
911.619	7379.75
911.932	7411.84
912.244	7321.45
912.557	7383.14
912.869	7335.23
913.181	7275.12
913.494	7276.02
913.806	7198.51
914.118	7141.34
914.43	7148.57
914.742	7133.2
915.054	7114.67
915.366	7059.31
915.678	7068.8
915.99	6984.73
916.302	6916.03
916.613	6903.15
916.925	6968.01
917.236	6937.28
917.548	6875.81
917.859	6832.19
918.171	6777.05
918.482	6720.33
918.794	6806.43
919.105	6759.2
919.416	6658.86
919.727	6715.36
920.038	6634.46
920.349	6619.77
920.66	6636.72
920.971	6539.77
921.282	6546.55
921.593	6547.68
921.903	6485.99
922.214	6443.73
922.525	6387.69
922.835	6403.5
923.146	6324.18
923.456	6311.75
923.767	6338.65
924.077	6302.49
924.387	6287.8
924.697	6222.27
925.008	6227.24
925.318	6212.55
925.628	6286.67
925.938	6190.63
926.248	6112.21
926.558	6097.52
926.867	6068.37
927.177	6071.31
927.487	6028.6
927.796	5970.52
928.106	5968.04
928.416	6001.93
928.725	5925.55
929.034	5912.22
929.344	5948.6
929.653	5908.15
929.962	5848.49
930.271	5786.8
930.581	5812.79
930.89	5775.95
931.199	5716.74
931.508	5712.9
931.817	5726.91
932.125	5736.85
932.434	5687.59
932.743	5603.75
933.051	5580.7
933.36	5577.31
933.669	5578.21
933.977	5557.42
934.286	5549.29
934.594	5493.7
934.902	5434.04
935.21	5417.54
935.519	5449.4
935.827	5418.67
936.135	5394.49
936.443	5280.37
936.751	5315.4
937.059	5351.55
937.367	5302.29
937.674	5292.12
937.982	5265.23
938.29	5204.21
938.597	5220.71
938.905	5174.16
939.213	5138.68
939.52	5120.37
939.827	5126.25
940.135	5073.14
940.442	5070.66
940.749	5051.68
941.056	5079.02
941.363	4999.47
941.67	4929.87
941.977	4888.06
942.284	4909.08
942.591	4949.76
942.898	4912.24
943.205	4866.14
943.511	4895.75
943.818	4839.03
944.125	4750.21
944.431	4818.91
944.738	4770.33
945.044	4759.03
945.35	4692.14
945.657	4713.6
945.963	4699.82
946.269	4617.56
946.575	4678.13
946.881	4595.42
947.187	4606.26
947.493	4594.96
947.799	4546.6
948.105	4546.83
948.41	4492.14
948.716	4564
949.022	4519.49
949.327	4441.3
949.633	4487.62
949.938	4438.58
950.244	4451.01
950.549	4431.8
950.854	4390.45
951.16	4358.59
951.465	4372.14
951.77	4326.27
952.075	4305.03
952.38	4312.71
952.685	4311.58
952.99	4218.93
953.294	4216.89
953.599	4190.91
953.904	4198.59
954.209	4161.08
954.513	4166.05
954.818	4176.22
955.122	4141.87
955.426	4103.9
955.731	4108.88
956.035	4079.05
956.339	4043.57
956.643	4035.88
956.948	4022.55
957.252	3994.53
957.556	4013.06
957.86	4015.32
958.163	3980.74
958.467	3929.67
958.771	3944.81
959.075	3888.32
959.378	3833.18
959.682	3889.22
959.985	3849.22
960.289	3795.44
960.592	3805.38
960.896	3810.58
961.199	3792.27
961.502	3787.08
961.805	3717.92
962.108	3722.9
962.411	3721.31
962.714	3709.56
963.017	3708.89
963.32	3679.51
963.623	3658.49
963.926	3653.75
964.228	3588.21
964.531	3621.43
964.833	3604.93
965.136	3552.96
965.438	3554.99
965.741	3562.9
966.043	3482.45
966.345	3507.53
966.648	3525.84
966.95	3449.46
967.252	3484.71
967.554	3467.99
967.856	3460.98
968.158	3393.41
968.46	3411.27
968.761	3404.71
969.063	3376.24
969.365	3365.39
969.666	3384.15
969.968	3371.27
970.269	3341.21
970.571	3309.12
970.872	3259.41
971.174	3252.17
971.475	3292.85
971.776	3241.78
972.077	3277.48
972.378	3244.49
972.679	3218.73
972.98	3218.73
973.281	3197.03
973.582	3121.1
973.883	3166.07
974.183	3131.95
974.484	3166.98
974.785	3092.18
975.085	3116.81
975.386	3125.4
975.686	3067.77
975.986	3035.46
976.287	3066.19
976.587	3046.53
976.887	3025.97
977.187	3025.29
977.487	3015.12
977.787	2989.13
978.087	2946.65
978.387	2951.17
978.687	2960.66
978.987	2898.29
979.286	2953.88
979.586	2879.75
979.885	2870.72
980.185	2864.84
980.484	2863.71
980.784	2878.4
981.083	2811.73
981.382	2846.99
981.682	2828.46
981.981	2820.1
982.28	2797.5
982.579	2745.07
982.878	2763.6
983.177	2758.18
983.475	2777.61
983.774	2707.78
984.073	2724.5
984.372	2691.06
984.67	2666.43
984.969	2663.94
985.267	2700.32
985.566	2667.78
985.864	2647.44
986.162	2630.27
986.461	2604.06
986.759	2595.47
987.057	2584.85
987.355	2577.39
987.653	2592.98
987.951	2537.16
988.249	2552.76
988.547	2541.46
988.844	2518.41
989.142	2484.06
989.44	2488.8
989.737	2505.08
990.035	2472.08
990.332	2446.55
990.63	2461.91
990.927	2416.72
991.224	2438.86
991.521	2413.78
991.819	2398.64
992.116	2385.76
992.413	2392.31
992.71	2350.05
993.006	2339.2
993.303	2363.61
993.6	2346.21
993.897	2305.31
994.193	2300.11
994.49	2300.56
994.787	2293.33
995.083	2284.06
995.379	2260.34
995.676	2261.47
995.972	2268.92
996.268	2253.1
996.565	2186.67
996.861	2228.25
997.157	2219.21
997.453	2167.68
997.749	2201.35
998.044	2168.59
998.34	2144.41
998.636	2123.39
998.932	2172.2
999.227	2131.53
999.523	2130.85
999.818	2102.6
1000.114	2096.27
1000.409	2070.74
1000.704	2074.13
1001	2065.31
1001.295	2057.86
1001.59	2030.29
1001.885	2046.33
1002.18	2043.39
1002.475	2012.66
1002.77	1974.47
1003.065	1974.69
1003.359	1993.9
1003.654	1940.57
1003.949	1927.01
1004.243	1943.06
1004.538	1931.53
1004.832	1919.1
1005.127	1921.81
1005.421	1912.1
1005.715	1899.67
1006.009	1891.98
1006.304	1862.38
1006.598	1851.53
1006.892	1846.11
1007.186	1842.95
1007.48	1834.58
1007.773	1822.83
1008.067	1830.29
1008.361	1823.06
1008.655	1769.28
1008.948	1757.07
1009.242	1759.78
1009.535	1727.69
1009.829	1757.75
1010.122	1773.8
1010.415	1719.79
1010.708	1719.33
1011.001	1698.32
1011.295	1695.38
1011.588	1704.64
1011.881	1686.57
1012.173	1637.75
1012.466	1652.67
1012.759	1649.96
1013.052	1668.71
1013.344	1616.29
1013.637	1626.45
1013.93	1600.92
1014.222	1595.04
1014.514	1583.07
1014.807	1571.99
1015.099	1554.37
1015.391	1572.67
1015.683	1547.81
1015.976	1539.23
1016.268	1529.06
1016.56	1531.54
1016.851	1528.15
1017.143	1489.96
1017.435	1497.19
1017.727	1500.81
1018.018	1440.92
1018.31	1467.81
1018.602	1478.89
1018.893	1477.76
1019.185	1451.54
1019.476	1449.96
1019.767	1458.1
1020.058	1404.09
1020.35	1427.14
1020.641	1413.13
1020.932	1392.79
1021.223	1374.26
1021.514	1367.03
1021.804	1351.66
1022.095	1331.55
1022.386	1331.55
1022.677	1316.63
1022.967	1368.38
1023.258	1334.71
1023.548	1293.13
1023.839	1296.07
1024.129	1298.55
1024.419	1291.32
1024.709	1278.89
1025	1287.25
1025.29	1251.55
1025.58	1250.42
1025.87	1238.22
1026.16	1223.98
1026.449	1218.78
1026.739	1234.37
1027.029	1214.04
1027.319	1202.51
1027.608	1202.96
1027.898	1194.38
1028.187	1200.7
1028.477	1201.83
1028.766	1167.94
1029.055	1152.57
1029.344	1143.08
1029.634	1183.08
1029.923	1130.65
1030.212	1133.81
1030.501	1127.03
1030.79	1128.84
1031.078	1114.38
1031.367	1077.32
1031.656	1085
1031.945	1111.67
1032.233	1082.51
1032.522	1075.51
1032.81	1058.33
1033.099	1060.37
1033.387	1050.65
1033.675	1031.67
1033.963	1027.83
1034.251	1046.81
1034.54	1038
1034.828	1007.04
1035.116	1030.99
1035.403	994.38
1035.691	990.54
1035.979	988.51
1036.267	1006.58
1036.554	973.59
1036.842	941.73
1037.129	973.36
1037.417	946.25
1037.704	967.04
1037.992	913.25
1038.279	920.94
1038.566	930.2
1038.853	930.2
1039.14	930.2
