Data from hue_28_FLMS001491_00059.txt Node
Date: Tue Feb 07 17:17:29 GMT 2017
User: dcchb
Spectrometer: FLMS00149
Trigger mode: 0
Integration Time (sec): 2.000000E-2
Scans to average: 10
Electric dark correction enabled: true
Nonlinearity correction enabled: false
Boxcar width: 0
XAxis mode: Wavelengths
Number of Pixels in Spectrum: 2048
>>>>>Begin Spectral Data<<<<<
341.393	-28.39
341.776	-28.39
342.16	-28.39
342.543	-64.77
342.927	-63.64
343.31	-83.75
343.693	-69.74
344.077	-47.6
344.46	-67.71
344.843	-61.83
345.226	-30.2
345.61	-26.13
345.993	-29.74
346.376	2.12
346.759	27.65
347.142	25.85
347.525	24.04
347.908	35.79
348.291	95
348.674	82.34
349.057	123.92
349.44	130.93
349.823	136.8
350.206	159.85
350.588	190.81
350.971	213.86
351.354	245.28
351.737	253.86
352.119	269.68
352.502	252.28
352.884	286.63
353.267	262.22
353.65	292.51
354.032	309
354.414	301.32
354.797	314.65
355.179	324.82
355.562	316.69
355.944	346.74
356.326	337.93
356.709	352.84
357.091	335.22
357.473	336.12
357.855	333.64
358.238	339.51
358.62	349.91
359.002	355.33
359.384	330.02
359.766	341.09
360.148	349
360.53	353.52
360.912	348.1
361.294	361.21
361.676	331.83
362.057	341.54
362.439	346.74
362.821	330.02
363.203	330.7
363.584	311.26
363.966	325.27
364.348	340.19
364.729	311.71
365.111	313.97
365.493	328.66
365.874	318.95
366.256	319.62
366.637	335.44
367.019	310.13
367.4	332.51
367.781	313.07
368.163	325.5
368.544	323.92
368.925	333.41
369.306	340.87
369.688	327.53
370.069	328.44
370.45	324.6
370.831	313.97
371.212	321.66
371.593	303.13
371.974	302.45
372.355	312.39
372.736	307.2
373.117	322.56
373.498	326.18
373.879	291.15
374.26	311.26
374.641	320.08
375.021	319.4
375.402	316.91
375.783	330.47
376.163	323.69
376.544	327.53
376.925	336.57
377.305	312.17
377.686	333.86
378.066	313.07
378.447	317.59
378.827	343.8
379.208	335.67
379.588	342.45
379.968	349.45
380.349	345.84
380.729	334.09
381.109	336.12
381.489	329.12
381.87	346.74
382.25	347.65
382.63	346.52
383.01	349
383.39	332.28
383.77	349.45
384.15	352.84
384.53	363.47
384.91	349
385.29	358.95
385.67	361.21
386.049	350.13
386.429	335.67
386.809	382.22
387.189	375.89
387.568	344.71
387.948	348.78
388.328	368.44
388.707	374.76
389.087	366.63
389.466	367.53
389.846	374.09
390.225	365.95
390.605	372.5
390.984	368.89
391.363	370.47
391.743	361.43
392.122	391.03
392.501	368.44
392.881	365.95
393.26	369.57
393.639	376.57
394.018	383.13
394.397	369.79
394.776	393.29
395.155	376.57
395.534	373.63
395.913	393.97
396.292	402.11
396.671	394.2
397.05	411.83
397.429	379.28
397.808	390.36
398.186	381.09
398.565	386.97
398.944	384.93
399.323	372.96
399.701	389
400.08	401.43
400.458	417.02
400.837	396.46
401.215	414.76
401.594	383.35
401.972	402.56
402.351	398.49
402.729	390.13
403.107	399.85
403.486	398.72
403.864	404.14
404.242	419.51
404.62	437.14
404.999	424.03
405.377	432.16
405.755	426.29
406.133	431.26
406.511	430.13
406.889	408.44
407.267	429.68
407.645	415.22
408.023	412.28
408.401	452.05
408.779	440.3
409.156	426.74
409.534	428.55
409.912	442.11
410.29	457.47
410.667	444.14
411.045	452.73
411.422	456.8
411.8	471.48
412.178	454.08
412.555	455.21
412.933	465.84
413.31	478.04
413.687	483.46
414.065	482.11
414.442	476.23
414.819	472.39
415.197	487.76
415.574	501.77
415.951	482.56
416.328	494.08
416.705	475.55
417.082	494.99
417.46	488.89
417.837	500.64
418.214	472.16
418.591	492.5
418.967	481.88
419.344	506.29
419.721	492.73
420.098	498.6
420.475	501.09
420.852	508.09
421.228	514.42
421.605	511.94
421.982	523.91
422.358	538.15
422.735	523.69
423.111	536.12
423.488	526.17
423.864	544.7
424.241	543.35
424.617	553.06
424.994	535.44
425.37	564.14
425.746	549.67
426.123	564.14
426.499	559.62
426.875	557.13
427.251	575.44
427.627	590.35
428.003	553.74
428.379	582.89
428.756	589
429.132	574.76
429.507	608.2
429.883	580.63
430.259	596.91
430.635	586.28
431.011	609.56
431.387	612.72
431.763	644.14
432.138	633.74
432.514	606.4
432.89	606.62
433.265	646.85
433.641	644.36
434.016	657.24
434.392	647.3
434.767	690.01
435.143	655.89
435.518	650.24
435.894	659.73
436.269	673.06
436.644	667.19
437.02	681.87
437.395	682.55
437.77	699.5
438.145	691.59
438.52	693.63
438.895	741.31
439.271	699.05
439.646	726.62
440.021	714.42
440.395	718.71
440.77	726.17
441.145	742.89
441.52	732.49
441.895	756.45
442.27	750.57
442.645	753.74
443.019	751.48
443.394	746.05
443.769	756.68
444.143	780.4
444.518	758.71
444.892	774.3
445.267	782.66
445.641	787.63
446.016	791.93
446.39	797.8
446.764	780.63
447.139	763.91
447.513	809.1
447.887	793.51
448.262	769.78
448.636	808.65
449.01	820.63
449.384	806.62
449.758	844.81
450.132	846.39
450.506	854.98
450.88	828.76
451.254	839.61
451.628	839.61
452.002	864.69
452.376	863.11
452.75	857.24
453.123	849.55
453.497	889.33
453.871	897.46
454.244	891.13
454.618	893.17
454.992	914.41
455.365	916.44
455.739	915.09
456.112	916.67
456.486	918.7
456.859	921.42
457.232	956.67
457.606	967.74
457.979	983.79
458.352	1000.51
458.725	993.28
459.099	1005.26
459.472	991.02
459.845	1023.56
460.218	1033.28
460.591	1057.46
460.964	1057.46
461.337	1075.76
461.71	1080.51
462.083	1096.33
462.456	1082.77
462.829	1085.71
463.201	1140.39
463.574	1134.74
463.947	1134.97
464.32	1173.61
464.692	1161.86
465.065	1187.62
465.438	1187.4
465.81	1181.97
466.183	1211.58
466.555	1223.78
466.928	1242.09
467.3	1260.16
467.672	1283.89
468.045	1302.88
468.417	1293.84
468.789	1313.72
469.161	1300.62
469.534	1334.51
469.906	1384.23
470.278	1401.86
470.65	1409.31
471.022	1440.95
471.394	1443.21
471.766	1468.29
472.138	1437.56
472.51	1481.18
472.882	1545.13
473.253	1562.08
473.625	1582.42
473.997	1634.84
474.369	1630.1
474.74	1670.1
475.112	1690.21
475.484	1713.49
475.855	1763.43
476.227	1788.96
476.598	1824.67
476.97	1866.48
477.341	1867.83
477.713	1930.66
478.084	1946.02
478.455	1996.19
478.827	2028.96
479.198	2098.11
479.569	2132.46
479.94	2122.51
480.311	2164.1
480.682	2266.01
481.053	2294.94
481.424	2325.45
481.795	2364.99
482.166	2401.83
482.537	2420.81
482.908	2501.94
483.279	2567.7
483.65	2604.31
484.021	2677.53
484.391	2682.05
484.762	2801.14
485.133	2782.16
485.503	2845.21
485.874	2917.52
486.244	2954.36
486.615	3009.5
486.985	3069.38
487.356	3108.7
487.726	3204.52
488.097	3272.99
488.467	3335.82
488.837	3350.05
489.207	3440.45
489.578	3505.3
489.948	3531.07
490.318	3594.11
490.688	3682.93
491.058	3725.86
491.428	3746.65
491.798	3856.48
492.168	3918.17
492.538	3953.65
492.908	4023.93
493.278	4051.05
493.648	4062.58
494.017	4086.3
494.387	4191.39
494.757	4238.17
495.126	4323.36
495.496	4303.25
495.866	4391.38
496.235	4453.3
496.605	4517.93
496.974	4539.4
497.344	4545.05
497.713	4588.21
498.082	4627.31
498.452	4699.85
498.821	4747.3
499.19	4733.75
499.559	4801.77
499.928	4834.99
500.298	4894.87
500.667	4933.51
501.036	4944.59
501.405	4966.06
501.774	5021.65
502.143	5109.78
502.512	5094.19
502.88	5176.9
503.249	5181.42
503.618	5195.43
503.987	5284.24
504.356	5267.74
504.724	5328.98
505.093	5320.62
505.462	5380.96
505.83	5365.82
506.199	5461.18
506.567	5524.91
506.936	5507.51
507.304	5552.93
507.672	5580.05
508.041	5631.35
508.409	5626.6
508.777	5669.54
509.145	5766.26
509.514	5706.15
509.882	5781.4
510.25	5789.76
510.618	5766.71
510.986	5806.03
511.354	5862.98
511.722	5880.38
512.09	5929.87
512.458	5979.36
512.826	6014.39
513.193	5986.82
513.561	6029.76
513.929	6115.63
514.297	6150.21
514.664	6112.92
515.032	6209.19
515.4	6160.15
515.767	6204.44
516.135	6251.9
516.502	6228.85
516.869	6295.29
517.237	6271.11
517.604	6266.81
517.972	6343.42
518.339	6378
518.706	6425.9
519.073	6419.35
519.44	6462.51
519.808	6523.3
520.175	6486.02
520.542	6533.25
520.909	6550.87
521.276	6550.2
521.643	6625
522.009	6689.85
522.376	6686.46
522.743	6687.14
523.11	6793.8
523.477	6787.02
523.843	6869.96
524.21	6893.01
524.577	6946.12
524.943	6941.6
525.31	6993.8
525.676	7069.96
526.043	7043.52
526.409	7176.85
526.776	7113.34
527.142	7175.26
527.508	7177.98
527.874	7292.1
528.241	7293.9
528.607	7287.12
528.973	7363.28
529.339	7372.32
529.705	7469.04
530.071	7494.58
530.437	7533.9
530.803	7561.02
531.169	7647.57
531.535	7563.28
531.901	7565.99
532.267	7673.56
532.632	7731.18
532.998	7689.37
533.364	7778.19
533.73	7850.5
534.095	7863.83
534.461	7918.75
534.826	7947.22
535.192	7961.01
535.557	8002.13
535.923	7983.6
536.288	8042.36
536.653	8126.42
537.019	8101.57
537.384	8124.16
537.749	8174.79
538.114	8188.8
538.479	8178.4
538.845	8266.08
539.21	8214.56
539.575	8260.43
539.94	8292.52
540.305	8369.13
540.67	8379.53
541.034	8490.93
541.399	8451.84
541.764	8485.96
542.129	8559.63
542.494	8603.02
542.858	8663.59
543.223	8701.1
543.587	8723.02
543.952	8704.94
544.316	8749.91
544.681	8795.11
545.045	8803.24
545.41	8911.26
545.774	8876.46
546.138	8919.85
546.503	8964.59
546.867	8948.78
547.231	9096.12
547.595	9138.38
547.959	9137.92
548.324	9097.02
548.688	9164.59
549.052	9236.68
549.416	9104.25
549.779	9205.72
550.143	9340.18
550.507	9320.07
550.871	9299.05
551.235	9351.03
551.599	9374.3
551.962	9431.7
552.326	9459.05
552.689	9498.59
553.053	9489.1
553.417	9520.06
553.78	9685.03
554.143	9562.55
554.507	9642.09
554.87	9658.36
555.234	9775.87
555.597	9732.26
555.96	9810
556.323	9767.29
556.686	9793.95
557.05	9871.01
557.413	9890.22
557.776	9915.08
558.139	10014.06
558.502	10040.05
558.865	10027.39
559.228	10062.87
559.59	10063.32
559.953	10108.75
560.316	10212.92
560.679	10140.16
561.041	10267.16
561.404	10314.16
561.767	10307.61
562.129	10271.91
562.492	10450.21
562.854	10417.21
563.217	10400.94
563.579	10387.61
563.941	10463.54
564.304	10554.61
564.666	10553.93
565.028	10632.8
565.39	10649.97
565.753	10725.45
566.115	10730.2
566.477	10747.37
566.839	10831.44
567.201	10927.03
567.563	10826.92
567.925	10927.03
568.287	10996.63
568.648	10957.76
569.01	11088.15
569.372	11011.09
569.734	11047.48
570.095	11167.25
570.457	11296.28
570.819	11256.74
571.18	11335.38
571.542	11399.11
571.903	11418.54
572.265	11536.73
572.626	11500.12
572.987	11612.89
573.349	11600.91
573.71	11744.41
574.071	11718.19
574.432	11795.03
574.794	11978.98
575.155	12034.57
575.516	12035.7
575.877	12125.87
576.238	12188.46
576.599	12258.75
576.96	12391.17
577.32	12478.63
577.681	12609.47
578.042	12697.38
578.403	12818.5
578.763	12998.39
579.124	13035.45
579.485	13259.4
579.845	13285.39
580.206	13444.7
580.566	13587.52
580.927	13674.08
581.287	13930.34
581.648	14049.43
582.008	14219.6
582.368	14356.77
582.728	14524.22
583.089	14662.07
583.449	14997.66
583.809	15133.47
584.169	15318.1
584.529	15545.44
584.889	15849.39
585.249	16021.13
585.609	16165.31
585.969	16514
586.329	16636.71
586.688	17007.1
587.048	17176.81
587.408	17379.97
587.768	17633.75
588.127	17996.45
588.487	18300.85
588.846	18567.51
589.206	18760.27
589.565	19097.21
589.925	19491.32
590.284	19737.42
590.643	20014.93
591.003	20374.92
591.362	20748.69
591.721	20919.08
592.08	21360.88
592.44	21710.02
592.799	22087.41
593.158	22325.83
593.517	22633.16
593.876	22989.31
594.235	23358.34
594.593	23650.08
594.952	24068.15
595.311	24339.78
595.67	24650.74
596.029	25170.04
596.387	25405.52
596.746	25826.98
597.104	26097.25
597.463	26441.2
597.822	26745.37
598.18	27098.36
598.538	27456.99
598.897	27750.54
599.255	27915.28
599.613	28637.07
599.972	28652.89
600.33	29163.39
600.688	29287.68
601.046	29761.79
601.404	30132.17
601.762	30436.8
602.12	30915.43
602.478	31122.2
602.836	31443.1
603.194	31620.5
603.552	32007.6
603.91	32238.11
604.268	32640.81
604.625	32881.48
604.983	33160.79
605.341	33192.88
605.698	33757.16
606.056	34108.34
606.413	34212.07
606.771	34551.27
607.128	34784.25
607.485	35005.04
607.843	35219.5
608.2	35652.93
608.557	36020.83
608.914	36141.51
609.272	36400.03
609.629	36709.18
609.986	37044.08
610.343	37123.63
610.7	37469.38
611.057	37702.37
611.414	37864.63
611.771	38095.58
612.127	38406.76
612.484	38542.8
612.841	38952.28
613.198	38917.48
613.554	39089.68
613.911	39520.4
614.267	39688.31
614.624	39845.14
614.98	39941.18
615.337	40353.37
615.693	40460.04
616.05	40521.73
616.406	40833.36
616.762	40839.46
617.118	41091.66
617.475	41171.66
617.831	41458.2
618.187	41636.73
618.543	41874.01
618.899	41993.56
619.255	42052.76
619.611	42171.18
619.967	42359.2
620.323	42638.96
620.678	42577.5
621.034	42622.92
621.39	42731.84
621.746	42840.77
622.101	43361.2
622.457	43081.44
622.812	43154.88
623.168	43503.57
623.523	43484.14
623.879	43701.99
624.234	43379.51
624.589	43748.54
624.945	43856.33
625.3	44072.15
625.655	43967.97
626.01	44071.02
626.365	44165.93
626.72	44191.01
627.075	44113.28
627.43	44113.28
627.785	44235.08
628.14	44330.44
628.495	44556.88
628.85	44428.75
629.205	44519.59
629.559	44746.93
629.914	44530.89
630.269	44736.08
630.623	44632.36
630.978	44492.7
631.332	44893.59
631.687	45030.31
632.041	44889.75
632.396	44931.56
632.75	44743.32
633.104	44910.54
633.459	44816.53
633.813	44833.03
634.167	44944.89
634.521	44716.2
634.875	45035.74
635.229	45024.89
635.583	44873.93
635.937	44902.41
636.291	44813.37
636.645	44939.92
636.999	44906.02
637.352	44962.52
637.706	44745.35
638.06	44972.69
638.413	44982.4
638.767	44892.92
639.121	44961.61
639.474	44715.75
639.828	44674.16
640.181	44807.72
640.534	44786.93
640.888	44656.76
641.241	44579.25
641.594	44649.31
641.947	44913.48
642.301	44823.09
642.654	44835.52
643.007	44880.94
643.36	44731.34
643.713	44730.43
644.066	45001.16
644.419	44616.99
644.771	44426.71
645.124	43974.3
645.477	44002.54
645.83	43740.4
646.182	43516
646.535	43491.37
646.888	43471.03
647.24	43355.55
647.593	43759.61
647.945	43645.04
648.298	43496.79
648.65	43278.95
649.002	43246.86
649.355	43330.47
649.707	43324.82
650.059	43541.54
650.411	43993.28
650.763	44033.05
651.115	44413.61
651.467	44379.48
651.819	44316.43
652.171	44208.41
652.523	44175.87
652.875	44226.04
653.227	43930.68
653.578	44353.72
653.93	44210.22
654.282	44096.78
654.633	44024.92
654.985	44115.76
655.337	44166.16
655.688	44157.79
656.039	44213.61
656.391	44021.07
656.742	43976.1
657.094	43993.73
657.445	44166.61
657.796	44124.35
658.147	43896.78
658.498	43933.17
658.849	44138.13
659.2	43871.02
659.551	43816.11
659.902	43940.4
660.253	43965.48
660.604	43878.93
660.955	43710.12
661.306	44047.74
661.656	43899.27
662.007	43911.7
662.358	43895.43
662.708	43886.16
663.059	43791.02
663.409	43676
663.76	43917.57
664.11	44006.84
664.461	43975.65
664.811	43937.01
665.161	43866.73
665.511	43892.04
665.862	43987.18
666.212	43885.94
666.562	43899.04
666.912	43763.68
667.262	43847.29
667.612	43801.87
667.962	43801.19
668.312	43686.85
668.662	43955.54
669.011	43788.99
669.361	43772.72
669.711	43795.32
670.06	43742.89
670.41	43674.19
670.76	43560.3
671.109	43796
671.459	43583.57
671.808	43620.18
672.157	43613.18
672.507	43436.91
672.856	43439.62
673.205	43549
673.554	43679.16
673.904	43537.02
674.253	43661.31
674.602	43607.07
674.951	42995.56
675.3	42849.81
675.649	43374.99
675.998	43455.44
676.346	43487.98
676.695	43501.54
677.044	43204.15
677.393	43395.55
677.741	43338.83
678.09	43249.8
678.438	43087.09
678.787	43208.89
679.135	43325.95
679.484	42944.94
679.832	43102.23
680.181	43019.52
680.529	43099.06
680.877	42882.8
681.225	42859.3
681.573	43263.58
681.922	42779.98
682.27	42665.18
682.618	42555.58
682.966	42627.66
683.314	42685.06
683.661	42674.67
684.009	42354.9
684.357	42468.8
684.705	42339.08
685.053	42349.71
685.4	42460.66
685.748	42198.98
686.095	42101.58
686.443	41977.74
686.79	41931.19
687.138	41999.43
687.485	41926.44
687.832	41764.64
688.18	41827.46
688.527	41485.55
688.874	41607.58
689.221	41474.02
689.568	41504.98
689.915	41354.48
690.262	41381.6
690.609	41312.22
690.956	41037.42
691.303	41102.28
691.65	40797.66
691.997	41006.46
692.344	40723.08
692.69	40439.25
693.037	40668.17
693.383	40381.17
693.73	40618.9
694.077	40208.29
694.423	40299.14
694.769	40149.31
695.116	39929.88
695.462	40023.44
695.808	39921.75
696.155	39954.74
696.501	39594.52
696.847	39705.93
697.193	39264.82
697.539	39522.44
697.885	39327.86
698.231	39125.84
698.577	39090.58
698.923	39042.9
699.269	38817.6
699.614	38678.84
699.96	38795.67
700.306	38600.43
700.651	38533.31
700.997	38414.44
701.342	38398.17
701.688	38332.18
702.033	38192.07
702.379	38212.64
702.724	38054.9
703.069	38255.58
703.415	37660.11
703.76	37914.34
704.105	37894
704.45	37684.52
704.795	37524.07
705.14	37341.48
705.485	37351.42
705.83	37232.1
706.175	37189.16
706.52	37024.2
706.865	37032.56
707.209	36913.69
707.554	36820.59
707.899	36833.47
708.243	36703.53
708.588	36616.52
708.932	36451.1
709.277	36414.72
709.621	36468.96
709.966	36213.37
710.31	36287.49
710.654	36053.83
710.998	36118.46
711.342	36142.64
711.687	35982.19
712.031	35772.03
712.375	35593.73
712.719	35730.22
713.063	35615.19
713.407	35809.54
713.75	35549.21
714.094	35508.08
714.438	35382.21
714.782	35354.18
715.125	35252.94
715.469	35228.99
715.812	35105.38
716.156	35085.26
716.499	34901.09
716.843	34967.98
717.186	34759.4
717.53	34883.01
717.873	34829.9
718.216	34709.23
718.559	34679.62
718.902	34306.98
719.246	34561.44
719.589	34377.03
719.932	34289.8
720.275	34181.33
720.617	34190.6
720.96	34217.49
721.303	34123.03
721.646	34191.05
721.989	34055.23
722.331	34089.58
722.674	33913.77
723.016	33970.94
723.359	33826.99
723.701	33862.47
724.044	33755.58
724.386	33529.37
724.729	33699.31
725.071	33624.29
725.413	33524.18
725.755	33517.17
726.097	33421.8
726.439	33310.17
726.782	33265.42
727.124	33417.96
727.465	33233.34
727.807	33124.41
728.149	33088.03
728.491	32961.25
728.833	33106.33
729.175	32852.33
729.516	32825.21
729.858	32737.08
730.199	32823.63
730.541	32820.46
730.882	32686.46
731.224	32822.72
731.565	32592.67
731.906	32636.51
732.248	32533.69
732.589	32409.18
732.93	32446.24
733.271	32294.15
733.612	32354.71
733.953	32383.41
734.294	32236.75
734.635	32185.45
734.976	32209.18
735.317	32074.04
735.658	31922.64
735.999	31989.07
736.339	31999.92
736.68	32153.82
737.021	31961.05
737.361	31769.87
737.702	31890.32
738.042	31804.9
738.383	31824.56
738.723	31820.49
739.063	31705.69
739.404	31713.15
739.744	31662.98
740.084	31496.43
740.424	31445.81
740.764	31565.58
741.104	31537.79
741.444	31390.67
741.784	31180.51
742.124	31325.36
742.464	31208.3
742.804	31192.26
743.143	31050.57
743.483	31087.4
743.823	31047.18
744.162	30968.76
744.502	30948.65
744.841	30833.85
745.181	30955.43
745.52	30704.81
745.86	30745.72
746.199	30724.7
746.538	30751.37
746.877	30764.02
747.216	30807.86
747.556	30644.48
747.895	30651.48
748.234	30585.5
748.573	30479.28
748.911	30611.03
749.25	30366.52
749.589	30285.62
749.928	30389.79
750.267	30322.23
750.605	30400.87
750.944	30187.31
751.283	30036.58
751.621	30162.23
751.96	29887.89
752.298	29903.71
752.636	29980.31
752.975	29810.37
753.313	29643.83
753.651	29785.97
753.989	29722.47
754.327	29509.82
754.666	29416.94
755.004	29530.16
755.342	29473.43
755.679	29514.56
756.017	29303.72
756.355	29360.67
756.693	29244.51
757.031	29235.93
757.368	29037.97
757.706	29036.84
758.044	28925.65
758.381	29052.65
758.719	28854.24
759.056	28873.68
759.394	28782.6
759.731	28667.13
760.068	28605.89
760.405	28487.02
760.743	28444.76
761.08	28570.86
761.417	28284.54
761.754	28225.78
762.091	28251.09
762.428	28084.32
762.765	27871.44
763.102	28115.28
763.438	27890.2
763.775	27756.19
764.112	27728.17
764.449	27772.24
764.785	27566.59
765.122	27523.88
765.458	27411.79
765.795	27354.39
766.131	27256.09
766.467	27094.74
766.804	27010.9
767.14	26934.74
767.476	26958.02
767.812	26732.72
768.148	26769.32
768.485	26502.44
768.821	26427.19
769.157	26409.33
769.492	26441.88
769.828	26309.68
770.164	26160.53
770.5	26019.29
770.836	26016.12
771.171	25999.63
771.507	25885.05
771.842	25581.56
772.178	25697.04
772.513	25580.2
772.849	25453.88
773.184	25391.51
773.519	25335.46
773.855	25248.69
774.19	25159.88
774.525	25069.03
774.86	25031.29
775.195	24999.65
775.53	24908.58
775.865	24749.94
776.2	24484.19
776.535	24423.4
776.87	24399.67
777.205	24385.21
777.539	24232.22
777.874	24340.46
778.209	24043.29
778.543	23939.57
778.878	23958.55
779.212	23821.83
779.547	23726.92
779.881	23746.35
780.215	23490.09
780.55	23602.4
780.884	23467.04
781.218	23427.49
781.552	23405.57
781.886	23273.15
782.22	23139.59
782.554	23048.52
782.888	22879.71
783.222	22843.33
783.556	22720.84
783.889	22594.74
784.223	22555.2
784.557	22471.13
784.89	22575.54
785.224	22343.23
785.557	22269.33
785.891	22215.09
786.224	22200.86
786.558	22155.21
786.891	21858.04
787.224	21802.45
787.557	21834.76
787.891	21740.98
788.224	21583.92
788.557	21637.93
788.89	21580.08
789.223	21484.49
789.556	21309.13
789.888	21300.54
790.221	21173.31
790.554	20965.86
790.887	20991.85
791.219	20930.16
791.552	20938.29
791.884	20771.52
792.217	20750.27
792.549	20638.41
792.882	20502.14
793.214	20452.88
793.546	20507.79
793.879	20361.58
794.211	20280.46
794.543	20388.25
794.875	20216.28
795.207	20207.24
795.539	20077.75
795.871	20236.39
796.203	19913.91
796.535	19794.59
796.867	19857.19
797.198	19738.77
797.53	19704.88
797.862	19665.56
798.193	19717.31
798.525	19595.73
798.856	19630.08
799.188	19316.19
799.519	19296.98
799.85	19270.54
800.182	19228.73
800.513	19252.23
800.844	19099.92
801.175	19141.05
801.506	19021.96
801.837	18947.84
802.168	18816.31
802.499	18882.98
802.83	18731.57
803.161	18725.92
803.491	18657
803.822	18696.54
804.153	18586.49
804.483	18372.48
804.814	18340.85
805.145	18321.18
805.475	18340.85
805.805	18230.57
806.136	18266.27
806.466	18287.06
806.796	18216.78
807.126	18022.21
807.457	17961.65
807.787	17987.18
808.117	17854.53
808.447	17791.48
808.777	17818.83
809.107	17699.96
809.436	17691.82
809.766	17710.81
810.096	17665.16
810.426	17540.19
810.755	17511.26
811.085	17478.95
811.414	17469
811.744	17284.6
812.073	17319.63
812.403	17294.32
812.732	17302.91
813.061	17166.87
813.39	17144.94
813.719	17095.45
814.049	17175.23
814.378	17069.24
814.707	16958.06
815.036	16940.88
815.365	16916.48
815.693	16627.44
816.022	16752.19
816.351	16629.93
816.68	16598.07
817.008	16628.57
817.337	16586.54
817.665	16499.09
817.994	16568.69
818.322	16588.35
818.651	16366.21
818.979	16324.63
819.307	16328.24
819.636	16357.62
819.964	16269.49
820.292	16286.44
820.62	16235.14
820.948	16256.61
821.276	16218.87
821.604	16174.12
821.932	16179.32
822.259	16160.11
822.587	16186.1
822.915	16182.26
823.243	16214.35
823.57	16097.06
823.898	16092.09
824.225	16029.95
824.553	16098.87
824.88	16069.04
825.207	16115.37
825.535	16061.81
825.862	16131.86
826.189	16034.24
826.516	16119.43
826.843	16181.13
827.17	16040.57
827.497	16147
827.824	16096.16
828.151	16116.27
828.478	16075.59
828.805	16140.9
829.131	16086.22
829.458	16166.21
829.785	16049.83
830.111	16022.71
830.438	16103.84
830.764	16107.01
831.09	16091.87
831.417	16010.74
831.743	16086.22
832.069	16030.62
832.395	16080.79
832.722	16030.62
833.048	15949.27
833.374	15965.77
833.7	15930.51
834.026	15956.95
834.351	15970.06
834.677	15936.16
835.003	15910.4
835.329	15885.32
835.654	15912.21
835.98	15777.52
836.306	15865.88
836.631	15737.07
836.956	15676.06
837.282	15756.96
837.607	15691.65
837.932	15643.06
838.258	15612.1
838.583	15644.19
838.908	15489.17
839.233	15504.31
839.558	15486.46
839.883	15517.64
840.208	15479.23
840.533	15406.69
840.858	15425.22
841.182	15401.49
841.507	15356.97
841.832	15345.67
842.156	15297.54
842.481	15279.23
842.805	15199.01
843.13	15261.83
843.454	15135.28
843.778	15168.95
844.103	15147.26
844.427	15121.72
844.751	15018.45
845.075	14999.69
845.399	14936.19
845.723	14767.83
846.047	14879.69
846.371	14685.8
846.695	14756.08
847.019	14651.68
847.343	14634.28
847.666	14469.76
847.99	14431.8
848.313	14422.98
848.637	14313.61
848.96	14384.57
849.284	14287.84
849.607	14168.53
849.931	14192.71
850.254	14038.81
850.577	13907.97
850.9	13786.39
851.223	13841.98
851.546	13824.13
851.869	13666.84
852.192	13809.89
852.515	13639.95
852.838	13537.81
853.161	13586.62
853.483	13457.13
853.806	13406.51
854.129	13404.48
854.451	13327.87
854.774	13317.7
855.096	13236.8
855.419	13136.01
855.741	13192.96
856.063	13152.28
856.385	13082.9
856.708	13069.8
857.03	13069.12
857.352	13046.75
857.674	13031.15
857.996	12901.67
858.318	12809.69
858.64	12798.84
858.961	12816.92
859.283	12702.8
859.605	12728.34
859.926	12820.09
860.248	12712.29
860.57	12588.23
860.891	12624.84
861.212	12535.12
861.534	12578.06
861.855	12548
862.176	12568.12
862.498	12500.55
862.819	12529.7
863.14	12451.51
863.461	12375.8
863.782	12451.73
864.103	12382.81
864.424	12315.92
864.745	12261.01
865.065	12290.38
865.386	12224.85
865.707	12153.66
866.027	12259.65
866.348	12149.37
866.668	12207.45
866.989	12106.21
867.309	12093.1
867.63	12097.62
867.95	12087.22
868.27	12065.53
868.59	12027.34
868.91	12006.77
869.23	12030.28
869.55	11842.03
869.87	12012.88
870.19	11941.69
870.51	11907.34
870.83	11922.03
871.15	11858.53
871.469	11832.99
871.789	11889.72
872.109	11863.28
872.428	11775.14
872.748	11731.3
873.067	11793.9
873.386	11773.56
873.706	11727.46
874.025	11712.77
874.344	11598.42
874.663	11650.63
874.982	11610.85
875.301	11559.78
875.62	11616.05
875.939	11576.05
876.258	11444.98
876.577	11512.78
876.896	11525.21
877.214	11453.57
877.533	11533.79
877.852	11415.6
878.17	11480.69
878.489	11477.75
878.807	11381.03
879.125	11445.21
879.444	11383.06
879.762	11371.54
880.08	11382.38
880.398	11263.97
880.716	11303.74
881.034	11263.52
881.352	11277.53
881.67	11222.61
881.988	11223.29
882.306	11146.46
882.624	11110.75
882.941	11067.14
883.259	11063.52
883.577	11015.84
883.894	11035.27
884.212	11047.25
884.529	11016.74
884.846	11031.21
885.164	11031.89
885.481	10899.46
885.798	10972.45
886.115	10819.69
886.432	10861.27
886.75	10800.03
887.067	10828.05
887.383	10757.77
887.7	10747.15
888.017	10688.84
888.334	10718.22
888.651	10692.23
888.967	10648.62
889.284	10558.68
889.6	10566.13
889.917	10499.24
890.233	10493.82
890.55	10404.56
890.866	10492.01
891.182	10468.74
891.498	10361.17
891.815	10272.13
892.131	10294.28
892.447	10291.79
892.763	10186.26
893.079	10170.66
893.395	10200.95
893.71	10160.27
894.026	10145.81
894.342	10059.71
894.657	10062.42
894.973	10050.22
895.289	9974.06
895.604	10019.71
895.92	9951.24
896.235	9895.64
896.55	9873.5
896.865	9889.99
897.181	9807.74
897.496	9777.45
897.811	9737.46
898.126	9799.6
898.441	9778.58
898.756	9672.6
899.071	9557.57
899.386	9552.83
899.7	9512.38
900.015	9511.25
900.33	9464.47
900.644	9412.27
900.959	9475.32
901.273	9451.14
901.588	9326.85
901.902	9260.86
902.216	9270.8
902.531	9267.64
902.845	9176.57
903.159	9208.43
903.473	9096.79
903.787	9022.67
904.101	9009.57
904.415	9017.7
904.729	9008.66
905.042	8998.04
905.356	8909.23
905.67	8930.47
905.984	8888.44
906.297	8851.38
906.611	8843.69
906.924	8776.8
907.237	8755.56
907.551	8717.14
907.864	8651.61
908.177	8731.61
908.491	8635.11
908.804	8556.24
909.117	8558.28
909.43	8433.08
909.743	8467.21
910.056	8371.16
910.368	8353.09
910.681	8366.42
910.994	8370.71
911.307	8312.41
911.619	8258.62
911.932	8269.7
912.244	8259.53
912.557	8125.29
912.869	8126.42
913.181	8147.44
913.494	8090.95
913.806	7982.02
914.118	8015.92
914.43	7925.53
914.742	7979.76
915.054	7866.77
915.366	7864.74
915.678	7863.61
915.99	7843.04
916.302	7700
916.613	7746.55
916.925	7740.67
917.236	7719.88
917.548	7649.38
917.859	7668.36
918.171	7550.39
918.482	7541.13
918.794	7465.65
919.105	7467.23
919.416	7411.64
919.727	7365.54
920.038	7437.4
920.349	7330.74
920.66	7317.86
920.971	7288.25
921.282	7298.65
921.593	7180.23
921.903	7215.04
922.214	7129.84
922.525	7105.66
922.835	7137.52
923.146	7071.54
923.456	7098.43
923.767	6999.67
924.077	6976.85
924.387	7012.1
924.697	6878.77
925.008	6912.22
925.318	6828.38
925.628	6854.14
925.938	6856.18
926.248	6756.97
926.558	6725.33
926.867	6684.88
927.177	6708.38
927.487	6617.31
927.796	6633.36
928.106	6618.44
928.416	6581.61
928.725	6586.8
929.034	6537.77
929.344	6501.83
929.653	6499.35
929.962	6408.73
930.271	6406.47
930.581	6357.66
930.89	6389.97
931.199	6295.74
931.508	6285.57
931.817	6313.82
932.125	6299.58
932.434	6223.2
932.743	6181.84
933.051	6211.22
933.36	6082.86
933.669	6085.57
933.977	6075.41
934.286	6062.07
934.594	6036.31
934.902	6001.96
935.21	5992.02
935.519	5972.13
935.827	5951.57
936.135	5903.66
936.443	5839.48
936.751	5792.47
937.059	5828.86
937.367	5813.27
937.674	5777.56
937.982	5789.09
938.29	5685.36
938.597	5761.29
938.905	5659.6
939.213	5631.35
939.52	5618.24
939.827	5630.67
940.135	5573.27
940.442	5572.14
940.749	5561.07
941.056	5515.19
941.363	5460.96
941.67	5427.29
941.977	5427.96
942.284	5413.5
942.591	5419.15
942.898	5414.63
943.205	5412.37
943.511	5373.73
943.818	5316.56
944.125	5269.32
944.431	5289.21
944.738	5227.74
945.044	5227.74
945.35	5146.39
945.657	5135.77
945.963	5145.71
946.269	5081.99
946.575	5075.43
946.881	5039.95
947.187	5033.85
947.493	4991.82
947.799	4950.92
948.105	4967.86
948.41	4928.99
948.716	4964.25
949.022	4936.68
949.327	4885.15
949.633	4885.83
949.938	4860.97
950.244	4793.18
950.549	4772.61
950.854	4794.53
951.16	4774.42
951.465	4723.58
951.77	4767.64
952.075	4682.67
952.38	4714.09
952.685	4716.34
952.99	4624.6
953.294	4605.61
953.599	4614.43
953.904	4584.37
954.209	4523.58
954.513	4567.42
954.818	4535.78
955.122	4511.38
955.426	4515.22
955.731	4480.19
956.035	4459.4
956.339	4413.98
956.643	4443.81
956.948	4383.7
957.252	4347.99
957.556	4300.31
957.86	4308.67
958.163	4316.36
958.467	4286.53
958.771	4293.98
959.075	4224.83
959.378	4218.28
959.682	4228.22
959.985	4199.52
960.289	4175.79
960.592	4175.12
960.896	4132.86
961.199	4080.66
961.502	4120.65
961.805	4066.19
962.108	4093.99
962.411	4053.54
962.714	4035.01
963.017	4021
963.32	3984.61
963.623	3955.69
963.926	3952.75
964.228	3966.99
964.531	3905.29
964.833	3948.68
965.136	3910.04
965.438	3890.15
965.741	3864.39
966.043	3805.41
966.345	3804.28
966.648	3790.95
966.95	3799.08
967.252	3727.9
967.554	3761.79
967.856	3712.08
968.158	3726.54
968.46	3701.23
968.761	3676.82
969.063	3686.77
969.365	3653.1
969.666	3642.47
969.968	3640.22
970.269	3585.08
970.571	3621.91
970.872	3599.31
971.174	3563.38
971.475	3552.31
971.776	3516.15
972.077	3522.7
972.378	3530.39
972.679	3479.77
972.98	3464.17
973.281	3471.63
973.582	3452.42
973.883	3439.32
974.183	3434.57
974.484	3427.79
974.785	3400
975.085	3366.55
975.386	3335.82
975.686	3353.44
975.986	3270.06
976.287	3314.57
976.587	3249.49
976.887	3249.26
977.187	3304.4
977.487	3257.85
977.787	3291.52
978.087	3227.34
978.387	3227.8
978.687	3208.81
978.987	3196.38
979.286	3174.69
979.586	3155.26
979.885	3139.66
980.185	3096.5
980.484	3087.24
980.784	3091.3
981.083	3067.57
981.382	3035.71
981.682	3019.21
981.981	3033.23
982.28	3047.46
982.579	2994.36
982.878	3011.76
983.177	2992.77
983.475	3011.76
983.774	2941.48
984.073	2956.84
984.372	2944.64
984.67	2940.12
984.969	2920.23
985.267	2875.72
985.566	2912.1
985.864	2844.3
986.162	2834.36
986.461	2834.81
986.759	2809.73
987.057	2801.82
987.355	2765.89
987.653	2793.01
987.951	2801.59
988.249	2773.8
988.547	2717.08
988.844	2735.15
989.142	2730.63
989.44	2710.07
989.737	2684.99
990.035	2707.81
990.332	2677.08
990.63	2664.42
990.927	2638.21
991.224	2625.78
991.521	2655.61
991.819	2612.9
992.116	2595.04
992.413	2561.15
992.71	2568.15
993.006	2534.03
993.303	2546.01
993.6	2523.18
993.897	2515.72
994.193	2556.63
994.49	2506.23
994.787	2498.1
995.083	2466.23
995.379	2495.61
995.676	2445.22
995.972	2467.82
996.268	2401.6
996.565	2439.34
996.861	2435.5
997.157	2363.41
997.453	2412
997.749	2347.59
998.044	2356.63
998.34	2365.45
998.636	2333.81
998.932	2340.59
999.227	2317.09
999.523	2296.75
999.818	2282.96
1000.114	2315.96
1000.409	2277.09
1000.704	2256.3
1001	2232.34
1001.295	2246.58
1001.59	2224.89
1001.885	2208.84
1002.18	2199.57
1002.475	2200.7
1002.77	2161.16
1003.065	2161.61
1003.359	2141.5
1003.654	2117.09
1003.949	2128.39
1004.243	2130.2
1004.538	2098.79
1004.832	2096.53
1005.127	2091.78
1005.421	2078.22
1005.715	2048.17
1006.009	2056.75
1006.304	2023.53
1006.598	2034.83
1006.892	2015.4
1007.186	1981.73
1007.48	1988.51
1007.773	1952.12
1008.067	1979.24
1008.361	1935.63
1008.655	1896.31
1008.948	1947.15
1009.242	1904.67
1009.535	1933.82
1009.829	1920.26
1010.122	1890.66
1010.415	1867.61
1010.708	1884.55
1011.001	1858.57
1011.295	1850.43
1011.588	1834.84
1011.881	1804.33
1012.173	1814.95
1012.466	1819.7
1012.759	1795.97
1013.052	1779.02
1013.344	1784.9
1013.637	1770.89
1013.93	1731.56
1014.222	1723.66
1014.514	1713.94
1014.807	1743.54
1015.099	1682.3
1015.391	1705.12
1015.683	1689.08
1015.976	1700.61
1016.268	1665.13
1016.56	1642.75
1016.851	1649.76
1017.143	1607.5
1017.435	1631.45
1017.727	1610.66
1018.018	1594.39
1018.31	1603.43
1018.602	1614.05
1018.893	1610.44
1019.185	1567.05
1019.476	1578.8
1019.767	1560.5
1020.058	1548.52
1020.35	1550.1
1020.641	1470.33
1020.932	1507.62
1021.223	1496.54
1021.514	1476.2
1021.804	1496.54
1022.095	1473.49
1022.386	1431.91
1022.677	1453.15
1022.967	1464.9
1023.258	1395.3
1023.548	1415.19
1023.839	1404.57
1024.129	1410.22
1024.419	1414.96
1024.709	1376.55
1025	1405.25
1025.29	1349.65
1025.58	1350.11
1025.87	1374.74
1026.16	1333.83
1026.449	1310.56
1026.739	1341.97
1027.029	1303.1
1027.319	1310.33
1027.608	1319.37
1027.898	1269.88
1028.187	1269.66
1028.477	1293.38
1028.766	1269.88
1029.055	1235.53
1029.344	1257.68
1029.634	1233.72
1029.923	1239.6
1030.212	1205.93
1030.501	1221.52
1030.79	1216.32
1031.078	1178.58
1031.367	1199.38
1031.656	1172.94
1031.945	1177
1032.233	1173.39
1032.522	1168.64
1032.81	1136.33
1033.099	1124.12
1033.387	1125.7
1033.675	1124.57
1033.963	1124.8
1034.251	1090.23
1034.54	1110.79
1034.828	1104.69
1035.116	1081.86
1035.403	1062.66
1035.691	1094.97
1035.979	1088.64
1036.267	1070.57
1036.554	1055.88
1036.842	1046.16
1037.129	1050
1037.417	1009.32
1037.704	1003.22
1037.992	1017.69
1038.279	1037.35
1038.566	1008.42
1038.853	1008.42
1039.14	1008.42
