Data from hue_210_FLMS001491_00044.txt Node
Date: Tue Feb 07 16:41:15 GMT 2017
User: dcchb
Spectrometer: FLMS00149
Trigger mode: 0
Integration Time (sec): 2.000000E-2
Scans to average: 10
Electric dark correction enabled: true
Nonlinearity correction enabled: false
Boxcar width: 0
XAxis mode: Wavelengths
Number of Pixels in Spectrum: 2048
>>>>>Begin Spectral Data<<<<<
341.393	-4.25
341.776	-4.25
342.16	-4.25
342.543	-67.75
342.927	-76.57
343.31	-56
343.693	-65.27
344.077	-58.49
344.46	-60.07
344.843	-72.72
345.226	-30.47
345.61	-25.27
345.993	-22.33
346.376	-5.16
346.759	12.25
347.142	26.93
347.525	34.84
347.908	50.44
348.291	72.36
348.674	108.06
349.057	90.89
349.44	121.4
349.823	131.34
350.206	148.74
350.588	188.29
350.971	222.64
351.354	212.01
351.737	232.13
352.119	239.36
352.502	236.87
352.884	270.32
353.267	261.96
353.65	289.3
354.032	298.34
354.414	305.8
354.797	295.63
355.179	310.99
355.562	318.23
355.944	350.99
356.326	332.91
356.709	307.6
357.091	346.25
357.473	337.89
357.855	343.76
358.238	356.87
358.62	352.12
359.002	340.37
359.384	345.34
359.766	329.53
360.148	343.08
360.53	329.98
360.912	330.88
361.294	332.46
361.676	337.66
362.057	318.68
362.439	319.58
362.821	320.49
363.203	318.68
363.584	328.17
363.966	318.45
364.348	299.02
364.729	316.64
365.111	332.46
365.493	316.64
365.874	308.73
366.256	316.42
366.637	303.09
367.019	313.03
367.4	312.58
367.781	291.79
368.163	303.31
368.544	313.71
368.925	299.24
369.306	310.99
369.688	317.55
370.069	316.87
370.45	285.68
370.831	308.51
371.212	304.67
371.593	317.32
371.974	307.38
372.355	303.54
372.736	314.84
373.117	306.25
373.498	285.23
373.879	307.38
374.26	327.49
374.641	336.08
375.021	307.38
375.402	314.84
375.783	323.42
376.163	327.27
376.544	309.86
376.925	298.57
377.305	320.26
377.686	302.86
378.066	333.37
378.447	314.16
378.827	340.37
379.208	320.94
379.588	320.03
379.968	335.85
380.349	325.68
380.729	336.98
381.109	309.86
381.489	325.23
381.87	318.45
382.25	343.76
382.63	336.76
383.01	340.15
383.39	362.52
383.77	356.64
384.15	328.62
384.53	347.15
384.91	339.92
385.29	343.08
385.67	332.91
386.049	354.16
386.429	338.11
386.809	339.69
387.189	372.46
387.568	352.8
387.948	352.12
388.328	376.98
388.707	373.59
389.087	372.24
389.466	354.16
389.846	382.86
390.225	372.01
390.605	377.43
390.984	343.76
391.363	368.39
391.743	371.78
392.122	360.26
392.501	367.26
392.881	372.46
393.26	383.76
393.639	365.68
394.018	386.7
394.397	383.08
394.776	387.38
395.155	405
395.534	377.66
395.913	392.12
396.292	397.55
396.671	391.9
397.05	382.41
397.429	402.07
397.808	395.74
398.186	387.15
398.565	414.72
398.944	397.55
399.323	413.36
399.701	424.44
400.08	424.21
400.458	439.13
400.837	430.99
401.215	400.26
401.594	414.49
401.972	429.64
402.351	428.73
402.729	415.17
403.107	419.92
403.486	435.96
403.864	435.74
404.242	459.01
404.62	441.39
404.999	449.97
405.377	445.45
405.755	452.91
406.133	456.3
406.511	458.56
406.889	468.28
407.267	480.03
407.645	454.27
408.023	481.61
408.401	490.42
408.779	510.76
409.156	500.14
409.534	508.96
409.912	512.35
410.29	515.74
410.667	535.17
411.045	544.43
411.422	566.13
411.8	557.32
412.178	563.42
412.555	568.39
412.933	588.5
413.31	585.56
413.687	584.43
414.065	584.21
414.442	613.81
414.819	632.34
415.197	633.25
415.574	630.76
415.951	632.57
416.328	640.25
416.705	658.56
417.082	682.96
417.46	664.43
417.837	714.15
418.214	699.46
418.591	705.79
418.967	682.51
419.344	703.75
419.721	706.24
420.098	739.91
420.475	753.47
420.852	752.56
421.228	768.84
421.605	757.54
421.982	774.03
422.358	803.41
422.735	830.08
423.111	851.55
423.488	836.86
423.864	865.33
424.241	877.99
424.617	882.51
424.994	896.06
425.37	921.37
425.746	919.11
426.123	948.72
426.499	941.71
426.875	955.27
427.251	969.96
427.627	1013.58
428.003	977.19
428.379	1036.85
428.756	1015.61
429.132	1033.46
429.507	1046.79
429.883	1053.12
430.259	1062.39
430.635	1099.45
431.011	1114.82
431.387	1139.22
431.763	1150.29
432.138	1143.06
432.514	1160.01
432.89	1170.63
433.265	1212.67
433.641	1234.36
434.016	1242.5
434.392	1276.17
434.767	1289.95
435.143	1318.43
435.518	1313
435.894	1340.12
436.269	1375.15
436.644	1410.17
437.02	1415.82
437.395	1438.87
437.77	1480.68
438.145	1503.28
438.52	1494.69
438.895	1528.82
439.271	1561.36
439.646	1592.32
440.021	1599.32
440.395	1639.55
440.77	1623.95
441.145	1647.91
441.52	1684.97
441.895	1686.1
442.27	1731.07
442.645	1721.81
443.019	1807
443.394	1767.23
443.769	1792.31
444.143	1830.95
444.518	1842.93
444.892	1828.24
445.267	1844.74
445.641	1861.24
446.016	1901.01
446.39	1903.95
446.764	1904.85
447.139	1932.87
447.513	1955.02
447.887	1962.48
448.262	1951.18
448.636	1956.15
449.01	1998.18
449.384	2006.54
449.758	2049.93
450.132	2063.04
450.506	2046.54
450.88	2063.94
451.254	2105.07
451.628	2150.04
452.002	2172.64
452.376	2173.09
452.75	2180.1
453.123	2243.83
453.497	2223.03
453.871	2248.34
454.244	2277.04
454.618	2321.79
454.992	2333.77
455.365	2352.3
455.739	2409.92
456.112	2437.27
456.486	2410.15
456.859	2449.02
457.232	2489.92
457.606	2471.16
457.979	2490.6
458.352	2569.24
458.725	2558.85
459.099	2609.24
459.472	2654.89
459.845	2640.42
460.218	2733.3
460.591	2726.98
460.964	2727.88
461.337	2806.97
461.71	2834.54
462.083	2854.2
462.456	2881.1
462.829	2908.21
463.201	2953.64
463.574	2937.59
463.947	2990.25
464.32	3045.39
464.692	3047.19
465.065	3075.44
465.438	3122.45
465.81	3170.58
466.183	3201.31
466.555	3230.01
466.928	3303.01
467.3	3303.68
467.672	3327.19
468.045	3413.51
468.417	3428.88
468.789	3507.97
469.161	3494.41
469.534	3513.62
469.906	3618.03
470.278	3575.32
470.65	3672.71
471.022	3745.93
471.394	3800.17
471.766	3825.93
472.138	3824.35
472.51	3929.88
472.882	3910.67
473.253	3990.67
473.625	4075.19
473.997	4132.82
474.369	4138.01
474.74	4231.8
475.112	4276.99
475.484	4327.84
475.855	4421.17
476.227	4440.38
476.598	4487.61
476.97	4568.51
477.341	4702.74
477.713	4717.88
478.084	4752.23
478.455	4848.73
478.827	4921.95
479.198	5024.09
479.569	4989.97
479.94	5183.18
480.311	5176.18
480.682	5267.7
481.053	5377.3
481.424	5418.2
481.795	5485.32
482.166	5525.55
482.537	5615.26
482.908	5695.94
483.279	5736.39
483.65	5805.99
484.021	5936.61
484.391	6015.03
484.762	6050.73
485.133	6146.32
485.503	6171.41
485.874	6287.56
486.244	6330.05
486.615	6431.51
486.985	6444.84
487.356	6607.55
487.726	6607.55
488.097	6699.08
488.467	6727.32
488.837	6881.9
489.207	6936.58
489.578	6984.49
489.948	7062.68
490.318	7190.36
490.688	7206.63
491.058	7295.22
491.428	7391.26
491.798	7429.9
492.168	7527.75
492.538	7519.62
492.908	7617.7
493.278	7770.69
493.648	7681.65
494.017	7801.42
494.387	7817.01
494.757	7920.96
495.126	7933.39
495.496	7973.17
495.866	7971.13
496.235	8115.76
496.605	8118.25
496.974	8179.71
497.344	8237.34
497.713	8359.6
498.082	8304.91
498.452	8415.41
498.821	8391.46
499.19	8411.35
499.559	8409.54
499.928	8577.44
500.298	8542.42
500.667	8586.48
501.036	8586.71
501.405	8603.88
501.774	8609.31
502.143	8691.11
502.512	8695.18
502.88	8744.9
503.249	8723.43
503.618	8806.82
503.987	8769.98
504.356	8828.06
504.724	8894.27
505.093	8930.2
505.462	8927.72
505.83	8943.54
506.199	9021.73
506.567	9095.85
506.936	9049.52
507.304	9113.7
507.672	9122.51
508.041	9125
508.409	9160.93
508.777	9266.92
509.145	9275.05
509.514	9201.61
509.882	9223.98
510.25	9241.83
510.618	9266.24
510.986	9306.01
511.354	9329.29
511.722	9358.89
512.09	9444.54
512.458	9416.97
512.826	9432.79
513.193	9453.58
513.561	9477.08
513.929	9514.37
514.297	9493.35
514.664	9546.01
515.032	9558.44
515.4	9631.2
515.767	9606.57
516.135	9588.04
516.502	9561.15
516.869	9596.4
517.237	9703.74
517.604	9646.79
517.972	9649.05
518.339	9623.52
518.706	9640.47
519.073	9626.68
519.44	9640.24
519.808	9764.31
520.175	9719.33
520.542	9771.54
520.909	9778.99
521.276	9734.02
521.643	9852.44
522.009	9796.62
522.376	9802.27
522.743	9764.08
523.11	9851.76
523.477	9882.72
523.843	9874.58
524.21	9947.58
524.577	10002.94
524.943	9937.18
525.31	9945.54
525.676	10042.49
526.043	9971.98
526.409	10038.42
526.776	9969.95
527.142	10008.14
527.508	10109.61
527.874	10031.87
528.241	10024.19
528.607	10003.62
528.973	10077.74
529.339	10044.3
529.705	10055.37
530.071	10113.22
530.437	10120
530.803	10062.83
531.169	10039.55
531.535	10045.88
531.901	10035.26
532.267	9944.64
532.632	10010.17
532.998	10029.84
533.364	10131.08
533.73	10038.87
534.095	10016.05
534.461	9937.18
534.826	10034.81
535.192	9957.75
535.557	10002.27
535.923	9853.34
536.288	9865.32
536.653	9870.74
537.019	9810.18
537.384	9774.93
537.749	9816.06
538.114	9765.44
538.479	9769.05
538.845	9770.41
539.21	9703.74
539.575	9674.36
539.94	9687.92
540.305	9701.48
540.67	9663.97
541.034	9611.09
541.399	9637.53
541.764	9548.04
542.129	9607.25
542.494	9602.5
542.858	9541.49
543.223	9454.71
543.587	9445.22
543.952	9379.46
544.316	9354.15
544.681	9380.59
545.045	9419.68
545.41	9341.27
545.774	9340.81
546.138	9310.08
546.503	9291.55
546.867	9206.13
547.231	9261.95
547.595	9218.11
547.959	9174.72
548.324	9165.9
548.688	9123.42
549.052	9141.5
549.416	9075.28
549.779	9057.21
550.143	9027.83
550.507	9106.47
550.871	9013.82
551.235	8926.59
551.599	8972.01
551.962	8924.33
552.326	8915.74
552.689	8876.65
553.053	8835.97
553.417	8816.76
553.78	8908.73
554.143	8768.4
554.507	8807.04
554.87	8742.86
555.234	8804.1
555.597	8789.64
555.96	8768.4
556.323	8735.86
556.686	8704.67
557.05	8754.39
557.413	8729.08
557.776	8645.46
558.139	8684.33
558.502	8690.89
558.865	8638.46
559.228	8635.3
559.59	8684.79
559.953	8652.47
560.316	8650.66
560.679	8692.24
561.041	8677.1
561.404	8672.36
561.767	8708.97
562.129	8615.18
562.492	8696.08
562.854	8624
563.217	8643.43
563.579	8668.06
563.941	8694.73
564.304	8711.68
564.666	8715.75
565.028	8698.12
565.39	8637.56
565.753	8647.05
566.115	8697.21
566.477	8750.32
566.839	8706.93
567.201	8761.17
567.563	8707.38
567.925	8739.25
568.287	8743.77
568.648	8755.74
569.01	8797.33
569.372	8758.68
569.734	8745.12
570.095	8788.06
570.457	8759.81
570.819	8831.9
571.18	8833.03
571.542	8863.54
571.903	8873.26
572.265	8919.13
572.626	8916.19
572.987	8891.33
573.349	8856.76
573.71	8932.69
574.071	8924.1
574.432	8917.1
574.794	8997.09
575.155	8959.58
575.516	8917.77
575.877	9036.41
576.238	9002.97
576.599	9036.19
576.96	9009.3
577.32	9043.42
577.681	9077.09
578.042	9007.04
578.403	9051.33
578.763	9041.61
579.124	9072.12
579.485	9052.69
579.845	9067.15
580.206	9124.1
580.566	9100.14
580.927	9105.34
581.287	9194.83
581.648	9130.88
582.008	9092.01
582.368	9111.89
582.728	9176.98
583.089	9077.54
583.449	9184.21
583.809	9162.74
584.169	9102.63
584.529	9132.46
584.889	9176.75
585.249	9190.08
585.609	9179.24
585.969	9272.57
586.329	9227.6
586.688	9237.99
587.048	9173.59
587.408	9209.74
587.768	9179.24
588.127	9189.86
588.487	9133.81
588.846	9269.18
589.206	9200.93
589.565	9207.03
589.925	9216.3
590.284	9179.69
590.643	9262.17
591.003	9282.51
591.362	9309.63
591.721	9259.69
592.08	9294.94
592.44	9308.5
592.799	9294.26
593.158	9328.38
593.517	9271.89
593.876	9325.45
594.235	9266.69
594.593	9241.38
594.952	9248.61
595.311	9281.38
595.67	9294.71
596.029	9308.72
596.387	9271.21
596.746	9348.05
597.104	9280.93
597.463	9264.88
597.822	9325.45
598.18	9260.82
598.538	9262.17
598.897	9308.5
599.255	9273.7
599.613	9371.77
599.972	9303.53
600.33	9327.93
600.688	9327.03
601.046	9366.12
601.404	9361.6
601.762	9340.36
602.12	9363.19
602.478	9337.42
602.836	9388.27
603.194	9343.75
603.552	9337.65
603.91	9400.47
604.268	9279.12
604.625	9309.18
604.983	9362.28
605.341	9361.6
605.698	9381.49
606.056	9332.9
606.413	9346.69
606.771	9358.21
607.128	9353.69
607.485	9268.27
607.843	9400.02
608.2	9416.29
608.557	9432.11
608.914	9333.36
609.272	9452.22
609.629	9377.2
609.986	9471.21
610.343	9432.34
610.7	9445.67
611.057	9407.25
611.414	9453.58
611.771	9437.53
612.127	9460.58
612.484	9414.48
612.841	9483.86
613.198	9501.04
613.554	9459.23
613.911	9502.17
614.267	9485.89
614.624	9554.82
614.98	9533.8
615.337	9578.77
615.693	9526.35
616.05	9531.32
616.406	9580.13
616.762	9487.02
617.118	9539
617.475	9544.42
617.831	9549.17
618.187	9573.58
618.543	9547.59
618.899	9651.54
619.255	9640.47
619.611	9582.62
619.967	9621.03
620.323	9582.84
620.678	9646.12
621.034	9610.41
621.39	9585.78
621.746	9544.42
622.101	9724.31
622.457	9518.21
622.812	9610.64
623.168	9599.56
623.523	9602.95
623.879	9647.92
624.234	9574.48
624.589	9628.72
624.945	9597.08
625.3	9670.75
625.655	9628.49
626.01	9596.4
626.365	9627.36
626.72	9557.53
627.075	9583.97
627.43	9554.82
627.785	9537.19
628.14	9628.49
628.495	9648.38
628.85	9599.56
629.205	9547.59
629.559	9573.58
629.914	9512.11
630.269	9500.58
630.623	9498.78
630.978	9577.64
631.332	9531.32
631.687	9587.81
632.041	9464.43
632.396	9519.34
632.75	9482.5
633.104	9551.43
633.459	9467.14
633.813	9468.04
634.167	9470.08
634.521	9411.77
634.875	9521.37
635.229	9411.55
635.583	9376.97
635.937	9382.62
636.291	9369.29
636.645	9370.64
636.999	9355.28
637.352	9367.71
637.706	9304.43
638.06	9326.8
638.413	9304.43
638.767	9339.46
639.121	9280.25
639.474	9291.55
639.828	9277.76
640.181	9211.78
640.534	9244.55
640.888	9230.31
641.241	9202.74
641.594	9205.68
641.947	9243.19
642.301	9185.11
642.654	9292
643.007	9221.72
643.36	9146.47
643.713	9202.06
644.066	9246.13
644.419	9108.96
644.771	9096.07
645.124	9043.19
645.477	8971.78
645.83	8909.19
646.182	8898.79
646.535	8897.21
646.888	8904.22
647.24	8867.83
647.593	8940.6
647.945	8899.02
648.298	8812.92
648.65	8813.37
649.002	8847.72
649.355	8852.24
649.707	8885.46
650.059	8930.88
650.411	9023.99
650.763	9004.78
651.115	9141.72
651.467	9066.92
651.819	9061.05
652.171	9022.63
652.523	9117.32
652.875	9050.65
653.227	9011.56
653.578	9103.76
653.93	9071.67
654.282	8997.32
654.633	8979.24
654.985	9080.26
655.337	9059.24
655.688	9012.01
656.039	9062.18
656.391	8978.11
656.742	9016.08
657.094	9032.57
657.445	9107.83
657.796	9046.58
658.147	8996.42
658.498	9021.73
658.849	9051.78
659.2	9005
659.551	9015.17
659.902	9021.05
660.253	9045.91
660.604	9082.29
660.955	9032.35
661.306	9115.73
661.656	9059.47
662.007	9107.37
662.358	9126.81
662.708	9114.38
663.059	9059.24
663.409	8988.51
663.76	9056.53
664.11	9038.67
664.461	9012.23
664.811	9095.17
665.161	9053.82
665.511	9068.05
665.862	9089.07
666.212	9115.06
666.562	9134.49
666.912	9116.64
667.262	9049.07
667.612	9085.45
667.962	9073.93
668.312	9059.01
668.662	9123.42
669.011	9126.81
669.361	9022.4
669.711	9092.23
670.06	9007.49
670.41	9011.56
670.76	9086.58
671.109	9079.58
671.459	9054.72
671.808	9029.64
672.157	9028.28
672.507	9007.04
672.856	8977.66
673.205	9042.29
673.554	9033.25
673.904	8961.84
674.253	9019.01
674.602	8953.03
674.951	8877.1
675.3	8854.72
675.649	8965.91
675.998	8974.27
676.346	8939.02
676.695	8948.96
677.044	8828.28
677.393	8944.44
677.741	8919.13
678.09	8854.05
678.438	8884.1
678.787	8948.28
679.135	8925.23
679.484	8879.81
679.832	8836.65
680.181	8806.82
680.529	8847.72
680.877	8847.72
681.225	8804.33
681.573	8826.48
681.922	8723.65
682.27	8789.64
682.618	8705.12
682.966	8698.34
683.314	8710.55
683.661	8647.95
684.009	8678.01
684.357	8631.45
684.705	8636.2
685.053	8619.48
685.4	8554.39
685.748	8548.52
686.095	8528.41
686.443	8471.01
686.79	8527.95
687.138	8524.34
687.485	8467.62
687.832	8478.46
688.18	8443.21
688.527	8426.71
688.874	8300.16
689.221	8416.09
689.568	8326.38
689.915	8310.11
690.262	8273.05
690.609	8247.51
690.956	8255.19
691.303	8232.37
691.65	8192.37
691.997	8226.72
692.344	8154.4
692.69	8149.21
693.037	8129.32
693.383	7996.67
693.73	8084.58
694.077	8032.15
694.423	7996.89
694.769	7988.08
695.116	7945.82
695.462	7884.81
695.808	7895.65
696.155	7926.84
696.501	7816.56
696.847	7866.05
697.193	7801.42
697.539	7822.21
697.885	7715.77
698.231	7623.12
698.577	7652.04
698.923	7601.65
699.269	7569.56
699.614	7602.1
699.96	7546.28
700.306	7496.12
700.651	7534.53
700.997	7433.52
701.342	7455.67
701.688	7399.17
702.033	7369.57
702.379	7311.71
702.724	7350.36
703.069	7373.41
703.415	7278.72
703.76	7228.33
704.105	7209.34
704.45	7213.19
704.795	7172.51
705.14	7177.48
705.485	7147.2
705.83	7119.18
706.175	7084.38
706.52	7095.22
706.865	7074.43
707.209	7083.47
707.554	7000.31
707.899	7045.05
708.243	6926.19
708.588	6939.29
708.932	6943.81
709.277	6900.88
709.621	6938.84
709.966	6912.18
710.31	6934.55
710.654	6845.74
710.998	6827.89
711.342	6790.82
711.687	6777.27
712.031	6738.4
712.375	6800.09
712.719	6734.55
713.063	6762.35
713.407	6709.47
713.75	6737.49
714.094	6661.11
714.438	6672.41
714.782	6677.83
715.125	6655.69
715.469	6683.26
715.812	6674.67
716.156	6625.4
716.499	6646.65
716.843	6614.56
717.186	6583.82
717.53	6616.37
717.873	6595.35
718.216	6563.49
718.559	6506.31
718.902	6500.21
719.246	6528.01
719.589	6516.48
719.932	6441.23
720.275	6462.02
720.617	6484.84
720.96	6523.03
721.303	6484.62
721.646	6462.25
721.989	6437.84
722.331	6455.47
722.674	6431.96
723.016	6456.82
723.359	6486.2
723.701	6445.07
724.044	6427.9
724.386	6385.86
724.729	6410.27
725.071	6441.91
725.413	6361.23
725.755	6370.95
726.097	6384.73
726.439	6315.13
726.782	6342.7
727.124	6424.51
727.465	6416.37
727.807	6350.16
728.149	6378.63
728.491	6338.86
728.833	6354.23
729.175	6382.7
729.516	6358.07
729.858	6350.84
730.199	6395.81
730.541	6330.27
730.882	6314
731.224	6407.11
731.565	6331.63
731.906	6303.61
732.248	6352.42
732.589	6355.13
732.93	6298.41
733.271	6347.45
733.612	6311.97
733.953	6372.3
734.294	6311.51
734.635	6305.87
734.976	6309.93
735.317	6374.34
735.658	6341.34
735.999	6288.92
736.339	6351.97
736.68	6336.6
737.021	6401.91
737.361	6353.1
737.702	6337.05
738.042	6373.89
738.383	6327.79
738.723	6399.42
739.063	6382.25
739.404	6413.43
739.744	6375.92
740.084	6377.28
740.424	6452.98
740.764	6408.46
741.104	6446.2
741.444	6414.11
741.784	6456.14
742.124	6472.87
742.464	6488.46
742.804	6519.19
743.143	6477.84
743.483	6503.15
743.823	6561.45
744.162	6547.89
744.502	6588.8
744.841	6582.69
745.181	6655.23
745.52	6665.18
745.86	6712.63
746.199	6730.71
746.538	6778.4
746.877	6790.15
747.216	6820.2
747.556	6869.92
747.895	6874.66
748.234	6938.17
748.573	6973.19
748.911	6986.07
749.25	7064.49
749.589	7157.37
749.928	7210.02
750.267	7276.91
750.605	7368.44
750.944	7325.27
751.283	7406.63
751.621	7537.47
751.96	7558.49
752.298	7645.49
752.636	7736.11
752.975	7894.98
753.313	7906.05
753.651	8052.71
753.989	8111.69
754.327	8249.99
754.666	8290.9
755.004	8441.18
755.342	8525.47
755.679	8745.12
756.017	8836.65
756.355	8926.14
756.693	9030.99
757.031	9142.63
757.368	9346.92
757.706	9443.41
758.044	9544.65
758.381	9753.01
758.719	9872.33
759.056	10061.25
759.394	10167.01
759.731	10266.21
760.068	10451.52
760.405	10541.91
760.743	10733.09
761.08	10927.89
761.417	11044.95
761.754	11240.42
762.091	11427.09
762.428	11563.58
762.765	11679.51
763.102	11865.04
763.438	12059.84
763.775	12145.49
764.112	12395.87
764.449	12564.23
764.785	12754.96
765.122	12797.67
765.458	12923.32
765.795	13084.67
766.131	13305.46
766.467	13425.23
766.804	13542.74
767.14	13671.77
767.476	13965.55
767.812	14003.97
768.148	14114.93
768.485	14246.9
768.821	14407.8
769.157	14620
769.492	14693.22
769.828	14733.44
770.164	14866.77
770.5	15026.54
770.836	15141.79
771.171	15230.38
771.507	15276.7
771.842	15495.68
772.178	15554.66
772.513	15643.02
772.849	15781.55
773.184	15776.58
773.519	15959.17
773.855	15980.87
774.19	16098.38
774.525	16135.89
774.86	16214.53
775.195	16386.73
775.53	16388.54
775.865	16448.2
776.2	16522.32
776.535	16394.41
776.87	16464.47
777.205	16551.7
777.539	16611.13
777.874	16730.22
778.209	16605.93
778.543	16666.5
778.878	16637.12
779.212	16861.07
779.547	16727.51
779.881	16864.46
780.215	16847.73
780.55	17003.89
780.884	16877.11
781.218	16922.54
781.552	17045.92
781.886	16960.5
782.22	16981.74
782.554	16997.11
782.888	17019.26
783.222	16943.78
783.556	16941.97
783.889	17006.15
784.223	16825.81
784.557	16954.17
784.89	17000.5
785.224	16939.26
785.557	16895.87
785.891	16888.86
786.224	16972.7
786.558	16901.52
786.891	16792.82
787.224	16846.61
787.557	16818.36
787.891	16939.48
788.224	16847.06
788.557	16895.64
788.89	16848.41
789.223	16893.84
789.556	16794.18
789.888	16706.5
790.221	16817.23
790.554	16598.02
790.887	16745.36
791.219	16664.01
791.552	16682.09
791.884	16557.8
792.217	16539.95
792.549	16635.54
792.882	16461.53
793.214	16550.12
793.546	16496.33
793.879	16454.52
794.211	16351.02
794.543	16468.76
794.875	16367.52
795.207	16523.68
795.539	16363
795.871	16273.51
796.203	16272.83
796.535	16159.39
796.867	16169.33
797.198	16161.88
797.53	16174.76
797.862	16049.79
798.193	16084.14
798.525	16007.76
798.856	16009.11
799.188	15845.05
799.519	15891.83
799.85	15764.15
800.182	15894.77
800.513	15879.17
800.844	15769.57
801.175	15825.39
801.506	15809.12
801.837	15715.34
802.168	15673.98
802.499	15615.45
802.83	15540.42
803.161	15525.06
803.491	15602.34
803.822	15560.99
804.153	15502.69
804.483	15494.1
804.814	15364.61
805.145	15312.41
805.475	15337.94
805.805	15345.4
806.136	15265.18
806.466	15274.67
806.796	15253.2
807.126	15169.36
807.457	15130.49
807.787	15072.64
808.117	15039.19
808.447	15023.15
808.777	15062.25
809.107	14978.18
809.436	14878.75
809.766	14859.54
810.096	14868.35
810.426	14815.25
810.755	14813.21
811.085	14825.64
811.414	14793.55
811.744	14693.67
812.073	14711.29
812.403	14711.52
812.732	14610.96
813.061	14597.85
813.39	14478.98
813.719	14518.08
814.049	14627
814.378	14564.18
814.707	14503.16
815.036	14458.19
815.365	14428.59
815.693	14318.08
816.022	14308.82
816.351	14323.28
816.68	14229.5
817.008	14370.51
817.337	14085.1
817.665	14170.29
817.994	14201.93
818.322	14211.87
818.651	14108.15
818.979	14107.47
819.307	14193.12
819.636	14132.78
819.964	14046.23
820.292	14057.53
820.62	13978.66
820.948	13992.67
821.276	14020.24
821.604	13976.4
821.932	14037.64
822.259	13979.11
822.587	14082.84
822.915	13986.79
823.243	13977.75
823.57	13899.79
823.898	13920.58
824.225	13967.36
824.553	14024.08
824.88	13899.34
825.207	13996.96
825.535	13946.12
825.862	14011.2
826.189	13973.91
826.516	14054.59
826.843	14044.64
827.17	14082.16
827.497	14088.71
827.824	13936.4
828.151	14091.65
828.478	14061.82
828.805	14018.66
829.131	13963.29
829.458	14059.33
829.785	13909.06
830.111	14051.42
830.438	14060.69
830.764	14028.15
831.09	14121.48
831.417	13963.52
831.743	14072.89
832.069	14074.25
832.395	14005.78
832.722	14080.35
833.048	13903.18
833.374	13912.44
833.7	13945.44
834.026	13954.03
834.351	14017.07
834.677	13938.43
835.003	13959.68
835.329	13976.62
835.654	13938.88
835.98	13855.95
836.306	13914.7
836.631	13809.17
836.956	13930.3
837.282	13850.98
837.607	13817.08
837.932	13801.49
838.258	13754.71
838.583	13821.6
838.908	13601.04
839.233	13759.91
839.558	13720.59
839.883	13634.71
840.208	13559.23
840.533	13595.84
840.858	13575.96
841.182	13575.96
841.507	13560.14
841.832	13456.19
842.156	13486.92
842.481	13506.35
842.805	13454.15
843.13	13404.66
843.454	13340.71
843.778	13314.95
844.103	13281.73
844.427	13292.35
844.751	13248.28
845.075	13200.6
845.399	13173.48
845.723	13157.66
846.047	13131.22
846.371	12923.32
846.695	12987.95
847.019	12922.41
847.343	12867.5
847.666	12782.98
847.99	12755.87
848.313	12749.99
848.637	12693.49
848.96	12688.97
849.284	12626.15
849.607	12496.44
849.931	12465.03
850.254	12403.78
850.577	12308.65
850.9	12323.33
851.223	12311.13
851.546	12144.36
851.869	12143.23
852.192	12208.76
852.515	12147.52
852.838	12031.59
853.161	12081.31
853.483	11940.75
853.806	11934.42
854.129	11894.87
854.451	11791.6
854.774	11846.74
855.096	11730.58
855.419	11722.67
855.741	11739.39
856.063	11636.8
856.385	11587.53
856.708	11532.39
857.03	11569.68
857.352	11568.55
857.674	11489.23
857.996	11442.23
858.318	11380.08
858.64	11430.02
858.961	11311.16
859.283	11373.98
859.605	11256.24
859.926	11260.31
860.248	11245.85
860.57	11154.78
860.891	11174.89
861.212	11155.68
861.534	11138.73
861.855	11054.67
862.176	11059.86
862.498	11078.85
862.819	11120.43
863.14	11038.62
863.461	10985.97
863.782	10962.01
864.103	11000.66
864.424	10921.34
864.745	10897.61
865.065	10890.15
865.386	10762.7
865.707	10820.55
866.027	10791.17
866.348	10802.24
866.668	10780.55
866.989	10752.08
867.309	10682.02
867.63	10760.66
867.95	10718.86
868.27	10663.49
868.59	10677.95
868.91	10683.6
869.23	10590.05
869.55	10566.32
869.87	10666.2
870.19	10521.35
870.51	10617.39
870.83	10602.48
871.15	10623.04
871.469	10543.49
871.789	10598.86
872.109	10500.78
872.428	10439.99
872.748	10486.32
873.067	10494.68
873.386	10447.9
873.706	10431.63
874.025	10365.19
874.344	10376.27
874.663	10364.06
874.982	10395.48
875.301	10347.34
875.62	10328.81
875.939	10310.73
876.258	10318.19
876.577	10303.5
876.896	10265.31
877.214	10165.65
877.533	10206.33
877.852	10251.07
878.17	10180.11
878.489	10176.72
878.807	10133.56
879.125	10099.44
879.444	10229.83
879.762	10120.91
880.08	10040.23
880.398	10065.99
880.716	10100.57
881.034	10040.23
881.352	10023.51
881.67	9989.16
881.988	9908.93
882.306	9935.6
882.624	9928.82
882.941	9849.05
883.259	9834.13
883.577	9785.55
883.894	9858.99
884.212	9866.68
884.529	9865.09
884.846	9785.32
885.164	9715.49
885.481	9681.37
885.798	9698.77
886.115	9668.26
886.432	9612.67
886.75	9676.62
887.067	9626.46
887.383	9590.07
887.7	9520.24
888.017	9522.05
888.334	9550.98
888.651	9504.65
888.967	9528.61
889.284	9414.26
889.6	9382.62
889.917	9333.36
890.233	9357.31
890.55	9284.32
890.866	9276.18
891.182	9301.94
891.498	9261.72
891.815	9269.86
892.131	9231.66
892.447	9146.69
892.763	9126.36
893.079	9073.93
893.395	9027.15
893.71	9085
894.026	9030.54
894.342	8975.63
894.657	8955.29
894.973	8915.97
895.289	8951.45
895.604	8858.34
895.92	8837.55
896.235	8694.73
896.55	8804.78
896.865	8780.83
897.181	8684.56
897.496	8716.88
897.811	8728.17
898.126	8649.08
898.441	8589.65
898.756	8559.37
899.071	8552.36
899.386	8587.16
899.7	8446.15
900.015	8401.63
900.33	8357.11
900.644	8380.16
900.959	8387.62
901.273	8304
901.588	8324.8
901.902	8314.17
902.216	8225.59
902.531	8120.73
902.845	8155.53
903.159	8115.99
903.473	8100.85
903.787	8037.12
904.101	8085.93
904.415	8033.96
904.729	7996.89
905.042	7970.23
905.356	7901.08
905.67	7855.43
905.984	7883.68
906.297	7798.03
906.611	7793.96
906.924	7793.96
907.237	7752.61
907.551	7650.01
907.864	7669.45
908.177	7686.85
908.491	7638.49
908.804	7555.78
909.117	7615.89
909.43	7543.57
909.743	7446.63
910.056	7451.37
910.368	7421.32
910.681	7361.66
910.994	7350.58
911.307	7276.69
911.619	7355.33
911.932	7364.82
912.244	7253.64
912.557	7230.13
912.869	7168.44
913.181	7184.03
913.494	7148.78
913.806	7057.71
914.118	7080.76
914.43	7002.57
914.742	7061.78
915.054	7061.78
915.366	6958.73
915.678	6969.58
915.99	6898.84
916.302	6833.76
916.613	6780.66
916.925	6791.73
917.236	6820.88
917.548	6752.86
917.859	6764.16
918.171	6709.92
918.482	6696.36
918.794	6638.74
919.105	6587.44
919.416	6572.98
919.727	6567.33
920.038	6520.1
920.349	6506.54
920.66	6479.87
920.971	6466.54
921.282	6469.25
921.593	6395.81
921.903	6364.17
922.214	6418.4
922.525	6325.75
922.835	6287.11
923.146	6297.05
923.456	6285.53
923.767	6201.91
924.077	6263.61
924.387	6151.07
924.697	6110.62
925.008	6148.36
925.318	6097.06
925.628	6122.14
925.938	6027.45
926.248	5988.59
926.558	5969.6
926.867	6015.7
927.177	6004.4
927.487	5943.61
927.796	5864.52
928.106	5816.61
928.416	5873.79
928.725	5854.58
929.034	5822.94
929.344	5834.47
929.653	5780.46
929.962	5748.37
930.271	5714.24
930.581	5652.55
930.89	5641.93
931.199	5673.34
931.508	5647.8
931.817	5667.69
932.125	5604.64
932.434	5594.25
932.743	5502.04
933.051	5546.56
933.36	5483.51
933.669	5438.54
933.977	5486.45
934.286	5442.84
934.594	5443.74
934.902	5406.23
935.21	5360.13
935.519	5400.58
935.827	5296.17
936.135	5316.96
936.443	5243.29
936.751	5219.79
937.059	5271.77
937.367	5188.61
937.674	5226.35
937.982	5268.83
938.29	5130.53
938.597	5099.57
938.905	5092.34
939.213	5028.38
939.52	5052.79
939.827	5079.46
940.135	5019.12
940.442	4994.04
940.749	4970.31
941.056	4974.37
941.363	4899.12
941.67	4938.9
941.977	4852.8
942.284	4881.5
942.591	4873.36
942.898	4863.87
943.205	4840.59
943.511	4812.12
943.818	4810.31
944.125	4709.07
944.431	4688.51
944.738	4755.85
945.044	4676.76
945.35	4695.29
945.657	4632.46
945.963	4594.27
946.269	4577.78
946.575	4587.27
946.881	4557.89
947.187	4563.09
947.493	4553.82
947.799	4526.48
948.105	4491.22
948.41	4466.14
948.716	4456.42
949.022	4422.98
949.327	4421.17
949.633	4399.25
949.938	4359.93
950.244	4390.66
950.549	4321.06
950.854	4324
951.16	4290.33
951.465	4301.17
951.77	4236.09
952.075	4276.09
952.38	4248.52
952.685	4222.98
952.99	4208.29
953.294	4169.42
953.599	4143.89
953.904	4161.97
954.209	4109.31
954.513	4090.1
954.818	4065.92
955.122	4055.53
955.426	4049.2
955.731	4038.81
956.035	4017.34
956.339	3977.11
956.643	3995.64
956.948	3982.99
957.252	3963.78
957.556	3937.34
957.86	3913.16
958.163	3900.96
958.467	3893.5
958.771	3913.84
959.075	3879.94
959.378	3820.96
959.682	3793.39
959.985	3805.59
960.289	3768.98
960.592	3751.58
960.896	3789.77
961.199	3755.42
961.502	3705.93
961.805	3737.8
962.108	3700.51
962.411	3686.73
962.714	3677.46
963.017	3616.9
963.32	3668.87
963.623	3608.08
963.926	3595.2
964.228	3564.69
964.531	3566.73
964.833	3556.11
965.136	3526.28
965.438	3522.44
965.741	3503
966.043	3457.35
966.345	3444.7
966.648	3442.89
966.95	3474.3
967.252	3418.94
967.554	3420.52
967.856	3394.76
968.158	3406.51
968.46	3337.36
968.761	3354.3
969.063	3364.25
969.365	3385.94
969.666	3313.4
969.968	3300.52
970.269	3245.83
970.571	3271.82
970.872	3282.44
971.174	3242.22
971.475	3247.19
971.776	3257.36
972.077	3190.92
972.378	3222.78
972.679	3187.53
972.98	3158.38
973.281	3139.85
973.582	3157.7
973.883	3117.7
974.183	3118.38
974.484	3097.81
974.785	3113.41
975.085	3086.97
975.386	3083.13
975.686	3032.51
975.986	3052.39
976.287	3018.49
976.587	2966.74
976.887	2931.94
977.187	2985.73
977.487	2955.9
977.787	2927.87
978.087	2924.49
978.387	2957.03
978.687	2916.35
978.987	2896.69
979.286	2840.87
979.586	2850.59
979.885	2858.05
980.185	2905.73
980.484	2828.44
980.784	2799.74
981.083	2829.57
981.382	2812.4
981.682	2790.7
981.981	2797.93
982.28	2765.62
982.579	2734.21
982.878	2728.11
983.177	2719.29
983.475	2720.65
983.774	2684.04
984.073	2686.07
984.372	2667.99
984.67	2666.86
984.969	2658.73
985.267	2630.26
985.566	2643.36
985.864	2602.01
986.162	2599.97
986.461	2587.32
986.759	2588.67
987.057	2550.03
987.355	2525.63
987.653	2543.93
987.951	2568.34
988.249	2525.63
988.547	2521.56
988.844	2500.99
989.142	2521.56
989.44	2482.46
989.737	2457.6
990.035	2457.38
990.332	2424.16
990.63	2403.82
990.927	2430.03
991.224	2423.93
991.521	2388.45
991.819	2397.04
992.116	2343.48
992.413	2351.84
992.71	2348.91
993.006	2362.92
993.303	2322.92
993.6	2311.62
993.897	2282.24
994.193	2331.73
994.49	2271.85
994.787	2248.12
995.083	2240.66
995.379	2269.36
995.676	2248.57
995.972	2228.91
996.268	2201.57
996.565	2214.22
996.861	2195.24
997.157	2214.22
997.453	2184.62
997.749	2157.05
998.044	2173.54
998.34	2174.9
998.636	2133.32
998.932	2118.4
999.227	2111.85
999.523	2101.68
999.818	2095.35
1000.114	2077.5
1000.409	2064.39
1000.704	2046.32
1001	2051.06
1001.295	2030.05
1001.59	2026.88
1001.885	2030.05
1002.18	2023.04
1002.475	1972.87
1002.77	1987.33
1003.065	1968.35
1003.359	1930.61
1003.654	1916.83
1003.949	1959.54
1004.243	1943.72
1004.538	1914.57
1004.832	1936.94
1005.127	1912.53
1005.421	1916.83
1005.715	1854.23
1006.009	1852.65
1006.304	1844.06
1006.598	1838.64
1006.892	1831.18
1007.186	1825.31
1007.48	1823.05
1007.773	1794.35
1008.067	1788.92
1008.361	1797.74
1008.655	1764.29
1008.948	1755.7
1009.242	1743.05
1009.535	1754.12
1009.829	1724.97
1010.122	1720.22
1010.415	1703.73
1010.708	1699.43
1011.001	1663.73
1011.295	1674.57
1011.588	1680.45
1011.881	1623.95
1012.173	1664.63
1012.466	1648.13
1012.759	1664.63
1013.052	1657.63
1013.344	1612.88
1013.637	1629.15
1013.93	1603.39
1014.222	1574.01
1014.514	1610.62
1014.807	1571.98
1015.099	1551.41
1015.391	1538.76
1015.683	1554.8
1015.976	1545.54
1016.268	1536.73
1016.56	1520.23
1016.851	1524.3
1017.143	1486.78
1017.435	1477.07
1017.727	1477.74
1018.018	1467.12
1018.31	1461.25
1018.602	1477.52
1018.893	1423.51
1019.185	1402.04
1019.476	1434.81
1019.767	1408.82
1020.058	1403.62
1020.35	1402.94
1020.641	1365.88
1020.932	1375.83
1021.223	1390.51
1021.514	1375.37
1021.804	1382.15
1022.095	1344.64
1022.386	1342.83
1022.677	1327.24
1022.967	1317.3
1023.258	1309.39
1023.548	1319.1
1023.839	1302.83
1024.129	1280.46
1024.419	1268.94
1024.709	1283.17
1025	1289.73
1025.29	1271.65
1025.58	1244.3
1025.87	1226
1026.16	1203.85
1026.449	1208.82
1026.739	1225.09
1027.029	1212.67
1027.319	1180.8
1027.608	1187.13
1027.898	1161.59
1028.187	1185.55
1028.477	1186.68
1028.766	1151.2
1029.055	1152.33
1029.344	1170.41
1029.634	1161.59
1029.923	1133.12
1030.212	1141.71
1030.501	1123.18
1030.79	1104.19
1031.078	1114.36
1031.367	1096.28
1031.656	1090.18
1031.945	1049.96
1032.233	1087.47
1032.522	1067.58
1032.81	1076.85
1033.099	1053.57
1033.387	1046.57
1033.675	1023.29
1033.963	1029.62
1034.251	1026.46
1034.54	1021.71
1034.828	1002.95
1035.116	984.88
1035.403	1015.38
1035.691	1019.22
1035.979	995.27
1036.267	994.14
1036.554	985.55
1036.842	969.96
1037.129	990.3
1037.417	952.11
1037.704	977.42
1037.992	942.39
1038.279	922.28
1038.566	942.16
1038.853	942.16
1039.14	942.16
