Data from hue_280_FLMS001491_00050.txt Node
Date: Tue Feb 07 15:55:20 GMT 2017
User: dcchb
Spectrometer: FLMS00149
Trigger mode: 0
Integration Time (sec): 2.000000E-2
Scans to average: 10
Electric dark correction enabled: true
Nonlinearity correction enabled: false
Boxcar width: 0
XAxis mode: Wavelengths
Number of Pixels in Spectrum: 2048
>>>>>Begin Spectral Data<<<<<
341.393	-12.99
341.776	-12.99
342.16	-12.99
342.543	-60.45
342.927	-55.25
343.31	-82.37
343.693	-76.5
344.077	-48.02
344.46	-52.99
344.843	-32.65
345.226	-34.46
345.61	-25.65
345.993	-15.25
346.376	-12.77
346.759	-0.56
347.142	2.82
347.525	48.7
347.908	57.74
348.291	72.65
348.674	96.16
349.057	103.16
349.44	118.75
349.823	175.25
350.206	172.99
350.588	189.03
350.971	199.88
351.354	222.25
351.737	218.86
352.119	229.94
352.502	242.82
352.884	280.33
353.267	269.03
353.65	293.89
354.032	276.49
354.414	274.23
354.797	297.96
355.179	298.18
355.562	327.79
355.944	312.87
356.326	314.68
356.709	317.17
357.091	323.72
357.473	329.37
357.855	351.29
358.238	344.96
358.62	340.22
359.002	342.48
359.384	340.22
359.766	322.82
360.148	316.49
360.53	326.66
360.912	326.66
361.294	314.68
361.676	343.83
362.057	311.97
362.439	339.31
362.821	299.09
363.203	320.1
363.584	329.14
363.966	312.2
364.348	311.97
364.729	303.16
365.111	321.69
365.493	313.78
365.874	314.91
366.256	314
366.637	295.7
367.019	304.74
367.4	315.36
367.781	297.28
368.163	313.55
368.544	309.48
368.925	311.52
369.306	304.96
369.688	299.31
370.069	305.19
370.45	309.94
370.831	299.09
371.212	301.12
371.593	300.67
371.974	299.09
372.355	316.94
372.736	331.86
373.117	304.96
373.498	314.23
373.879	310.16
374.26	306.09
374.641	295.25
375.021	309.71
375.402	323.49
375.783	315.13
376.163	308.58
376.544	322.14
376.925	327.34
377.305	328.92
377.686	318.3
378.066	311.74
378.447	308.81
378.827	321.01
379.208	320.78
379.588	325.08
379.968	320.78
380.349	329.6
380.729	324.17
381.109	317.84
381.489	328.24
381.87	336.83
382.25	322.82
382.63	339.77
383.01	338.18
383.39	351.29
383.77	334.34
384.15	326.43
384.53	340.67
384.91	352.19
385.29	330.05
385.67	341.8
386.049	337.05
386.429	348.35
386.809	357.39
387.189	363.49
387.568	354
387.948	361.69
388.328	337.51
388.707	340.67
389.087	361.69
389.466	361.91
389.846	346.32
390.225	336.38
390.605	367.56
390.984	335.7
391.363	352.19
391.743	361.69
392.122	362.59
392.501	358.07
392.881	374.11
393.26	373.66
393.639	362.59
394.018	368.24
394.397	380.89
394.776	389.03
395.155	390.84
395.534	384.51
395.913	384.51
396.292	377.73
396.671	402.59
397.05	392.19
397.429	388.8
397.808	395.58
398.186	371.85
398.565	383.83
398.944	381.35
399.323	406.2
399.701	393.32
400.08	412.76
400.458	389.93
400.837	382.93
401.215	387.22
401.594	427.45
401.972	397.84
402.351	424.06
402.729	412.31
403.107	407.11
403.486	402.81
403.864	408.69
404.242	428.58
404.62	440.33
404.999	427.67
405.377	417.73
405.755	432.87
406.133	447.78
406.511	442.59
406.889	435.81
407.267	433.77
407.645	448.91
408.023	463.38
408.401	487.11
408.779	474.68
409.156	469.25
409.534	479.42
409.912	511.74
410.29	462.93
410.667	490.27
411.045	510.61
411.422	499.31
411.8	520.33
412.178	523.49
412.555	534.11
412.933	513.55
413.31	540.21
413.687	536.6
414.065	569.36
414.442	560.32
414.819	552.41
415.197	574.34
415.574	591.74
415.951	571.4
416.328	567.33
416.705	603.94
417.082	603.03
417.46	593.09
417.837	573.66
418.214	615.24
418.591	626.54
418.967	631.96
419.344	657.04
419.721	632.64
420.098	659.3
420.475	655.24
420.852	661.34
421.228	664.5
421.605	711.05
421.982	680.55
422.358	703.6
422.735	690.49
423.111	697.04
423.488	737.27
423.864	743.82
424.241	754.44
424.617	734.33
424.994	775.69
425.37	766.19
425.746	771.62
426.123	775.23
426.499	768.45
426.875	791.96
427.251	784.27
427.627	811.62
428.003	826.98
428.379	855.46
428.756	841.22
429.132	845.51
429.507	873.54
429.883	859.53
430.259	869.02
430.635	892.07
431.011	897.94
431.387	939.98
431.763	929.13
432.138	948.79
432.514	953.76
432.89	967.09
433.265	996.02
433.641	1001.67
434.016	1030.82
434.392	1013.87
434.767	1042.8
435.143	1049.58
435.518	1048.67
435.894	1050.25
436.269	1079.18
436.644	1103.13
437.02	1120.76
437.395	1100.2
437.77	1113.76
438.145	1131.16
438.52	1171.16
438.895	1166.64
439.271	1187.43
439.646	1226.75
440.021	1203.25
440.395	1221.55
440.77	1198.95
441.145	1216.35
441.52	1240.98
441.895	1258.84
442.27	1257.03
442.645	1247.76
443.019	1278.27
443.394	1276.69
443.769	1318.5
444.143	1299.29
444.518	1297.93
444.892	1309.68
445.267	1342
445.641	1327.31
446.016	1361.21
446.39	1332.96
446.764	1304.03
447.139	1385.84
447.513	1402.79
447.887	1373.64
448.262	1373.18
448.636	1359.4
449.01	1396.91
449.384	1392.17
449.758	1394.88
450.132	1427.65
450.506	1431.49
450.88	1436.01
451.254	1429.23
451.628	1484.59
452.002	1439.4
452.376	1485.05
452.75	1495.67
453.123	1503.58
453.497	1504.93
453.871	1515.55
454.244	1537.25
454.618	1554.87
454.992	1568.21
455.365	1577.7
455.739	1589.45
456.112	1602.78
456.486	1616.34
456.859	1632.16
457.232	1642.78
457.606	1631.26
457.979	1678.94
458.352	1677.36
458.725	1708.54
459.099	1677.81
459.472	1711.93
459.845	1759.84
460.218	1757.58
460.591	1752.61
460.964	1784.7
461.337	1800.29
461.71	1824.25
462.083	1819.73
462.456	1857.92
462.829	1825.38
463.201	1882.32
463.574	1854.3
463.947	1877.35
464.32	1929.33
464.692	1947.86
465.065	1945.15
465.438	1952.83
465.81	1995.09
466.183	2017.46
466.555	2046.84
466.928	2056.56
467.3	2057.23
467.672	2073.05
468.045	2119.15
468.417	2144.01
468.789	2115.31
469.161	2135.65
469.534	2170.68
469.906	2206.38
470.278	2204.12
470.65	2211.35
471.022	2247.06
471.394	2286.38
471.766	2299.26
472.138	2331.8
472.51	2335.42
472.882	2383.33
473.253	2398.69
473.625	2425.81
473.997	2458.13
474.369	2501.29
474.74	2489.54
475.112	2484.57
475.484	2526.15
475.855	2594.85
476.227	2611.8
476.598	2659.03
476.97	2689.99
477.341	2706.71
477.713	2746.26
478.084	2751
478.455	2868.51
478.827	2847.95
479.198	2859.7
479.569	2905.8
479.94	2950.77
480.311	2979.7
480.682	3055.17
481.053	3067.6
481.424	3100.14
481.795	3143.08
482.166	3151.89
482.537	3165.23
482.908	3233.93
483.279	3229.18
483.65	3326.58
484.021	3350.53
484.391	3380.14
484.762	3405.22
485.133	3400.48
485.503	3475.28
485.874	3509.63
486.244	3557.08
486.615	3603.18
486.985	3586.01
487.356	3668.49
487.726	3699.22
488.097	3735.38
488.467	3748.04
488.837	3801.37
489.207	3819.9
489.578	3842.05
489.948	3877.75
490.318	3887.24
490.688	3932.66
491.058	3963.85
491.428	4005.88
491.798	4056.05
492.168	4098.54
492.538	4090.4
492.908	4127.91
493.278	4182.38
493.648	4176.95
494.017	4238.65
494.387	4263.28
494.757	4301.02
495.126	4305.54
495.496	4340.56
495.866	4376.72
496.235	4417.4
496.605	4467.79
496.974	4445.65
497.344	4476.83
497.713	4470.96
498.082	4475.48
498.452	4563.16
498.821	4540.78
499.19	4550.28
499.559	4602.7
499.928	4597.96
500.298	4592.53
500.667	4639.99
501.036	4607.9
501.405	4670.5
501.774	4662.36
502.143	4713.66
502.512	4693.77
502.88	4750.95
503.249	4744.85
503.618	4799.08
503.987	4755.47
504.356	4820.1
504.724	4880.21
505.093	4878.85
505.462	4901.45
505.83	4834.34
506.199	4908.91
506.567	4919.31
506.936	4921.79
507.304	4963.37
507.672	4995.46
508.041	4990.49
508.409	5009.02
508.777	4999.53
509.145	5041.34
509.514	4998.17
509.882	5051.51
510.25	5065.74
510.618	5103.03
510.986	5064.39
511.354	5126.76
511.722	5140.32
512.09	5224.83
512.458	5164.5
512.826	5225.06
513.193	5219.86
513.561	5227.09
513.929	5232.29
514.297	5246.75
514.664	5279.3
515.032	5235
515.4	5274.32
515.767	5283.36
516.135	5309.8
516.502	5290.82
516.869	5338.28
517.237	5373.76
517.604	5362.23
517.972	5425.51
518.339	5424.6
518.706	5420.54
519.073	5437.94
519.44	5394.32
519.808	5503.02
520.175	5484.26
520.542	5499.4
520.909	5470.93
521.276	5542.11
521.643	5528.33
522.009	5588.21
522.376	5597.03
522.743	5596.58
523.11	5613.52
523.477	5670.92
523.843	5672.73
524.21	5681.09
524.577	5707.76
524.943	5731.26
525.31	5721.77
525.676	5717.93
526.043	5823.24
526.409	5830.24
526.776	5874.76
527.142	5856.46
527.508	5917.25
527.874	5901.65
528.241	5923.8
528.607	5931.03
528.973	5938.94
529.339	5975.55
529.705	5953.85
530.071	6065.72
530.437	6062.55
530.803	6074.98
531.169	6051.03
531.535	6051.71
531.901	6110.91
532.267	6100.07
532.632	6162.44
532.998	6110.01
533.364	6187.52
533.73	6186.39
534.095	6207.18
534.461	6252.15
534.826	6224.13
535.192	6246.5
535.557	6241.08
535.923	6291.7
536.288	6287.41
536.653	6283.11
537.019	6250.12
537.384	6316.11
537.749	6326.05
538.114	6316.56
538.479	6354.97
538.845	6361.53
539.21	6374.41
539.575	6421.64
539.94	6414.18
540.305	6443.56
540.67	6399.04
541.034	6464.12
541.399	6450.34
541.764	6435.2
542.129	6470.9
542.494	6494.41
542.858	6525.37
543.223	6522.43
543.587	6557.91
543.952	6533.5
544.316	6610.33
544.681	6590.67
545.045	6576.21
545.41	6627.96
545.774	6599.26
546.138	6625.48
546.503	6596.55
546.867	6648.3
547.231	6648.07
547.595	6655.98
547.959	6659.6
548.324	6656.21
548.688	6668.41
549.052	6719.71
549.416	6718.13
549.779	6693.27
550.143	6735.76
550.507	6791.12
550.871	6727.39
551.235	6733.95
551.599	6759.48
551.962	6801.29
552.326	6778.47
552.689	6862.53
553.053	6811.91
553.417	6777.79
553.78	6930.1
554.143	6836.09
554.507	6892.81
554.87	6871.57
555.234	6942.3
555.597	6906.37
555.96	6884.9
556.323	6985.69
556.686	6967.39
557.05	7016.43
557.413	6968.52
557.776	7024.56
558.139	7002.19
558.502	7017.56
558.865	7056.42
559.228	7072.92
559.59	7107.72
559.953	7125.58
560.316	7168.51
560.679	7125.35
561.041	7227.72
561.404	7235.85
561.767	7237.66
562.129	7225.01
562.492	7301.84
562.854	7253.48
563.217	7288.96
563.579	7274.95
563.941	7305.46
564.304	7429.07
564.666	7362.63
565.028	7419.13
565.39	7401.05
565.753	7425.23
566.115	7487.15
566.477	7520.14
566.839	7532.34
567.201	7531.89
567.563	7564.89
567.925	7557.43
568.287	7610.08
568.648	7688.95
569.01	7702.06
569.372	7762.17
569.734	7733.47
570.095	7732.34
570.457	7821.83
570.819	7837.65
571.18	7775.95
571.542	7894.82
571.903	7874.71
572.265	7866.12
572.626	7947.47
572.987	7935.05
573.349	7951.54
573.71	8013.24
574.071	8053.46
574.432	8061.14
574.794	8129.16
575.155	8122.84
575.516	8147.7
575.877	8225.66
576.238	8168.03
576.599	8267.69
576.96	8278.31
577.32	8280.8
577.681	8367.58
578.042	8424.75
578.403	8342.04
578.763	8490.51
579.124	8528.02
579.485	8509.95
579.845	8639.43
580.206	8581.36
580.566	8599.89
580.927	8621.58
581.287	8698.19
581.648	8701.13
582.008	8855.93
582.368	8858.86
582.728	8935.7
583.089	8914.45
583.449	8982.7
583.809	9055.02
584.169	9111.29
584.529	9111.06
584.889	9178.85
585.249	9195.13
585.609	9231.96
585.969	9267.21
586.329	9368.23
586.688	9380.66
587.048	9456.81
587.408	9530.48
587.768	9582.91
588.127	9658.16
588.487	9717.37
588.846	9801.21
589.206	9756.01
589.565	9829.46
589.925	9999.62
590.284	9997.82
590.643	10022.45
591.003	10123.01
591.362	10236.23
591.721	10205.95
592.08	10238.71
592.44	10339.73
592.799	10445.04
593.158	10440.74
593.517	10541.53
593.876	10567.29
594.235	10681.87
594.593	10687.29
594.952	10750.79
595.311	10812.48
595.67	10881.41
596.029	10965.02
596.387	11066.71
596.746	11085.47
597.104	11080.73
597.463	11173.6
597.822	11225.58
598.18	11285.69
598.538	11221.06
598.897	11438.46
599.255	11386.25
599.613	11448.4
599.972	11405.01
600.33	11553.26
600.688	11515.74
601.046	11613.82
601.404	11741.05
601.762	11724.32
602.12	11745.57
602.478	11910.99
602.836	11939.69
603.194	11816.75
603.552	11951.21
603.91	11966.8
604.268	12004.54
604.625	12020.81
604.983	12082.06
605.341	12030.31
605.698	12191.88
606.056	12187.59
606.413	12159.34
606.771	12310.3
607.128	12324.99
607.485	12252.45
607.843	12288.6
608.2	12394.14
608.557	12446.79
608.914	12482.5
609.272	12501.71
609.629	12613.34
609.986	12600.23
610.343	12562.95
610.7	12717.74
611.057	12689.72
611.414	12716.16
611.771	12656.5
612.127	12777.86
612.484	12693.56
612.841	12899.21
613.198	12844.97
613.554	12791.42
613.911	12950.96
614.267	12935.59
614.624	12948.93
614.98	13055.59
615.337	13028.02
615.693	13062.37
616.05	13015.82
616.406	13137.85
616.762	13113.44
617.118	13087.68
617.475	13090.62
617.831	13142.59
618.187	13181.46
618.543	13213.78
618.899	13268.46
619.255	13302.36
619.611	13130.39
619.967	13206.55
620.323	13258.07
620.678	13258.07
621.034	13329.71
621.39	13310.72
621.746	13291.74
622.101	13388.46
622.457	13254.68
622.812	13376.71
623.168	13372.64
623.523	13390.04
623.879	13490.83
624.234	13268.92
624.589	13441.12
624.945	13433.88
625.3	13428.23
625.655	13426.88
626.01	13440.44
626.365	13371.29
626.72	13410.61
627.075	13471.17
627.43	13329.25
627.785	13409.03
628.14	13413.09
628.495	13449.93
628.85	13395.69
629.205	13359.99
629.559	13402.47
629.914	13374.68
630.269	13420.78
630.623	13310.05
630.978	13330.84
631.332	13510.04
631.687	13390.72
632.041	13368.12
632.396	13339.42
632.75	13362.47
633.104	13379.42
633.459	13347.33
633.813	13308.92
634.167	13325.41
634.521	13355.24
634.875	13406.77
635.229	13257.17
635.583	13235.25
635.937	13283.61
636.291	13289.26
636.645	13308.01
636.999	13281.35
637.352	13260.33
637.706	13207.68
638.06	13152.54
638.413	13234.79
638.767	13194.34
639.121	13217.62
639.474	13118.19
639.828	13162.93
640.181	13135.36
640.534	13048.13
640.888	13076.38
641.241	13091.52
641.594	13095.14
641.947	13198.64
642.301	13104.18
642.654	13077.51
643.007	13122.93
643.36	13071.63
643.713	13058.07
644.066	13082.25
644.419	13059.66
644.771	12922.26
645.124	12873.9
645.477	12809.27
645.83	12772.66
646.182	12749.83
646.535	12727.69
646.888	12742.38
647.24	12678.65
647.593	12697.86
647.945	12769.95
648.298	12605.88
648.65	12581.7
649.002	12630.29
649.355	12654.7
649.707	12655.37
650.059	12699.89
650.411	12862.15
650.763	12946.89
651.115	13009.04
651.467	12995.03
651.819	13032.09
652.171	12991.18
652.523	12963.61
652.875	12910.06
653.227	12945.31
653.578	12964.74
653.93	13037.28
654.282	12928.81
654.633	12819.21
654.985	12927.46
655.337	12855.37
655.688	12926.33
656.039	13042.48
656.391	12872.99
656.742	12928.13
657.094	13004.06
657.445	13056.94
657.796	12926.78
658.147	13003.61
658.498	13026.21
658.849	12976.95
659.2	13026.21
659.551	12987.12
659.902	13019.21
660.253	12984.4
660.604	13028.47
660.955	12964.97
661.306	13054.01
661.656	12939.66
662.007	13028.25
662.358	13004.52
662.708	13053.78
663.059	13051.3
663.409	12961.58
663.76	13077.06
664.11	13060.11
664.461	13087.23
664.811	13084.06
665.161	13163.16
665.511	13046.1
665.862	13056.94
666.212	13089.94
666.562	13091.75
666.912	13075.93
667.262	13030.05
667.612	13068.02
667.962	13074.35
668.312	13085.19
668.662	13105.31
669.011	13127.9
669.361	13002.48
669.711	13043.39
670.06	13057.17
670.41	13102.82
670.76	13028.47
671.109	13073.67
671.459	13054.91
671.808	13041.8
672.157	13068.24
672.507	12936.04
672.856	13024.4
673.205	12968.36
673.554	13032.54
673.904	13023.5
674.253	13120.67
674.602	12954.8
674.951	12768.36
675.3	12690.17
675.649	12958.19
675.998	12910.96
676.346	12886.78
676.695	12904.41
677.044	12846.33
677.393	12896.05
677.741	12788.25
678.09	12802.04
678.438	12782.15
678.787	12787.8
679.135	12840.91
679.484	12690.63
679.832	12770.4
680.181	12698.08
680.529	12663.06
680.877	12599.1
681.225	12672.55
681.573	12665.99
681.922	12539.9
682.27	12573.79
682.618	12512.1
682.966	12559.1
683.314	12567.69
683.661	12574.02
684.009	12480.69
684.357	12441.37
684.705	12501.03
685.053	12443.85
685.4	12419.67
685.748	12357.75
686.095	12364.08
686.443	12313.91
686.79	12247.02
687.138	12337.64
687.485	12304.2
687.832	12234.37
688.18	12245.67
688.527	12139.91
688.874	12129.74
689.221	12096.29
689.568	12092.9
689.915	12047.03
690.262	11968.39
690.609	11957.54
690.956	12026.24
691.303	11859.69
691.65	11778.11
691.997	11755.06
692.344	11700.82
692.69	11738.79
693.037	11769.3
693.383	11579.47
693.73	11616.3
694.077	11561.39
694.423	11562.75
694.769	11516.42
695.116	11463.09
695.462	11417.67
695.808	11468.51
696.155	11387.61
696.501	11355.52
696.847	11269.65
697.193	11269.42
697.539	11141.51
697.885	11169.08
698.231	11108.75
698.577	11142.42
698.923	11099.71
699.269	11052.48
699.614	10962.54
699.96	10857
700.306	10839.6
700.651	10747.18
700.997	10828.08
701.342	10795.76
701.688	10834.63
702.033	10733.39
702.379	10762.77
702.724	10682.54
703.069	10664.69
703.415	10558.48
703.76	10502.89
704.105	10513.06
704.45	10509.67
704.795	10422.66
705.14	10388.77
705.485	10377.02
705.83	10278.49
706.175	10303.57
706.52	10295.21
706.865	10255.89
707.209	10245.27
707.554	10177.47
707.899	10154.42
708.243	10113.97
708.588	10097.93
708.932	10053.18
709.277	10039.4
709.621	10090.47
709.966	10018.38
710.31	9983.81
710.654	9884.15
710.998	9942.9
711.342	9930.02
711.687	9874.88
712.031	9828.56
712.375	9845.05
712.719	9840.31
713.063	9791.72
713.407	9840.76
713.75	9734.77
714.094	9772.51
714.438	9678.05
714.782	9685.28
715.125	9686.41
715.469	9722.12
715.812	9631.72
716.156	9535.68
716.499	9577.71
716.843	9539.75
717.186	9544.04
717.53	9592.18
717.873	9602.57
718.216	9497.04
718.559	9467.43
718.902	9397.38
719.246	9446.42
719.589	9406.87
719.932	9380.66
720.275	9353.31
720.617	9459.98
720.96	9283.71
721.303	9351.96
721.646	9314.44
721.989	9281.22
722.331	9384.05
722.674	9348.34
723.016	9340.66
723.359	9315.35
723.701	9330.72
724.044	9313.54
724.386	9222.24
724.729	9265.63
725.071	9251.85
725.413	9323.26
725.755	9260.89
726.097	9210.72
726.439	9229.7
726.782	9167.78
727.124	9255.46
727.465	9191.74
727.807	9156.93
728.149	9124.17
728.491	9181.11
728.833	9233.77
729.175	9205.29
729.516	9087.56
729.858	9111.74
730.199	9121.23
730.541	9161.68
730.882	9158.29
731.224	9101.34
731.565	9197.61
731.906	9102.7
732.248	9162.81
732.589	9149.48
732.93	9147.22
733.271	9109.25
733.612	9123.49
733.953	9173.66
734.294	9110.83
734.635	9103.6
734.976	9109.48
735.317	9169.59
735.658	9130.95
735.999	9200.55
736.339	9119.42
736.68	9146.77
737.021	9128.01
737.361	9101.79
737.702	9165.97
738.042	9094.11
738.383	9175.46
738.723	9137.95
739.063	9107.9
739.404	9201.68
739.744	9208.46
740.084	9168.46
740.424	9154.9
740.764	9231.28
741.104	9214.56
741.444	9234.9
741.784	9211.85
742.124	9302.47
742.464	9310.15
742.804	9293.88
743.143	9351.96
743.483	9405.29
743.823	9364.84
744.162	9427.21
744.502	9478.96
744.841	9486.87
745.181	9536.81
745.52	9564.61
745.86	9608.45
746.199	9622.91
746.538	9627.66
746.877	9706.07
747.216	9735
747.556	9767.54
747.895	9830.14
748.234	9856.8
748.573	9913.98
748.911	10011.6
749.25	10083.46
749.589	10137.47
749.928	10186.74
750.267	10204.36
750.605	10237.81
750.944	10386.96
751.283	10460.85
751.621	10512.6
751.96	10593.28
752.298	10686.39
752.636	10777.91
752.975	10862.43
753.313	10873.95
753.651	10992.59
753.989	11119.59
754.327	11201.17
754.666	11358.01
755.004	11429.64
755.342	11590.99
755.679	11717.55
756.017	11740.37
756.355	11937.65
756.693	11998.22
757.031	12234.59
757.368	12272.56
757.706	12405.44
758.044	12499.22
758.381	12637.07
758.719	12836.61
759.056	12987.79
759.394	13078.41
759.731	13136.04
760.068	13406.77
760.405	13393.89
760.743	13507.55
761.08	13870.03
761.417	13830.26
761.754	14069.8
762.091	14127.88
762.428	14334.65
762.765	14374.2
763.102	14623.68
763.438	14779.61
763.775	14853.06
764.112	14983.67
764.449	15144.8
764.785	15246.27
765.122	15339.37
765.458	15474.28
765.795	15497.78
766.131	15707.72
766.467	15807.15
766.804	15911.33
767.14	15974.61
767.476	16175.05
767.812	16143.87
768.148	16341.38
768.485	16260.02
768.821	16412.11
769.157	16517.19
769.492	16606.46
769.828	16722.84
770.164	16702.27
770.5	16750.86
770.836	16902.49
771.171	16978.42
771.507	16981.59
771.842	16977.75
772.178	17079.44
772.513	17275.14
772.849	17338.87
773.184	17316.49
773.519	17431.52
773.855	17292.99
774.19	17451.86
774.525	17466.09
774.86	17515.13
775.195	17587.22
775.53	17595.36
775.865	17492.08
776.2	17509.94
776.535	17509.26
776.87	17628.8
777.205	17644.17
777.539	17665.41
777.874	17582.25
778.209	17651.85
778.543	17572.53
778.878	17589.93
779.212	17611.63
779.547	17641.46
779.881	17688.46
780.215	17646.2
780.55	17715.58
780.884	17608.69
781.218	17652.3
781.552	17673.55
781.886	17655.92
782.22	17537.96
782.554	17516.71
782.888	17550.84
783.222	17476.72
783.556	17505.19
783.889	17487.34
784.223	17360.33
784.557	17357.85
784.89	17557.84
785.224	17342.93
785.557	17247.12
785.891	17309.26
786.224	17275.14
786.558	17295.03
786.891	17175.03
787.224	17117.4
787.557	17145.2
787.891	17109.72
788.224	17194.46
788.557	17126.67
788.89	17094.35
789.223	17093.22
789.556	17035.15
789.888	16914.47
790.221	16926
790.554	16778.2
790.887	16890.74
791.219	16794.47
791.552	16803.51
791.884	16727.36
792.217	16676.74
792.549	16624.99
792.882	16520.36
793.214	16478.78
793.546	16580.47
793.879	16412.34
794.211	16312
794.543	16415.95
794.875	16391.32
795.207	16502.05
795.539	16304.09
795.871	16381.6
796.203	16208.5
796.535	16162.4
796.867	16109.75
797.198	16070.65
797.53	16098.67
797.862	15984.55
798.193	16043.31
798.525	15992.01
798.856	16006.47
799.188	15749.08
799.519	15770.32
799.85	15660.27
800.182	15746.14
800.513	15777.78
800.844	15575.52
801.175	15703.2
801.506	15639.02
801.837	15569.42
802.168	15539.82
802.499	15514.96
802.83	15438.13
803.161	15319.71
803.491	15357.68
803.822	15404.23
804.153	15411.01
804.483	15157.23
804.814	15159.49
805.145	15048.76
805.475	15075.65
805.805	15018.02
806.136	15097.34
806.466	15111.58
806.796	14979.38
807.126	14912.72
807.457	14851.93
807.787	14916.56
808.117	14811.7
808.447	14787.07
808.777	14858.48
809.107	14687.86
809.436	14760.63
809.766	14651.25
810.096	14701.87
810.426	14604.93
810.755	14572.84
811.085	14624.36
811.414	14627.52
811.744	14425.27
812.073	14308.66
812.403	14366.97
812.732	14319.96
813.061	14425.5
813.39	14303.69
813.719	14374.2
814.049	14379.17
814.378	14221.43
814.707	14198.84
815.036	14198.61
815.365	14128.78
815.693	14048.78
816.022	14023.02
816.351	13982.57
816.68	13926.75
817.008	13958.39
817.337	13890.82
817.665	13825.96
817.994	13883.82
818.322	13833.65
818.651	13818.05
818.979	13719.75
819.307	13786.64
819.636	13776.25
819.964	13639.53
820.292	13670.94
820.62	13738.06
820.948	13701.9
821.276	13683.14
821.604	13667.55
821.932	13653.99
822.259	13638.4
822.587	13633.2
822.915	13614.67
823.243	13676.82
823.57	13623.94
823.898	13629.13
824.225	13628.23
824.553	13563.6
824.88	13583.48
825.207	13646.31
825.535	13630.72
825.862	13613.09
826.189	13555.91
826.516	13623.26
826.843	13658.74
827.17	13602.69
827.497	13737.15
827.824	13698.06
828.151	13685.18
828.478	13628.23
828.805	13743.48
829.131	13655.35
829.458	13639.98
829.785	13519.76
830.111	13599.3
830.438	13673.43
830.764	13644.73
831.09	13678.85
831.417	13555.24
831.743	13619.42
832.069	13628.68
832.395	13531.96
832.722	13669.13
833.048	13518.18
833.374	13509.36
833.7	13531.73
834.026	13524.73
834.351	13537.61
834.677	13554.56
835.003	13520.21
835.329	13527.21
835.654	13525.63
835.98	13467.56
836.306	13513.43
836.631	13434.34
836.956	13434.34
837.282	13417.16
837.607	13319.99
837.932	13360.44
838.258	13392.76
838.583	13330.16
838.908	13230.05
839.233	13325.86
839.558	13200.9
839.883	13154.57
840.208	13126.77
840.533	13159.99
840.858	13191.18
841.182	13257.39
841.507	13058.07
841.832	13059.43
842.156	13106.21
842.481	13047
842.805	13070.05
843.13	12968.59
843.454	12988.92
843.778	12928.13
844.103	12840.68
844.427	12837.29
844.751	12878.42
845.075	12762.49
845.399	12793.45
845.723	12705.99
846.047	12771.98
846.371	12576.96
846.695	12574.25
847.019	12582.38
847.343	12432.55
847.666	12372.9
847.99	12357.75
848.313	12205.44
848.637	12238.66
848.96	12235.95
849.284	12120.7
849.607	12111.66
849.931	12026.69
850.254	11962.51
850.577	11914.15
850.9	11841.16
851.223	11876.86
851.546	11725.23
851.869	11743.98
852.192	11805.9
852.515	11679.81
852.838	11646.13
853.161	11513.48
853.483	11604.33
853.806	11517.32
854.129	11476.2
854.451	11526.82
854.774	11440.04
855.096	11423.99
855.419	11353.26
855.741	11337.22
856.063	11260.61
856.385	11243.89
856.708	11220.16
857.03	11142.42
857.352	11184
857.674	11163.66
857.996	11054.06
858.318	11035.53
858.64	11071.91
858.961	10949.43
859.283	10908.3
859.605	10855.19
859.926	11017.9
860.248	10862.2
860.57	10860.84
860.891	10846.38
861.212	10743.56
861.534	10764.8
861.855	10727.51
862.176	10770.23
862.498	10698.14
862.819	10652.71
863.14	10607.52
863.461	10652.49
863.782	10614.07
864.103	10611.13
864.424	10523
864.745	10583.34
865.065	10555.54
865.386	10474.64
865.707	10449.56
866.027	10541.98
866.348	10390.12
866.668	10459.72
866.989	10409.56
867.309	10308.54
867.63	10345.83
867.95	10363.91
868.27	10316
868.59	10316.9
868.91	10353.74
869.23	10282.33
869.55	10209.34
869.87	10246.85
870.19	10177.47
870.51	10218.6
870.83	10189.45
871.15	10164.82
871.469	10158.26
871.789	10188.32
872.109	10160.3
872.428	10054.09
872.748	10153.07
873.067	10041.43
873.386	10107.87
873.706	10101.32
874.025	10013.41
874.344	9982.45
874.663	9948.78
874.982	10019.74
875.301	9997.82
875.62	9994.43
875.939	9890.7
876.258	9930.93
876.577	9861.55
876.896	9898.84
877.214	9880.98
877.533	9877.59
877.852	9864.26
878.17	9833.53
878.489	9914.2
878.807	9838.72
879.125	9837.14
879.444	9806.18
879.762	9739.07
880.08	9661.78
880.398	9624.27
880.716	9749.24
881.034	9684.38
881.352	9675.11
881.67	9698.16
881.988	9624.72
882.306	9611.16
882.624	9579.07
882.941	9585.62
883.259	9531.61
883.577	9559.18
883.894	9519.41
884.212	9525.06
884.529	9473.54
884.846	9435.57
885.164	9436.25
885.481	9312.41
885.798	9406.19
886.115	9254.11
886.432	9301.11
886.75	9271.96
887.067	9306.08
887.383	9222.7
887.7	9247.55
888.017	9287.55
888.334	9289.59
888.651	9180.44
888.967	9163.71
889.284	9081.68
889.6	9112.87
889.917	9098.4
890.233	9063.38
890.55	9026.32
890.866	9055.92
891.182	8970.05
891.498	8914
891.815	8893.21
892.131	8798.75
892.447	8809.15
892.763	8782.71
893.079	8795.36
893.395	8782.25
893.71	8763.27
894.026	8700.9
894.342	8612.99
894.657	8673.78
894.973	8639.43
895.289	8658.42
895.604	8604.41
895.92	8563.05
896.235	8512.43
896.55	8457.97
896.865	8440.8
897.181	8375.71
897.496	8392.43
897.811	8386.33
898.126	8348.59
898.441	8289.39
898.756	8303.62
899.071	8219.56
899.386	8284.19
899.7	8143.4
900.015	8136.62
900.33	8072.9
900.644	8043.74
900.959	8055.04
901.273	8038.55
901.588	7994.48
901.902	7954.25
902.216	7957.64
902.531	7954.03
902.845	7894.14
903.159	7871.54
903.473	7834.94
903.787	7757.42
904.101	7760.59
904.415	7761.72
904.729	7741.6
905.042	7683.07
905.356	7651.89
905.67	7668.16
905.984	7571.67
906.297	7595.17
906.611	7564.43
906.924	7530.54
907.237	7537.77
907.551	7476.3
907.864	7449.63
908.177	7376.19
908.491	7337.77
908.804	7330.09
909.117	7307.04
909.43	7271.56
909.743	7219.36
910.056	7220.49
910.368	7196.99
910.681	7202.41
910.994	7150.43
911.307	7139.81
911.619	7001.06
911.932	7102.53
912.244	7004.22
912.557	7007.16
912.869	6962.42
913.181	6918.58
913.494	6908.63
913.806	6845.58
914.118	6813.49
914.43	6780.5
914.742	6785.92
915.054	6756.32
915.366	6783.44
915.678	6705.7
915.99	6679.26
916.302	6629.32
916.613	6601.97
916.925	6615.76
917.236	6599.26
917.548	6493.73
917.859	6493.95
918.171	6473.84
918.482	6494.18
918.794	6468.64
919.105	6377.35
919.416	6352.71
919.727	6323.56
920.038	6350.45
920.349	6316.33
920.66	6305.71
920.971	6290.34
921.282	6242.43
921.593	6145.04
921.903	6156.11
922.214	6187.75
922.525	6138.48
922.835	6060.74
923.146	6051.48
923.456	6127.18
923.767	6013.29
924.077	6010.12
924.387	6013.74
924.697	5924.7
925.008	5926.51
925.318	5920.86
925.628	5893.74
925.938	5876.34
926.248	5814.2
926.558	5783.46
926.867	5792.28
927.177	5778.72
927.487	5724.03
927.796	5698.49
928.106	5694.65
928.416	5651.72
928.725	5654.65
929.034	5575.56
929.344	5628.21
929.653	5623.92
929.962	5525.17
930.271	5537.59
930.581	5528.56
930.89	5457.82
931.199	5450.82
931.508	5425.51
931.817	5422.8
932.125	5408.56
932.434	5370.14
932.743	5332.85
933.051	5313.87
933.36	5331.5
933.669	5269.13
933.977	5297.37
934.286	5215.12
934.594	5215.57
934.902	5205.85
935.21	5154.33
935.519	5191.84
935.827	5184.84
936.135	5107.78
936.443	5117.27
936.751	5086.76
937.059	5076.82
937.367	5001.56
937.674	5020.09
937.982	4936.03
938.29	4963.15
938.597	4947.55
938.905	4886.99
939.213	4899.19
939.52	4861.91
939.827	4870.72
940.135	4806.09
940.442	4805.86
940.749	4782.59
941.056	4796.15
941.363	4774.9
941.67	4731.97
941.977	4707.56
942.284	4661.91
942.591	4604.96
942.898	4640.44
943.205	4655.36
943.511	4625.08
943.818	4602.25
944.125	4561.8
944.431	4550.28
944.738	4509.6
945.044	4492.65
945.35	4519.09
945.657	4446.32
945.963	4421.92
946.269	4416.95
946.575	4450.62
946.881	4362.03
947.187	4391.86
947.493	4371.98
947.799	4361.58
948.105	4297.63
948.41	4274.8
948.716	4271.64
949.022	4244.07
949.327	4244.97
949.633	4194.58
949.938	4192.77
950.244	4204.07
950.549	4213.56
950.854	4125.65
951.16	4143.05
951.465	4109.38
951.77	4122.04
952.075	4097.63
952.38	4036.17
952.685	4098.31
952.99	4002.72
953.294	4046.79
953.599	4025.54
953.904	3965.88
954.209	3960.23
954.513	3951.2
954.818	3929.73
955.122	3929.05
955.426	3869.39
955.731	3889.95
956.035	3864.42
956.339	3860.58
956.643	3843.4
956.948	3819
957.252	3791.2
957.556	3780.58
957.86	3778.54
958.163	3768.38
958.467	3746
958.771	3739
959.075	3731.09
959.378	3673.46
959.682	3677.76
959.985	3635.95
960.289	3650.64
960.592	3623.75
960.896	3602.96
961.199	3616.97
961.502	3620.36
961.805	3534.03
962.108	3521.38
962.411	3550.75
962.714	3584.65
963.017	3541.94
963.32	3534.48
963.623	3515.73
963.926	3519.34
964.228	3407.48
964.531	3439.8
964.833	3407.71
965.136	3384.2
965.438	3390.98
965.741	3366.13
966.043	3314.15
966.345	3363.41
966.648	3324.55
966.95	3279.35
967.252	3316.41
967.554	3275.96
967.856	3251.33
968.158	3253.59
968.46	3272.57
968.761	3292.46
969.063	3252.91
969.365	3197.32
969.666	3172.68
969.968	3172.01
970.269	3156.41
970.571	3141.27
970.872	3128.62
971.174	3130.88
971.475	3110.99
971.776	3076.42
972.077	3074.38
972.378	3080.71
972.679	3068.96
972.98	3034.61
973.281	3045.46
973.582	2995.29
973.883	2986.25
974.183	2976.08
974.484	2982.18
974.785	2964.55
975.085	2955.74
975.386	2938.79
975.686	2920.04
975.986	2942.63
976.287	2882.75
976.587	2871.45
976.887	2871.22
977.187	2844.11
977.487	2841.62
977.787	2786.25
978.087	2797.78
978.387	2802.07
978.687	2809.08
978.987	2777.44
979.286	2758.23
979.586	2765.69
979.885	2723.66
980.185	2760.72
980.484	2696.54
980.784	2699.48
981.083	2689.76
981.382	2685.69
981.682	2618.35
981.981	2660.38
982.28	2666.48
982.579	2578.12
982.878	2640.5
983.177	2618.58
983.475	2638.69
983.774	2576.54
984.073	2595.75
984.372	2552.81
984.67	2557.56
984.969	2539.03
985.267	2536.77
985.566	2541.06
985.864	2485.02
986.162	2496.32
986.461	2481.86
986.759	2468.07
987.057	2480.05
987.355	2439.6
987.653	2424
987.951	2437.56
988.249	2428.3
988.547	2413.16
988.844	2386.72
989.142	2379.71
989.44	2376.55
989.737	2368.86
990.035	2387.85
990.332	2348.3
990.63	2323.44
990.927	2365.7
991.224	2320.96
991.521	2305.82
991.819	2296.32
992.116	2302.2
992.413	2250.22
992.71	2249.32
993.006	2255.42
993.303	2235.31
993.6	2228.3
993.897	2250.22
994.193	2181.52
994.49	2214.74
994.787	2187.17
995.083	2151.47
995.379	2193.73
995.676	2137.23
995.972	2126.61
996.268	2148.53
996.565	2108.53
996.861	2125.48
997.157	2100.17
997.453	2074.63
997.749	2071.24
998.044	2076.89
998.34	2058.59
998.636	2043.22
998.932	2039.83
999.227	2028.53
999.523	2033.73
999.818	2018.14
1000.114	2009.78
1000.409	1978.14
1000.704	1984.69
1001	1976.56
1001.295	1963.68
1001.59	1967.29
1001.885	1917.12
1002.18	1907.18
1002.475	1901.08
1002.77	1916.45
1003.065	1869.67
1003.359	1875.54
1003.654	1860.4
1003.949	1854.53
1004.243	1867.63
1004.538	1837.58
1004.832	1877.35
1005.127	1834.64
1005.421	1826.51
1005.715	1788.77
1006.009	1801.2
1006.304	1788.09
1006.598	1776.56
1006.892	1758.26
1007.186	1747.41
1007.48	1711.93
1007.773	1704.02
1008.067	1712.38
1008.361	1716
1008.655	1690.01
1008.948	1678.94
1009.242	1668.54
1009.535	1677.36
1009.829	1664.48
1010.122	1657.47
1010.415	1645.04
1010.708	1628.77
1011.001	1630.58
1011.295	1602.56
1011.588	1612.27
1011.881	1624.7
1012.173	1604.59
1012.466	1596.91
1012.759	1554.87
1013.052	1563.91
1013.344	1571.6
1013.637	1542.67
1013.93	1502.9
1014.222	1548.09
1014.514	1527.08
1014.807	1525.04
1015.099	1512.39
1015.391	1493.86
1015.683	1472.62
1015.976	1463.58
1016.268	1470.81
1016.56	1433.52
1016.851	1453.86
1017.143	1447.31
1017.435	1412.28
1017.727	1443.69
1018.018	1415.44
1018.31	1403.47
1018.602	1402.79
1018.893	1392.62
1019.185	1365.27
1019.476	1379.06
1019.767	1374.99
1020.058	1374.54
1020.35	1325.28
1020.641	1335.67
1020.932	1327.76
1021.223	1309.91
1021.514	1304.03
1021.804	1310.14
1022.095	1305.84
1022.386	1303.58
1022.677	1277.37
1022.967	1282.57
1023.258	1237.37
1023.548	1255.67
1023.839	1262.9
1024.129	1259.97
1024.419	1243.24
1024.709	1219.74
1025	1219.29
1025.29	1204.83
1025.58	1212.06
1025.87	1160.53
1026.16	1178.39
1026.449	1171.38
1026.739	1163.02
1027.029	1165.73
1027.319	1159.63
1027.608	1152.63
1027.898	1156.24
1028.187	1116.47
1028.477	1118.28
1028.766	1121.44
1029.055	1111.72
1029.344	1093.64
1029.634	1097.71
1029.923	1111.04
1030.212	1089.58
1030.501	1073.98
1030.79	1068.79
1031.078	1064.27
1031.367	1058.16
1031.656	1038.73
1031.945	1031.05
1032.233	1028.79
1032.522	1030.37
1032.81	1032.4
1033.099	1012.29
1033.387	997.6
1033.675	1016.58
1033.963	987.66
1034.251	976.36
1034.54	1004.15
1034.828	968.68
1035.116	957.38
1035.403	951.27
1035.691	949.01
1035.979	971.61
1036.267	937.26
1036.554	936.59
1036.842	945.85
1037.129	944.49
1037.417	921.22
1037.704	917.6
1037.992	896.59
1038.279	910.15
1038.566	878.28
1038.853	878.28
1039.14	878.28
