Data from hue_38_FLMS001491_00042.txt Node
Date: Tue Feb 07 17:31:32 GMT 2017
User: dcchb
Spectrometer: FLMS00149
Trigger mode: 0
Integration Time (sec): 2.000000E-2
Scans to average: 10
Electric dark correction enabled: true
Nonlinearity correction enabled: false
Boxcar width: 0
XAxis mode: Wavelengths
Number of Pixels in Spectrum: 2048
>>>>>Begin Spectral Data<<<<<
341.393	-2.15
341.776	-2.15
342.16	-2.15
342.543	-42.15
342.927	-76.72
343.31	-66.55
343.693	-58.87
344.077	-71.07
344.46	-65.42
344.843	-52.32
345.226	-25.88
345.61	-39.43
345.993	-13.45
346.376	-12.09
346.759	29.26
347.142	37.85
347.525	35.14
347.908	46.21
348.291	75.82
348.674	96.16
349.057	84.63
349.44	116.95
349.823	153.33
350.206	159.66
350.588	204.85
350.971	218.41
351.354	226.55
351.737	247.34
352.119	254.34
352.502	274.91
352.884	283.95
353.267	296.15
353.65	257.96
354.032	285.76
354.414	318.07
354.797	315.13
355.179	333.44
355.562	346.32
355.944	335.47
356.326	341.35
356.709	343.38
357.091	340.22
357.473	345.19
357.855	335.7
358.238	350.39
358.62	357.39
359.002	352.65
359.384	361.91
359.766	365.53
360.148	358.75
360.53	339.99
360.912	357.39
361.294	356.49
361.676	344.06
362.057	325.53
362.439	335.25
362.821	328.24
363.203	330.05
363.584	323.72
363.966	325.08
364.348	322.14
364.729	323.27
365.111	337.28
365.493	314.68
365.874	335.02
366.256	304.96
366.637	322.82
367.019	329.82
367.4	328.24
367.781	326.43
368.163	323.49
368.544	307
368.925	314.23
369.306	333.89
369.688	308.58
370.069	319.43
370.45	322.36
370.831	315.81
371.212	308.58
371.593	311.29
371.974	316.49
372.355	336.15
372.736	320.56
373.117	313.1
373.498	323.04
373.879	307
374.26	319.88
374.641	319.65
375.021	328.01
375.402	334.57
375.783	320.1
376.163	325.75
376.544	333.44
376.925	344.74
377.305	334.34
377.686	332.99
378.066	349.93
378.447	344.96
378.827	334.57
379.208	341.12
379.588	356.04
379.968	347.22
380.349	332.31
380.729	342.02
381.109	336.38
381.489	348.13
381.87	338.86
382.25	349.71
382.63	368.24
383.01	336.83
383.39	343.61
383.77	344.06
384.15	348.35
384.53	353.32
384.91	358.07
385.29	344.51
385.67	366.88
386.049	354.68
386.429	382.93
386.809	355.36
387.189	347.67
387.568	376.6
387.948	363.04
388.328	354.23
388.707	391.97
389.087	377.28
389.466	364.17
389.846	364.17
390.225	378.63
390.605	364.4
390.984	391.06
391.363	358.52
391.743	394.23
392.122	363.49
392.501	373.89
392.881	376.15
393.26	371.85
393.639	382.93
394.018	403.94
394.397	402.81
394.776	390.84
395.155	385.19
395.534	383.83
395.913	395.36
396.292	390.84
396.671	404.62
397.05	379.99
397.429	403.72
397.808	390.84
398.186	386.09
398.565	403.49
398.944	397.39
399.323	398.75
399.701	398.29
400.08	383.61
400.458	396.26
400.837	401.23
401.215	390.84
401.594	428.58
401.972	408.92
402.351	395.58
402.729	405.98
403.107	415.92
403.486	418.18
403.864	400.78
404.242	417.5
404.62	442.14
404.999	411.18
405.377	427.9
405.755	435.36
406.133	418.18
406.511	420.44
406.889	428.12
407.267	435.36
407.645	458.63
408.023	422.7
408.401	450.27
408.779	444.4
409.156	448.46
409.534	454.11
409.912	446.2
410.29	476.71
410.667	441.68
411.045	463.6
411.422	458.41
411.8	468.12
412.178	481
412.555	460.21
412.933	478.07
413.31	466.32
413.687	477.16
414.065	489.82
414.442	484.17
414.819	498.63
415.197	486.65
415.574	499.31
415.951	519.87
416.328	472.19
416.705	495.69
417.082	510.83
417.46	496.15
417.837	518.07
418.214	513.32
418.591	518.07
418.967	496.82
419.344	498.63
419.721	528.46
420.098	527.56
420.475	523.49
420.852	502.02
421.228	523.72
421.605	547.44
421.982	532.53
422.358	537.27
422.735	537.05
423.111	553.77
423.488	558.52
423.864	554.67
424.241	570.27
424.617	578.4
424.994	574.79
425.37	572.53
425.746	577.05
426.123	570.95
426.499	579.53
426.875	569.59
427.251	580.66
427.627	610.72
428.003	599.19
428.379	607.78
428.756	597.39
429.132	608.01
429.507	620.66
429.883	627.22
430.259	622.47
430.635	624.5
431.011	606.88
431.387	651.62
431.763	636.71
432.138	633.54
432.514	664.5
432.89	657.95
433.265	663.15
433.641	655.69
434.016	664.73
434.392	678.06
434.767	694.78
435.143	695.69
435.518	673.09
435.894	681.9
436.269	707.44
436.644	708.12
437.02	701.56
437.395	694.78
437.77	702.02
438.145	723.48
438.52	745.63
438.895	736.36
439.271	736.14
439.646	738.62
440.021	757.38
440.395	765.06
440.77	742.69
441.145	745.18
441.52	780.66
441.895	752.64
442.27	780.88
442.645	775.01
443.019	790.15
443.394	772.07
443.769	789.02
444.143	779.75
444.518	798.96
444.892	803.71
445.267	795.12
445.641	800.77
446.016	806.42
446.39	793.76
446.764	831.28
447.139	822.46
447.513	842.35
447.887	807.78
448.262	811.39
448.636	835.12
449.01	859.98
449.384	857.72
449.758	847.55
450.132	843.71
450.506	878.51
450.88	844.84
451.254	856.81
451.628	867.43
452.002	880.32
452.376	900.65
452.75	930.71
453.123	882.35
453.497	919.18
453.871	931.39
454.244	926.87
454.618	930.94
454.992	953.31
455.365	922.57
455.739	950.6
456.112	991.95
456.486	983.59
456.859	983.82
457.232	996.24
457.606	1026.98
457.979	1000.76
458.352	1015.45
458.725	1040.31
459.099	1052.06
459.472	1067.88
459.845	1085.73
460.218	1103.81
460.591	1090.03
460.964	1062.46
461.337	1111.04
461.71	1160.53
462.083	1149.01
462.456	1148.56
462.829	1168.67
463.201	1163.02
463.574	1215.9
463.947	1205.51
464.32	1229.01
464.692	1238.27
465.065	1271.49
465.438	1247.99
465.81	1302
466.183	1309.01
466.555	1337.48
466.928	1360.08
467.3	1333.86
467.672	1345.39
468.045	1409.34
468.417	1396.69
468.789	1393.75
469.161	1445.5
469.534	1448.89
469.906	1472.84
470.278	1478.94
470.65	1540.19
471.022	1562.78
471.394	1610.69
471.766	1619.73
472.138	1651.14
472.51	1661.31
472.882	1705.83
473.253	1744.47
473.625	1778.82
473.997	1811.36
474.369	1824.47
474.74	1865.6
475.112	1894.3
475.484	1930.68
475.855	2014.52
476.227	2013.85
476.598	2092.04
476.97	2098.81
477.341	2175.65
477.713	2238.25
478.084	2237.12
478.455	2316.66
478.827	2363.67
479.198	2475.3
479.569	2498.58
479.94	2574.28
480.311	2579.03
480.682	2705.8
481.053	2782.86
481.424	2840.72
481.795	2954.39
482.166	2976.31
482.537	3019.47
482.908	3144.21
483.279	3234.83
483.65	3303.3
484.021	3390.76
484.391	3469.85
484.762	3526.57
485.133	3614.93
485.503	3689.73
485.874	3815.15
486.244	3864.64
486.615	4004.3
486.985	4100.34
487.356	4235.26
487.726	4294.24
488.097	4436.83
488.467	4528.36
488.837	4585.76
489.207	4704.62
489.578	4811.06
489.948	4912.75
490.318	5037.49
490.688	5091.5
491.058	5190.71
491.428	5329.46
491.798	5411.72
492.168	5547.09
492.538	5624.15
492.908	5722.67
493.278	5900.3
493.648	5932.16
494.017	6039.73
494.387	6127.41
494.757	6280.4
495.126	6398.36
495.496	6455.31
495.866	6557.23
496.235	6645.81
496.605	6755.64
496.974	6868.86
497.344	6964.45
497.713	7094.62
498.082	7149.3
498.452	7295.74
498.821	7346.36
499.19	7414.83
499.559	7563.98
499.928	7603.98
500.298	7732.34
500.667	7849.62
501.036	7804.43
501.405	7986.34
501.774	8032.44
502.143	8190.18
502.512	8208.71
502.88	8380.01
503.249	8336.62
503.618	8503.84
503.987	8502.49
504.356	8651.18
504.724	8742.48
505.093	8844.63
505.462	8854.34
505.83	8937.51
506.199	9039.88
506.567	9175.24
506.936	9162.13
507.304	9364.84
507.672	9400.09
508.041	9384.5
508.409	9531.16
508.777	9579.75
509.145	9673.53
509.514	9737.94
509.882	9814.54
510.25	9823.58
510.618	9893.86
510.986	10008.66
511.354	10108.55
511.722	10180.41
512.09	10311.03
512.458	10342.21
512.826	10386.05
513.193	10480.06
513.561	10514.19
513.929	10632.6
514.297	10743.11
514.664	10693.84
515.032	10826.27
515.4	10983.1
515.767	10977.45
516.135	11107.39
516.502	10965.02
516.869	11223.77
517.237	11208.41
517.604	11269.42
517.972	11367.95
518.339	11489.75
518.706	11490.21
519.073	11528.85
519.44	11616.53
519.808	11736.53
520.175	11720.26
520.542	11964.32
520.909	11932.23
521.276	11934.04
521.643	12099.23
522.009	12159.79
522.376	12199.79
522.743	12351.88
523.11	12363.18
523.477	12527.02
523.843	12484.3
524.21	12717.74
524.577	12721.81
524.943	12835.26
525.31	12877.06
525.676	13008.58
526.043	12986.66
526.409	13182.14
526.776	13253.55
527.142	13322.02
527.508	13380.1
527.874	13485.63
528.241	13516.59
528.607	13618.29
528.973	13758.17
529.339	13711.16
529.705	13883.14
530.071	13931.05
530.437	13969.69
530.803	14083.13
531.169	14176.24
531.535	14150.02
531.901	14288.32
532.267	14344.14
532.632	14396.8
532.998	14490.13
533.364	14511.82
533.73	14546.17
534.095	14725.83
534.461	14747.07
534.826	14776
535.192	14926.05
535.557	15072.94
535.923	15064.58
536.288	15006.72
536.653	15072.94
537.019	15080.62
537.384	15258.02
537.749	15309.31
538.114	15419.37
538.479	15427.73
538.845	15495.3
539.21	15428.86
539.575	15602.64
539.94	15636.54
540.305	15754.28
540.67	15729.19
541.034	15784.1
541.399	15917.21
541.764	15924.67
542.129	15999.24
542.494	15992.46
542.858	16085.11
543.223	16116.07
543.587	16230.87
543.952	16230.19
544.316	16344.09
544.681	16367.82
545.045	16408.27
545.41	16479.91
545.774	16683.74
546.138	16610.75
546.503	16630.18
546.867	16708.37
547.231	16851.42
547.595	16878.09
547.959	17015.71
548.324	16953.57
548.688	17054.81
549.052	17107.46
549.416	17025.2
549.779	17212.77
550.143	17268.13
550.507	17334.8
550.871	17419.99
551.235	17493.44
551.599	17470.39
551.962	17521.69
552.326	17589.71
552.689	17702.47
553.053	17738.63
553.417	17676.94
553.78	17915.8
554.143	17807.33
554.507	17964.39
554.87	17990.6
555.234	18178.17
555.597	18064.72
555.96	18169.8
556.323	18295.45
556.686	18312.63
557.05	18380.87
557.413	18490.93
557.776	18508.1
558.139	18681.66
558.502	18663.8
558.865	18742.22
559.228	18876
559.59	18904.25
559.953	18850.92
560.316	19176.33
560.679	19054.53
561.041	19163.22
561.404	19280.28
561.767	19410
562.129	19338.14
562.492	19554.18
562.854	19503.33
563.217	19458.13
563.579	19630.56
563.941	19707.17
564.304	19763.21
564.666	19991.9
565.028	19962.75
565.39	20028.06
565.753	20202.52
566.115	20170.88
566.477	20256.76
566.839	20322.06
567.201	20401.61
567.563	20454.94
567.925	20544.66
568.287	20666.24
568.648	20658.55
569.01	20838.21
569.372	20975.61
569.734	20818.55
570.095	20980.58
570.457	21168.14
570.819	21270.06
571.18	21335.15
571.542	21285.66
571.903	21536.95
572.265	21573.56
572.626	21603.16
572.987	21629.37
573.349	21776.94
573.71	21949.59
574.071	22162.24
574.432	22116.37
574.794	22278.85
575.155	22237.72
575.516	22257.61
575.877	22440.65
576.238	22652.62
576.599	22768.78
576.96	22810.36
577.32	22881.77
577.681	23119.73
578.042	23189.33
578.403	23344.81
578.763	23488.08
579.124	23641.53
579.485	23636.78
579.845	24000.39
580.206	24085.81
580.566	24161.29
580.927	24345.69
581.287	24452.13
581.648	24563.08
582.008	24847.6
582.368	24898.67
582.728	25096.4
583.089	25149.06
583.449	25441.7
583.809	25598.76
584.169	25771.41
584.529	25882.14
584.889	26368.46
585.249	26316.48
585.609	26386.31
585.969	26742.91
586.329	26988.33
586.688	27176.57
587.048	27345.38
587.408	27437.36
587.768	27544.7
588.127	27772.26
588.487	27941.53
588.846	28488.18
589.206	28286.83
589.565	28634.16
589.925	28962.97
590.284	29112.79
590.643	29234.82
591.003	29518.66
591.362	29779.67
591.721	29991.19
592.08	30165.87
592.44	30467.11
592.799	30589.37
593.158	30865.97
593.517	30915.46
593.876	31104.38
594.235	31310.48
594.593	31507.08
594.952	31809.67
595.311	31945.04
595.67	32194.07
596.029	32465.25
596.387	32647.39
596.746	32989.98
597.104	32879.7
597.463	33137.77
597.822	33346.58
598.18	33550.42
598.538	33668.15
598.897	34076.96
599.255	33996.96
599.613	34630.61
599.972	34470.85
600.33	34875.81
600.688	34781.57
601.046	35206.64
601.404	35355.34
601.762	35443.7
602.12	35702.23
602.478	35777.93
602.836	35994.19
603.194	35962.78
603.552	36116.45
603.91	36130.24
604.268	36548.08
604.625	36578.81
604.983	36707.62
605.341	36672.82
605.698	37002.3
606.056	37256.76
606.413	37351
606.771	37506.7
607.128	37658.56
607.485	37618.56
607.843	37765.9
608.2	38121.6
608.557	38212.22
608.914	38285.43
609.272	38448.14
609.629	38630.74
609.986	38866.44
610.343	38731.52
610.7	39031.63
611.057	39058.52
611.414	39132.42
611.771	39256.71
612.127	39604.72
612.484	39710.48
612.841	39798.39
613.198	39795.9
613.554	39895.79
613.911	40027.76
614.267	40161.32
614.624	40280.86
614.98	40386.17
615.337	40644.24
615.693	40668.42
616.05	40585.71
616.406	41046.72
616.762	40872.71
617.118	41050.79
617.475	41043.33
617.831	41255.98
618.187	41394.5
618.543	41392.24
618.899	41549.53
619.255	41552.24
619.611	41572.58
619.967	41648.74
620.323	41892.57
620.678	41819.58
621.034	41859.58
621.39	41784.1
621.746	41979.12
622.101	42280.58
622.457	42023.64
622.812	42238.32
623.168	42283.75
623.523	42377.3
623.879	42663.4
624.234	42262.5
624.589	42509.5
624.945	42501.82
625.3	42583.4
625.655	42634.7
626.01	42620.01
626.365	42909.49
626.72	42726.22
627.075	42728.26
627.43	42914.46
627.785	42708.59
628.14	42843.51
628.495	42826.11
628.85	42768.25
629.205	42757.63
629.559	42890.51
629.914	42786.78
630.269	42722.38
630.623	42885.77
630.978	42813.22
631.332	43060.68
631.687	42998.76
632.041	42949.27
632.396	43010.51
632.75	42875.82
633.104	43128.24
633.459	42777.52
633.813	42861.81
634.167	42879.89
634.521	42743.4
634.875	43018.19
635.229	42984.97
635.583	42812.32
635.937	42797.86
636.291	42798.99
636.645	42928.48
636.999	42760.34
637.352	42804.86
637.706	42537.98
638.06	42866.56
638.413	42720.8
638.767	42765.54
639.121	42741.14
639.474	42402.84
639.828	42531.65
640.181	42575.94
640.534	42660.91
640.888	42415.49
641.241	42305.44
641.594	42604.42
641.947	42560.35
642.301	42460.01
642.654	42539.79
643.007	42372.33
643.36	42495.72
643.713	42415.72
644.066	42492.56
644.419	42324.65
644.771	42042.62
645.124	41677.44
645.477	41574.84
645.83	41469.53
646.182	41241.29
646.535	41319.7
646.888	41289.42
647.24	41262.76
647.593	41348.63
647.945	41298.46
648.298	41111.12
648.65	40997.68
649.002	40940.05
649.355	41048.3
649.707	40940.96
650.059	41206.49
650.411	41688.73
650.763	41580.71
651.115	42025.9
651.467	41857.09
651.819	41905.68
652.171	41877.43
652.523	41801.05
652.875	41734.16
653.227	41526.93
653.578	41912.46
653.93	41749.75
654.282	41637.89
654.633	41597.21
654.985	41617.55
655.337	41641.73
655.688	41707.72
656.039	41909.07
656.391	41619.81
656.742	41611.9
657.094	41658.9
657.445	41705.23
657.796	41603.54
658.147	41606.93
658.498	41621.62
658.849	41574.84
659.2	41654.16
659.551	41399.93
659.902	41594.95
660.253	41468.63
660.604	41669.07
660.955	41432.7
661.306	41542.98
661.656	41512.24
662.007	41512.69
662.358	41426.37
662.708	41363.55
663.059	41467.05
663.409	41316.99
663.76	41499.36
664.11	41523.99
664.461	41527.83
664.811	41458.91
665.161	41426.59
665.511	41356.77
665.862	41441.96
666.212	41541.85
666.562	41454.84
666.912	41401.51
667.262	41280.84
667.612	41431.79
667.962	41347.27
668.312	41351.34
668.662	41371.91
669.011	41441.74
669.361	41222.76
669.711	41380.95
670.06	41281.97
670.41	41201.52
670.76	41036.55
671.109	41331.23
671.459	41166.49
671.808	41154.06
672.157	41255.53
672.507	40991.58
672.856	41106.83
673.205	41103.66
673.554	41183.21
673.904	41099.82
674.253	41349.31
674.602	41156.54
674.951	40589.33
675.3	40380.75
675.649	40997.23
675.998	40948.41
676.346	40976.21
676.695	41166.26
677.044	40785.48
677.393	40990
677.741	41002.42
678.09	40877.46
678.438	40830.45
678.787	40757.23
679.135	40747.97
679.484	40649.67
679.832	40802.2
680.181	40388.43
680.529	40617.8
680.877	40507.3
681.225	40442.67
681.573	40568.99
681.922	40297.36
682.27	40235.21
682.618	40172.62
682.966	40136.68
683.314	40183.46
683.661	40097.14
684.009	40000.87
684.357	39781.44
684.705	39778.5
685.053	39932.62
685.4	39891.49
685.748	39732.85
686.095	39752.51
686.443	39501
686.79	39506.42
687.138	39534.67
687.485	39615.34
687.832	39309.36
688.18	39473.43
688.527	39189.14
688.874	39198.4
689.221	39155.47
689.568	39070.72
689.915	38868.92
690.262	38937.17
690.609	38795.48
690.956	38810.84
691.303	38740.11
691.65	38547.35
691.997	38564.97
692.344	38234.36
692.69	38375.38
693.037	38381.93
693.383	38035.05
693.73	38250.86
694.077	37946.01
694.423	37944.65
694.769	37919.79
695.116	37638.67
695.462	37704.66
695.808	37602.29
696.155	37555.06
696.501	37292.69
696.847	37393.48
697.193	37034.85
697.539	37262.18
697.885	37103.09
698.231	36774.06
698.577	36846.15
698.923	36888.41
699.269	36708.98
699.614	36507.85
699.96	36498.81
700.306	36486.84
700.651	36318.48
700.997	36070.8
701.342	36133.85
701.688	36034.87
702.033	35923.46
702.379	35981.09
702.724	35936.12
703.069	35863.35
703.415	35417.94
703.76	35475.56
704.105	35572.51
704.45	35423.59
704.795	35380.2
705.14	35151.73
705.485	35125.97
705.83	35104.5
706.175	35024.73
706.52	34937.27
706.865	34800.78
707.209	34815.47
707.554	34657.96
707.899	34761.23
708.243	34401.24
708.588	34476.72
708.932	34406.21
709.277	34210.74
709.621	34287.35
709.966	34042.38
710.31	34140.23
710.654	33807.36
710.998	33929.84
711.342	33886.45
711.687	33792.67
712.031	33700.92
712.375	33632.45
712.719	33603.07
713.063	33391.33
713.407	33675.39
713.75	33433.58
714.094	33333.47
714.438	33175.06
714.782	33269.52
715.125	33117.21
715.469	33218.22
715.812	32983.65
716.156	32842.41
716.499	32858.01
716.843	32929.87
717.186	32672.02
717.53	32920.6
717.873	32820.27
718.216	32675.64
718.559	32505.25
718.902	32359.04
719.246	32381.63
719.589	32288.08
719.932	32193.39
720.275	32267.29
720.617	32304.57
720.96	32078.14
721.303	32114.3
721.646	32019.84
721.989	31852.16
722.331	32006.73
722.674	31910.69
723.016	31973.51
723.359	31760.18
723.701	31911.36
724.044	31626.17
724.386	31472.05
724.729	31631.15
725.071	31556.8
725.413	31585.27
725.755	31323.81
726.097	31435.9
726.439	31183.47
726.782	31237.26
727.124	31343.92
727.465	31105.28
727.807	31183.7
728.149	31029.35
728.491	31049.47
728.833	31049.69
729.175	30884.95
729.516	30931.5
729.858	30764.28
730.199	30853.09
730.541	30677.27
730.882	30680.44
731.224	30910.94
731.565	30645.63
731.906	30704.39
732.248	30680.21
732.589	30456.71
732.93	30377.62
733.271	30390.5
733.612	30478.41
733.953	30409.93
734.294	30285.42
734.635	30264.63
734.976	30316.83
735.317	30064.86
735.658	30108.47
735.999	30146.21
736.339	30054.46
736.68	30025.09
737.021	30058.76
737.361	29715.94
737.702	30013.79
738.042	29918.42
738.383	29803.62
738.723	29800.69
739.063	29708.03
739.404	29835.49
739.744	29661.71
740.084	29430.53
740.424	29686.79
740.764	29533.57
741.104	29576.96
741.444	29405.44
741.784	29335.84
742.124	29410.64
742.464	29380.81
742.804	29325.67
743.143	29274.37
743.483	29226.01
743.823	29057.65
744.162	29113.02
744.502	29151.44
744.841	29028.28
745.181	29163.87
745.52	29038.9
745.86	28989.86
746.199	28961.16
746.538	28869.41
746.877	28964.78
747.216	28878
747.556	28757.1
747.895	28654.5
748.234	28550.77
748.573	28625.58
748.911	28565.24
749.25	28481.17
749.589	28428.52
749.928	28525.92
750.267	28392.13
750.605	28376.77
750.944	28333.83
751.283	28239.14
751.621	28281.18
751.96	28028.98
752.298	28086.83
752.636	28009.32
752.975	27885.71
753.313	27795.31
753.651	27970.45
753.989	27958.47
754.327	27708.76
754.666	27551.25
755.004	27667.63
755.342	27648.65
755.679	27607.3
756.017	27421.09
756.355	27469.67
756.693	27415.66
757.031	27508.32
757.368	27205.05
757.706	27202.34
758.044	27153.3
758.381	27122.34
758.719	27118.5
759.056	27116.69
759.394	26968.9
759.731	26824.94
760.068	26768.22
760.405	26637.38
760.743	26612.52
761.08	26672.63
761.417	26497.27
761.754	26397.61
762.091	26400.77
762.428	26298.18
762.765	26113.1
763.102	26291.63
763.438	25956.94
763.775	25917.85
764.112	25977.96
764.449	25810.28
764.785	25782.94
765.122	25596.5
765.458	25663.17
765.795	25494.36
766.131	25471.53
766.467	25267.92
766.804	25343.63
767.14	25170.98
767.476	25107.48
767.812	24962.17
768.148	25026.12
768.485	24781.38
768.821	24798.78
769.157	24665.68
769.492	24592.01
769.828	24693.7
770.164	24414.39
770.5	24269.31
770.836	24343.2
771.171	24246.03
771.507	24096.43
771.842	23936.21
772.178	23961.06
772.513	23909.31
772.849	24019.82
773.184	23750.45
773.519	23720.17
773.855	23638.36
774.19	23512.72
774.525	23402.21
774.86	23512.49
775.195	23371.48
775.53	23271.82
775.865	23136.23
776.2	23033.63
776.535	22889.91
776.87	22740.53
777.205	22657.6
777.539	22615.34
777.874	22677.71
778.209	22451.5
778.543	22381.9
778.878	22384.16
779.212	22368.34
779.547	22258.96
779.881	22244.73
780.215	22028.23
780.55	22051.28
780.884	21931.74
781.218	21847.9
781.552	21881.8
781.886	21734.68
782.22	21621.69
782.554	21523.61
782.888	21313
783.222	21344.64
783.556	21175.6
783.889	21130.18
784.223	20883.63
784.557	20963.4
784.89	20988.49
785.224	20801.15
785.557	20819.68
785.891	20707.82
786.224	20661.26
786.558	20573.36
786.891	20460.82
787.224	20356.19
787.557	20325.91
787.891	20219.24
788.224	20201.16
788.557	20195.97
788.89	20121.84
789.223	20035.97
789.556	19958.91
789.888	19849.08
790.221	19871.45
790.554	19651.35
790.887	19695.64
791.219	19643.89
791.552	19527.96
791.884	19457.68
792.217	19302.2
792.549	19388.53
792.882	19201.64
793.214	19112.15
793.546	19187.86
793.879	19078.26
794.211	18955.09
794.543	18992.83
794.875	18944.7
795.207	18964.59
795.539	18726.63
795.871	18723.69
796.203	18581.32
796.535	18559.62
796.867	18512.17
797.198	18477.37
797.53	18467.2
797.862	18384.26
798.193	18338.61
798.525	18213.42
798.856	18219.97
799.188	17941.34
799.519	17989.02
799.85	17951.73
800.182	17921.45
800.513	17806.2
800.844	17739.99
801.175	17821.34
801.506	17857.27
801.837	17709.93
802.168	17609.59
802.499	17630.16
802.83	17458.86
803.161	17391.07
803.491	17396.94
803.822	17441.91
804.153	17333.22
804.483	17188.14
804.814	17112.43
805.145	17070.17
805.475	17013.22
805.805	17027.46
806.136	16922.61
806.466	17016.84
806.796	16884.64
807.126	16808.71
807.457	16788.6
807.787	16804.64
808.117	16729.16
808.447	16546.12
808.777	16643.52
809.107	16479.23
809.436	16479.23
809.766	16479.23
810.096	16431.77
810.426	16316.07
810.755	16313.58
811.085	16313.81
811.414	16235.84
811.744	16149.07
812.073	16088.05
812.403	16118.79
812.732	16048.28
813.061	16067.26
813.39	15861.39
813.719	15793.82
814.049	15983.65
814.378	15961.5
814.707	15822.75
815.036	15801.96
815.365	15698.46
815.693	15597.44
816.022	15573.49
816.351	15570.55
816.68	15507.73
817.008	15554.96
817.337	15378.47
817.665	15324.68
817.994	15365.58
818.322	15374.85
818.651	15239.94
818.979	15225.7
819.307	15245.36
819.636	15154.74
819.964	15095.54
820.292	15180.5
820.62	15196.1
820.948	15143.44
821.276	15180.05
821.604	15169.88
821.932	15091.02
822.259	15136.21
822.587	15160.17
822.915	15065.93
823.243	15132.82
823.57	15034.07
823.898	15110.68
824.225	15001.53
824.553	15028.19
824.88	15011.92
825.207	15044.92
825.535	14993.84
825.862	15033.84
826.189	15051.02
826.516	15014.86
826.843	15088.98
827.17	15063.45
827.497	15019.38
827.824	15032.49
828.151	15077.91
828.478	15002.43
828.805	15046.27
829.131	14947.29
829.458	14919.27
829.785	14913.62
830.111	14923.11
830.438	15000.4
830.764	14972.6
831.09	14954.97
831.417	14825.94
831.743	15074.74
832.069	14957.91
832.395	14890.79
832.722	14964.92
833.048	14888.76
833.374	14884.69
833.7	14699.84
834.026	14830.23
834.351	14887.86
834.677	14838.82
835.003	14846.95
835.329	14759.72
835.654	14753.17
835.98	14796.11
836.306	14792.72
836.631	14745.71
836.956	14686.73
837.282	14735.54
837.607	14594.08
837.932	14580.52
838.258	14609.9
838.583	14637.69
838.908	14491.26
839.233	14556.11
839.558	14434.54
839.883	14415.78
840.208	14340.75
840.533	14387.08
840.858	14369
841.182	14364.48
841.507	14306.86
841.832	14311.15
842.156	14299.17
842.481	14298.04
842.805	14262.34
843.13	14164.71
843.454	14169.91
843.778	14175.56
844.103	14091.27
844.427	14071.61
844.751	14071.61
845.075	13947.54
845.399	14024.38
845.723	13890.82
846.047	13889.47
846.371	13862.57
846.695	13771.5
847.019	13684.5
847.343	13569.93
847.666	13449.02
847.99	13433.43
848.313	13467.33
848.637	13376.94
848.96	13384.85
849.284	13332.64
849.607	13238.18
849.931	13232.53
850.254	13083.16
850.577	12986.89
850.9	12975.37
851.223	12945.76
851.546	12938.98
851.869	12833.45
852.192	12925.65
852.515	12767.23
852.838	12789.16
853.161	12713.45
853.483	12620.57
853.806	12589.39
854.129	12514.13
854.451	12619.89
854.774	12448.6
855.096	12470.29
855.419	12454.7
855.741	12393.46
856.063	12269.17
856.385	12190.3
856.708	12194.82
857.03	12192.56
857.352	12149.62
857.674	12150.08
857.996	12029.85
858.318	12040.25
858.64	11938.56
858.961	11978.78
859.283	11852
859.605	11885.22
859.926	11885.22
860.248	11837.09
860.57	11795.06
860.891	11810.65
861.212	11749.18
861.534	11716.42
861.855	11607.04
862.176	11626.7
862.498	11617.89
862.819	11611.33
863.14	11519.58
863.461	11580.15
863.782	11499.92
864.103	11505.35
864.424	11488.85
864.745	11465.35
865.065	11460.83
865.386	11425.12
865.707	11375.41
866.027	11321.62
866.348	11391
866.668	11370.89
866.989	11376.76
867.309	11274.62
867.63	11288.86
867.95	11255.64
868.27	11215.19
868.59	11231.23
868.91	11232.81
869.23	11156.2
869.55	11129.09
869.87	11167.73
870.19	11147.62
870.51	11166.37
870.83	11195.75
871.15	11052.93
871.469	11048.64
871.789	11070.1
872.109	11103.55
872.428	11024.23
872.748	11047.28
873.067	11082.53
873.386	11028.52
873.706	11005.7
874.025	10915.31
874.344	10879.83
874.663	10869.88
874.982	10894.06
875.301	10924.12
875.62	10808.42
875.939	10844.12
876.258	10759.15
876.577	10729.55
876.896	10725.03
877.214	10704.69
877.533	10746.95
877.852	10722.77
878.17	10660.62
878.489	10701.3
878.807	10625.14
879.125	10626.95
879.444	10659.49
879.762	10610.46
880.08	10601.42
880.398	10520.51
880.716	10538.37
881.034	10557.8
881.352	10490.46
881.67	10458.14
881.988	10482.32
882.306	10483.68
882.624	10372.5
882.941	10303.57
883.259	10339.05
883.577	10301.76
883.894	10242.56
884.212	10218.6
884.529	10249.79
884.846	10254.08
885.164	10225.83
885.481	10206.17
885.798	10140.64
886.115	10103.8
886.432	10076.23
886.75	10105.61
887.067	10098.83
887.383	10097.47
887.7	10047.76
888.017	10056.8
888.334	9992.62
888.651	9969.12
888.967	9917.37
889.284	9915.11
889.6	9894.09
889.917	9813.19
890.233	9823.36
890.55	9772.51
890.866	9781.78
891.182	9667.2
891.498	9764.6
891.815	9738.61
892.131	9669.69
892.447	9638.28
892.763	9566.64
893.079	9528.22
893.395	9509.02
893.71	9467.89
894.026	9480.32
894.342	9406.65
894.657	9375.91
894.973	9428.34
895.289	9363.26
895.604	9384.95
895.92	9311.05
896.235	9214.79
896.55	9275.12
896.865	9269.47
897.181	9175.24
897.496	9156.71
897.811	9115.35
898.126	9071.96
898.441	9076.94
898.756	8984.74
899.071	8961.23
899.386	8964.85
899.7	8939.09
900.015	8902.25
900.33	8780.67
900.644	8784.97
900.959	8821.35
901.273	8792.2
901.588	8757.4
901.902	8758.53
902.216	8667.68
902.531	8661.35
902.845	8632.65
903.159	8604.18
903.473	8600.34
903.787	8504.97
904.101	8462.72
904.415	8498.19
904.729	8448.48
905.042	8307.69
905.356	8368.25
905.67	8329.61
905.984	8329.61
906.297	8258.65
906.611	8216.62
906.924	8264.75
907.237	8213.68
907.551	8181.82
907.864	8142.05
908.177	8126.45
908.491	8072.44
908.804	8033.12
909.117	8041.03
909.43	8010.3
909.743	7919.45
910.056	7925.78
910.368	7881.71
910.681	7845.33
910.994	7828.83
911.307	7762.85
911.619	7703.19
911.932	7733.02
912.244	7662.28
912.557	7630.42
912.869	7563.76
913.181	7540.71
913.494	7587.48
913.806	7512.68
914.118	7498.22
914.43	7415.29
914.742	7461.61
915.054	7464.1
915.366	7361.05
915.678	7329.86
915.99	7234.95
916.302	7247.83
916.613	7161.96
916.925	7169.87
917.236	7185.01
917.548	7151.34
917.859	7187.72
918.171	7116.99
918.482	7052.13
918.794	7003.09
919.105	7024.11
919.416	7002.64
919.727	6850.55
920.038	6912.25
920.349	6848.52
920.66	6783.44
920.971	6807.84
921.282	6796.54
921.593	6773.04
921.903	6710.9
922.214	6688.98
922.525	6683.33
922.835	6594.06
923.146	6644.46
923.456	6580.28
923.767	6573.27
924.077	6561.52
924.387	6492.6
924.697	6483.11
925.008	6513.84
925.318	6462.32
925.628	6391.81
925.938	6373.28
926.248	6322.21
926.558	6265.71
926.867	6321.75
927.177	6220.29
927.487	6201.53
927.796	6194.07
928.106	6184.13
928.416	6151.59
928.725	6165.37
929.034	6067.07
929.344	6082.66
929.653	6084.47
929.962	6036.11
930.271	6022.33
930.581	5993.4
930.89	5902.33
931.199	5898.49
931.508	5870.69
931.817	5849.45
932.125	5885.38
932.434	5867.76
932.743	5797.7
933.051	5740.3
933.36	5732.17
933.669	5655.78
933.977	5649.23
934.286	5676.57
934.594	5636.57
934.902	5596.58
935.21	5607.2
935.519	5638.83
935.827	5579.85
936.135	5520.87
936.443	5470.03
936.751	5445.85
937.059	5466.64
937.367	5444.04
937.674	5457.37
937.982	5438.39
938.29	5333.31
938.597	5403.13
938.905	5340.31
939.213	5331.95
939.52	5256.47
939.827	5261.67
940.135	5239.52
940.442	5200.65
940.749	5185.97
941.056	5193.42
941.363	5196.81
941.67	5121.33
941.977	5085.63
942.284	5058.29
942.591	5073.2
942.898	5065.52
943.205	4970.38
943.511	5012.41
943.818	4949.81
944.125	4914.33
944.431	4927.44
944.738	4884.96
945.044	4894.67
945.35	4871.62
945.657	4777.61
945.963	4802.92
946.269	4772.42
946.575	4781.68
946.881	4766.54
947.187	4740.33
947.493	4698.29
947.799	4708.46
948.105	4711.4
948.41	4683.61
948.716	4626.88
949.022	4603.83
949.327	4606.55
949.633	4545.08
949.938	4579.43
950.244	4582.14
950.549	4529.49
950.854	4526.32
951.16	4512.31
951.465	4447.45
951.77	4425.76
952.075	4432.99
952.38	4402.26
952.685	4419.21
952.99	4382.82
953.294	4362.26
953.599	4327.23
953.904	4291.75
954.209	4277.51
954.513	4265.76
954.818	4285.42
955.122	4179.44
955.426	4239.1
955.731	4190.51
956.035	4164.07
956.339	4142.6
956.643	4136.28
956.948	4147.57
957.252	4109.38
957.556	4077.29
957.86	4070.51
958.163	4044.75
958.467	4032.1
958.771	4051.08
959.075	3983.51
959.378	3981.03
959.682	3981.25
959.985	3928.6
960.289	3960.69
960.592	3909.16
960.896	3902.38
961.199	3873.23
961.502	3880.01
961.805	3868.26
962.108	3772.9
962.411	3802.27
962.714	3780.58
963.017	3792.56
963.32	3817.19
963.623	3748.26
963.926	3753.69
964.228	3719.34
964.531	3719.79
964.833	3696.51
965.136	3638.21
965.438	3682.05
965.741	3661.03
966.043	3627.81
966.345	3591.43
966.648	3629.85
966.95	3612
967.252	3546.69
967.554	3555.95
967.856	3532.22
968.158	3463.52
968.46	3530.42
968.761	3512.56
969.063	3442.51
969.365	3457.42
969.666	3458.1
969.968	3403.19
970.269	3405.22
970.571	3369.29
970.872	3402.06
971.174	3364.77
971.475	3331.55
971.776	3326.13
972.077	3345.11
972.378	3343.3
972.679	3270.31
972.98	3266.47
973.281	3261.72
973.582	3244.1
973.883	3235.51
974.183	3195.96
974.484	3195.51
974.785	3199.35
975.085	3174.72
975.386	3189.63
975.686	3169.3
975.986	3151.22
976.287	3114.61
976.587	3072.35
976.887	3059.47
977.187	3106.47
977.487	3065.34
977.787	3030.54
978.087	3054.5
978.387	3038.9
978.687	3007.94
978.987	3000.49
979.286	2996.64
979.586	2984.22
979.885	2933.37
980.185	2938.57
980.484	2884.1
980.784	2906.25
981.083	2886.82
981.382	2877.55
981.682	2862.18
981.981	2869.42
982.28	2833.03
982.579	2873.48
982.878	2850.43
983.177	2815.41
983.475	2807.95
983.774	2816.08
984.073	2777.89
984.372	2787.16
984.67	2764.56
984.969	2726.37
985.267	2760.49
985.566	2742.64
985.864	2720.04
986.162	2696.54
986.461	2652.7
986.759	2637.78
987.057	2616.09
987.355	2629.87
987.653	2619.71
987.951	2621.06
988.249	2596.2
988.547	2607.95
988.844	2606.15
989.142	2595.52
989.44	2532.7
989.737	2523.21
990.035	2560.27
990.332	2505.13
990.63	2540.39
990.927	2498.35
991.224	2518.69
991.521	2486.15
991.819	2453.61
992.116	2486.83
992.413	2450.44
992.71	2427.62
993.006	2442.31
993.303	2394.85
993.6	2440.5
993.897	2425.81
994.193	2382.65
994.49	2361.86
994.787	2345.36
995.083	2337.45
995.379	2337.45
995.676	2308.75
995.972	2308.75
996.268	2294.74
996.565	2284.12
996.861	2308.98
997.157	2271.47
997.453	2240.28
997.749	2249.32
998.044	2212.26
998.34	2228.53
998.636	2221.98
998.932	2197.8
999.227	2185.37
999.523	2180.85
999.818	2126.84
1000.114	2136.1
1000.409	2156.44
1000.704	2143.56
1001	2130.9
1001.295	2108.76
1001.59	2114.18
1001.885	2104.24
1002.18	2067.63
1002.475	2082.77
1002.77	2035.77
1003.065	2074.18
1003.359	2005.94
1003.654	2010.46
1003.949	2012.04
1004.243	1995.77
1004.538	1974.52
1004.832	1968.2
1005.127	1948.54
1005.421	1971.81
1005.715	1937.24
1006.009	1956.45
1006.304	1938.82
1006.598	1932.49
1006.892	1909.44
1007.186	1886.84
1007.48	1869.89
1007.773	1874.87
1008.067	1877.8
1008.361	1846.62
1008.655	1843
1008.948	1864.02
1009.242	1821.99
1009.535	1804.36
1009.829	1825.38
1010.122	1776.56
1010.415	1780.41
1010.708	1779.5
1011.001	1764.13
1011.295	1748.09
1011.588	1755.1
1011.881	1748.99
1012.173	1744.25
1012.466	1738.37
1012.759	1725.49
1013.052	1723.01
1013.344	1668.09
1013.637	1681.2
1013.93	1672.39
1014.222	1668.77
1014.514	1659.05
1014.807	1596.91
1015.099	1643.91
1015.391	1637.58
1015.683	1604.59
1015.976	1620.86
1016.268	1588.32
1016.56	1563.01
1016.851	1541.99
1017.143	1600.52
1017.435	1541.77
1017.727	1542.22
1018.018	1525.72
1018.31	1541.77
1018.602	1485.27
1018.893	1510.36
1019.185	1486.4
1019.476	1490.02
1019.767	1471.26
1020.058	1471.49
1020.35	1502.22
1020.641	1452.73
1020.932	1462.45
1021.223	1439.85
1021.514	1414.54
1021.804	1419.28
1022.095	1417.7
1022.386	1416.35
1022.677	1377.03
1022.967	1356.24
1023.258	1345.61
1023.548	1347.65
1023.839	1353.98
1024.129	1308.55
1024.419	1330.7
1024.709	1338.16
1025	1351.72
1025.29	1306.07
1025.58	1309.46
1025.87	1280.08
1026.16	1275.11
1026.449	1268.1
1026.739	1284.82
1027.029	1240.53
1027.319	1254.09
1027.608	1226.52
1027.898	1225.39
1028.187	1245.73
1028.477	1233.3
1028.766	1207.99
1029.055	1208.22
1029.344	1196.24
1029.634	1192.4
1029.923	1213.87
1030.212	1181.32
1030.501	1177.26
1030.79	1140.87
1031.078	1146.98
1031.367	1135
1031.656	1138.61
1031.945	1131.83
1032.233	1092.97
1032.522	1109.24
1032.81	1087.09
1033.099	1104.26
1033.387	1078.95
1033.675	1075.56
1033.963	1048.45
1034.251	1066.3
1034.54	1063.14
1034.828	1036.7
1035.116	1045.96
1035.403	1019.97
1035.691	1026.75
1035.979	1004.38
1036.267	1009.8
1036.554	987.43
1036.842	988.11
1037.129	999.86
1037.417	983.36
1037.704	976.81
1037.992	962.12
1038.279	969.13
1038.566	964.83
1038.853	964.83
1039.14	964.83
