Data from hue_230_FLMS001491_00003.txt Node
Date: Tue Feb 07 16:36:43 GMT 2017
User: dcchb
Spectrometer: FLMS00149
Trigger mode: 0
Integration Time (sec): 2.000000E-2
Scans to average: 10
Electric dark correction enabled: true
Nonlinearity correction enabled: false
Boxcar width: 0
XAxis mode: Wavelengths
Number of Pixels in Spectrum: 2048
>>>>>Begin Spectral Data<<<<<
341.393	-20.99
341.776	-20.99
342.16	-20.99
342.543	-55.56
342.927	-51.5
343.31	-71.83
343.693	-57.15
344.077	-55.34
344.46	-54.89
344.843	-49.69
345.226	-54.43
345.61	-33.19
345.993	-42
346.376	2.74
346.759	21.95
347.142	34.6
347.525	30.76
347.908	59.91
348.291	80.7
348.674	87.48
349.057	100.36
349.44	129.97
349.823	155.5
350.206	167.03
350.588	197.76
350.971	194.83
351.354	210.87
351.737	247.71
352.119	221.04
352.502	259.46
352.884	278.89
353.267	267.14
353.65	278.21
354.032	295.39
354.414	292.68
354.797	313.69
355.179	282.28
355.562	346.23
355.944	312.11
356.326	308.04
356.709	312.56
357.091	330.42
357.473	329.51
357.855	320.7
358.238	344.43
358.62	334.93
359.002	355.05
359.384	339.68
359.766	325.67
360.148	324.99
360.53	330.19
360.912	326.8
361.294	303.07
361.676	322.96
362.057	328.61
362.439	331.32
362.821	321.83
363.203	307.36
363.584	297.2
363.966	310.53
364.348	330.42
364.729	304.88
365.111	311.88
365.493	324.54
365.874	310.08
366.256	317.53
366.637	319.79
367.019	299.91
367.4	308.04
367.781	288.83
368.163	292.45
368.544	295.61
368.925	295.39
369.306	323.18
369.688	322.73
370.069	310.3
370.45	280.47
370.831	308.72
371.212	311.43
371.593	292.68
371.974	299.68
372.355	301.26
372.736	308.49
373.117	303.52
373.498	330.64
373.879	308.95
374.26	324.99
374.641	318.66
375.021	304.2
375.402	316.86
375.783	322.51
376.163	330.42
376.544	337.19
376.925	335.84
377.305	306.46
377.686	324.31
378.066	312.56
378.447	336.52
378.827	330.87
379.208	306.69
379.588	334.48
379.968	351.43
380.349	332.9
380.729	332.67
381.109	349.17
381.489	318.21
381.87	330.19
382.25	307.14
382.63	320.92
383.01	357.98
383.39	336.29
383.77	334.26
384.15	354.82
384.53	347.82
384.91	355.05
385.29	332.67
385.67	333.8
386.049	346.69
386.429	360.24
386.809	361.6
387.189	369.28
387.568	341.49
387.948	349.85
388.328	368.38
388.707	375.39
389.087	366.35
389.466	350.98
389.846	363.86
390.225	364.76
390.605	366.35
390.984	361.83
391.363	348.04
391.743	377.42
392.122	361.15
392.501	371.77
392.881	379.23
393.26	380.36
393.639	363.18
394.018	366.35
394.397	390.98
394.776	369.51
395.155	362.5
395.534	404.31
395.913	376.97
396.292	378.55
396.671	400.7
397.05	394.37
397.429	414.03
397.808	379.68
398.186	421.26
398.565	393.69
398.944	404.31
399.323	401.83
399.701	405.22
400.08	395.05
400.458	402.73
400.837	403.18
401.215	427.36
401.594	440.24
401.972	430.07
402.351	414.03
402.729	431.66
403.107	418.77
403.486	432.11
403.864	447.93
404.242	442.5
404.62	420.81
404.999	448.6
405.377	447.02
405.755	466.46
406.133	451.99
406.511	454.25
406.889	473.01
407.267	486.8
407.645	471.2
408.023	477.3
408.401	473.69
408.779	494.7
409.156	474.59
409.534	493.57
409.912	511.43
410.29	513.01
410.667	526.12
411.045	526.79
411.422	523.63
411.8	548.94
412.178	547.58
412.555	556.85
412.933	557.98
413.31	566.34
413.687	571.09
414.065	547.58
414.442	595.72
414.819	593.23
415.197	564.08
415.574	595.94
415.951	614.7
416.328	631.42
416.705	628.03
417.082	630.29
417.46	632.55
417.837	647.02
418.214	647.92
418.591	647.92
418.967	656.06
419.344	692.67
419.721	694.25
420.098	689.73
420.475	701.25
420.852	704.64
421.228	712.1
421.605	701.93
421.982	720.01
422.358	746
422.735	746.45
423.111	748.26
423.488	761.59
423.864	794.13
424.241	789.61
424.617	797.07
424.994	804.75
425.37	810.85
425.746	823.06
426.123	852.21
426.499	850.85
426.875	859.44
427.251	875.26
427.627	895.6
428.003	907.58
428.379	901.25
428.756	934.92
429.132	909.16
429.507	925.65
429.883	955.94
430.259	952.09
430.635	954.81
431.011	963.62
431.387	996.61
431.763	1011.98
432.138	1034.13
432.514	1030.51
432.89	1018.76
433.265	1054.01
433.641	1079.1
434.016	1088.81
434.392	1097.17
434.767	1147.57
435.143	1138.98
435.518	1140.56
435.894	1162.71
436.269	1197.74
436.644	1204.06
437.02	1252.65
437.395	1253.33
437.77	1264.4
438.145	1326.55
438.52	1329.94
438.895	1308.02
439.271	1344.4
439.646	1386.21
440.021	1401.57
440.395	1375.59
440.77	1394.57
441.145	1383.27
441.52	1455.13
441.895	1472.53
442.27	1443.38
442.645	1472.53
443.019	1496.94
443.394	1464.62
443.769	1512.53
444.143	1499.65
444.518	1527.45
444.892	1556.6
445.267	1563.6
445.641	1585.75
446.016	1592.75
446.39	1571.96
446.764	1591.4
447.139	1599.53
447.513	1651.06
447.887	1620.32
448.262	1635.47
448.636	1637.73
449.01	1678.18
449.384	1675.46
449.758	1704.16
450.132	1728.34
450.506	1715.01
450.88	1743.71
451.254	1718.18
451.628	1762.02
452.002	1802.01
452.376	1768.8
452.75	1810.83
453.123	1816.03
453.497	1855.35
453.871	1856.48
454.244	1901.67
454.618	1899.19
454.992	1939.41
455.365	1912.07
455.739	1959.52
456.112	1976.25
456.486	1990.03
456.859	2030.26
457.232	2077.04
457.606	2060.99
457.979	2051.27
458.352	2115
458.725	2155
459.099	2167.2
459.472	2172.17
459.845	2203.13
460.218	2226.18
460.591	2244.71
460.964	2252.85
461.337	2293.53
461.71	2332.17
462.083	2368.55
462.456	2363.81
462.829	2369.46
463.201	2407.65
463.574	2406.52
463.947	2507.53
464.32	2521.54
464.692	2537.81
465.065	2517.93
465.438	2571.03
465.81	2582.33
466.183	2592.5
466.555	2642.44
466.928	2657.81
467.3	2725.38
467.672	2748.43
468.045	2782.78
468.417	2814.87
468.789	2805.83
469.161	2883.34
469.534	2877.92
469.906	2927.86
470.278	2961.08
470.65	2978.48
471.022	3060.74
471.394	3075.65
471.766	3104.58
472.138	3125.82
472.51	3174.41
472.882	3218.02
473.253	3246.72
473.625	3296.21
473.997	3344.57
474.369	3394.06
474.74	3452.82
475.112	3502.99
475.484	3489.88
475.855	3598.13
476.227	3587.28
476.598	3695.98
476.97	3724.9
477.341	3798.8
477.713	3818.23
478.084	3830.21
478.455	3994.73
478.827	3983.65
479.198	4049.41
479.569	4064.55
479.94	4167.83
480.311	4177.32
480.682	4277.43
481.053	4344.55
481.424	4425.22
481.795	4435.17
482.166	4520.36
482.537	4563.75
482.908	4627.7
483.279	4699.57
483.65	4746.8
484.021	4778.66
484.391	4909.28
484.762	4912.67
485.133	4964.87
485.503	4988.15
485.874	5067.92
486.244	5109.72
486.615	5171.87
486.985	5263.39
487.356	5312.66
487.726	5361.24
488.097	5477.85
488.467	5492.09
488.837	5642.59
489.207	5642.14
489.578	5665.42
489.948	5698.64
490.318	5831.97
490.688	5796.03
491.058	5951.28
491.428	5987.22
491.798	5969.36
492.168	6113.54
492.538	6140.21
492.908	6176.36
493.278	6270.37
493.648	6234.89
494.017	6281.45
494.387	6355.57
494.757	6414.32
495.126	6487.09
495.496	6502.23
495.866	6544.71
496.235	6524.6
496.605	6614.77
496.974	6619.52
497.344	6727.99
497.713	6748.33
498.082	6751.26
498.452	6798.72
498.821	6828.1
499.19	6870.13
499.559	6900.64
499.928	6917.36
500.298	6957.81
500.667	7040.3
501.036	7009.34
501.405	7063.12
501.774	7017.24
502.143	7088.66
502.512	7100.41
502.88	7185.6
503.249	7163.91
503.618	7225.6
503.987	7206.62
504.356	7189.67
504.724	7316.67
505.093	7315.99
505.462	7297.24
505.83	7363.45
506.199	7350.8
506.567	7478.25
506.936	7414.07
507.304	7467.63
507.672	7533.84
508.041	7567.74
508.409	7578.81
508.777	7612.26
509.145	7684.35
509.514	7664.69
509.882	7647.51
510.25	7694.29
510.618	7684.8
510.986	7701.52
511.354	7750.33
511.722	7874.85
512.09	7891.35
512.458	7871.69
512.826	7881.85
513.193	7888.86
513.561	7998.69
513.929	7959.14
514.297	7954.85
514.664	8008.41
515.032	8012.7
515.4	8007.05
515.767	8058.8
516.135	8098.12
516.502	7970.67
516.869	8130.44
517.237	8160.04
517.604	8061.06
517.972	8105.35
518.339	8164.56
518.706	8128.18
519.073	8153.94
519.44	8206.14
519.808	8233.94
520.175	8159.59
520.542	8240.26
520.909	8219.93
521.276	8267.38
521.643	8319.58
522.009	8389.64
522.376	8346.7
522.743	8356.87
523.11	8428.28
523.477	8433.7
523.843	8438.22
524.21	8510.76
524.577	8513.25
524.943	8544.44
525.31	8502.63
525.676	8579.01
526.043	8559.8
526.409	8568.16
526.776	8685.45
527.142	8662.85
527.508	8710.53
527.874	8740.82
528.241	8749.63
528.607	8683.64
528.973	8827.14
529.339	8725.22
529.705	8820.14
530.071	8869.85
530.437	8794.83
530.803	8822.4
531.169	8853.58
531.535	8765
531.901	8758.44
532.267	8828.72
532.632	8762.96
532.998	8835.73
533.364	8832.56
533.73	8859.91
534.095	8857.87
534.461	8910.75
534.826	8829.17
535.192	8859.23
535.557	8889.96
535.923	8836.86
536.288	8852.9
536.653	8875.28
537.019	8824.43
537.384	8856.52
537.749	8786.01
538.114	8780.81
538.479	8844.32
538.845	8869.17
539.21	8787.37
539.575	8819.46
539.94	8738.78
540.305	8794.6
540.67	8779.91
541.034	8810.87
541.399	8784.43
541.764	8729.74
542.129	8778.78
542.494	8802.28
542.858	8742.17
543.223	8722.74
543.587	8716.41
543.952	8761.15
544.316	8711.44
544.681	8707.14
545.045	8748.27
545.41	8755.73
545.774	8676.41
546.138	8733.81
546.503	8710.08
546.867	8663.08
547.231	8701.72
547.595	8776.52
547.959	8666.47
548.324	8673.02
548.688	8652.91
549.052	8644.77
549.416	8656.98
549.779	8601.61
550.143	8632.34
550.507	8626.24
550.871	8685
551.235	8673.47
551.599	8666.24
551.962	8649.07
552.326	8632.34
552.689	8675.96
553.053	8551.67
553.417	8567.26
553.78	8645.45
554.143	8558.22
554.507	8600.25
554.87	8609.52
555.234	8631.44
555.597	8610.65
555.96	8576.53
556.323	8643.87
556.686	8576.07
557.05	8666.24
557.413	8642.51
557.776	8646.13
558.139	8586.47
558.502	8669.86
558.865	8644.77
559.228	8616.52
559.59	8688.61
559.953	8699.01
560.316	8737.2
560.679	8721.15
561.041	8710.76
561.404	8743.98
561.767	8766.35
562.129	8718.9
562.492	8826.69
562.854	8723.87
563.217	8792.34
563.579	8743.08
563.941	8846.58
564.304	8862.17
564.666	8849.06
565.028	8909.17
565.39	8906.69
565.753	8910.75
566.115	8993.69
566.477	8982.84
566.839	8926.12
567.201	9004.54
567.563	9003.18
567.925	9084.76
568.287	9057.64
568.648	9052.22
569.01	9129.96
569.372	9164.76
569.734	9107.36
570.095	9165.66
570.457	9172.89
570.819	9157.08
571.18	9188.94
571.542	9270.07
571.903	9260.8
572.265	9312.33
572.626	9380.57
572.987	9331.31
573.349	9335.38
573.71	9365.21
574.071	9363.62
574.432	9413.11
574.794	9490.17
575.155	9463.51
575.516	9419.67
575.877	9513.68
576.238	9525.2
576.599	9499.44
576.96	9545.77
577.32	9535.82
577.681	9575.14
578.042	9603.62
578.403	9609.04
578.763	9622.15
579.124	9685.2
579.485	9655.14
579.845	9749.38
580.206	9711.64
580.566	9675.71
580.927	9772.2
581.287	9750.05
581.648	9790.28
582.008	9798.19
582.368	9771.75
582.728	9833.44
583.089	9848.13
583.449	9790.96
583.809	9871.18
584.169	9872.31
584.529	9875.47
584.889	9945.76
585.249	9905.3
585.609	9884.06
585.969	9912.31
586.329	9868.47
586.688	9924.97
587.048	9923.84
587.408	9943.5
587.768	9889.03
588.127	9989.37
588.487	9950.05
588.846	10047.22
589.206	10003.16
589.565	9980.78
589.925	10050.84
590.284	10057.39
590.643	10108.69
591.003	10063.49
591.362	10117.28
591.721	10070.27
592.08	10081.12
592.44	10075.92
592.799	10030.72
593.158	10074.11
593.517	10070.05
593.876	10084.96
594.235	10084.28
594.593	10144.39
594.952	10108.69
595.311	10102.14
595.67	10143.49
596.029	10178.07
596.387	10175.13
596.746	10199.76
597.104	10122.7
597.463	10133.32
597.822	10205.64
598.18	10145.52
598.538	10154.11
598.897	10219.19
599.255	10173.32
599.613	10266.2
599.972	10212.42
600.33	10195.47
600.688	10237.5
601.046	10276.82
601.404	10306.42
601.762	10274.33
602.12	10264.17
602.478	10337.38
602.836	10335.12
603.194	10250.61
603.552	10275.69
603.91	10281.79
604.268	10319.76
604.625	10246.54
604.983	10335.58
605.341	10261.91
605.698	10330.38
606.056	10322.47
606.413	10340.77
606.771	10328.12
607.128	10384.39
607.485	10277.05
607.843	10332.19
608.2	10421.68
608.557	10412.41
608.914	10375.8
609.272	10437.72
609.629	10389.36
609.986	10445.63
610.343	10392.98
610.7	10394.78
611.057	10470.94
611.414	10465.74
611.771	10458.28
612.127	10516.59
612.484	10500.09
612.841	10560.43
613.198	10513.42
613.554	10511.84
613.911	10504.84
614.267	10544.38
614.624	10591.16
614.98	10513.42
615.337	10644.49
615.693	10648.56
616.05	10581.9
616.406	10662.8
616.762	10640.65
617.118	10614.44
617.475	10587.09
617.831	10674.1
618.187	10649.47
618.543	10646.3
618.899	10625.06
619.255	10623.25
619.611	10736.47
619.967	10710.48
620.323	10750.25
620.678	10701.44
621.034	10704.15
621.39	10642.69
621.746	10662.57
622.101	10768.11
622.457	10665.51
622.812	10700.99
623.168	10641.56
623.523	10683.82
623.879	10781.67
624.234	10695.79
624.589	10723.36
624.945	10734.44
625.3	10718.84
625.655	10677.94
626.01	10726.53
626.365	10686.07
626.72	10696.7
627.075	10657.6
627.43	10660.54
627.785	10626.87
628.14	10752.51
628.495	10712.06
628.85	10639.07
629.205	10590.71
629.559	10662.12
629.914	10680.43
630.269	10561.11
630.623	10666.19
630.978	10560.88
631.332	10578.73
631.687	10628.9
632.041	10588.9
632.396	10606.3
632.75	10537.6
633.104	10498.06
633.459	10488.79
633.813	10529.02
634.167	10463.48
634.521	10456.25
634.875	10535.34
635.229	10523.14
635.583	10424.61
635.937	10343.03
636.291	10404.95
636.645	10345.74
636.999	10362.92
637.352	10393.88
637.706	10388
638.06	10383.48
638.413	10360.21
638.767	10303.94
639.121	10297.84
639.474	10316.59
639.828	10282.02
640.181	10289.7
640.534	10301.45
640.888	10233.66
641.241	10192.98
641.594	10258.97
641.947	10291.74
642.301	10225.52
642.654	10204.28
643.007	10220.1
643.36	10192.98
643.713	10209.03
644.066	10231.17
644.419	10194.56
644.771	10122.02
645.124	10025.53
645.477	10025.53
645.83	9959.09
646.182	9939.65
646.535	9848.58
646.888	9853.78
647.24	9868.24
647.593	9894.91
647.945	9836.83
648.298	9800
648.65	9831.41
649.002	9748.25
649.355	9799.32
649.707	9785.08
650.059	9905.53
650.411	10029.82
650.763	9993.89
651.115	10057.84
651.467	10027.34
651.819	10069.37
652.171	10011.97
652.523	10013.78
652.875	9998.64
653.227	10033.89
653.578	10091.06
653.93	10028.01
654.282	9965.87
654.633	9968.81
654.985	9969.71
655.337	9932.42
655.688	9999.31
656.039	10026.21
656.391	9988.47
656.742	9976.94
657.094	10023.72
657.445	10076.15
657.796	10038.86
658.147	10019.43
658.498	9975.59
658.849	10010.39
659.2	9998.41
659.551	9987.79
659.902	9981.69
660.253	9997.28
660.604	10003.83
660.955	9973.55
661.306	10024.85
661.656	9989.14
662.007	9958.64
662.358	10029.6
662.708	9952.99
663.059	10006.32
663.409	9889.94
663.76	10002.7
664.11	9926.32
664.461	9992.99
664.811	9978.52
665.161	9989.6
665.511	9914.57
665.862	9997.05
666.212	10024.17
666.562	10004.06
666.912	10032.76
667.262	10015.36
667.612	9940.11
667.962	10002.48
668.312	9976.72
668.662	9994.57
669.011	10003.61
669.361	9903.95
669.711	9942.14
670.06	9957.28
670.41	9957.05
670.76	9895.36
671.109	9956.15
671.459	10038.41
671.808	9980.1
672.157	9902.82
672.507	9918.41
672.856	9849.49
673.205	9911.18
673.554	9951.18
673.904	9847
674.253	9904.17
674.602	9883.84
674.951	9699.21
675.3	9702.37
675.649	9858.07
675.998	9878.64
676.346	9834.8
676.695	9930.16
677.044	9725.2
677.393	9863.5
677.741	9785.53
678.09	9771.07
678.438	9791.86
678.787	9828.02
679.135	9749.6
679.484	9735.37
679.832	9699.43
680.181	9665.76
680.529	9707.57
680.877	9665.76
681.225	9638.64
681.573	9703.28
681.922	9606.1
682.27	9544.41
682.618	9566.56
682.966	9545.99
683.314	9512.77
683.661	9611.3
684.009	9483.39
684.357	9501.25
684.705	9428.48
685.053	9447.01
685.4	9432.77
685.748	9395.49
686.095	9385.09
686.443	9350.06
686.79	9351.65
687.138	9332.44
687.485	9358.43
687.832	9289.73
688.18	9335.83
688.527	9242.27
688.874	9248.82
689.221	9176.28
689.568	9200.01
689.915	9075.5
690.262	9119.34
690.609	9159.34
690.956	9127.25
691.303	9108.26
691.65	9087.7
691.997	9019
692.344	9008.6
692.69	8990.98
693.037	8878.44
693.383	8922.05
693.73	8866.46
694.077	8874.6
694.423	8851.09
694.769	8823.75
695.116	8767.71
695.462	8790.98
695.808	8703.98
696.155	8734.04
696.501	8626.69
696.847	8621.95
697.193	8609.52
697.539	8592.34
697.885	8556.87
698.231	8532.91
698.577	8493.36
698.923	8523.65
699.269	8422.41
699.614	8384.89
699.96	8375.85
700.306	8378.79
700.651	8338.11
700.997	8243.88
701.342	8267.38
701.688	8241.62
702.033	8190.32
702.379	8238.46
702.724	8155.75
703.069	8148.74
703.415	8043.88
703.76	8065.35
704.105	8112.81
704.45	8121.4
704.795	7977.22
705.14	8004.56
705.485	7942.64
705.83	7965.92
706.175	7981.06
706.52	7939.71
706.865	7892.25
707.209	7875.75
707.554	7884.79
707.899	7870.1
708.243	7814.06
708.588	7735.19
708.932	7754.85
709.277	7662.65
709.621	7754.85
709.966	7660.17
710.31	7658.81
710.654	7620.84
710.998	7601.64
711.342	7577.91
711.687	7561.86
712.031	7499.94
712.375	7522.77
712.719	7497.68
713.063	7569.09
713.407	7559.83
713.75	7501.98
714.094	7499.49
714.438	7484.35
714.782	7514.63
715.125	7432.6
715.469	7442.77
715.812	7431.7
716.156	7374.07
716.499	7397.12
716.843	7348.76
717.186	7339.95
717.53	7372.49
717.873	7375.65
718.216	7378.82
718.559	7336.33
718.902	7248.88
719.246	7211.59
719.589	7248.43
719.932	7199.16
720.275	7281.42
720.617	7186.96
720.96	7278.25
721.303	7131.14
721.646	7227.18
721.989	7173.85
722.331	7144.02
722.674	7179.27
723.016	7169.78
723.359	7152.38
723.701	7208.43
724.044	7140.41
724.386	7105.38
724.729	7186.73
725.071	7119.84
725.413	7129.33
725.755	7068.54
726.097	7050.46
726.439	7119.84
726.782	6999.84
727.124	7011.37
727.465	7069.45
727.807	7028.09
728.149	7064.02
728.491	7038.71
728.833	7027.19
729.175	7012.05
729.516	6997.58
729.858	7047.07
730.199	7013.86
730.541	7025.61
730.882	6960.75
731.224	7024.02
731.565	7019.73
731.906	6993.06
732.248	7045.04
732.589	6922.78
732.93	6988.09
733.271	6962.11
733.612	6946.29
733.953	6993.06
734.294	6940.18
734.635	6963.46
734.976	6975.66
735.317	7011.82
735.658	7001.88
735.999	6953.74
736.339	6966.85
736.68	7037.36
737.021	6954.65
737.361	6942.9
737.702	7030.58
738.042	6951.03
738.383	7001.65
738.723	6990.58
739.063	7025.15
739.404	6979.28
739.744	7004.14
740.084	7033.52
740.424	7010.24
740.764	7025.83
741.104	7083.46
741.444	7040.52
741.784	7059.28
742.124	7101.99
742.464	7036.23
742.804	7074.64
743.143	7074.42
743.483	7080.07
743.823	7091.82
744.162	7148.77
744.502	7164.36
744.841	7113.29
745.181	7191.03
745.52	7169.78
745.86	7217.24
746.199	7239.61
746.538	7286.84
746.877	7332.26
747.216	7358.7
747.556	7346.73
747.895	7358.93
748.234	7422.43
748.573	7432.15
748.911	7546.72
749.25	7544.91
749.589	7571.13
749.928	7663.1
750.267	7688.64
750.605	7766.38
750.944	7748.75
751.283	7818.35
751.621	7852.03
751.96	7880.05
752.298	7994.85
752.636	8104.67
752.975	8123.43
753.313	8189.87
753.651	8313.03
753.989	8335.4
754.327	8352.8
754.666	8482.07
755.004	8591.44
755.342	8711.89
755.679	8762.96
756.017	8871.43
756.355	9030.3
756.693	9054.93
757.031	9077.76
757.368	9224.64
757.706	9330.18
758.044	9413.79
758.381	9553.22
758.719	9708.47
759.056	9810.84
759.394	9917.96
759.731	9999.31
760.068	10086.77
760.405	10113.21
760.743	10288.12
761.08	10441.11
761.417	10512.52
761.754	10712.51
762.091	10805.39
762.428	10998.16
762.765	11019.4
763.102	11221.88
763.438	11253.97
763.775	11335.32
764.112	11555.66
764.449	11719.04
764.785	11754.52
765.122	11800.17
765.458	11828.87
765.795	11975.08
766.131	12211.46
766.467	12276.32
766.804	12350.21
767.14	12405.13
767.476	12594.5
767.812	12614.16
768.148	12769.64
768.485	12764.66
768.821	12890.99
769.157	12973.47
769.492	13170.53
769.828	13163.98
770.164	13239.23
770.5	13317.19
770.836	13424.99
771.171	13435.38
771.507	13512.44
771.842	13569.16
772.178	13697.3
772.513	13712.44
772.849	13766.22
773.184	13798.31
773.519	13792.89
773.855	13890.51
774.19	13933.45
774.525	13968.02
774.86	14177.06
775.195	14088.47
775.53	14110.39
775.865	14179.54
776.2	14102.26
776.535	14119.21
776.87	14214.12
777.205	14211.41
777.539	14168.02
777.874	14221.12
778.209	14211.63
778.543	14278.3
778.878	14259.77
779.212	14281.91
779.547	14256.38
779.881	14344.06
780.215	14274.23
780.55	14410.95
780.884	14240.78
781.218	14337.96
781.552	14427.45
781.886	14377.05
782.22	14330.72
782.554	14256.15
782.888	14215.02
783.222	14263.16
783.556	14128.02
783.889	14287.11
784.223	14182.71
784.557	14265.42
784.89	14218.64
785.224	14114.01
785.557	14104.06
785.891	14120.11
786.224	14145.65
786.558	14113.1
786.891	14089.15
787.224	14058.87
787.557	14055.48
787.891	14096.61
788.224	14037.17
788.557	14119.21
788.89	13986.55
789.223	14039.43
789.556	13987.23
789.888	13915.82
790.221	13961.7
790.554	13921.92
790.887	13865.43
791.219	13814.81
791.552	13882.83
791.884	13798.31
792.217	13752.89
792.549	13789.27
792.882	13628.82
793.214	13707.92
793.546	13743.62
793.879	13598.99
794.211	13513.8
794.543	13584.08
794.875	13589.73
795.207	13610.97
795.539	13550.18
795.871	13547.02
796.203	13461.82
796.535	13339.56
796.867	13400.13
797.198	13342.05
797.53	13335.5
797.862	13240.81
798.193	13299.57
798.525	13211.66
798.856	13188.83
799.188	13122.85
799.519	13100.02
799.85	13020.02
800.182	13020.93
800.513	13045.11
800.844	12950.87
801.175	13076.52
801.506	12960.59
801.837	12939.12
802.168	12942.96
802.499	12806.7
802.83	12786.81
803.161	12778.9
803.491	12810.31
803.822	12851.89
804.153	12686.93
804.483	12604.67
804.814	12628.17
805.145	12566.48
805.475	12529.19
805.805	12526.93
806.136	12495.29
806.466	12510.21
806.796	12528.29
807.126	12451.23
807.457	12412.81
807.787	12447.16
808.117	12248.52
808.447	12274.28
808.777	12362.87
809.107	12274.28
809.436	12303.43
809.766	12251.46
810.096	12174.85
810.426	12144.57
810.755	12230.89
811.085	12230.44
811.414	12204.91
811.744	12011.24
812.073	12012.59
812.403	12025.02
812.732	11972.37
813.061	12019.83
813.39	11889.43
813.719	11851.24
814.049	11855.76
814.378	11833.39
814.707	11827.51
815.036	11826.16
815.365	11823.9
815.693	11677.91
816.022	11729.89
816.351	11675.43
816.68	11658.48
817.008	11654.41
817.337	11566.96
817.665	11606.95
817.994	11605.6
818.322	11563.34
818.651	11502.1
818.979	11426.85
819.307	11486.96
819.636	11487.41
819.964	11426.39
820.292	11504.58
820.62	11526.73
820.948	11386.62
821.276	11505.04
821.604	11446.73
821.932	11374.64
822.259	11367.86
822.587	11379.84
822.915	11360.86
823.243	11387.53
823.57	11381.88
823.898	11459.84
824.225	11301.65
824.553	11452.16
824.88	11437.24
825.207	11359.5
825.535	11335.1
825.862	11473.4
826.189	11328.54
826.516	11384.36
826.843	11500.74
827.17	11514.98
827.497	11429.56
827.824	11502.78
828.151	11496.9
828.478	11398.82
828.805	11469.78
829.131	11455.09
829.458	11379.16
829.785	11401.99
830.111	11458.26
830.438	11521.99
830.764	11456.45
831.09	11433.63
831.417	11359.5
831.743	11492.16
832.069	11400.18
832.395	11390.24
832.722	11378.94
833.048	11324.7
833.374	11433.85
833.7	11289.45
834.026	11347.07
834.351	11346.17
834.677	11269.11
835.003	11304.14
835.329	11225.27
835.654	11315.21
835.98	11241.99
836.306	11307.75
836.631	11158.15
836.956	11254.65
837.282	11241.99
837.607	11159.28
837.932	11210.58
838.258	11230.47
838.583	11221.43
838.908	11094.65
839.233	11142.11
839.558	11107.31
839.883	11072.73
840.208	11035.9
840.533	11099.4
840.858	11027.76
841.182	11049.68
841.507	11015.11
841.832	10962.23
842.156	10957.25
842.481	10943.02
842.805	10887.2
843.13	10922.68
843.454	10877.48
843.778	10817.37
844.103	10788.67
844.427	10736.47
844.751	10815.11
845.075	10784.38
845.399	10631.61
845.723	10677.26
846.047	10663.25
846.371	10568.34
846.695	10553.42
847.019	10516.36
847.343	10445.63
847.666	10397.49
847.99	10317.5
848.313	10359.08
848.637	10270.49
848.96	10318.63
849.284	10221.68
849.607	10214
849.931	10181.23
850.254	10126.77
850.577	9987.79
850.9	10033.21
851.223	9992.08
851.546	9945.3
851.869	9872.09
852.192	9943.27
852.515	9799.32
852.838	9820.11
853.161	9856.72
853.483	9706.67
853.806	9690.85
854.129	9694.91
854.451	9623.28
854.774	9627.57
855.096	9625.76
855.419	9526.56
855.741	9550.74
856.063	9452.44
856.385	9437.29
856.708	9397.52
857.03	9386.22
857.352	9411.08
857.674	9420.35
857.996	9357.52
858.318	9260.12
858.64	9261.03
858.961	9225.55
859.283	9237.53
859.605	9129.96
859.926	9256.96
860.248	9214.25
860.57	9126.79
860.891	9201.82
861.212	9077.53
861.534	9095.83
861.855	9016.97
862.176	9075.27
862.498	9045.44
862.819	9065.33
863.14	8967.02
863.461	9011.32
863.782	8936.97
864.103	8942.17
864.424	8915.73
864.745	8940.81
865.065	8902.85
865.386	8833.02
865.707	8807.48
866.027	8856.07
866.348	8802.73
866.668	8793.7
866.989	8732.91
867.309	8759.57
867.63	8801.83
867.95	8767.93
868.27	8677.77
868.59	8669.63
868.91	8640.48
869.23	8663.98
869.55	8634.83
869.87	8715.51
870.19	8641.61
870.51	8700.82
870.83	8629.63
871.15	8615.62
871.469	8610.88
871.789	8636.19
872.109	8577.2
872.428	8569.52
872.748	8531.1
873.067	8530.43
873.386	8507.15
873.706	8552.12
874.025	8468.96
874.344	8454.5
874.663	8422.63
874.982	8469.86
875.301	8407.72
875.62	8442.29
875.939	8388.73
876.258	8402.07
876.577	8391.9
876.896	8353.48
877.214	8332.01
877.533	8396.42
877.852	8358.45
878.17	8412.01
878.489	8319.13
878.807	8335.63
879.125	8248.62
879.444	8265.12
879.762	8261.96
880.08	8290.88
880.398	8199.36
880.716	8247.5
881.034	8249.08
881.352	8214.5
881.67	8165.24
881.988	8092.7
882.306	8150.77
882.624	8061.29
882.941	8038.69
883.259	8013.83
883.577	8040.49
883.894	8053.83
884.212	8031.68
884.529	8019.48
884.846	8002.3
885.164	7954.85
885.481	7935.41
885.798	7979.48
886.115	7837.56
886.432	7869.2
886.75	7836.43
887.067	7859.71
887.383	7858.8
887.7	7834.17
888.017	7753.04
888.334	7795.98
888.651	7763.21
888.967	7722.09
889.284	7683.22
889.6	7701.29
889.917	7627.85
890.233	7599.6
890.55	7596.89
890.866	7600.28
891.182	7599.38
891.498	7546.5
891.815	7534.97
892.131	7509.66
892.447	7432.38
892.763	7446.16
893.079	7480.06
893.395	7424.92
893.71	7349.44
894.026	7314.41
894.342	7347.41
894.657	7278.25
894.973	7331.13
895.289	7228.99
895.604	7280.97
895.92	7188.09
896.235	7209.33
896.55	7204.13
896.865	7143.8
897.181	7102.44
897.496	7125.94
897.811	7101.54
898.126	7069.67
898.441	7009.11
898.756	7024.48
899.071	6990.58
899.386	7032.16
899.7	6899.28
900.015	6890.24
900.33	6814.76
900.644	6889.11
900.959	6884.37
901.273	6831.94
901.588	6767.76
901.902	6741.77
902.216	6767.08
902.531	6728.21
902.845	6752.85
903.159	6666.07
903.473	6706.52
903.787	6584.04
904.101	6575.67
904.415	6584.49
904.729	6544.49
905.042	6535.45
905.356	6561.21
905.67	6486.19
905.984	6488.22
906.297	6447.54
906.611	6358.51
906.924	6379.75
907.237	6360.31
907.551	6290.94
907.864	6308.79
908.177	6358.05
908.491	6248.9
908.804	6245.74
909.117	6184.72
909.43	6183.82
909.743	6206.42
910.056	6149.02
910.368	6109.92
910.681	6119.19
910.994	6018.18
911.307	6070.6
911.619	5996.25
911.932	6009.14
912.244	5943.83
912.557	5907.44
912.869	5939.31
913.181	5897.27
913.494	5849.37
913.806	5850.95
914.118	5827.9
914.43	5738.63
914.742	5742.02
915.054	5725.75
915.366	5738.86
915.678	5688.01
915.99	5704.74
916.302	5640.33
916.613	5631.29
916.925	5621.8
917.236	5663.16
917.548	5543.61
917.859	5563.27
918.171	5486.21
918.482	5498.87
918.794	5498.41
919.105	5535.25
919.416	5462.03
919.727	5408.7
920.038	5384.52
920.349	5372.09
920.66	5355.37
920.971	5366.67
921.282	5350.62
921.593	5298.19
921.903	5258.87
922.214	5256.39
922.525	5248.25
922.835	5250.06
923.146	5182.49
923.456	5189.95
923.767	5131.64
924.077	5161.02
924.387	5106.11
924.697	5064.3
925.008	5070.63
925.318	5013
925.628	5039.44
925.938	5052.1
926.248	4949.95
926.558	4960.8
926.867	4944.53
927.177	4940.69
927.487	4908.6
927.796	4855.04
928.106	4890.75
928.416	4844.65
928.725	4867.24
929.034	4792.67
929.344	4819.34
929.653	4770.98
929.962	4703.63
930.271	4711.09
930.581	4714.25
930.89	4693.69
931.199	4664.76
931.508	4658.21
931.817	4718.32
932.125	4590.42
932.434	4610.3
932.743	4569.63
933.051	4564.88
933.36	4520.36
933.669	4516.75
933.977	4474.03
934.286	4493.47
934.594	4449.4
934.902	4478.55
935.21	4434.26
935.519	4448.5
935.827	4396.97
936.135	4405.11
936.443	4343.64
936.751	4364.43
937.059	4358.33
937.367	4341.61
937.674	4322.4
937.982	4361.04
938.29	4284.89
938.597	4281.95
938.905	4178.9
939.213	4202.18
939.52	4212.57
939.827	4163.53
940.135	4208.96
940.442	4109.07
940.749	4127.15
941.056	4136.42
941.363	4052.13
941.67	4065.68
941.977	4047.15
942.284	4011.9
942.591	4075.85
942.898	3971.9
943.205	3981.62
943.511	4003.31
943.818	3933.94
944.125	3942.52
944.431	3917.44
944.738	3899.36
945.044	3903.2
945.35	3860.72
945.657	3875.86
945.963	3841.96
946.269	3822.3
946.575	3841.51
946.881	3812.58
947.187	3788.63
947.493	3773.49
947.799	3745.01
948.105	3733.49
948.41	3693.72
948.716	3719.25
949.022	3724.45
949.327	3688.52
949.633	3671.34
949.938	3646.26
950.244	3643.32
950.549	3622.31
950.854	3617.11
951.16	3598.35
951.465	3565.58
951.77	3564.91
952.075	3549.31
952.38	3526.94
952.685	3547.05
952.99	3468.19
953.294	3479.03
953.599	3491.24
953.904	3468.86
954.209	3428.64
954.513	3446.27
954.818	3376.44
955.122	3368.98
955.426	3389.09
955.731	3365.14
956.035	3344.12
956.339	3294.63
956.643	3295.99
956.948	3288.3
957.252	3284.46
957.556	3275.87
957.86	3269.09
958.163	3282.2
958.467	3237.01
958.771	3190.45
959.075	3236.55
959.378	3192.26
959.682	3208.98
959.985	3176.67
960.289	3159.27
960.592	3144.8
960.896	3126.27
961.199	3116.33
961.502	3092.83
961.805	3068.65
962.108	3056.22
962.411	3107.07
962.714	3059.16
963.017	2997.24
963.32	3047.86
963.623	3006.95
963.926	3015.54
964.228	2999.72
964.531	3001.08
964.833	2955.66
965.136	2930.8
965.438	2931.25
965.741	2910.46
966.043	2930.35
966.345	2877.92
966.648	2906.17
966.95	2857.58
967.252	2839.05
967.554	2862.78
967.856	2849.44
968.158	2802.44
968.46	2813.06
968.761	2806.96
969.063	2806.73
969.365	2797.02
969.666	2768.32
969.968	2765.38
970.269	2731.26
970.571	2729.9
970.872	2748.43
971.174	2753.18
971.475	2707.3
971.776	2692.84
972.077	2694.65
972.378	2689.45
972.679	2693.97
972.98	2642.9
973.281	2680.64
973.582	2632.95
973.883	2608.55
974.183	2629.34
974.484	2625.72
974.785	2583.24
975.085	2558.83
975.386	2565.61
975.686	2551.37
975.986	2573.52
976.287	2527.42
976.587	2489.91
976.887	2536.91
977.187	2518.15
977.487	2481.32
977.787	2481.32
978.087	2460.3
978.387	2434.54
978.687	2440.64
978.987	2423.02
979.286	2430.7
979.586	2417.59
979.885	2392.28
980.185	2402.9
980.484	2374.88
980.784	2365.16
981.083	2362.23
981.382	2363.13
981.682	2336.01
981.981	2337.37
982.28	2299.18
982.579	2291.95
982.878	2337.59
983.177	2298.5
983.475	2293.08
983.774	2262.12
984.073	2280.87
984.372	2240.2
984.67	2260.08
984.969	2262.12
985.267	2200.42
985.566	2225.05
985.864	2200.2
986.162	2209.91
986.461	2175.56
986.759	2180.31
987.057	2155.9
987.355	2135.34
987.653	2142.57
987.951	2133.53
988.249	2116.13
988.547	2111.84
988.844	2124.27
989.142	2114.77
989.44	2090.82
989.737	2094.44
990.035	2072.74
990.332	2073.87
990.63	2048.11
990.927	2066.19
991.224	2064.15
991.521	2013.53
991.819	2006.98
992.116	2028
992.413	2017.38
992.71	2025.51
993.006	1999.52
993.303	1989.35
993.6	1971.05
993.897	1945.97
994.193	1941.67
994.49	1910.94
994.787	1929.47
995.083	1883.59
995.379	1915.91
995.676	1894.44
995.972	1918.17
996.268	1871.84
996.565	1871.84
996.861	1836.36
997.157	1858.51
997.453	1873.88
997.749	1826.42
998.044	1830.49
998.34	1821.22
998.636	1798.63
998.932	1812.86
999.227	1802.24
999.523	1767.89
999.818	1782.81
1000.114	1765.86
1000.409	1749.13
1000.704	1741
1001	1762.92
1001.295	1732.41
1001.59	1725.63
1001.885	1718.63
1002.18	1689.93
1002.475	1708.91
1002.77	1738.74
1003.065	1678.85
1003.359	1658.06
1003.654	1668.23
1003.949	1655.58
1004.243	1662.58
1004.538	1611.51
1004.832	1636.6
1005.127	1623.04
1005.421	1590.72
1005.715	1585.75
1006.009	1586.2
1006.304	1579.2
1006.598	1598.18
1006.892	1582.81
1007.186	1576.94
1007.48	1561.12
1007.773	1536.49
1008.067	1526.09
1008.361	1527.9
1008.655	1523.38
1008.948	1538.74
1009.242	1526.77
1009.535	1489.25
1009.829	1477.5
1010.122	1461.01
1010.415	1432.76
1010.708	1475.92
1011.001	1471.63
1011.295	1421.23
1011.588	1430.05
1011.881	1429.82
1012.173	1430.95
1012.466	1419.65
1012.759	1408.35
1013.052	1383.95
1013.344	1420.56
1013.637	1377.39
1013.93	1347.56
1014.222	1351.41
1014.514	1342.82
1014.807	1357.28
1015.099	1328.13
1015.391	1327.68
1015.683	1322.93
1015.976	1305.76
1016.268	1321.12
1016.56	1334.23
1016.851	1312.76
1017.143	1278.64
1017.435	1293.1
1017.727	1317.06
1018.018	1257.85
1018.31	1248.81
1018.602	1288.13
1018.893	1254.91
1019.185	1218.53
1019.476	1226.44
1019.767	1207
1020.058	1177.85
1020.35	1211.3
1020.641	1211.07
1020.932	1190.96
1021.223	1185.99
1021.514	1195.48
1021.804	1184.63
1022.095	1185.31
1022.386	1184.18
1022.677	1161.58
1022.967	1165.87
1023.258	1157.06
1023.548	1141.47
1023.839	1129.72
1024.129	1114.12
1024.419	1108.93
1024.709	1094.01
1025	1083.62
1025.29	1102.82
1025.58	1088.14
1025.87	1084.29
1026.16	1049.72
1026.449	1074.58
1026.739	1071.19
1027.029	1041.58
1027.319	1031.64
1027.608	1034.35
1027.898	1019.66
1028.187	1027.12
1028.477	1017.4
1028.766	1025.76
1029.055	1021.24
1029.344	1002.71
1029.634	983.28
1029.923	992.54
1030.212	1008.59
1030.501	977.86
1030.79	961.13
1031.078	954.35
1031.367	962.71
1031.656	961.81
1031.945	943.51
1032.233	949.16
1032.522	936.5
1032.81	921.81
1033.099	920.91
1033.387	912.32
1033.675	920.91
1033.963	903.96
1034.251	896.73
1034.54	887.46
1034.828	878.65
1035.116	875.03
1035.403	891.08
1035.691	888.14
1035.979	896.5
1036.267	886.33
1036.554	856.28
1036.842	858.99
1037.129	860.12
1037.417	847.69
1037.704	818.09
1037.992	859.67
1038.279	836.39
1038.566	811.08
1038.853	811.08
1039.14	811.08
