Data from hue_70_FLMS001491_70.txt Node
Date: Mon Feb 06 15:21:17 GMT 2017
User: dcchb
Spectrometer: FLMS00149
Trigger mode: 0
Integration Time (sec): 2.000000E-2
Scans to average: 10
Electric dark correction enabled: true
Nonlinearity correction enabled: false
Boxcar width: 0
XAxis mode: Wavelengths
Number of Pixels in Spectrum: 2048
>>>>>Begin Spectral Data<<<<<
341.393	-20.25
341.776	-20.25
342.16	-20.25
342.543	-42.4
342.927	-81.04
343.31	-66.35
343.693	-76.07
344.077	-48.5
344.46	-57.99
344.843	-55.06
345.226	-35.17
345.61	-31.55
345.993	-24.1
346.376	-11.44
346.759	4.38
347.142	34.21
347.525	45.51
347.908	49.57
348.291	70.59
348.674	104.04
349.057	97.94
349.44	151.95
349.823	163.24
350.206	165.96
350.588	186.07
350.971	206.18
351.354	227.88
351.737	247.99
352.119	257.03
352.502	256.35
352.884	263.35
353.267	299.51
353.65	288.66
354.032	318.95
354.414	309
354.797	310.81
355.179	335.22
355.562	323.69
355.944	327.76
356.326	311.04
356.709	327.53
357.091	340.64
357.473	340.41
357.855	336.8
358.238	335.9
358.62	331.15
359.002	345.16
359.384	332.73
359.766	331.38
360.148	325.95
360.53	329.34
360.912	339.51
361.294	347.19
361.676	330.92
362.057	305.39
362.439	332.28
362.821	330.02
363.203	333.18
363.584	320.08
363.966	320.75
364.348	313.52
364.729	314.88
365.111	286.86
365.493	301.77
365.874	329.12
366.256	327.53
366.637	319.85
367.019	315.78
367.4	321.66
367.781	303.81
368.163	310.81
368.544	318.49
368.925	298.16
369.306	309.68
369.688	321.88
370.069	315.78
370.45	308.1
370.831	313.75
371.212	314.2
371.593	325.73
371.974	319.62
372.355	300.87
372.736	296.35
373.117	313.52
373.498	314.2
373.879	306.97
374.26	298.61
374.641	313.3
375.021	324.14
375.402	309.46
375.783	318.72
376.163	295.44
376.544	331.38
376.925	345.39
377.305	346.97
377.686	333.86
378.066	322.11
378.447	322.79
378.827	325.73
379.208	342.67
379.588	333.41
379.968	324.14
380.349	310.59
380.729	302.68
381.109	339.96
381.489	333.41
381.87	314.43
382.25	321.66
382.63	343.58
383.01	325.95
383.39	331.38
383.77	350.81
384.15	361.66
384.53	343.35
384.91	346.06
385.29	339.06
385.67	335.9
386.049	317.59
386.429	360.08
386.809	333.41
387.189	346.29
387.568	361.43
387.948	331.6
388.328	342.45
388.707	360.75
389.087	347.65
389.466	353.07
389.846	344.71
390.225	375.22
390.605	350.13
390.984	353.3
391.363	348.32
391.743	354.65
392.122	364.37
392.501	362.11
392.881	359.62
393.26	362.79
393.639	381.09
394.018	377.7
394.397	391.49
394.776	391.71
395.155	382.22
395.534	374.09
395.913	379.74
396.292	372.96
396.671	359.17
397.05	384.93
397.429	365.95
397.808	374.09
398.186	374.09
398.565	388.78
398.944	382.22
399.323	409.57
399.701	384.93
400.08	386.06
400.458	373.18
400.837	394.42
401.215	361.21
401.594	383.13
401.972	400.98
402.351	388.78
402.729	386.29
403.107	408.44
403.486	391.94
403.864	389.91
404.242	419.28
404.62	416.12
404.999	399.17
405.377	412.96
405.755	417.02
406.133	392.39
406.511	419.96
406.889	419.28
407.267	407.31
407.645	437.36
408.023	426.51
408.401	427.87
408.779	412.5
409.156	424.93
409.534	415.44
409.912	433.97
410.29	423.8
410.667	438.49
411.045	420.41
411.422	469.45
411.8	451.6
412.178	416.8
412.555	453.86
412.933	436.46
413.31	455.44
413.687	449.34
414.065	457.02
414.442	470.13
414.819	463.12
415.197	473.74
415.574	464.71
415.951	451.37
416.328	464.71
416.705	470.81
417.082	468.32
417.46	496.57
417.837	497.92
418.214	476.23
418.591	484.82
418.967	491.82
419.344	494.99
419.721	506.29
420.098	499.05
420.475	497.7
420.852	492.95
421.228	507.87
421.605	496.12
421.982	517.59
422.358	519.62
422.735	508.77
423.111	497.92
423.488	528.43
423.864	539.28
424.241	504.93
424.617	558.71
424.994	532.27
425.37	527.75
425.746	545.83
426.123	563.69
426.499	560.3
426.875	543.35
427.251	558.94
427.627	577.47
428.003	563.46
428.379	574.98
428.756	586.74
429.132	589.22
429.507	600.52
429.883	606.85
430.259	578.37
430.635	590.35
431.011	590.8
431.387	605.49
431.763	610.46
432.138	587.41
432.514	624.93
432.89	625.15
433.265	627.19
433.641	630.35
434.016	635.32
434.392	638.03
434.767	624.7
435.143	647.07
435.518	654.3
435.894	637.81
436.269	669.67
436.644	643.46
437.02	661.08
437.395	684.36
437.77	687.3
438.145	693.17
438.52	697.02
438.895	695.43
439.271	697.24
439.646	720.07
440.021	715.32
440.395	698.15
440.77	709.67
441.145	710.8
441.52	706.51
441.895	722.78
442.27	725.26
442.645	738.14
443.019	741.99
443.394	741.76
443.769	757.13
444.143	748.09
444.518	768.88
444.892	772.49
445.267	773.62
445.641	771.36
446.016	777.47
446.39	767.52
446.764	784.24
447.139	763.91
447.513	776.11
447.887	802.78
448.262	774.3
448.636	805.04
449.01	794.19
449.384	806.39
449.758	812.04
450.132	856.56
450.506	833.96
450.88	852.94
451.254	839.61
451.628	863.11
452.002	847.97
452.376	862.21
452.75	864.24
453.123	843
453.497	882.1
453.871	881.64
454.244	896.33
454.618	904.69
454.992	934.52
455.365	898.59
455.739	943.79
456.112	908.54
456.486	945.6
456.859	960.06
457.232	978.14
457.606	970.45
457.979	998.25
458.352	1031.92
458.725	1031.02
459.099	1028.98
459.472	1038.48
459.845	1027.18
460.218	1034.63
460.591	1063.56
460.964	1048.87
461.337	1083.9
461.71	1121.86
462.083	1116.21
462.456	1114.63
462.829	1126.83
463.201	1151.69
463.574	1136.78
463.947	1166.38
464.32	1201.64
464.692	1213.61
465.065	1227.62
465.438	1249.32
465.81	1254.29
466.183	1270.79
466.555	1290.9
466.928	1297.23
467.3	1322.08
467.672	1311.46
468.045	1338.58
468.417	1357.56
468.789	1395.53
469.161	1402.08
469.534	1447.28
469.906	1460.84
470.278	1468.52
470.65	1535.86
471.022	1533.15
471.394	1571.34
471.766	1600.04
472.138	1627.39
472.51	1690.66
472.882	1679.59
473.253	1691.11
473.625	1753.03
473.997	1803.88
474.369	1805.01
474.74	1826.48
475.112	1881.62
475.484	1927.49
475.855	1994.38
476.227	2024.21
476.598	2094.27
476.97	2145.57
477.341	2243.87
477.713	2235.28
478.084	2294.04
478.455	2382.39
478.827	2372.45
479.198	2535.61
479.569	2535.39
479.94	2623.29
480.311	2663.74
480.682	2781.03
481.053	2840.24
481.424	2917.52
481.795	3036.39
482.166	3074.81
482.537	3158.87
482.908	3263.05
483.279	3346.89
483.65	3483.38
484.021	3564.06
484.391	3635.02
484.762	3752.3
485.133	3762.92
485.503	3898.74
485.874	4053.76
486.244	4151.61
486.615	4306.64
486.985	4352.74
487.356	4455.79
487.726	4623.92
488.097	4741.65
488.467	4844.48
488.837	5010.8
489.207	5101.42
489.578	5272.04
489.948	5333.28
490.318	5512.71
490.688	5583.21
491.058	5795.86
491.428	5935.75
491.798	5989.98
492.168	6239.02
492.538	6283.54
492.908	6479.46
493.278	6594.71
493.648	6665.45
494.017	6924.65
494.387	6991.09
494.757	7149.5
495.126	7304.07
495.496	7339.1
495.866	7560.11
496.235	7686.44
496.605	7833.1
496.974	7896.37
497.344	8106.54
497.713	8196.48
498.082	8325.06
498.452	8563.93
498.821	8652.74
499.19	8697.03
499.559	8932.28
499.928	8967.98
500.298	9090.69
500.667	9267.86
501.036	9369.78
501.405	9491.36
501.774	9598.02
502.143	9701.52
502.512	9828.98
502.88	9965.92
503.249	10106.71
503.618	10170.21
503.987	10317.78
504.356	10413.37
504.724	10523.2
505.093	10666.02
505.462	10758.9
505.83	10792.12
506.199	10990.3
506.567	11213.35
506.936	11230.75
507.304	11422.16
507.672	11517.97
508.041	11609.05
508.409	11636.84
508.777	11788.93
509.145	11885.87
509.514	11969.26
509.882	12020.79
510.25	12248.35
510.618	12308.91
510.986	12390.27
511.354	12451.96
511.722	12710.71
512.09	12811.73
512.458	12851.95
512.826	12975.56
513.193	12986.64
513.561	13168.78
513.929	13225.95
514.297	13338.72
514.664	13415.1
515.032	13511.37
515.4	13666.84
515.767	13713.17
516.135	13798.14
516.502	13836.11
516.869	14032.03
517.237	14154.97
517.604	14126.49
517.972	14251.91
518.339	14405.13
518.706	14450.55
519.073	14514.73
519.44	14629.53
519.808	14742.75
520.175	14785.91
520.542	14933.48
520.909	15053.25
521.276	14994.04
521.643	15154.49
522.009	15269.74
522.376	15362.39
522.743	15444.2
523.11	15577.3
523.477	15756.05
523.843	15824.98
524.21	15957.41
524.577	16062.26
524.943	16131.41
525.31	16166.21
525.676	16285.53
526.043	16483.04
526.409	16513.32
526.776	16621.57
527.142	16628.12
527.508	16702.7
527.874	16863.6
528.241	16986.3
528.607	16978.4
528.973	17086.19
529.339	17048
529.705	17175.68
530.071	17328.89
530.437	17338.39
530.803	17393.53
531.169	17484.6
531.535	17472.62
531.901	17455.22
532.267	17643.91
532.632	17724.14
532.998	17755.55
533.364	17841.88
533.73	17835.55
534.095	17998.26
534.461	18067.41
534.826	18057.24
535.192	18082.77
535.557	18205.26
535.923	18255.2
536.288	18232.6
536.653	18258.59
537.019	18178.82
537.384	18283.22
537.749	18355.53
538.114	18315.08
538.479	18375.87
538.845	18399.6
539.21	18394.4
539.575	18542.42
539.94	18402.09
540.305	18596.88
540.67	18522.76
541.034	18513.72
541.399	18534.29
541.764	18587.39
542.129	18704.23
542.494	18698.35
542.858	18718.46
543.223	18687.5
543.587	18815.86
543.952	18787.39
544.316	18825.13
544.681	18744.45
545.045	18927.5
545.41	19050.43
545.774	19005.46
546.138	18917.33
546.503	18875.52
546.867	18882.53
547.231	19049.75
547.595	19081.39
547.959	19081.84
548.324	19071.22
548.688	19032.13
549.052	18987.61
549.416	19054.72
549.779	18991.22
550.143	19169.98
550.507	19317.54
550.871	19324.32
551.235	19190.09
551.599	19424.66
551.962	19308.28
552.326	19367.49
552.689	19556.18
553.053	19354.15
553.417	19409.52
553.78	19536.97
554.143	19433.47
554.507	19548.05
554.87	19620.81
555.234	19698.55
555.597	19604.32
555.96	19597.76
556.323	19713.24
556.686	19727.02
557.05	19765.67
557.413	19790.52
557.776	19831.2
558.139	20000.69
558.502	19963.18
558.865	20028.03
559.228	20132.21
559.59	20115.71
559.953	20125.88
560.316	20342.83
560.679	20244.52
561.041	20368.59
561.404	20483.16
561.767	20485.65
562.129	20449.49
562.492	20720.22
562.854	20505.99
563.217	20586.44
563.579	20630.73
563.941	20707.34
564.304	20820.55
564.666	20989.59
565.028	20982.36
565.39	20985.3
565.753	21083.15
566.115	21183.71
566.477	21166.53
566.839	21212.86
567.201	21488.79
567.563	21429.8
567.925	21484.04
568.287	21394.78
568.648	21562.91
569.01	21537.6
569.372	21783.69
569.734	21704.6
570.095	21762.68
570.457	21762.9
570.819	21843.58
571.18	21933.07
571.542	22035.21
571.903	22073.85
572.265	22052.39
572.626	22062.33
572.987	22142.55
573.349	22207.18
573.71	22275.21
574.071	22266.84
574.432	22361.98
574.794	22452.38
575.155	22420.29
575.516	22443.11
575.877	22413.51
576.238	22581.64
576.599	22578.7
576.96	22603.11
577.32	22604.46
577.681	22668.19
578.042	22812.59
578.403	22650.79
578.763	22693.05
579.124	22709.09
579.485	22879.71
579.845	22905.92
580.206	22772.82
580.566	22782.76
580.927	22882.19
581.287	22824.12
581.648	22833.83
582.008	22976.66
582.368	22956.54
582.728	22982.08
583.089	22856.66
583.449	22906.83
583.809	22913.83
584.169	23001.51
584.529	22933.72
584.889	23110.21
585.249	22946.15
585.609	22926.49
585.969	23019.37
586.329	22933.49
586.688	22911.12
587.048	22963.55
587.408	22874.29
587.768	22935.07
588.127	22985.7
588.487	22869.77
588.846	23019.82
589.206	22947.05
589.565	22823.44
589.925	23066.14
590.284	22889.88
590.643	23025.02
591.003	23048.29
591.362	22967.62
591.721	23003.32
592.08	22997.67
592.44	23011.68
592.799	22937.56
593.158	22938.46
593.517	23021.4
593.876	23086.94
594.235	22993.83
594.593	22948.18
594.952	23069.53
595.311	22990.21
595.67	23062.08
596.029	23125.35
596.387	23043.55
596.746	23090.33
597.104	23023.89
597.463	23101.62
597.822	23076.77
598.18	23081.74
598.538	23021.85
598.897	23145.92
599.255	23001.97
599.613	23177.33
599.972	23113.6
600.33	23218.68
600.688	23052.36
601.046	23130.78
601.404	23326.25
601.762	23317.21
602.12	23341.62
602.478	23256.42
602.836	23284.22
603.194	23269.53
603.552	23287.16
603.91	23175.29
604.268	23284.44
604.625	23229.53
604.983	23366.93
605.341	23307.72
605.698	23413.71
606.056	23542.06
606.413	23378.23
606.771	23480.15
607.128	23483.54
607.485	23317.44
607.843	23461.84
608.2	23504.33
608.557	23638.11
608.914	23470.65
609.272	23598.11
609.629	23556.53
609.986	23758.33
610.343	23622.74
610.7	23934.82
611.057	23784.54
611.414	23801.49
611.771	23911.77
612.127	23874.26
612.484	23719.01
612.841	24013.92
613.198	23816.63
613.554	23924.65
613.911	24051.66
614.267	24057.76
614.624	24115.61
614.98	24128.04
615.337	24116.74
615.693	24077.42
616.05	24061.37
616.406	24282.16
616.762	24184.99
617.118	24280.35
617.475	24143.86
617.831	24217.08
618.187	24348.6
618.543	24333.91
618.899	24419.33
619.255	24407.35
619.611	24295.94
619.967	24461.59
620.323	24454.36
620.678	24350.63
621.034	24329.61
621.39	24392.66
621.746	24374.81
622.101	24570.96
622.457	24396.51
622.812	24518.31
623.168	24551.98
623.523	24512.21
623.879	24580
624.234	24471.76
624.589	24681.92
624.945	24665.42
625.3	24593.34
625.655	24535.03
626.01	24583.39
626.365	24587.69
626.72	24628.36
627.075	24539.55
627.43	24648.02
627.785	24446.22
628.14	24591.53
628.495	24601.02
628.85	24544.52
629.205	24511.76
629.559	24682.15
629.914	24590.62
630.269	24636.5
630.623	24570.51
630.978	24479.44
631.332	24591.08
631.687	24624.75
632.041	24410.06
632.396	24527.12
632.75	24511.53
633.104	24548.14
633.459	24424.3
633.813	24382.95
634.167	24287.13
634.521	24406
634.875	24351.99
635.229	24449.84
635.583	24353.34
635.937	24239
636.291	24297.3
636.645	24235.15
636.999	24231.54
637.352	24317.86
637.706	24152.22
638.06	24232.67
638.413	24210.07
638.767	24057.76
639.121	24176.4
639.474	24113.8
639.828	24099.11
640.181	24098.21
640.534	24100.92
640.888	23965.33
641.241	23826.12
641.594	23934.6
641.947	23956.29
642.301	23938.66
642.654	23929.17
643.007	23932.56
643.36	24052.56
643.713	23868.84
644.066	23819.8
644.419	23813.92
644.771	23563.98
645.124	23434.27
645.477	23385.46
645.83	23260.26
646.182	23207.38
646.535	23048.07
646.888	23202.41
647.24	23077.44
647.593	23084.9
647.945	23069.76
648.298	22970.1
648.65	23101.85
649.002	22917.45
649.355	23139.36
649.707	22943.21
650.059	23090.55
650.411	23368.96
650.763	23428.4
651.115	23587.71
651.467	23545.45
651.819	23557.66
652.171	23542.97
652.523	23512.46
652.875	23441.73
653.227	23382.07
653.578	23652.34
653.93	23477.89
654.282	23381.84
654.633	23407.83
654.985	23377.32
655.337	23382.75
655.688	23516.08
656.039	23456.42
656.391	23343.43
656.742	23389.3
657.094	23267.5
657.445	23432.24
657.796	23355.4
658.147	23355.4
658.498	23300.04
658.849	23426.81
659.2	23277.89
659.551	23387.04
659.902	23378
660.253	23382.97
660.604	23417.55
660.955	23335.06
661.306	23330.77
661.656	23330.09
662.007	23286.93
662.358	23338.68
662.708	23395.4
663.059	23324.67
663.409	23212.81
663.76	23439.92
664.11	23345.91
664.461	23338.45
664.811	23393.82
665.161	23348.4
665.511	23396.53
665.862	23351.11
666.212	23458.23
666.562	23465.68
666.912	23381.84
667.262	23301.39
667.612	23317.89
667.962	23366.48
668.312	23319.92
668.662	23381.16
669.011	23308.62
669.361	23347.04
669.711	23287.83
670.06	23288.29
670.41	23182.07
670.76	23126.93
671.109	23263.88
671.459	23256.65
671.808	23222.07
672.157	23335.52
672.507	23108.18
672.856	23137.78
673.205	23100.72
673.554	23199.7
673.904	23152.92
674.253	23208.97
674.602	23133.94
674.951	22810.33
675.3	22606.04
675.649	23024.56
675.998	23101.85
676.346	23026.37
676.695	23099.59
677.044	22957.22
677.393	23046.48
677.741	22863.66
678.09	22966.71
678.438	22841.07
678.787	22949.54
679.135	22912.93
679.484	22811.46
679.832	22853.5
680.181	22693.95
680.529	22731.46
680.877	22638.81
681.225	22582.32
681.573	22775.76
681.922	22538.48
682.27	22541.64
682.618	22410.34
682.966	22416.67
683.314	22562.66
683.661	22404.92
684.009	22340.74
684.357	22372.83
684.705	22277.92
685.053	22237.47
685.4	22201.53
685.748	22160.86
686.095	22135.77
686.443	22089.9
686.79	21949.34
687.138	22113.63
687.485	21990.24
687.832	22043.57
688.18	21873.41
688.527	21843.13
688.874	21798.83
689.221	21764.48
689.568	21710.7
689.915	21729.68
690.262	21632.74
690.609	21456.47
690.956	21447.43
691.303	21433.19
691.65	21244.72
691.997	21365.4
692.344	21212.63
692.69	21168.12
693.037	21140.32
693.383	21000.66
693.73	21101.9
694.077	20929.7
694.423	20935.58
694.769	20857.39
695.116	20818.75
695.462	20823.72
695.808	20682.7
696.155	20730.16
696.501	20560.22
696.847	20558.19
697.193	20482.26
697.539	20368.36
697.885	20262.38
698.231	20320.23
698.577	20154.36
698.923	20161.59
699.269	20015.15
699.614	19918.88
699.96	19836.85
700.306	19964.08
700.651	19829.17
700.997	19878.88
701.342	19679.79
701.688	19505.56
702.033	19604.09
702.379	19583.3
702.724	19420.82
703.069	19553.69
703.415	19235.96
703.76	19267.83
704.105	19326.13
704.45	19188.96
704.795	19087.72
705.14	18934.5
705.485	19084.55
705.83	18959.36
706.175	18947.16
706.52	18854.28
706.865	18804.11
707.209	18717.78
707.554	18706.26
707.899	18781.06
708.243	18608.18
708.588	18626.04
708.932	18471.01
709.277	18387.85
709.621	18503.1
709.966	18343.78
710.31	18364.12
710.654	18305.82
710.998	18273.28
711.342	18249.32
711.687	18188.76
712.031	18170.91
712.375	18078.03
712.719	18075.32
713.063	18053.4
713.407	17911.03
713.75	17942.21
714.094	17956.45
714.438	17913.06
714.782	17871.48
715.125	17808.66
715.469	17798.03
715.812	17607.98
716.156	17657.7
716.499	17798.94
716.843	17656.8
717.186	17506.07
717.53	17575.89
717.873	17529.79
718.216	17493.64
718.559	17432.39
718.902	17410.7
719.246	17346.52
719.589	17406.86
719.932	17299.52
720.275	17313.53
720.617	17292.74
720.96	17290.25
721.303	17225.62
721.646	17221.55
721.989	17202.57
722.331	17106.75
722.674	17156.24
723.016	17068.79
723.359	17110.14
723.701	17080.31
724.044	17013.42
724.386	16974.1
724.729	17078.73
725.071	16971.16
725.413	16947.89
725.755	16924.61
726.097	16934.1
726.439	16814.33
726.782	16751.96
727.124	16921
727.465	16778.85
727.807	16821.79
728.149	16760.55
728.491	16688.23
728.833	16691.85
729.175	16674.22
729.516	16640.55
729.858	16763.03
730.199	16653.43
730.541	16614.34
730.882	16670.61
731.224	16675.35
731.565	16617.27
731.906	16659.53
732.248	16603.26
732.589	16460.44
732.93	16529.37
733.271	16485.08
733.612	16528.92
733.953	16504.28
734.294	16479.65
734.635	16416.83
734.976	16474
735.317	16373.21
735.658	16409.6
735.999	16502.93
736.339	16443.27
736.68	16512.64
737.021	16387.22
737.361	16271.07
737.702	16355.81
738.042	16401.91
738.383	16405.3
738.723	16383.16
739.063	16402.14
739.404	16359.2
739.744	16292.31
740.084	16220.22
740.424	16278.98
740.764	16312.65
741.104	16503.38
741.444	16290.96
741.784	16299.32
742.124	16397.85
742.464	16360.33
742.804	16370.95
743.143	16280.79
743.483	16358.98
743.823	16294.35
744.162	16308.81
744.502	16340.45
744.841	16415.47
745.181	16464.28
745.52	16399.88
745.86	16437.17
746.199	16434.68
746.538	16534.11
746.877	16556.49
747.216	16512.64
747.556	16478.07
747.895	16573.89
748.234	16541.57
748.573	16532.31
748.911	16643.49
749.25	16704.96
749.589	16649.82
749.928	16646.65
750.267	16732.07
750.605	16783.37
750.944	16698.4
751.283	16849.59
751.621	16795.12
751.96	16861.56
752.298	16909.47
752.636	17063.59
752.975	16905.63
753.313	17130.48
753.651	17276.24
753.989	17188.79
754.327	17261.55
754.666	17205.28
755.004	17417.93
755.342	17464.26
755.679	17496.57
756.017	17491.6
756.355	17704.93
756.693	17576.8
757.031	17710.35
757.368	17675.55
757.706	17713.97
758.044	17885.04
758.381	17921.2
758.719	17948.09
759.056	18102.66
759.394	18040.29
759.731	18098.82
760.068	18122.09
760.405	18236.67
760.743	18314.18
761.08	18347.4
761.417	18302.65
761.754	18413.16
762.091	18506.72
762.428	18485.93
762.765	18507.39
763.102	18509.65
763.438	18641.85
763.775	18627.62
764.112	18677.33
764.449	18847.05
764.785	18748.52
765.122	18752.81
765.458	18675.53
765.795	18741.06
766.131	18974.5
766.467	18838.69
766.804	18748.74
767.14	18769.99
767.476	18942.41
767.812	18795.3
768.148	18943.54
768.485	18821.06
768.821	18870.1
769.157	18806.37
769.492	18815.18
769.828	18826.48
770.164	18774.96
770.5	18844.11
770.836	18903.09
771.171	18757.56
771.507	18783.32
771.842	18666.26
772.178	18748.74
772.513	18749.42
772.849	18807.95
773.184	18622.65
773.519	18688.18
773.855	18653.61
774.19	18553.27
774.525	18576.55
774.86	18529.54
775.195	18564.12
775.53	18459.71
775.865	18468.07
776.2	18355.99
776.535	18306.72
776.87	18316.89
777.205	18207.29
777.539	18137.23
777.874	18201.19
778.209	18078.48
778.543	18096.11
778.878	17987.63
779.212	18000.97
779.547	18028.76
779.881	18010.91
780.215	17821.76
780.55	17971.14
780.884	17791.03
781.218	17821.76
781.552	17735.89
781.886	17718.49
782.22	17650.92
782.554	17584.71
782.888	17447.54
783.222	17391.72
783.556	17367.09
783.889	17316.01
784.223	17190.37
784.557	17267.43
784.89	17266.52
785.224	17113.76
785.557	17053.2
785.891	16941.56
786.224	16891.62
786.558	16957.15
786.891	16800.55
787.224	16765.07
787.557	16709.93
787.891	16665.18
788.224	16709.48
788.557	16701.11
788.89	16582.02
789.223	16554
789.556	16397.39
789.888	16379.09
790.221	16491.18
790.554	16209.15
790.887	16372.76
791.219	16212.54
791.552	16285.98
791.884	16089.83
792.217	16130.51
792.549	16076.27
792.882	15897.97
793.214	15823.4
793.546	15893.68
793.879	15772.1
794.211	15800.8
794.543	15761.03
794.875	15633.12
795.207	15867.46
795.539	15638.09
795.871	15608.94
796.203	15482.16
796.535	15311.32
796.867	15385.44
797.198	15399.91
797.53	15368.27
797.862	15194.04
798.193	15302.28
798.525	15134.83
798.856	15239.91
799.188	15031.1
799.519	15047.6
799.85	14958.34
800.182	14951.78
800.513	14913.82
800.844	14826.36
801.175	14855.97
801.506	14873.37
801.837	14782.29
802.168	14736.65
802.499	14761.96
802.83	14618.46
803.161	14538.23
803.491	14579.81
803.822	14641.06
804.153	14451.46
804.483	14353.15
804.814	14297.56
805.145	14299.14
805.475	14264.12
805.805	14165.81
806.136	14286.49
806.466	14223.89
806.796	14162.42
807.126	14002.43
807.457	14072.26
807.787	14001.52
808.117	13994.29
808.447	13879.49
808.777	13905.48
809.107	13845.82
809.436	13818.03
809.766	13832.72
810.096	13754.53
810.426	13738.48
810.755	13711.36
811.085	13705.04
811.414	13581.2
811.744	13571.03
812.073	13555.89
812.403	13585.26
812.732	13460.97
813.061	13424.14
813.39	13342.11
813.719	13393.18
814.049	13361.32
814.378	13404.25
814.707	13230.7
815.036	13274.31
815.365	13248.55
815.693	13116.35
816.022	13135.78
816.351	13062.11
816.68	12952.96
817.008	13098.05
817.337	12914.55
817.665	12956.58
817.994	12980.76
818.322	12926.07
818.651	12882.91
818.979	12823.02
819.307	12849.46
819.636	12831.39
819.964	12738.05
820.292	12828
820.62	12802.46
820.948	12757.26
821.276	12736.92
821.604	12739.86
821.932	12668.45
822.259	12712.29
822.587	12745.74
822.915	12732.41
823.243	12686.08
823.57	12685.63
823.898	12687.43
824.225	12629.58
824.553	12598.85
824.88	12712.52
825.207	12709.13
825.535	12607.44
825.862	12646.53
826.189	12617.15
826.516	12631.84
826.843	12683.14
827.17	12670.49
827.497	12723.59
827.824	12587.32
828.151	12748
828.478	12672.97
828.805	12706.42
829.131	12605.63
829.458	12652.63
829.785	12570.6
830.111	12635.91
830.438	12679.98
830.764	12696.7
831.09	12686.53
831.417	12566.53
831.743	12619.87
832.069	12667.1
832.395	12540.77
832.722	12661.45
833.048	12550.26
833.374	12504.84
833.7	12567.44
834.026	12529.92
834.351	12583.71
834.677	12573.31
835.003	12538.06
835.329	12536.48
835.654	12467.55
835.98	12392.75
836.306	12392.53
836.631	12384.84
836.956	12390.49
837.282	12482.02
837.607	12370.15
837.932	12362.7
838.258	12286.32
838.583	12301.68
838.908	12311.63
839.233	12310.72
839.558	12256.03
839.883	12260.55
840.208	12111.18
840.533	12182.59
840.858	12129.03
841.182	12130.84
841.507	12126.09
841.832	12007.9
842.156	12024.18
842.481	11942.14
842.805	12023.72
843.13	11968.36
843.454	11915.03
843.778	11847.91
844.103	11951.41
844.427	11863.73
844.751	11842.26
845.075	11885.65
845.399	11763.39
845.723	11731.98
846.047	11732.66
846.371	11600.23
846.695	11654.92
847.019	11622.83
847.343	11563.85
847.666	11351.42
847.99	11429.84
848.313	11395.27
848.637	11320.01
848.96	11343.52
849.284	11325.44
849.607	11211.99
849.931	11108.95
850.254	11005.67
850.577	11009.51
850.9	10989.17
851.223	10983.52
851.546	10981.72
851.869	10852
852.192	10918.44
852.515	10686.81
852.838	10698.56
853.161	10714.15
853.483	10701.72
853.806	10598
854.129	10614.04
854.451	10544.67
854.774	10513.03
855.096	10510.99
855.419	10456.31
855.741	10474.16
856.063	10347.38
856.385	10349.87
856.708	10350.55
857.03	10271.45
857.352	10325.91
857.674	10280.04
857.996	10222.19
858.318	10187.84
858.64	10120.72
858.961	10085.92
859.283	10025.58
859.605	10041.63
859.926	10067.39
860.248	10035.08
860.57	10001.18
860.891	9961.63
861.212	9832.37
861.534	9911.01
861.855	9846.15
862.176	9913.95
862.498	9873.5
862.819	9876.89
863.14	9773.84
863.461	9727.96
863.782	9706.72
864.103	9765.7
864.424	9708.3
864.745	9747.17
865.065	9747.17
865.386	9646.61
865.707	9655.2
866.027	9651.58
866.348	9624.24
866.668	9670.79
866.989	9587.18
867.309	9525.26
867.63	9599.61
867.95	9590.79
868.27	9525.48
868.59	9515.99
868.91	9445.94
869.23	9553.05
869.55	9462.89
869.87	9520.74
870.19	9463.34
870.51	9477.35
870.83	9377.24
871.15	9348.54
871.469	9352.83
871.789	9365.49
872.109	9387.86
872.428	9322.55
872.748	9365.49
873.067	9334.75
873.386	9300.86
873.706	9327.07
874.025	9294.98
874.344	9219.73
874.663	9294.53
874.982	9278.94
875.301	9196.45
875.62	9210.69
875.939	9162.1
876.258	9150.58
876.577	9053.63
876.896	9109.22
877.214	9072.16
877.533	9047.98
877.852	9006.63
878.17	9057.47
878.489	8998.04
878.807	9059.28
879.125	9016.34
879.444	8990.58
879.762	8975.67
880.08	8950.13
880.398	8936.8
880.716	8948.1
881.034	8891.15
881.352	8897.7
881.67	8898.83
881.988	8844.82
882.306	8838.5
882.624	8750.82
882.941	8782.45
883.259	8680.76
883.577	8719.63
883.894	8634.89
884.212	8676.24
884.529	8637.37
884.846	8680.99
885.164	8656.81
885.481	8641.44
885.798	8655
886.115	8539.07
886.432	8561.89
886.75	8628.56
887.067	8524.38
887.383	8477.6
887.7	8454.55
888.017	8475.57
888.334	8467.88
888.651	8444.61
888.967	8466.98
889.284	8376.36
889.6	8359.41
889.917	8342.92
890.233	8281.9
890.55	8264.73
890.866	8316.02
891.182	8193.77
891.498	8229.92
891.815	8172.53
892.131	8171.62
892.447	8119.19
892.763	8094.56
893.079	8170.04
893.395	8135.92
893.71	7991.06
894.026	8091.4
894.342	8071.06
894.657	7922.14
894.973	7990.84
895.289	7890.27
895.604	7939.31
895.92	7836.71
896.235	7868.13
896.55	7876.26
896.865	7829.71
897.181	7812.76
897.496	7748.36
897.811	7697.74
898.126	7746.77
898.441	7631.52
898.756	7703.16
899.071	7600.34
899.386	7617.96
899.7	7516.95
900.015	7548.13
900.33	7508.59
900.644	7474.24
900.959	7527.57
901.273	7430.62
901.588	7402.15
901.902	7339.33
902.216	7385.65
902.531	7332.77
902.845	7300.68
903.159	7260.91
903.473	7210.52
903.787	7219.1
904.101	7232.21
904.415	7156.51
904.729	7098.66
905.042	7095.04
905.356	7054.59
905.67	7065.21
905.984	7030.86
906.297	6967.59
906.611	6987.02
906.924	6969.17
907.237	6983.86
907.551	6937.98
907.864	6881.94
908.177	6852.11
908.491	6857.53
908.804	6861.15
909.117	6829.06
909.43	6718.33
909.743	6645.11
910.056	6671.55
910.368	6674.03
910.681	6651.44
910.994	6581.83
911.307	6589.97
911.619	6568.73
911.932	6565.11
912.244	6505.9
912.557	6464.55
912.869	6442.4
913.181	6397.43
913.494	6375.06
913.806	6380.71
914.118	6307.26
914.43	6291.67
914.742	6257.55
915.054	6260.03
915.366	6227.27
915.678	6210.09
915.99	6189.75
916.302	6147.27
916.613	6116.99
916.925	6088.29
917.236	6089.42
917.548	6068.63
917.859	6045.8
918.171	5919.03
918.482	5920.38
918.794	5959.25
919.105	5947.95
919.416	5905.24
919.727	5894.85
920.038	5876.09
920.349	5858.91
920.66	5755.19
920.971	5799.93
921.282	5735.3
921.593	5691.01
921.903	5739.37
922.214	5648.98
922.525	5731.01
922.835	5654.85
923.146	5637.45
923.456	5624.8
923.767	5615.08
924.077	5573.27
924.387	5528.98
924.697	5548.87
925.008	5528.07
925.318	5517.23
925.628	5461.86
925.938	5452.14
926.248	5401.75
926.558	5401.3
926.867	5369.44
927.177	5329.89
927.487	5328.31
927.796	5274.75
928.106	5273.39
928.416	5249.66
928.725	5198.14
929.034	5168.76
929.344	5196.56
929.653	5214.41
929.962	5154.07
930.271	5105.04
930.581	5104.58
930.89	5096.45
931.199	5060.29
931.508	5057.35
931.817	5058.93
932.125	4992.5
932.434	5034.75
932.743	4932.38
933.051	4910.46
933.36	4884.48
933.669	4860.52
933.977	4867.3
934.286	4839.96
934.594	4802.44
934.902	4758.38
935.21	4793.18
935.519	4770.35
935.827	4703.46
936.135	4699.85
936.443	4644.48
936.751	4702.11
937.059	4665.05
937.367	4667.53
937.674	4605.84
937.982	4589.34
938.29	4541.66
938.597	4542.79
938.905	4566.29
939.213	4514.77
939.52	4484.94
939.827	4502.79
940.135	4456.69
940.442	4429.8
940.749	4427.76
941.056	4404.71
941.363	4375.34
941.67	4371.04
941.977	4325.62
942.284	4295.57
942.591	4311.61
942.898	4290.37
943.205	4284.04
943.511	4254.89
943.818	4261.22
944.125	4256.7
944.431	4188.45
944.738	4206.75
945.044	4207.21
945.35	4162.46
945.657	4147.32
945.963	4141.22
946.269	4058.74
946.575	4109.58
946.881	4044.05
947.187	4056.48
947.493	4043.37
947.799	4048.34
948.105	4020.54
948.41	4001.56
948.716	3935.8
949.022	3967.66
949.327	3925.63
949.633	3881.56
949.938	3890.83
950.244	3928.34
950.549	3829.81
950.854	3840.66
951.16	3829.14
951.465	3846.99
951.77	3799.08
952.075	3826.2
952.38	3746.65
952.685	3750.95
952.99	3721.79
953.294	3737.61
953.599	3697.16
953.904	3695.35
954.209	3724.05
954.513	3664.4
954.818	3652.64
955.122	3658.52
955.426	3632.08
955.731	3574.68
956.035	3609.93
956.339	3562.93
956.643	3600.89
956.948	3550.27
957.252	3556.83
957.556	3523.16
957.86	3515.7
958.163	3453.1
958.467	3476.15
958.771	3428.92
959.075	3477.96
959.378	3434.34
959.682	3384.85
959.985	3352.76
960.289	3361.8
960.592	3349.83
960.896	3357.28
961.199	3319.09
961.502	3282.94
961.805	3290.39
962.108	3295.14
962.411	3260.34
962.714	3261.24
963.017	3224.41
963.32	3236.16
963.623	3227.57
963.926	3207.01
964.228	3190.51
964.531	3183.05
964.833	3241.81
965.136	3139.89
965.438	3136.73
965.741	3125.43
966.043	3102.15
966.345	3081.81
966.648	3061.25
966.95	3065.54
967.252	3066.9
967.554	3041.81
967.856	3036.62
968.158	2994.36
968.46	3016.5
968.761	3006.11
969.063	2948.71
969.365	2960.68
969.666	2970.63
969.968	2909.16
970.269	2910.97
970.571	2920.46
970.872	2935.6
971.174	2870.29
971.475	2865.55
971.776	2902.16
972.077	2853.57
972.378	2868.03
972.679	2858.99
972.98	2851.76
973.281	2812.67
973.582	2818.54
973.883	2757.07
974.183	2747.13
974.484	2759.79
974.785	2736.06
975.085	2774.7
975.386	2692.67
975.686	2693.8
975.986	2687.25
976.287	2734.7
976.587	2674.14
976.887	2679.79
977.187	2678.43
977.487	2641.6
977.787	2609.28
978.087	2602.73
978.387	2594.37
978.687	2595.72
978.987	2605.44
979.286	2573.8
979.586	2533.35
979.885	2532.67
980.185	2540.81
980.484	2517.76
980.784	2515.72
981.083	2486.8
981.382	2489.28
981.682	2452.45
981.981	2468.95
982.28	2500.13
982.579	2442.73
982.878	2474.14
983.177	2412.45
983.475	2421.04
983.774	2423.75
984.073	2372.45
984.372	2368.84
984.67	2369.97
984.969	2404.32
985.267	2364.32
985.566	2348.05
985.864	2317.99
986.162	2334.49
986.461	2315.5
986.759	2301.95
987.057	2296.75
987.355	2294.49
987.653	2272.79
987.951	2273.02
988.249	2239.57
988.547	2242.51
988.844	2255.84
989.142	2240.25
989.44	2201.83
989.737	2214.72
990.035	2174.94
990.332	2184.66
990.63	2182.4
990.927	2162.06
991.224	2148.28
991.521	2129.07
991.819	2140.14
992.116	2167.49
992.413	2148.28
992.71	2102.63
993.006	2089.07
993.303	2111.44
993.6	2094.27
993.897	2068.05
994.193	2075.74
994.49	2063.53
994.787	2045
995.083	2052.91
995.379	2012.24
995.676	1999.81
995.972	2015.85
996.268	1975.63
996.565	1994.83
996.861	1991.9
997.157	1980.82
997.453	1947.83
997.749	1977.21
998.044	1943.54
998.34	1930.66
998.636	1942.41
998.932	1894.95
999.227	1906.93
999.523	1912.58
999.818	1888.62
1000.114	1860.6
1000.409	1878.23
1000.704	1856.76
1001	1847.27
1001.295	1829.64
1001.59	1811.79
1001.885	1820.38
1002.18	1807.95
1002.475	1782.18
1002.77	1784.44
1003.065	1756.87
1003.359	1779.92
1003.654	1778.34
1003.949	1796.2
1004.243	1751.68
1004.538	1695.18
1004.832	1704.45
1005.127	1746.93
1005.421	1703.32
1005.715	1703.77
1006.009	1708.06
1006.304	1672.81
1006.598	1662.19
1006.892	1666.48
1007.186	1639.14
1007.48	1641.4
1007.773	1657.67
1008.067	1615.18
1008.361	1639.14
1008.655	1623.09
1008.948	1587.16
1009.242	1578.57
1009.535	1552.59
1009.829	1552.13
1010.122	1562.76
1010.415	1548.97
1010.708	1574.96
1011.001	1545.35
1011.295	1539.93
1011.588	1523.89
1011.881	1483.89
1012.173	1501.29
1012.466	1474.85
1012.759	1478.69
1013.052	1479.82
1013.344	1489.31
1013.637	1446.6
1013.93	1432.36
1014.222	1464.68
1014.514	1449.54
1014.807	1439.14
1015.099	1423.1
1015.391	1402.08
1015.683	1429.65
1015.976	1397.11
1016.268	1395.08
1016.56	1367.28
1016.851	1376.32
1017.143	1380.16
1017.435	1359.37
1017.727	1393.49
1018.018	1354.17
1018.31	1331.12
1018.602	1322.76
1018.893	1312.82
1019.185	1304.23
1019.476	1294.29
1019.767	1307.17
1020.058	1297.23
1020.35	1275.98
1020.641	1263.1
1020.932	1245.02
1021.223	1266.49
1021.514	1240.28
1021.804	1248.41
1022.095	1222.65
1022.386	1189.88
1022.677	1214.29
1022.967	1219.94
1023.258	1198.25
1023.548	1198.7
1023.839	1182.65
1024.129	1189.21
1024.419	1173.61
1024.709	1153.73
1025	1147.85
1025.29	1143.78
1025.58	1123.9
1025.87	1136.78
1026.16	1104.46
1026.449	1139.72
1026.739	1127.06
1027.029	1159.6
1027.319	1084.12
1027.608	1101.98
1027.898	1103.56
1028.187	1096.33
1028.477	1070.79
1028.766	1046.16
1029.055	1060.17
1029.344	1070.79
1029.634	1053.84
1029.923	1038.93
1030.212	1022.66
1030.501	1034.18
1030.79	1043.45
1031.078	1015.2
1031.367	1014.97
1031.656	993.96
1031.945	987.63
1032.233	990.57
1032.522	981.3
1032.81	948.31
1033.099	947.18
1033.387	969.55
1033.675	974.07
1033.963	944.92
1034.251	955.54
1034.54	930.23
1034.828	931.59
1035.116	933.39
1035.403	942.88
1035.691	936.56
1035.979	904.02
1036.267	926.16
1036.554	889.78
1036.842	907.41
1037.129	875.99
1037.417	878.03
1037.704	876.22
1037.992	874.41
1038.279	862.89
1038.566	846.16
1038.853	846.16
1039.14	846.16
