Data from hue_20_FLMS001491_43.txt Node
Date: Mon Feb 06 15:34:10 GMT 2017
User: dcchb
Spectrometer: FLMS00149
Trigger mode: 0
Integration Time (sec): 2.000000E-2
Scans to average: 10
Electric dark correction enabled: true
Nonlinearity correction enabled: false
Boxcar width: 0
XAxis mode: Wavelengths
Number of Pixels in Spectrum: 2048
>>>>>Begin Spectral Data<<<<<
341.393	-20.03
341.776	-20.03
342.16	-20.03
342.543	-50.31
342.927	-67.03
343.31	-73.59
343.693	-68.84
344.077	-70.42
344.46	-55.51
344.843	-33.36
345.226	-39.24
345.61	-36.07
345.993	-25.45
346.376	-12.34
346.759	-1.5
347.142	39.86
347.525	65.62
347.908	66.98
348.291	66.98
348.674	68.78
349.057	108.1
349.44	113.3
349.823	136.8
350.206	169.8
350.588	194.43
350.971	208.21
351.354	235.11
351.737	235.11
352.119	239.4
352.502	257.71
352.884	274.2
353.267	290.7
353.65	273.75
354.032	299.06
354.414	293.86
354.797	323.69
355.179	343.13
355.562	340.41
355.944	342.22
356.326	325.05
356.709	346.52
357.091	330.7
357.473	370.47
357.855	334.09
358.238	347.65
358.62	332.73
359.002	352.62
359.384	336.57
359.766	350.81
360.148	341.54
360.53	337.03
360.912	345.61
361.294	336.8
361.676	356.69
362.057	330.02
362.439	337.03
362.821	344.26
363.203	343.13
363.584	347.19
363.966	341.54
364.348	330.25
364.729	327.08
365.111	343.58
365.493	314.2
365.874	325.5
366.256	328.66
366.637	329.12
367.019	317.82
367.4	330.25
367.781	314.2
368.163	326.63
368.544	316.01
368.925	312.62
369.306	318.72
369.688	305.16
370.069	321.88
370.45	334.99
370.831	336.8
371.212	330.47
371.593	329.79
371.974	306.52
372.355	331.6
372.736	339.06
373.117	325.95
373.498	305.16
373.879	311.49
374.26	326.4
374.641	323.01
375.021	322.11
375.402	333.86
375.783	338.15
376.163	336.12
376.544	349
376.925	334.99
377.305	330.47
377.686	332.28
378.066	352.84
378.447	354.43
378.827	351.04
379.208	317.59
379.588	320.75
379.968	340.41
380.349	349.23
380.729	345.39
381.109	349
381.489	342.9
381.87	331.83
382.25	336.12
382.63	357.36
383.01	347.19
383.39	354.88
383.77	351.26
384.15	358.49
384.53	351.94
384.91	358.49
385.29	348.78
385.67	377.48
386.049	365.05
386.429	366.63
386.809	339.28
387.189	372.96
387.568	366.4
387.948	375.22
388.328	370.7
388.707	345.16
389.087	389.68
389.466	374.09
389.846	370.02
390.225	367.31
390.605	367.98
390.984	381.32
391.363	378.15
391.743	373.86
392.122	383.8
392.501	379.96
392.881	392.84
393.26	377.25
393.639	379.74
394.018	361.66
394.397	396.01
394.776	403.69
395.155	370.7
395.534	386.06
395.913	403.69
396.292	387.42
396.671	401.66
397.05	406.18
397.429	378.61
397.808	403.69
398.186	414.31
398.565	415.44
398.944	424.93
399.323	401.66
399.701	416.12
400.08	422.45
400.458	417.7
400.837	421.54
401.215	398.49
401.594	414.54
401.972	410.47
402.351	444.59
402.729	427.19
403.107	461.32
403.486	458.6
403.864	430.58
404.242	430.58
404.62	459.96
404.999	444.82
405.377	436.68
405.755	440.75
406.133	431.26
406.511	450.02
406.889	446.17
407.267	455.44
407.645	434.2
408.023	456.12
408.401	461.54
408.779	480.52
409.156	484.82
409.534	468.1
409.912	469
410.29	485.95
410.667	472.61
411.045	497.92
411.422	491.82
411.8	456.34
412.178	505.38
412.555	497.47
412.933	480.75
413.31	506.74
413.687	509.45
414.065	494.54
414.442	522.78
414.819	512.16
415.197	517.36
415.574	529.34
415.951	557.13
416.328	531.82
416.705	532.95
417.082	527.08
417.46	531.14
417.837	543.35
418.214	523.01
418.591	544.25
418.967	545.83
419.344	567.08
419.721	561.2
420.098	543.12
420.475	548.77
420.852	569.56
421.228	578.37
421.605	583.35
421.982	576.79
422.358	582.22
422.735	588.54
423.111	575.66
423.488	582.22
423.864	608.43
424.241	584.93
424.617	596.45
424.994	590.13
425.37	622.89
425.746	608.88
426.123	616.34
426.499	596.45
426.875	620.41
427.251	611.59
427.627	618.83
428.003	612.5
428.379	644.36
428.756	631.93
429.132	643.23
429.507	646.62
429.883	677.13
430.259	672.38
430.635	686.62
431.011	662.67
431.387	687.98
431.763	674.19
432.138	701.76
432.514	680.29
432.89	691.14
433.265	717.35
433.641	706.28
434.016	717.35
434.392	718.94
434.767	731.82
435.143	720.52
435.518	731.36
435.894	776.56
436.269	758.03
436.644	753.06
437.02	773.17
437.395	768.2
437.77	743.79
438.145	798.03
438.52	781.99
438.895	791.48
439.271	798.03
439.646	813.62
440.021	819.05
440.395	801.87
440.77	837.35
441.145	836.67
441.52	856.11
441.895	867.86
442.27	819.27
442.645	851.14
443.019	853.4
443.394	858.14
443.769	858.82
444.143	870.34
444.518	878.48
444.892	869.44
445.267	895.43
445.641	886.39
446.016	882.32
446.39	892.94
446.764	931.59
447.139	883.68
447.513	901.98
447.887	935.88
448.262	928.65
448.636	889.1
449.01	940.17
449.384	941.75
449.758	953.96
450.132	926.61
450.506	948.31
450.88	941.3
451.254	966.61
451.628	959.83
452.002	983.79
452.376	1008.87
452.75	976.56
453.123	983.11
453.497	1045.03
453.871	1017.01
454.244	1043.67
454.618	1047.29
454.992	1059.27
455.365	1047.51
455.739	1072.82
456.112	1096.1
456.486	1082.99
456.859	1066.27
457.232	1117.8
457.606	1118.93
457.979	1130
458.352	1164.57
458.725	1153.05
459.099	1146.95
459.472	1177.45
459.845	1207.74
460.218	1207.06
460.591	1196.44
460.964	1212.48
461.337	1249.32
461.71	1274.85
462.083	1284.12
462.456	1269.88
462.829	1279.37
463.201	1310.78
463.574	1323.44
463.947	1335.19
464.32	1359.6
464.692	1362.31
465.065	1383.1
465.438	1399.6
465.81	1380.39
466.183	1435.75
466.555	1456.32
466.928	1444.11
467.3	1481.18
467.672	1533.15
468.045	1511.68
468.417	1525.69
468.789	1549.2
469.161	1556.65
469.534	1554.85
469.906	1589.65
470.278	1635.75
470.65	1668.29
471.022	1712.81
471.394	1715.52
471.766	1716.2
472.138	1733.82
472.51	1770.66
472.882	1783.31
473.253	1799.13
473.625	1849.53
473.997	1875.97
474.369	1865.35
474.74	1907.83
475.112	1950.54
475.484	1967.94
475.855	2004.33
476.227	2015.85
476.598	2075.51
476.97	2122.51
477.341	2151.44
477.713	2179.91
478.084	2216.07
478.455	2276.86
478.827	2298.1
479.198	2349.4
479.569	2364.77
479.94	2448.61
480.311	2472.34
480.682	2500.58
481.053	2562.73
481.424	2602.05
481.795	2625.1
482.166	2711.2
482.537	2715.95
482.908	2786.68
483.279	2817.41
483.65	2871.2
484.021	2937.41
484.391	2991.64
484.762	3000.46
485.133	3014.69
485.503	3078.2
485.874	3183.05
486.244	3199.77
486.615	3293.11
486.985	3320.68
487.356	3367
487.726	3405.19
488.097	3455.59
488.467	3497.17
488.837	3592.31
489.207	3635.7
489.578	3711.4
489.948	3740.1
490.318	3820.55
490.688	3778.29
491.058	3885.18
491.428	3919.76
491.798	3985.97
492.168	4029.36
492.538	4068.23
492.908	4145.29
493.278	4129.02
493.648	4164.95
494.017	4248.79
494.387	4305.51
494.757	4324.49
495.126	4407.65
495.496	4411.95
495.866	4405.62
496.235	4489.91
496.605	4511.83
496.974	4547.54
497.344	4594.31
497.713	4612.17
498.082	4699.85
498.452	4746.85
498.821	4784.82
499.19	4782.11
499.559	4818.04
499.928	4865.04
500.298	4913.63
500.667	4938.71
501.036	4943.23
501.405	4973.51
501.774	5029.78
502.143	5019.39
502.512	5054.87
502.88	5128.76
503.249	5137.58
503.618	5161.53
503.987	5182.77
504.356	5242.21
504.724	5260.29
505.093	5250.79
505.462	5286.5
505.83	5330.79
506.199	5353.84
506.567	5437.23
506.936	5387.74
507.304	5482.2
507.672	5495.08
508.041	5531.69
508.409	5493.95
508.777	5589.32
509.145	5626.38
509.514	5607.17
509.882	5656.43
510.25	5724.68
510.618	5699.6
510.986	5794.06
511.354	5796.09
511.722	5863.66
512.09	5875.18
512.458	5879.25
512.826	5914.51
513.193	5905.01
513.561	5942.3
513.929	6036.76
514.297	6037.21
514.664	6075.86
515.032	6060.26
515.4	6157.44
515.767	6139.81
516.135	6162.18
516.502	6144.78
516.869	6243.54
517.237	6297.77
517.604	6233.59
517.972	6321.73
518.339	6301.84
518.706	6391.33
519.073	6397.2
519.44	6375.28
519.808	6451.21
520.175	6468.16
520.542	6487.37
520.909	6574.38
521.276	6529.86
521.643	6597.88
522.009	6657.54
522.376	6678.33
522.743	6667.93
523.11	6736.4
523.477	6881.03
523.843	6888.94
524.21	6930.98
524.577	6925.33
524.943	6916.97
525.31	7002.61
525.676	7062.95
526.043	7081.71
526.409	7120.58
526.776	7174.36
527.142	7214.13
527.508	7255.04
527.874	7338.65
528.241	7292.77
528.607	7367.8
528.973	7441.25
529.339	7420.91
529.705	7522.15
530.071	7592.88
530.437	7565.08
530.803	7635.82
531.169	7650.51
531.535	7632.88
531.901	7698.19
532.267	7684.85
532.632	7786.77
532.998	7797.62
533.364	7836.71
533.73	7919.88
534.095	7937.5
534.461	8000.1
534.826	8017.05
535.192	8048.01
535.557	8088.01
535.923	8097.5
536.288	8105.86
536.653	8152.64
537.019	8115.8
537.384	8202.81
537.749	8188.34
538.114	8229.92
538.479	8322.35
538.845	8375.46
539.21	8337.04
539.575	8382.92
539.94	8374.33
540.305	8534.78
540.67	8488.45
541.034	8488.22
541.399	8557.83
541.764	8553.98
542.129	8609.12
542.494	8696.35
542.858	8692.96
543.223	8764.15
543.587	8781.32
543.952	8821.77
544.316	8845.28
544.681	8847.08
545.045	8865.39
545.41	8941.32
545.774	8913.07
546.138	8972.5
546.503	9067.87
546.867	9016.12
547.231	9097.02
547.595	9154.42
547.959	9140.64
548.324	9198.94
548.688	9142.44
549.052	9229.45
549.416	9268.77
549.779	9281.42
550.143	9236.45
550.507	9354.87
550.871	9396.45
551.235	9346.96
551.599	9469.89
551.962	9461.3
552.326	9518.48
552.689	9595.31
553.053	9585.37
553.417	9603.45
553.78	9700.39
554.143	9656.55
554.507	9742.43
554.87	9672.37
555.234	9889.54
555.597	9808.19
555.96	9865.59
556.323	9789.66
556.686	9890.45
557.05	10005.25
557.413	10032.82
557.776	9925.25
558.139	10026.94
558.502	10112.81
558.865	10134.51
559.228	10223.09
559.59	10208.63
559.953	10236.65
560.316	10328.4
560.679	10345.58
561.041	10316.65
561.404	10428.51
561.767	10483.42
562.129	10400.72
562.492	10573.37
562.854	10468.74
563.217	10505.57
563.579	10562.07
563.941	10611.78
564.304	10618.79
564.666	10762.97
565.028	10731.33
565.39	10828.95
565.753	10818.56
566.115	10803.19
566.477	10946.92
566.839	10894.04
567.201	11005.67
567.563	10941.04
567.925	11069.4
568.287	11138.55
568.648	11121.37
569.01	11215.84
569.372	11268.49
569.734	11296.28
570.095	11384.87
570.457	11427.13
570.819	11497.18
571.18	11486.56
571.542	11567.01
571.903	11531.08
572.265	11639.55
572.626	11630.06
572.987	11731.3
573.349	11724.3
573.71	11864.86
574.071	11862.15
574.432	11886.55
574.794	12041.12
575.155	12018.53
575.516	11981.46
575.877	12236.37
576.238	12188.46
576.599	12393.66
576.96	12292.42
577.32	12432.3
577.681	12531.96
578.042	12606.53
578.403	12646.31
578.763	12764.04
579.124	12862.8
579.485	12969.24
579.845	13063.92
580.206	13211.49
580.566	13191.15
580.927	13419.17
581.287	13484.02
581.648	13655.32
582.008	13706.39
582.368	13876.1
582.728	14012.15
583.089	14121.52
583.449	14284.68
583.809	14536.88
584.169	14645.8
584.529	14698.23
584.889	14976.19
585.249	15142.74
585.609	15326.46
585.969	15557.42
586.329	15679.67
586.688	15920.12
587.048	16114.24
587.408	16319.2
587.768	16561.01
588.127	16753.54
588.487	16960.32
588.846	17275.79
589.206	17429.01
589.565	17706.06
589.925	18051.14
590.284	18236.89
590.643	18535.19
591.003	18819.02
591.362	19207.04
591.721	19434.83
592.08	19678.89
592.44	20056.73
592.799	20320.68
593.158	20545.08
593.517	20838.63
593.876	21192.97
594.235	21429.35
594.593	21792.05
594.952	22100.07
595.311	22346.84
595.67	22605.37
596.029	23132.13
596.387	23387.04
596.746	23789.74
597.104	24003.52
597.463	24272.21
597.822	24727.12
598.18	24831.07
598.538	25177.73
598.897	25665.17
599.255	25735.45
599.613	26349.67
599.972	26571.59
600.33	26812.26
600.688	27207.28
601.046	27563.2
601.404	27996.86
601.762	28134.71
602.12	28620.8
602.478	28808.37
602.836	29138.08
603.194	29229.37
603.552	29620.55
603.91	29805.85
604.268	30303.92
604.625	30401.09
604.983	30825.26
605.341	31054.18
605.698	31444.46
606.056	31674.51
606.413	31935.06
606.771	32307.03
607.128	32550.42
607.485	32763.74
607.843	32950.18
608.2	33410.73
608.557	33717.62
608.914	33790.16
609.272	34175.23
609.629	34507.43
609.986	34807.53
610.343	34913.07
610.7	35393.73
611.057	35539.49
611.414	35734.06
611.771	35940.38
612.127	36289.3
612.484	36390.77
612.841	36622.85
613.198	36732.45
613.554	37007.47
613.911	37360.68
614.267	37583.05
614.624	37599.1
614.98	37910.73
615.337	38238.63
615.693	38180.1
616.05	38399.98
616.406	38691.04
616.762	38861.89
617.118	38922
617.475	39121.77
617.831	39321.76
618.187	39594.52
618.543	39661.19
618.899	40135.98
619.255	40142.76
619.611	40186.15
619.967	40497.78
620.323	40762.63
620.678	40650.09
621.034	40511.56
621.39	40825.68
621.746	40901.16
622.101	41464.08
622.457	41206.91
622.812	41366.91
623.168	41562.83
623.523	41650.97
623.879	41912.66
624.234	41580.69
624.589	41955.59
624.945	41926.44
625.3	42240.1
625.655	42237.62
626.01	42222.03
626.365	42454.11
626.72	42331.18
627.075	42545.63
627.43	42470.83
627.785	42522.36
628.14	42742.46
628.495	42836.92
628.85	42841.44
629.205	42852.74
629.559	43132.51
629.914	43015
630.269	43066.97
630.623	43059.74
630.978	43072.4
631.332	43355.33
631.687	43334.99
632.041	43156.92
632.396	43315.33
632.75	43203.92
633.104	43276.01
633.459	43081.21
633.813	43226.29
634.167	43277.14
634.521	43346.97
634.875	43287.76
635.229	43234.43
635.583	43177.03
635.937	43254.99
636.291	43136.35
636.645	43328.44
636.999	43097.03
637.352	43447.3
637.706	43163.92
638.06	43511.03
638.413	43314.43
638.767	43247.99
639.121	43276.91
639.474	43149.46
639.828	43231.26
640.181	43296.57
640.534	43350.58
640.888	43225.61
641.241	43092.96
641.594	43209.34
641.947	43248.67
642.301	43141.32
642.654	43266.52
643.007	43190.36
643.36	43096.13
643.713	43166.86
644.066	43283.69
644.419	43021.1
644.771	42879.41
645.124	42378.41
645.477	42325.98
645.83	42059.77
646.182	41970.28
646.535	41823.84
646.888	42061.58
647.24	41782.71
647.593	42006.44
647.945	42035.14
648.298	41663.4
648.65	41749.95
649.002	41600.8
649.355	41896.38
649.707	41678.31
650.059	41940.9
650.411	42431.51
650.763	42542.02
651.115	42909.92
651.467	42798.51
651.819	42842.8
652.171	42680.77
652.523	42630.15
652.875	42615.69
653.227	42598.96
653.578	42930.03
653.93	42729.58
654.282	42496.37
654.633	42500.44
654.985	42550.6
655.337	42519.87
655.688	42475.35
656.039	42623.37
656.391	42432.87
656.742	42298.41
657.094	42430.16
657.445	42526.88
657.796	42534.11
658.147	42276.71
658.498	42396.48
658.849	42484.62
659.2	42346.77
659.551	42267.9
659.902	42420.44
660.253	42394.45
660.604	42474
660.955	42206.66
661.306	42337.95
661.656	42264.51
662.007	42286.2
662.358	42277.84
662.708	42339.08
663.059	42177.73
663.409	41993.56
663.76	42308.8
664.11	42215.92
664.461	42280.1
664.811	42341.12
665.161	42212.08
665.511	42180.67
665.862	42159.88
666.212	42308.58
666.562	42346.09
666.912	42100.9
667.262	42186.09
667.612	42109.49
667.962	42238.07
668.312	42104.51
668.662	42327.33
669.011	42121.69
669.361	42009.83
669.711	42156.94
670.06	42260.89
670.41	42090.96
670.76	41922.37
671.109	42110.84
671.459	42174.57
671.808	42053.67
672.157	42094.57
672.507	41782.94
672.856	41841.7
673.205	41943.61
673.554	42040.34
673.904	41947
674.253	42186.77
674.602	41890.96
674.951	41375.49
675.3	41206.68
675.649	41931.64
675.998	41782.04
676.346	41715.82
676.695	41784.75
677.044	41579.56
677.393	41710.85
677.741	41754.69
678.09	41695.71
678.438	41563.96
678.787	41716.73
679.135	41595.15
679.484	41283.07
679.832	41572.55
680.181	41301.6
680.529	41442.38
680.877	41304.08
681.225	41319.68
681.573	41537.75
681.922	41172.11
682.27	41224.31
682.618	41061.6
682.966	41058.89
683.314	41072.68
683.661	40996.07
684.009	40837.43
684.357	40745.91
684.705	40706.13
685.053	40690.77
685.4	40571.22
685.748	40602.63
686.095	40437.67
686.443	40285.35
686.79	40316.31
687.138	40390.89
687.485	40459.81
687.832	40257.56
688.18	40220.04
688.527	40053.04
688.874	40006.49
689.221	39878.13
689.568	39809.89
689.915	39789.1
690.262	39833.61
690.609	39570.57
690.956	39455.77
691.303	39435.66
691.65	39354.3
691.997	39290.13
692.344	39028.21
692.69	39213.52
693.037	39024.14
693.383	38828.22
693.73	38927.2
694.077	38738.5
694.423	38666.19
694.769	38525.63
695.116	38509.58
695.462	38447.21
695.808	38330.15
696.155	38366.76
696.501	38071.85
696.847	38264.84
697.193	37870.95
697.539	38000.22
697.885	37647
698.231	37674.57
698.577	37549.38
698.923	37438.65
699.269	37423.73
699.614	37167.02
699.96	37269.61
700.306	37156.17
700.651	37055.83
700.997	36921.15
701.342	36815.84
701.688	36726.58
702.033	36649.52
702.379	36491.33
702.724	36569.07
703.069	36554.6
703.415	36250.43
703.76	36230.77
704.105	36289.3
704.45	36061.51
704.795	35838.92
705.14	35840.5
705.485	35856.09
705.83	35602.31
706.175	35815.64
706.52	35611.58
706.865	35505.82
707.209	35409.55
707.554	35405.48
707.899	35437.12
708.243	35167.75
708.588	35100.86
708.932	34969.33
709.277	35029.67
709.621	34901.09
709.966	34781.32
710.31	34778.83
710.654	34568.89
710.998	34564.83
711.342	34709.68
711.687	34376.36
712.031	34292.29
712.375	34205.06
712.719	34325.28
713.063	34208.9
713.407	34383.36
713.75	34099.3
714.094	34030.15
714.438	33922.36
714.782	33961.23
715.125	33763.04
715.469	33882.81
715.812	33711.06
716.156	33514.01
716.499	33501.35
716.843	33653.44
717.186	33288.48
717.53	33570.5
717.873	33455.25
718.216	33384.74
718.559	33293.45
718.902	33031.76
719.246	33120.8
719.589	32910.18
719.932	32921.7
720.275	33018.65
720.617	32774.82
720.96	32837.64
721.303	32787.7
721.646	32777.08
721.989	32489.85
722.331	32617.98
722.674	32579.34
723.016	32573.69
723.359	32440.81
723.701	32538.66
724.044	32244.43
724.386	32134.38
724.729	32275.62
725.071	32170.31
725.413	32144.78
725.755	32202.85
726.097	32121.5
726.439	31841.28
726.782	31853.48
727.124	31966.93
727.465	31774.16
727.807	31660.04
728.149	31691.91
728.491	31660.5
728.833	31617.56
729.175	31603.1
729.516	31508.41
729.858	31405.81
730.199	31392.71
730.541	31280.17
730.882	31366.72
731.224	31290.79
731.565	31235.87
731.906	31146.16
732.248	31246.95
732.589	31088.76
732.93	30946.84
733.271	30911.59
733.612	31064.35
733.953	31090.34
734.294	30919.72
734.635	30793.63
734.976	30776.22
735.317	30722.67
735.658	30768.99
735.999	30630.69
736.339	30560.86
736.68	30638.83
737.021	30505.05
737.361	30425.5
737.702	30547.08
738.042	30430.25
738.383	30349.12
738.723	30490.58
739.063	30340.3
739.404	30333.07
739.744	30161.78
740.084	30042.68
740.424	30064.15
740.764	30080.42
741.104	30095.34
741.444	29887.66
741.784	29864.38
742.124	29971.05
742.464	29843.14
742.804	29835.91
743.143	29758.4
743.483	29729.25
743.823	29659.19
744.162	29605.41
744.502	29713.88
744.841	29638.18
745.181	29569.25
745.52	29515.24
745.86	29606.31
746.199	29482.47
746.538	29521.79
746.877	29402.7
747.216	29327.22
747.556	29348.01
747.895	29341.46
748.234	29228.02
748.573	29208.36
748.911	29084.97
749.25	29134.46
749.589	29034.12
749.928	29058.3
750.267	28958.65
750.605	28919.55
750.944	28796.84
751.283	28750.74
751.621	28731.53
751.96	28618.77
752.298	28618.54
752.636	28660.35
752.975	28452.22
753.313	28228.5
753.651	28448.83
753.989	28421.94
754.327	28218.55
754.666	28082.51
755.004	28234.82
755.342	28245.22
755.679	28222.17
756.017	28043.87
756.355	28008.39
756.693	27956.64
757.031	28012.91
757.368	27840.03
757.706	27953.93
758.044	27736.3
758.381	27870.99
758.719	27596.87
759.056	27666.02
759.394	27528.17
759.731	27381.96
760.068	27294.28
760.405	27331.34
760.743	27249.76
761.08	27311.23
761.417	27092.03
761.754	27058.58
762.091	26960.73
762.428	26923.9
762.765	26596.22
763.102	26744.01
763.438	26533.17
763.775	26404.59
764.112	26497.47
764.449	26534.08
764.785	26307.64
765.122	26101.32
765.458	26128.44
765.795	26128.66
766.131	26022.23
766.467	25920.76
766.804	25857.94
767.14	25746.75
767.476	25904.49
767.812	25619.75
768.148	25626.53
768.485	25552.41
768.821	25361.68
769.157	25273.32
769.492	25240.1
769.828	25336.59
770.164	24906.32
770.5	24983.38
770.836	24819.32
771.171	24768.93
771.507	24778.19
771.842	24546.56
772.178	24523.73
772.513	24522.83
772.849	24407.58
773.184	24275.38
773.519	24284.42
773.855	24189.28
774.19	24007.36
774.525	23985.44
774.86	23906.12
775.195	23923.75
775.53	23738.44
775.865	23586.58
776.2	23525.12
776.535	23367.15
776.87	23361.5
777.205	23290.77
777.539	23204.22
777.874	23182.53
778.209	22981.18
778.543	22999.93
778.878	22828.64
779.212	22810.78
779.547	22717.23
779.881	22791.58
780.215	22531.92
780.55	22613.28
780.884	22434.75
781.218	22332.38
781.552	22328.31
781.886	22143.23
782.22	22164.02
782.554	22039.51
782.888	21978.26
783.222	21828.89
783.556	21739.85
783.889	21605.39
784.223	21522.46
784.557	21530.82
784.89	21546.64
785.224	21362.91
785.557	21175.35
785.891	21209.24
786.224	21278.4
786.558	21180.77
786.891	21009.25
787.224	20931.74
787.557	20783.95
787.891	20750.95
788.224	20667.56
788.557	20761.12
788.89	20600.22
789.223	20584.63
789.556	20448.36
789.888	20243.85
790.221	20307.12
790.554	20064.64
790.887	20309.38
791.219	20046.34
791.552	20017.86
791.884	19877.98
792.217	19792.33
792.549	19830.3
792.882	19618.1
793.214	19503.3
793.546	19676.63
793.879	19488.61
794.211	19335.62
794.543	19400.03
794.875	19376.52
795.207	19454.04
795.539	19235.74
795.871	19301.27
796.203	19075.74
796.535	19066.7
796.867	18951.68
797.198	18934.73
797.53	18887.05
797.862	18704.9
798.193	18736.99
798.525	18572.48
798.856	18739.03
799.188	18502.2
799.519	18396.21
799.85	18412.48
800.182	18394.86
800.513	18361.18
800.844	18074.41
801.175	18175.43
801.506	18132.26
801.837	18033.28
802.168	18060.4
802.499	17967.3
802.83	17911.03
803.161	17892.04
803.491	17756.68
803.822	17720.52
804.153	17721.65
804.483	17638.72
804.814	17518.27
805.145	17524.37
805.475	17485.27
805.805	17405.95
806.136	17379.06
806.466	17408.89
806.796	17332.28
807.126	17099.75
807.457	17179.29
807.787	17117.37
808.117	17003.71
808.447	17022.46
808.777	17089.35
809.107	16986.98
809.436	16815.91
809.766	16921
810.096	16856.59
810.426	16703.37
810.755	16835.12
811.085	16729.14
811.414	16695.92
811.744	16566.65
812.073	16520.78
812.403	16590.38
812.732	16460.22
813.061	16455.7
813.39	16376.6
813.719	16294.57
814.049	16251.18
814.378	16302.71
814.707	16127.8
815.036	16221.13
815.365	16126.21
815.693	15992.21
816.022	16034.24
816.351	15899.1
816.68	15909.5
817.008	15889.84
817.337	15759.22
817.665	15721.93
817.994	15745.89
818.322	15756.28
818.651	15677.86
818.979	15633.8
819.307	15631.54
819.636	15632.67
819.964	15516.06
820.292	15559.22
820.62	15528.04
820.948	15410.3
821.276	15555.38
821.604	15444.65
821.932	15445.33
822.259	15437.42
822.587	15504.31
822.915	15461.15
823.243	15400.81
823.57	15372.79
823.898	15436.74
824.225	15332.11
824.553	15369.17
824.88	15403.75
825.207	15463.63
825.535	15418.89
825.862	15446.91
826.189	15413.24
826.516	15349.96
826.843	15360.36
827.17	15360.13
827.497	15445.33
827.824	15445.55
828.151	15411.43
828.478	15391.32
828.805	15439.23
829.131	15290.98
829.458	15317.87
829.785	15263.64
830.111	15340.47
830.438	15416.4
830.764	15311.09
831.09	15417.31
831.417	15209.85
831.743	15305.22
832.069	15360.81
832.395	15149.74
832.722	15314.26
833.048	15185.22
833.374	15337.99
833.7	15151.78
834.026	15172.57
834.351	15226.35
834.677	15205.79
835.003	15123.75
835.329	15133.7
835.654	15135.05
835.98	15037.66
836.306	15134.15
836.631	15013.48
836.956	15036.07
837.282	15088.05
837.607	14993.81
837.932	14965.34
838.258	14930.54
838.583	14882.18
838.908	14792.69
839.233	14901.16
839.558	14839.24
839.883	14707.27
840.208	14740.04
840.533	14727.38
840.858	14632.47
841.182	14764.22
841.507	14658
841.832	14601.28
842.156	14614.62
842.481	14585.24
842.805	14507.27
843.13	14541.62
843.454	14519.25
843.778	14469.99
844.103	14336.88
844.427	14363.77
844.751	14389.31
845.075	14318.8
845.399	14246.94
845.723	14190.67
846.047	14115.19
846.371	14079.04
846.695	14145.48
847.019	13966.95
847.343	13956.33
847.666	13806.28
847.99	13840.62
848.313	13774.64
848.637	13689.22
848.96	13631.59
849.284	13564.7
849.607	13572.84
849.931	13539.39
850.254	13390.92
850.577	13422.78
850.9	13305.95
851.223	13245.16
851.546	13151.15
851.869	13080.42
852.192	13141.66
852.515	13105.28
852.838	13042.91
853.161	13013.98
853.483	12976.01
853.806	12884.94
854.129	12844.72
854.451	12791.61
854.774	12773.53
855.096	12763.59
855.419	12661.67
855.741	12671.16
856.063	12604.5
856.385	12544.84
856.708	12498.74
857.03	12408.12
857.352	12498.74
857.674	12379.65
857.996	12359.99
858.318	12274.11
858.64	12320.44
858.961	12263.04
859.283	12236.37
859.605	12195.47
859.926	12154.12
860.248	12123.61
860.57	12077.73
860.891	12058.07
861.212	12028.7
861.534	11951.63
861.855	12036.83
862.176	11992.09
862.498	11934.23
862.819	12032.76
863.14	11836.84
863.461	11891.75
863.782	11792.77
864.103	11796.84
864.424	11817.4
864.745	11834.8
865.065	11687.46
865.386	11679.1
865.707	11688.14
866.027	11641.36
866.348	11580.35
866.668	11644.07
866.989	11555.71
867.309	11467.81
867.63	11650.85
867.95	11550.06
868.27	11452.66
868.59	11522.27
868.91	11490.18
869.23	11378.99
869.55	11470.97
869.87	11402.5
870.19	11384.19
870.51	11445.89
870.83	11364.53
871.15	11328.6
871.469	11348.49
871.789	11381.25
872.109	11316.62
872.428	11270.97
872.748	11236.85
873.067	11288.15
873.386	11261.26
873.706	11193.01
874.025	11130.64
874.344	11128.15
874.663	11048.61
874.982	11089.96
875.301	11108.49
875.62	11060.13
875.939	11013.13
876.258	11002.51
876.577	10995.95
876.896	11020.59
877.214	10955.28
877.533	10971.55
877.852	10910.76
878.17	10944.66
878.489	10925.45
878.807	10912.11
879.125	10872.12
879.444	10953.02
879.762	10848.61
880.08	10810.87
880.398	10824.21
880.716	10778.33
881.034	10743.31
881.352	10775.39
881.67	10742.85
881.988	10694.72
882.306	10662.86
882.624	10728.84
882.941	10619.69
883.259	10543.08
883.577	10559.58
883.894	10510.99
884.212	10520.49
884.529	10509.41
884.846	10442.52
885.164	10444.56
885.481	10413.14
885.798	10417.66
886.115	10345.12
886.432	10380.6
886.75	10346.03
887.067	10302.64
887.383	10303.77
887.7	10280.94
888.017	10196.43
888.334	10260.38
888.651	10193.72
888.967	10148.52
889.284	10134.73
889.6	10051.57
889.917	9943.55
890.233	9996.88
890.55	9978.58
890.866	9977.68
891.182	9933.16
891.498	9913.27
891.815	9914.4
892.131	9861.75
892.447	9789.88
892.763	9841.86
893.079	9753.73
893.395	9692.26
893.71	9678.47
894.026	9664.24
894.342	9680.06
894.657	9640.74
894.973	9575.65
895.289	9565.26
895.604	9487.07
895.92	9467.18
896.235	9456.33
896.55	9449.33
896.865	9468.31
897.181	9375.43
897.496	9391.48
897.811	9326.85
898.126	9302.67
898.441	9210.69
898.756	9210.46
899.071	9178.83
899.386	9116.91
899.7	9085.5
900.015	9031.03
900.33	9029.23
900.644	9061.09
900.959	9033.75
901.273	9025.61
901.588	8924.14
901.902	8904.03
902.216	8909.46
902.531	8823.13
902.845	8716.47
903.159	8749.46
903.473	8755.56
903.787	8692.29
904.101	8682.12
904.415	8606.64
904.729	8574.1
905.042	8554.66
905.356	8594.44
905.67	8546.75
905.984	8567.77
906.297	8517.83
906.611	8423.37
906.924	8427.66
907.237	8375.68
907.551	8275.35
907.864	8320.54
908.177	8302.92
908.491	8328.68
908.804	8276.25
909.117	8137.5
909.43	8168.91
909.743	8102.7
910.056	8084.17
910.368	8031.51
910.681	7999.42
910.994	7963.49
911.307	7896.83
911.619	7890.95
911.932	7954.45
912.244	7821.12
912.557	7844.85
912.869	7781.8
913.181	7715.59
913.494	7689.15
913.806	7646.66
914.118	7678.98
914.43	7600.79
914.742	7547.23
915.054	7530.06
915.366	7523.28
915.678	7506.1
915.99	7428.82
916.302	7404.18
916.613	7390.4
916.925	7373.22
917.236	7313.11
917.548	7246.9
917.859	7286.45
918.171	7227.69
918.482	7237.18
918.794	7158.99
919.105	7161.93
919.416	7069.5
919.727	7080.35
920.038	7143.85
920.349	7037.19
920.66	6975.04
920.971	6967.36
921.282	6942.28
921.593	6913.12
921.903	6861.83
922.214	6816.63
922.525	6792
922.835	6824.54
923.146	6783.64
923.456	6731.43
923.767	6707.03
924.077	6720.81
924.387	6667.48
924.697	6598.1
925.008	6611.66
925.318	6589.29
925.628	6568.27
925.938	6549.97
926.248	6466.13
926.558	6517.65
926.867	6431.33
927.177	6343.42
927.487	6387.94
927.796	6295.51
928.106	6305.68
928.416	6236.98
928.725	6296.87
929.034	6209.41
929.344	6232.46
929.653	6214.61
929.962	6165.12
930.271	6129.87
930.581	6069.76
930.89	6052.13
931.199	6005.8
931.508	6095.97
931.817	6037.89
932.125	5986.14
932.434	5969.42
932.743	5944.79
933.051	5874.73
933.36	5823.43
933.669	5842.19
933.977	5852.13
934.286	5757
934.594	5729.65
934.902	5683.55
935.21	5659.37
935.519	5692.36
935.827	5672.03
936.135	5642.65
936.443	5573.5
936.751	5581.63
937.059	5574.85
937.367	5552.03
937.674	5531.46
937.982	5510.45
938.29	5461.86
938.597	5462.09
938.905	5419.6
939.213	5418.02
939.52	5414.86
939.827	5383.9
940.135	5386.38
940.442	5340.28
940.749	5319.49
941.056	5355.2
941.363	5232.26
941.67	5282.43
941.977	5216.44
942.284	5166.05
942.591	5143
942.898	5139.16
943.205	5143.23
943.511	5085.37
943.818	5105.71
944.125	4988.88
944.431	5002.21
944.738	5008.77
945.044	5000.63
945.35	4948.2
945.657	4933.51
945.963	4950.69
946.269	4891.26
946.575	4877.47
946.881	4891.93
947.187	4827.3
947.493	4852.39
947.799	4809.22
948.105	4745.5
948.41	4740.07
948.716	4759.06
949.022	4711.83
949.327	4711.37
949.633	4620.75
949.938	4608.33
950.244	4669.79
950.549	4607.2
950.854	4604.26
951.16	4584.15
951.465	4529.68
951.77	4524.03
952.075	4481.32
952.38	4502.57
952.685	4536.46
952.99	4434.54
953.294	4409.69
953.599	4403.81
953.904	4395
954.209	4352.96
954.513	4354.09
954.818	4390.25
955.122	4325.39
955.426	4292.18
955.731	4304.15
956.035	4252.63
956.339	4232.06
956.643	4235.23
956.948	4193.19
957.252	4207.66
957.556	4164.27
957.86	4164.5
958.163	4143.7
958.467	4108
958.771	4105.74
959.075	4028.68
959.378	4024.84
959.682	4051.05
959.985	4026.19
960.289	4025.74
960.592	4016.25
960.896	3980.09
961.199	3940.09
961.502	3933.99
961.805	3951.85
962.108	3912.07
962.411	3891.96
962.714	3868.23
963.017	3858.74
963.32	3838.63
963.623	3817.84
963.926	3795.01
964.228	3797.27
964.531	3769.03
964.833	3776.26
965.136	3728.35
965.438	3730.38
965.741	3695.35
966.043	3682.47
966.345	3704.17
966.648	3666.88
966.95	3658.97
967.252	3625.07
967.554	3616.94
967.856	3609.03
968.158	3591.63
968.46	3585.98
968.761	3509.82
969.063	3505.76
969.365	3495.36
969.666	3517.05
969.968	3475.93
970.269	3440.45
970.571	3453.78
970.872	3465.76
971.174	3435.25
971.475	3386.66
971.776	3423.27
972.077	3365.87
972.378	3377.4
972.679	3353.67
972.98	3357.51
973.281	3359.32
973.582	3342.6
973.883	3312.31
974.183	3280.9
974.484	3274.12
974.785	3273.45
975.085	3262.37
975.386	3229.38
975.686	3230.96
975.986	3211.3
976.287	3196.61
976.587	3143.73
976.887	3114.58
977.187	3193.45
977.487	3110.51
977.787	3125.43
978.087	3111.42
978.387	3073.22
978.687	3083.39
978.987	3058.54
979.286	3029.38
979.586	3006.11
979.885	3020.34
980.185	2993
980.484	2959.78
980.784	2966.79
981.083	2933.34
981.382	2944.87
981.682	2934.02
981.981	2914.58
982.28	2926.79
982.579	2862.61
982.878	2884.98
983.177	2880.24
983.475	2870.29
983.774	2886.11
984.073	2824.87
984.372	2821.03
984.67	2827.13
984.969	2802.27
985.267	2851.31
985.566	2778.99
985.864	2744.65
986.162	2774.93
986.461	2722.73
986.759	2706.91
987.057	2693.8
987.355	2688.83
987.653	2711.65
987.951	2685.89
988.249	2674.82
988.547	2668.94
988.844	2643.86
989.142	2629.85
989.44	2633.24
989.737	2617.64
990.035	2597.76
990.332	2560.47
990.63	2562.28
990.927	2581.94
991.224	2575.84
991.521	2504.65
991.819	2503.75
992.116	2529.28
992.413	2513.01
992.71	2459.46
993.006	2465.1
993.303	2476.86
993.6	2447.03
993.897	2418.33
994.193	2408.16
994.49	2424.88
994.787	2394.82
995.083	2396.41
995.379	2402.96
995.676	2332.23
995.972	2342.4
996.268	2301.27
996.565	2353.7
996.861	2305.79
997.157	2311.89
997.453	2280.02
997.749	2292.68
998.044	2269.86
998.34	2270.08
998.636	2251.55
998.932	2234.6
999.227	2229.4
999.523	2236.64
999.818	2204.09
1000.114	2182.63
1000.409	2212.46
1000.704	2188.28
1001	2165.68
1001.295	2123.64
1001.59	2096.07
1001.885	2104.44
1002.18	2095.4
1002.475	2074.15
1002.77	2121.38
1003.065	2078.67
1003.359	2074.38
1003.654	2046.13
1003.949	2054.49
1004.243	2032.35
1004.538	1989.41
1004.832	1998.45
1005.127	1984.44
1005.421	2009.75
1005.715	1959.58
1006.009	1962.29
1006.304	1951.67
1006.598	1952.58
1006.892	1937.66
1007.186	1893.59
1007.48	1909.19
1007.773	1910.09
1008.067	1883.2
1008.361	1867.15
1008.655	1824.22
1008.948	1878.45
1009.242	1829.64
1009.535	1846.14
1009.829	1845.01
1010.122	1831.9
1010.415	1785.35
1010.708	1783.77
1011.001	1763.65
1011.295	1751.23
1011.588	1776.99
1011.881	1750.32
1012.173	1746.71
1012.466	1752.13
1012.759	1741.51
1013.052	1719.81
1013.344	1720.72
1013.637	1722.53
1013.93	1706.48
1014.222	1701.96
1014.514	1682.53
1014.807	1685.69
1015.099	1643.21
1015.391	1627.61
1015.683	1605.69
1015.976	1633.49
1016.268	1622.87
1016.56	1596.65
1016.851	1614.51
1017.143	1609.08
1017.435	1595.75
1017.727	1579.25
1018.018	1550.55
1018.31	1528.18
1018.602	1520.27
1018.893	1525.24
1019.185	1530.44
1019.476	1530.44
1019.767	1510.1
1020.058	1520.72
1020.35	1450.89
1020.641	1473.04
1020.932	1469.88
1021.223	1448.86
1021.514	1410.44
1021.804	1442.31
1022.095	1418.58
1022.386	1420.16
1022.677	1398.92
1022.967	1392.36
1023.258	1386.04
1023.548	1380.84
1023.839	1358.47
1024.129	1374.29
1024.419	1339.71
1024.709	1335.64
1025	1327.96
1025.29	1329.09
1025.58	1334.06
1025.87	1289.54
1026.16	1301.29
1026.449	1290.9
1026.739	1307.4
1027.029	1273.05
1027.319	1242.54
1027.608	1234.4
1027.898	1223.56
1028.187	1214.29
1028.477	1242.76
1028.766	1209.54
1029.055	1198.02
1029.344	1213.84
1029.634	1213.61
1029.923	1187.62
1030.212	1179.49
1030.501	1195.76
1030.79	1163.22
1031.078	1134.07
1031.367	1134.07
1031.656	1134.52
1031.945	1133.61
1032.233	1132.94
1032.522	1107.4
1032.81	1125.48
1033.099	1088.42
1033.387	1100.62
1033.675	1110.34
1033.963	1078.47
1034.251	1078.47
1034.54	1063.11
1034.828	1059.49
1035.116	1103.56
1035.403	1036.22
1035.691	1051.13
1035.979	1047.97
1036.267	1010.45
1036.554	1057.91
1036.842	1003
1037.129	995.09
1037.417	1001.64
1037.704	1013.84
1037.992	1025.14
1038.279	1006.84
1038.566	982.66
1038.853	982.66
1039.14	982.66
