Data from hue_00_FLMS001491_26.txt Node
Date: Mon Feb 06 15:29:29 GMT 2017
User: dcchb
Spectrometer: FLMS00149
Trigger mode: 0
Integration Time (sec): 2.000000E-2
Scans to average: 10
Electric dark correction enabled: true
Nonlinearity correction enabled: false
Boxcar width: 0
XAxis mode: Wavelengths
Number of Pixels in Spectrum: 2048
>>>>>Begin Spectral Data<<<<<
341.393	4.59
341.776	4.59
342.16	4.59
342.543	-55.97
342.927	-59.59
343.31	-75.63
343.693	-61.4
344.077	-44.22
344.46	-66.59
344.843	-49.87
345.226	-48.52
345.61	-25.24
345.993	-22.3
346.376	12.27
346.759	8.66
347.142	17.7
347.525	57.02
347.908	45.49
348.291	81.42
348.674	72.16
349.057	99.05
349.44	116
349.823	132.27
350.206	164.81
350.588	186.96
350.971	227.64
351.354	223.79
351.737	224.7
352.119	245.26
352.502	242.55
352.884	261.08
353.267	275.77
353.65	296.56
354.032	308.31
354.414	303.57
354.797	310.12
355.179	302.66
355.562	324.58
355.944	323
356.326	340.85
356.709	325.26
357.091	342.21
357.473	324.13
357.855	325.03
358.238	330.23
358.62	356.67
359.002	321.19
359.384	328.42
359.766	338.59
360.148	328.65
360.53	340.17
360.912	327.29
361.294	325.03
361.676	325.94
362.057	311.47
362.439	337.69
362.821	324.13
363.203	337.91
363.584	323.68
363.966	326.39
364.348	333.62
364.729	328.2
365.111	309.67
365.493	318.71
365.874	330.68
366.256	320.06
366.637	314.64
367.019	319.38
367.4	298.37
367.781	307.63
368.163	324.81
368.544	307.41
368.925	294.53
369.306	343.79
369.688	313.51
370.069	301.98
370.45	299.5
370.831	300.85
371.212	321.64
371.593	295.66
371.974	319.84
372.355	302.21
372.736	290.68
373.117	319.84
373.498	312.15
373.879	314.41
374.26	300.63
374.641	318.03
375.021	317.12
375.402	299.95
375.783	321.64
376.163	330.46
376.544	340.63
376.925	329.78
377.305	314.41
377.686	308.09
378.066	333.17
378.447	330.46
378.827	319.38
379.208	323.45
379.588	341.3
379.968	337.24
380.349	332.04
380.729	325.71
381.109	329.33
381.489	349.67
381.87	337.01
382.25	346.73
382.63	340.4
383.01	357.8
383.39	331.14
383.77	342.21
384.15	331.59
384.53	336.33
384.91	333.4
385.29	359.16
385.67	350.34
386.049	349.67
386.429	363.45
386.809	353.51
387.189	351.93
387.568	332.27
387.948	383.56
388.328	352.6
388.707	365.03
389.087	358.03
389.466	347.18
389.846	353.28
390.225	369.1
390.605	370.68
390.984	364.81
391.363	355.09
391.743	368.42
392.122	364.13
392.501	359.61
392.881	369.78
393.26	370.68
393.639	386.28
394.018	368.2
394.397	356.9
394.776	365.26
395.155	367.29
395.534	371.36
395.913	396.22
396.292	380.17
396.671	340.4
397.05	350.8
397.429	372.94
397.808	387.18
398.186	370.91
398.565	382.43
398.944	397.57
399.323	364.35
399.701	404.81
400.08	370.46
400.458	392.38
400.837	417.01
401.215	397.57
401.594	394.64
401.972	390.34
402.351	396.44
402.729	388.31
403.107	397.8
403.486	404.35
403.864	419.27
404.242	422.21
404.62	407.29
404.999	417.69
405.377	395.99
405.755	416.1
406.133	419.04
406.511	412.72
406.889	418.36
407.267	419.72
407.645	414.52
408.023	429.44
408.401	418.82
408.779	404.35
409.156	413.39
409.534	435.54
409.912	435.54
410.29	461.75
410.667	461.08
411.045	466.73
411.422	457.91
411.8	419.95
412.178	443.45
412.555	446.84
412.933	466.95
413.31	460.17
413.687	453.62
414.065	462.88
414.442	482.54
414.819	478.48
415.197	490.23
415.574	494.07
415.951	484.35
416.328	502.2
416.705	512.37
417.082	505.82
417.46	508.53
417.837	502.43
418.214	509.66
418.591	499.27
418.967	511.24
419.344	517.8
419.721	513.96
420.098	497.01
420.475	518.48
420.852	512.6
421.228	536.78
421.605	516.44
421.982	528.64
422.358	538.14
422.735	501.3
423.111	547.17
423.488	549.66
423.864	570.9
424.241	553.95
424.617	549.66
424.994	569.1
425.37	564.12
425.746	551.69
426.123	556.21
426.499	546.95
426.875	561.86
427.251	572.26
427.627	570.23
428.003	581.3
428.379	586.27
428.756	615.2
429.132	612.71
429.507	590.11
429.883	603.44
430.259	618.81
430.635	623.56
431.011	631.92
431.387	618.59
431.763	645.48
432.138	626.72
432.514	649.77
432.89	671.92
433.265	657
433.641	665.82
434.016	662.65
434.392	690.22
434.767	694.52
435.143	694.74
435.518	692.48
435.894	716.44
436.269	691.35
436.644	697.23
437.02	696.1
437.395	706.49
437.77	695.19
438.145	713.05
438.52	739.03
438.895	714.4
439.271	744.23
439.646	742.65
440.021	764.34
440.395	748.98
440.77	758.69
441.145	762.08
441.52	764.12
441.895	765.7
442.27	775.19
442.645	771.12
443.019	789.65
443.394	773.16
443.769	799.37
444.143	786.94
444.518	804.12
444.892	791.01
445.267	804.8
445.641	809.54
446.016	805.93
446.39	804.12
446.764	824.23
447.139	810.44
447.513	805.7
447.887	819.71
448.262	843.44
448.636	828.98
449.01	838.47
449.384	874.85
449.758	845.7
450.132	858.35
450.506	856.32
450.88	855.19
451.254	864
451.628	885.92
452.002	871.46
452.376	881.18
452.75	861.06
453.123	899.03
453.497	902.19
453.871	919.14
454.244	918.69
454.618	935.64
454.992	945.58
455.365	923.21
455.739	969.08
456.112	959.82
456.486	974.28
456.859	989.88
457.232	986.26
457.606	988.07
457.979	992.36
458.352	999.14
458.725	1018.12
459.099	1032.13
459.472	1048.18
459.845	1026.94
460.218	1063.32
460.591	1075.97
460.964	1101.74
461.337	1095.41
461.71	1106.48
462.083	1118.69
462.456	1134.05
462.829	1120.27
463.201	1134.05
463.574	1156.42
463.947	1159.59
464.32	1169.76
464.692	1185.8
465.065	1184.9
465.438	1192.36
465.81	1242.07
466.183	1248.4
466.555	1243.43
466.928	1263.77
467.3	1246.82
467.672	1281.84
468.045	1315.74
468.417	1291.11
468.789	1322.52
469.161	1360.03
469.534	1374.27
469.906	1393.48
470.278	1396.64
470.65	1422.86
471.022	1450.88
471.394	1461.05
471.766	1450.43
472.138	1480.48
472.51	1522.06
472.882	1534.27
473.253	1549.63
473.625	1557.77
473.997	1620.82
474.369	1608.62
474.74	1614.27
475.112	1659.46
475.484	1663.3
475.855	1707.82
476.227	1720.93
476.598	1756.18
476.97	1786.46
477.341	1832.11
477.713	1844.77
478.084	1866.01
478.455	1927.03
478.827	1951.21
479.198	1991.66
479.569	2018.55
479.94	2050.86
480.311	2065.1
480.682	2129.05
481.053	2174.02
481.424	2195.04
481.795	2214.93
482.166	2251.76
482.537	2279.33
482.908	2324.76
483.279	2337.18
483.65	2396.62
484.021	2456.73
484.391	2469.84
484.762	2524.75
485.133	2547.57
485.503	2558.42
485.874	2636.61
486.244	2668.25
486.615	2724.29
486.985	2763.84
487.356	2809.26
487.726	2789.6
488.097	2890.39
488.467	2894.91
488.837	2976.72
489.207	2999.77
489.578	3046.32
489.948	3070.5
490.318	3145.52
490.688	3094.68
491.058	3189.37
491.428	3188.01
491.798	3271.85
492.168	3321.79
492.538	3353.65
492.908	3356.82
493.278	3424.39
493.648	3450.6
494.017	3502.8
494.387	3523.82
494.757	3548.68
495.126	3575.57
495.496	3602.01
495.866	3651.95
496.235	3681.56
496.605	3717.94
496.974	3757.94
497.344	3745.28
497.713	3779.63
498.082	3813.3
498.452	3870.25
498.821	3885.84
499.19	3913.41
499.559	3909.35
499.928	3926.52
500.298	3978.5
500.667	4015.78
501.036	3977.14
501.405	4092.39
501.774	4041.55
502.143	4112.28
502.512	4128.55
502.88	4159.28
503.249	4124.93
503.618	4181.43
503.987	4206.97
504.356	4235.44
504.724	4248.55
505.093	4255.33
505.462	4264.14
505.83	4291.03
506.199	4286.51
506.567	4356.11
506.936	4377.13
507.304	4402.21
507.672	4437.92
508.041	4495.55
508.409	4446.73
508.777	4518.82
509.145	4562.89
509.514	4530.35
509.882	4566.05
510.25	4571.48
510.618	4635.65
510.986	4615.09
511.354	4647.86
511.722	4689.89
512.09	4709.55
512.458	4720.4
512.826	4713.62
513.193	4733.73
513.561	4747.52
513.929	4767.18
514.297	4816.44
514.664	4820.28
515.032	4859.15
515.4	4885.14
515.767	4928.98
516.135	4905.93
516.502	4889.43
516.869	4953.39
517.237	4998.58
517.604	4959.26
517.972	4919.26
518.339	5051.46
518.706	5049.2
519.073	5033.16
519.44	5054.18
519.808	5077.68
520.175	5073.61
520.542	5132.59
520.909	5176.88
521.276	5164.23
521.643	5197
522.009	5252.36
522.376	5282.87
522.743	5239.93
523.11	5311.12
523.477	5362.87
523.843	5340.95
524.21	5383.43
524.577	5427.27
524.943	5475.86
525.31	5448.74
525.676	5578.23
526.043	5547.95
526.409	5550.43
526.776	5601.51
527.142	5620.04
527.508	5673.82
527.874	5679.24
528.241	5721.05
528.607	5724.21
528.973	5790.2
529.339	5766.25
529.705	5791.1
530.071	5867.71
530.437	5842.63
530.803	5916.07
531.169	5964.89
531.535	5941.38
531.901	5971.89
532.267	6003.3
532.632	5976.41
532.998	6029.29
533.364	6088.5
533.73	6071.1
534.095	6127.82
534.461	6153.81
534.826	6191.09
535.192	6190.19
535.557	6284.43
535.923	6287.14
536.288	6291.43
536.653	6315.84
537.019	6302.28
537.384	6377.98
537.749	6376.17
538.114	6357.87
538.479	6434.48
538.845	6495.72
539.21	6443.97
539.575	6465.89
539.94	6504.76
540.305	6542.05
540.67	6522.84
541.034	6571.42
541.399	6607.35
541.764	6654.81
542.129	6622.04
542.494	6676.51
542.858	6733
543.223	6739.1
543.587	6769.38
543.952	6735.26
544.316	6878.76
544.681	6828.82
545.045	6953.56
545.41	6928.7
545.774	6924.63
546.138	6955.14
546.503	6966.89
546.867	6958.53
547.231	7048.47
547.595	7016.38
547.959	7089.38
548.324	7091.64
548.688	7148.58
549.052	7103.16
549.416	7123.95
549.779	7219.09
550.143	7177.96
550.507	7223.61
550.871	7274.68
551.235	7280.56
551.599	7373.44
551.962	7356.49
552.326	7412.53
552.689	7415.02
553.053	7431.06
553.417	7413.66
553.78	7484.85
554.143	7467.44
554.507	7505.41
554.87	7589.7
555.234	7641
555.597	7598.97
555.96	7589.48
556.323	7644.16
556.686	7650.94
557.05	7708.79
557.413	7783.82
557.776	7807.1
558.139	7797.83
558.502	7837.15
558.865	7807.55
559.228	7853.65
559.59	7947.88
559.953	7895.23
560.316	7968.9
560.679	7914.66
561.041	7943.59
561.404	8050.48
561.767	8077.15
562.129	8078.05
562.492	8151.95
562.854	8165.51
563.217	8055.68
563.579	8193.08
563.941	8228.55
564.304	8301.1
564.666	8348.55
565.028	8311.04
565.39	8335.9
565.753	8421.54
566.115	8417.25
566.477	8455.67
566.839	8456.57
567.201	8387.65
567.563	8543.8
567.925	8552.84
568.287	8552.84
568.648	8634.87
569.01	8689.79
569.372	8727.07
569.734	8665.15
570.095	8779.05
570.457	8807.52
570.819	8881.19
571.18	8812.49
571.542	8894.98
571.903	8878.48
572.265	8974.52
572.626	8967.74
572.987	9069.21
573.349	9114.18
573.71	9165.48
574.071	9163.9
574.432	9258.81
574.794	9361.18
575.155	9365.25
575.516	9361.86
575.877	9528.18
576.238	9561.4
576.599	9554.17
576.96	9669.65
577.32	9740.38
577.681	9773.6
578.042	9866.48
578.403	9995.51
578.763	10019.02
579.124	10136.53
579.485	10302.62
579.845	10342.17
580.206	10487.48
580.566	10615.61
580.927	10707.81
581.287	10803.63
581.648	10844.53
582.008	10963.85
582.368	11122.72
582.728	11275.03
583.089	11358.42
583.449	11508.69
583.809	11628.69
584.169	11870.72
584.529	11977.16
584.889	12277.49
585.249	12294.66
585.609	12523.58
585.969	12794.76
586.329	12942.56
586.688	13124.02
587.048	13306.39
587.408	13463.67
587.768	13764.45
588.127	13936.43
588.487	14157.89
588.846	14453.25
589.206	14632
589.565	14768.5
589.925	15187.47
590.284	15363.06
590.643	15674.69
591.003	15908.58
591.362	16152.64
591.721	16429.02
592.08	16683.93
592.44	16983.58
592.799	17207.75
593.158	17478.71
593.517	17834.86
593.876	18151.91
594.235	18353.03
594.593	18597.55
594.952	18921.38
595.311	19254.48
595.67	19562.72
596.029	19927.91
596.387	20220.78
596.746	20487.44
597.104	20680.43
597.463	20966.98
597.822	21347.76
598.18	21572.84
598.538	21835.2
598.897	22324
599.255	22289.43
599.613	23090.76
599.972	23012.8
600.33	23398.33
600.688	23480.81
601.046	23919.89
601.404	24232.65
601.762	24532.53
602.12	24861.79
602.478	25067.89
602.836	25388.78
603.194	25625.61
603.552	25843.01
603.91	26118.03
604.268	26394.63
604.625	26623.78
604.983	26985.8
605.341	27039.13
605.698	27543.3
606.056	27761.15
606.413	27960.24
606.771	28280.68
607.128	28488.36
607.485	28591.64
607.843	28784.17
608.2	29229.13
608.557	29431.39
608.914	29577.82
609.272	29818.27
609.629	30123.8
609.986	30447.86
610.343	30526.95
610.7	30898.24
611.057	30978.92
611.414	31240.15
611.771	31304.11
612.127	31596.08
612.484	31837.43
612.841	32187.02
613.198	32013.01
613.554	32239.22
613.911	32626.11
614.267	32764.63
614.624	32918.53
614.98	33172.31
615.337	33454.78
615.693	33476.93
616.05	33671.73
616.406	33980.87
616.762	33871.04
617.118	34162.79
617.475	34309
617.831	34404.82
618.187	34617.24
618.543	34829.89
618.899	35072.82
619.255	35019.94
619.611	35152.37
619.967	35417.44
620.323	35498.8
620.678	35582.41
621.034	35539.02
621.39	35724.1
621.746	35830.99
622.101	36199.57
622.457	35957.32
622.812	36252.22
623.168	36281.83
623.523	36497.19
623.879	36543.97
624.234	36524.53
624.589	36762.72
624.945	36621.48
625.3	36888.37
625.655	36953
626.01	36966.78
626.365	37244.29
626.72	37107.12
627.075	37185.76
627.43	37304.85
627.785	37151.18
628.14	37449.03
628.495	37500.1
628.85	37449.71
629.205	37522.7
629.559	37753.43
629.914	37528.12
630.269	37633.66
630.623	37362.93
630.978	37615.58
631.332	37875.23
631.687	37805.18
632.041	37708.68
632.396	37952.97
632.75	37748.23
633.104	37780.09
633.459	37655.35
633.813	37680.21
634.167	37816.48
634.521	37781.9
634.875	37869.81
635.229	37790.04
635.583	37770.38
635.937	37868
636.291	37780.09
636.645	37850.83
636.999	37852.86
637.352	37874.33
637.706	37763.6
638.06	37952.07
638.413	37859.19
638.767	37776.7
639.121	37832.3
639.474	37611.29
639.828	37718.17
640.181	37846.53
640.534	37715.01
640.888	37722.69
641.241	37621.68
641.594	37698.06
641.947	37693.99
642.301	37718.17
642.654	37644.73
643.007	37785.29
643.36	37777.61
643.713	37656.71
644.066	37823.93
644.419	37489.93
644.771	37308.92
645.124	37032.32
645.477	36952.09
645.83	36776.96
646.182	36711.42
646.535	36497.87
646.888	36745.55
647.24	36447.47
647.593	36638.2
647.945	36624.19
648.298	36508.49
648.65	36413.8
649.002	36353.01
649.355	36380.13
649.707	36426.68
650.059	36596.17
650.411	37052.88
650.763	36987.8
651.115	37345.53
651.467	37240.67
651.819	37323.38
652.171	37244.74
652.523	37175.59
652.875	37290.84
653.227	37140.56
653.578	37201.13
653.93	37129.26
654.282	37160
654.633	36861.93
654.985	37051.07
655.337	37014.24
655.688	36974.47
656.039	37201.58
656.391	36815.83
656.742	37001.81
657.094	36811.98
657.445	37148.92
657.796	36994.13
658.147	36918.42
658.498	36875.94
658.849	36935.37
659.2	36830.29
659.551	36865.54
659.902	37089.04
660.253	36976.95
660.604	36955.71
660.955	36860.57
661.306	36973.11
661.656	36786
662.007	36849.95
662.358	36903.06
662.708	36827.8
663.059	36820.8
663.409	36682.72
663.76	36839.1
664.11	36893.79
664.461	36957.74
664.811	36713
665.161	36972.88
665.511	36744.19
665.862	36924.75
666.212	36888.82
666.562	36990.51
666.912	36832.32
667.262	36686.34
667.612	36684.98
667.962	36790.52
668.312	36791.87
668.662	36867.8
669.011	36862.38
669.361	36672.55
669.711	36669.84
670.06	36626.23
670.41	36662.16
670.76	36679.78
671.109	36726.79
671.459	36651.08
671.808	36704.64
672.157	36745.77
672.507	36381.71
672.856	36524.08
673.205	36604.76
673.554	36765.66
673.904	36560.69
674.253	36633.91
674.602	36511.65
674.951	36042.29
675.3	35900.37
675.649	36407.7
675.998	36245.9
676.346	36418.55
676.695	36493.35
677.044	36192.79
677.393	36423.29
677.741	36432.56
678.09	36258.33
678.438	36170.19
678.787	36207.93
679.135	36220.59
679.484	35984.44
679.832	36228.95
680.181	35932.01
680.529	36060.14
680.877	35997.54
681.225	35926.81
681.573	36206.35
681.922	35891.1
682.27	35799.58
682.618	35797.32
682.966	35786.93
683.314	35706.93
683.661	35715.74
684.009	35570.21
684.357	35365.92
684.705	35439.59
685.053	35364.56
685.4	35480.27
685.748	35329.99
686.095	35249.54
686.443	35114.4
686.79	35081.63
687.138	35205.7
687.485	35231.23
687.832	34986.72
688.18	35003.44
688.527	34850.91
688.874	34909.89
689.221	34686.16
689.568	34587.18
689.915	34660.85
690.262	34651.59
690.609	34503.57
690.956	34387.19
691.303	34330.92
691.65	34161.88
691.997	34191.26
692.344	33929.35
692.69	33910.82
693.037	34014.77
693.383	33644.84
693.73	33825.17
694.077	33582.46
694.423	33549.02
694.769	33428.57
695.116	33508.79
695.462	33333.66
695.808	33259.31
696.155	33253.43
696.501	33005.98
696.847	33027.22
697.193	32804.63
697.539	33035.81
697.885	32735.48
698.231	32681.92
698.577	32727.35
698.923	32643.73
699.269	32488.93
699.614	32367.58
699.96	32343.63
700.306	32264.98
700.651	32119
700.997	32015.95
701.342	32049.85
701.688	31959.46
702.033	31884.66
702.379	31917.88
702.724	31621.61
703.069	31793.58
703.415	31561.73
703.76	31492.35
704.105	31455.29
704.45	31408.96
704.795	31193.15
705.14	31128.07
705.485	31107.95
705.83	30892.82
706.175	31031.57
706.52	30916.09
706.865	30791.8
707.209	30808.53
707.554	30768.3
707.899	30788.87
708.243	30544.58
708.588	30484.92
708.932	30412.6
709.277	30235.43
709.621	30246.51
709.966	30143.68
710.31	30151.59
710.654	29854.65
710.998	29980.98
711.342	29910.02
711.687	29840.64
712.031	29721.1
712.375	29712.06
712.719	29658.27
713.063	29663.7
713.407	29615.11
713.75	29502.12
714.094	29493.53
714.438	29399.52
714.782	29343.48
715.125	29228.91
715.469	29276.59
715.812	29044.96
716.156	29039.53
716.499	29024.84
716.843	29112.75
717.186	28838.18
717.53	29007.9
717.873	28944.85
718.216	28866.88
718.559	28713.67
718.902	28576.49
719.246	28578.08
719.589	28605.65
719.932	28428.93
720.275	28516.83
720.617	28386.89
720.96	28384.86
721.303	28407.01
721.646	28370.4
721.989	28199.33
722.331	28353.9
722.674	28226.22
723.016	28226
723.359	28182.83
723.701	28152.78
724.044	27956.17
724.386	27910.07
724.729	28023.29
725.071	27760.24
725.413	27884.08
725.755	27777.42
726.097	27724.31
726.439	27554.83
726.782	27652.9
727.124	27684.09
727.465	27600.25
727.807	27566.35
728.149	27496.52
728.491	27386.47
728.833	27414.27
729.175	27334.49
729.516	27297.43
729.858	27284.32
730.199	27299.92
730.541	27234.38
730.882	27140.15
731.224	27151.45
731.565	27023.31
731.906	27066.03
732.248	26993.26
732.589	26899.7
732.93	26813.38
733.271	26920.72
733.612	26735.19
733.953	26785.36
734.294	26766.37
734.635	26656.77
734.976	26713.04
735.317	26564.34
735.658	26621.97
735.999	26630.56
736.339	26626.72
736.68	26671.91
737.021	26478.24
737.361	26442.77
737.702	26540.39
738.042	26299.49
738.383	26345.82
738.723	26442.31
739.063	26161.42
739.404	26223.34
739.744	26188.53
740.084	26057.24
740.424	26112.15
740.764	26002.55
741.104	26228.31
741.444	25989.67
741.784	25855.66
742.124	25927.98
742.464	25770.47
742.804	25771.82
743.143	25710.81
743.483	25792.84
743.823	25596.46
744.162	25706.06
744.502	25805.72
744.841	25569.34
745.181	25663.35
745.52	25489.57
745.86	25521.66
746.199	25519.63
746.538	25415
746.877	25507.87
747.216	25438.5
747.556	25303.81
747.895	25370.93
748.234	25312.4
748.573	25290.25
748.911	25223.14
749.25	25208.67
749.589	25085.51
749.928	25093.42
750.267	25158.28
750.605	25053.88
750.944	25024.95
751.283	24937.95
751.621	24872.64
751.96	24796.71
752.298	24814.56
752.636	24914.67
752.975	24668.8
753.313	24587.9
753.651	24739.53
753.989	24485.98
754.327	24453.66
754.666	24412.54
755.004	24309.26
755.342	24462.03
755.679	24406.89
756.017	24142.49
756.355	24330.96
756.693	24111.53
757.031	24222.03
757.368	23980.68
757.706	23915.37
758.044	23937.29
758.381	23903.17
758.719	23820.91
759.056	23960.34
759.394	23702.72
759.731	23639
760.068	23582.05
760.405	23546.34
760.743	23489.62
761.08	23573.24
761.417	23419.12
761.754	23389.51
762.091	23344.09
762.428	23195.62
762.765	23108.62
763.102	23187.71
763.438	22999.01
763.775	22834.05
764.112	22991.1
764.449	22860.71
764.785	22793.37
765.122	22661.4
765.458	22609.87
765.795	22548.18
766.131	22544.79
766.467	22421.85
766.804	22374.62
767.14	22262.08
767.476	22262.76
767.812	22186.83
768.148	22218.24
768.485	22016.21
768.821	21999.04
769.157	21968.31
769.492	21810.34
769.828	21863.45
770.164	21565.15
770.5	21596.56
770.836	21593.4
771.171	21351.83
771.507	21391.82
771.842	21253.98
772.178	21164.49
772.513	21115.45
772.849	21097.59
773.184	21063.92
773.519	21015.79
773.855	20923.59
774.19	20774.89
774.525	20689.24
774.86	20739.64
775.195	20676.14
775.53	20538.97
775.865	20496.71
776.2	20279.76
776.535	20140.78
776.87	20188.01
777.205	20155.7
777.539	20041.8
777.874	20020.56
778.209	19854.46
778.543	19798.65
778.878	19682.04
779.212	19734.47
779.547	19622.61
779.881	19598.65
780.215	19537.41
780.55	19530.4
780.884	19393.91
781.218	19327.25
781.552	19339.22
781.886	19153.01
782.22	19138.32
782.554	19037.31
782.888	18857.88
783.222	18740.82
783.556	18857.2
783.889	18715.74
784.223	18602.29
784.557	18611.56
784.89	18499.25
785.224	18510.77
785.557	18369.31
785.891	18337.44
786.224	18241.62
786.558	18309.19
786.891	18126.6
787.224	17972.03
787.557	18030.56
787.891	17990.78
788.224	18014.29
788.557	17937
788.89	17830.34
789.223	17772.48
789.556	17626.05
789.888	17604.35
790.221	17505.83
790.554	17493.4
790.887	17356.45
791.219	17337.92
791.552	17369.11
791.884	17178.38
792.217	17167.3
792.549	17131.82
792.882	17024.93
793.214	16906.07
793.546	16961.88
793.879	16814.32
794.211	16780.65
794.543	16800.53
794.875	16690.25
795.207	16764.83
795.539	16583.14
795.871	16531.39
796.203	16506.98
796.535	16390.37
796.867	16312.64
797.198	16215.92
797.53	16330.26
797.862	16139.31
798.193	16160.1
798.525	16040.78
798.856	16073.09
799.188	15957.84
799.519	15873.55
799.85	15763.5
800.182	15939.99
800.513	15929.82
800.844	15724.63
801.175	15858.41
801.506	15758.3
801.837	15671.75
802.168	15508.82
802.499	15477.4
802.83	15391.08
803.161	15493.45
803.491	15370.51
803.822	15474.01
804.153	15330.51
804.483	15123.06
804.814	15145.21
805.145	15103.4
805.475	15112.44
805.805	14960.58
806.136	15026.12
806.466	15005.33
806.796	15072.89
807.126	14880.36
807.457	14856.63
807.787	14843.97
808.117	14699.12
808.447	14709.29
808.777	14787.48
809.107	14687.37
809.436	14670.87
809.766	14606.69
810.096	14562.17
810.426	14441.95
810.755	14465.68
811.085	14523.98
811.414	14442.63
811.744	14395.17
812.073	14262.29
812.403	14246.48
812.732	14273.14
813.061	14240.6
813.39	14126.48
813.719	14090.32
814.049	14085.12
814.378	13984.79
814.707	13956.54
815.036	13983.43
815.365	13904.56
815.693	13750.44
816.022	13785.24
816.351	13805.58
816.68	13707.51
817.008	13777.11
817.337	13642.88
817.665	13665.25
817.994	13639.26
818.322	13611.46
818.651	13571.69
818.979	13502.31
819.307	13618.47
819.636	13457.12
819.964	13381.19
820.292	13423.67
820.62	13391.36
820.948	13404.01
821.276	13379.83
821.604	13323.11
821.932	13424.58
822.259	13440.4
822.587	13345.26
822.915	13331.92
823.243	13389.1
823.57	13324.69
823.898	13387.52
824.225	13313.84
824.553	13265.94
824.88	13305.03
825.207	13383
825.535	13271.13
825.862	13350.91
826.189	13285.37
826.516	13348.87
826.843	13319.49
827.17	13337.35
827.497	13342.77
827.824	13347.06
828.151	13294.64
828.478	13246.95
828.805	13374.86
829.131	13295.54
829.458	13257.35
829.785	13189.55
830.111	13315.65
830.438	13252.6
830.764	13315.88
831.09	13239.27
831.417	13174.87
831.743	13275.88
832.069	13277.46
832.395	13180.52
832.722	13264.35
833.048	13145.49
833.374	13250.12
833.7	13136.67
834.026	13192.94
834.351	13135.77
834.677	13121.08
835.003	13126.73
835.329	13160.85
835.654	13135.32
835.98	13048.77
836.306	12956.34
836.631	13008.77
836.956	13001.08
837.282	12973.74
837.607	12979.16
837.932	12987.75
838.258	12945.04
838.583	12921.54
838.908	12803.35
839.233	12796.12
839.558	12802.9
839.883	12786.63
840.208	12731.26
840.533	12725.39
840.858	12739.62
841.182	12710.47
841.507	12671.6
841.832	12593.64
842.156	12619.4
842.481	12574.2
842.805	12698.49
843.13	12511.38
843.454	12559.29
843.778	12448.78
844.103	12437.71
844.427	12437.71
844.751	12439.52
845.075	12382.57
845.399	12359.52
845.723	12287.66
846.047	12282.46
846.371	12166.08
846.695	12201.78
847.019	12079.08
847.343	12077.04
847.666	11926.99
847.99	11964.28
848.313	11957.5
848.637	11868.01
848.96	11825.52
849.284	11754.34
849.607	11695.13
849.931	11677.28
850.254	11628.92
850.577	11514.57
850.9	11453.78
851.223	11529.48
851.546	11455.81
851.869	11300.11
852.192	11425.98
852.515	11295.82
852.838	11227.57
853.161	11228.25
853.483	11256.95
853.806	11165.2
854.129	11066.22
854.451	11023.28
854.774	10990.74
855.096	10963.62
855.419	10993.23
855.741	10927.24
856.063	10859.22
856.385	10868.94
856.708	10753.69
857.03	10764.31
857.352	10776.74
857.674	10668.72
857.996	10667.36
858.318	10607.02
858.64	10650.86
858.961	10572.67
859.283	10571.77
859.605	10489.96
859.926	10498.78
860.248	10495.16
860.57	10385.56
860.891	10429.85
861.212	10364.09
861.534	10410.87
861.855	10326.8
862.176	10381.94
862.498	10358.22
862.819	10384.88
863.14	10265.79
863.461	10215.17
863.782	10227.82
864.103	10271.66
864.424	10197.09
864.745	10302.4
865.065	10194.6
865.386	10190.99
865.707	10133.14
866.027	10148.05
866.348	10108.05
866.668	10111.67
866.989	9971.79
867.309	10025.57
867.63	10023.54
867.95	9969.53
868.27	9902.41
868.59	9995.97
868.91	10038.9
869.23	9979.47
869.55	9880.04
869.87	9897.66
870.19	9906.02
870.51	9856.53
870.83	9870.09
871.15	9790.77
871.469	9849.53
871.789	9784.9
872.109	9846.59
872.428	9745.35
872.748	9848.85
873.067	9690.44
873.386	9779.25
873.706	9768.4
874.025	9653.83
874.344	9664.45
874.663	9646.14
874.982	9633.04
875.301	9621.51
875.62	9627.61
875.939	9574.96
876.258	9588.52
876.577	9530.22
876.896	9490.89
877.214	9532.02
877.533	9486.15
877.852	9525.92
878.17	9459.03
878.489	9400.05
878.807	9513.04
879.125	9392.82
879.444	9433.49
879.762	9381.07
880.08	9305.14
880.398	9322.99
880.716	9340.16
881.034	9302.65
881.352	9316.66
881.67	9277.57
881.988	9272.37
882.306	9280.05
882.624	9228.53
882.941	9196.21
883.259	9186.95
883.577	9155.54
883.894	9119.6
884.212	9155.31
884.529	9089.1
884.846	9080.51
885.164	9095.42
885.481	9060.17
885.798	9008.65
886.115	9019.04
886.432	8982.21
886.75	8936.11
887.067	8925.71
887.383	8879.84
887.7	8915.99
888.017	8908.76
888.334	8898.59
888.651	8834.64
888.967	8831.7
889.284	8748.54
889.6	8757.81
889.917	8697.7
890.233	8766.17
890.55	8699.5
890.866	8739.28
891.182	8692.05
891.498	8589
891.815	8548.55
892.131	8587.42
892.447	8534.31
892.763	8492.28
893.079	8499.51
893.395	8395.33
893.71	8431.04
894.026	8395.78
894.342	8413.41
894.657	8329.8
894.973	8323.47
895.289	8344.71
895.604	8290.25
895.92	8212.28
896.235	8191.72
896.55	8167.77
896.865	8201.89
897.181	8187.2
897.496	8158.73
897.811	8096.81
898.126	7969.8
898.441	8047.77
898.756	8019.52
899.071	7991.72
899.386	7990.14
899.7	7962.8
900.015	7875.57
900.33	7866.08
900.644	7816.36
900.959	7824.95
901.273	7789.02
901.588	7749.25
901.902	7742.92
902.216	7723.48
902.531	7619.31
902.845	7669.7
903.159	7653.2
903.473	7589.7
903.787	7539.08
904.101	7524.62
904.415	7497.05
904.729	7455.24
905.042	7423.38
905.356	7362.59
905.67	7403.94
905.984	7352.19
906.297	7340.89
906.611	7316.04
906.924	7263.83
907.237	7262.25
907.551	7228.58
907.864	7189.71
908.177	7181.8
908.491	7221.12
908.804	7120.34
909.117	7083.5
909.43	7006.89
909.743	7011.19
910.056	6973.9
910.368	6943.62
910.681	6913.56
910.994	6921.02
911.307	6849.83
911.619	6827.91
911.932	6757.63
912.244	6813.45
912.557	6807.12
912.869	6725.77
913.181	6700.23
913.494	6764.19
913.806	6663.85
914.118	6592.67
914.43	6610.97
914.742	6551.08
915.054	6537.07
915.366	6536.85
915.678	6577.07
915.99	6532.33
916.302	6456.17
916.613	6403.52
916.925	6439.22
917.236	6391.09
917.548	6363.97
917.859	6358.1
918.171	6294.59
918.482	6333.46
918.794	6242.62
919.105	6188.83
919.416	6212.11
919.727	6192
920.038	6155.84
920.349	6129.4
920.66	6117.2
920.971	6076.52
921.282	6053.92
921.593	5998.1
921.903	5994.72
922.214	5982.51
922.525	5908.16
922.835	5957.88
923.146	5895.06
923.456	5864.1
923.767	5862.74
924.077	5777.32
924.387	5839.01
924.697	5754.04
925.008	5739.58
925.318	5735.51
925.628	5721.05
925.938	5701.39
926.248	5617.55
926.558	5615.06
926.867	5604.22
927.177	5603.77
927.487	5555.18
927.796	5560.6
928.106	5485.8
928.416	5523.09
928.725	5454.62
929.034	5455.52
929.344	5458.23
929.653	5386.6
929.962	5379.36
930.271	5378.01
930.581	5376.65
930.89	5267.73
931.199	5276.32
931.508	5263.21
931.817	5257.33
932.125	5206.04
932.434	5208.3
932.743	5158.81
933.051	5148.18
933.36	5097.34
933.669	5117
933.977	5042.65
934.286	5054.85
934.594	5074.74
934.902	5020.73
935.21	4961.97
935.519	4937.79
935.827	4985.02
936.135	4932.37
936.443	4861.41
936.751	4918.81
937.059	4854.63
937.367	4834.07
937.674	4849.89
937.982	4799.27
938.29	4768.53
938.597	4795.2
938.905	4735.31
939.213	4689.66
939.52	4648.76
939.827	4738.25
940.135	4684.24
940.442	4659.38
940.749	4614.19
941.056	4676.33
941.363	4530.57
941.67	4554.08
941.977	4491.7
942.284	4549.33
942.591	4529.44
942.898	4485.38
943.205	4499.16
943.511	4425.72
943.818	4477.02
944.125	4400.41
944.431	4429.78
944.738	4348.43
945.044	4362.67
945.35	4334.19
945.657	4329.9
945.963	4319.96
946.269	4313.86
946.575	4291.48
946.881	4233.86
947.187	4245.38
947.493	4210.13
947.799	4216.91
948.105	4148.89
948.41	4117.25
948.716	4175.78
949.022	4143.24
949.327	4150.47
949.633	4084.26
949.938	4101.43
950.244	4091.26
950.549	4030.25
950.854	3985.5
951.16	4041.77
951.465	3990.02
951.77	3960.64
952.075	3946.63
952.38	3912.06
952.685	3927.65
952.99	3899.4
953.294	3896.69
953.599	3847.2
953.904	3817.37
954.209	3810.82
954.513	3820.54
954.818	3764.49
955.122	3761.78
955.426	3763.81
955.731	3775.34
956.035	3740.09
956.339	3748.22
956.643	3716.13
956.948	3696.02
957.252	3692.18
957.556	3677.26
957.86	3643.82
958.163	3662.57
958.467	3612.41
958.771	3630.26
959.075	3573.76
959.378	3588.9
959.682	3597.72
959.985	3546.87
960.289	3528.79
960.592	3504.61
960.896	3439.3
961.199	3411.28
961.502	3411.73
961.805	3471.62
962.108	3433.65
962.411	3405.86
962.714	3375.12
963.017	3367.67
963.32	3366.99
963.623	3341
963.926	3329.02
964.228	3316.82
964.531	3298.97
964.833	3357.72
965.136	3298.51
965.438	3265.3
965.741	3271.4
966.043	3227.78
966.345	3195.24
966.648	3213.55
966.95	3192.98
967.252	3197.5
967.554	3186.2
967.856	3145.07
968.158	3159.31
968.46	3121.34
968.761	3123.15
969.063	3111.63
969.365	3084.28
969.666	3079.09
969.968	3038.86
970.269	3042.25
970.571	3013.78
970.872	3032.08
971.174	2997.28
971.475	3007
971.776	3002.48
972.077	2975.36
972.378	2952.54
972.679	2965.42
972.98	2943.04
973.281	2931.29
973.582	2938.07
973.883	2895.59
974.183	2870.5
974.484	2877.51
974.785	2850.17
975.085	2870.96
975.386	2836.15
975.686	2848.81
975.986	2808.36
976.287	2797.74
976.587	2781.69
976.887	2787.12
977.187	2747.12
977.487	2756.83
977.787	2745.76
978.087	2720.68
978.387	2736.27
978.687	2669.83
978.987	2698.76
979.286	2669.15
979.586	2693.79
979.885	2642.94
980.185	2633.67
980.484	2626.67
980.784	2560.46
981.083	2586.9
981.382	2613.34
981.682	2594.13
981.981	2558.65
982.28	2549.83
982.579	2579.89
982.878	2510.51
983.177	2567.23
983.475	2545.77
983.774	2473.45
984.073	2519.1
984.372	2475.03
984.67	2447.46
984.969	2477.75
985.267	2453.57
985.566	2445.2
985.864	2426.67
986.162	2411.08
986.461	2399.1
986.759	2409.05
987.057	2426.67
987.355	2335.83
987.653	2396.84
987.951	2383.74
988.249	2330.86
988.547	2380.57
988.844	2343.96
989.142	2347.58
989.44	2329.05
989.737	2303.74
990.035	2279.33
990.332	2256.06
990.63	2242.27
990.927	2248.15
991.224	2247.24
991.521	2233.68
991.819	2217.41
992.116	2227.58
992.413	2211.31
992.71	2174.7
993.006	2183.29
993.303	2202.27
993.6	2161.37
993.897	2178.77
994.193	2138.09
994.49	2116.4
994.787	2109.17
995.083	2108.26
995.379	2095.16
995.676	2082.5
995.972	2115.95
996.268	2096.06
996.565	2034.59
996.861	2046.57
997.157	2040.47
997.453	2046.34
997.749	2032.56
998.044	2014.25
998.34	2014.71
998.636	2004.09
998.932	2014.03
999.227	1987.36
999.523	1970.87
999.818	1952.79
1000.114	1954.82
1000.409	1935.61
1000.704	1922.96
1001	1897.42
1001.295	1918.89
1001.59	1889.51
1001.885	1896.74
1002.18	1839.34
1002.475	1878.67
1002.77	1837.99
1003.065	1814.49
1003.359	1844.09
1003.654	1851.1
1003.949	1799.12
1004.243	1791.44
1004.538	1800.02
1004.832	1778.78
1005.127	1776.97
1005.421	1767.26
1005.715	1767.26
1006.009	1770.42
1006.304	1740.59
1006.598	1721.38
1006.892	1734.49
1007.186	1711.44
1007.48	1717.31
1007.773	1690.2
1008.067	1664.43
1008.361	1672.34
1008.655	1663.08
1008.948	1649.52
1009.242	1621.95
1009.535	1631.44
1009.829	1630.76
1010.122	1591.22
1010.415	1598.9
1010.708	1593.7
1011.001	1589.86
1011.295	1600.71
1011.588	1606.58
1011.881	1567.94
1012.173	1541.27
1012.466	1577.88
1012.759	1557.77
1013.052	1529.07
1013.344	1542.63
1013.637	1516.87
1013.93	1522.06
1014.222	1493.14
1014.514	1478.22
1014.807	1493.82
1015.099	1481.84
1015.391	1459.69
1015.683	1475.74
1015.976	1451.11
1016.268	1442.29
1016.56	1408.17
1016.851	1428.06
1017.143	1420.37
1017.435	1404.55
1017.727	1379.7
1018.018	1385.8
1018.31	1382.63
1018.602	1379.92
1018.893	1373.14
1019.185	1346.48
1019.476	1366.14
1019.767	1355.29
1020.058	1339.7
1020.35	1315.29
1020.641	1328.4
1020.932	1320.26
1021.223	1316.65
1021.514	1288.4
1021.804	1282.52
1022.095	1277.55
1022.386	1277.1
1022.677	1240.72
1022.967	1261.05
1023.258	1231.45
1023.548	1231.68
1023.839	1228.74
1024.129	1231.9
1024.419	1190.55
1024.709	1195.07
1025	1185.12
1025.29	1182.19
1025.58	1187.61
1025.87	1174.28
1026.16	1163.43
1026.449	1167.72
1026.739	1130.44
1027.029	1138.12
1027.319	1141.96
1027.608	1141.51
1027.898	1120.95
1028.187	1120.95
1028.477	1131.79
1028.766	1081.4
1029.055	1101.51
1029.344	1089.76
1029.634	1071.91
1029.923	1074.17
1030.212	1073.94
1030.501	1061.96
1030.79	1033.49
1031.078	1045.92
1031.367	1035.98
1031.656	1045.01
1031.945	1033.72
1032.233	1009.54
1032.522	1015.19
1032.81	995.52
1033.099	1014.51
1033.387	980.61
1033.675	995.52
1033.963	1015.19
1034.251	981.51
1034.54	975.41
1034.828	972.7
1035.116	957.33
1035.403	954.85
1035.691	934.06
1035.979	939.03
1036.267	901.29
1036.554	921.4
1036.842	920.05
1037.129	896.09
1037.417	943.1
1037.704	935.19
1037.992	894.06
1038.279	886.15
1038.566	882.31
1038.853	882.31
1039.14	882.31
