Data from hue_330_FLMS001491_100.txt Node
Date: Mon Feb 06 15:46:12 GMT 2017
User: dcchb
Spectrometer: FLMS00149
Trigger mode: 0
Integration Time (sec): 2.000000E-2
Scans to average: 10
Electric dark correction enabled: true
Nonlinearity correction enabled: false
Boxcar width: 0
XAxis mode: Wavelengths
Number of Pixels in Spectrum: 2048
>>>>>Begin Spectral Data<<<<<
341.393	-9.65
341.776	-9.65
342.16	-9.65
342.543	-57.1
342.927	-71.11
343.31	-82.19
343.693	-71.79
344.077	-72.24
344.46	-43.54
344.843	-59.36
345.226	-38.12
345.61	-22.98
345.993	-33.83
346.376	-8.29
346.759	17.02
347.142	14.53
347.525	46.85
347.908	58.15
348.291	77.58
348.674	99.73
349.057	118.49
349.44	116.45
349.823	140.63
350.206	155.32
350.588	185.6
350.971	218.82
351.354	226.05
351.737	251.59
352.119	247.07
352.502	248.43
352.884	280.06
353.267	280.97
353.65	274.19
354.032	296.79
354.414	302.21
354.797	314.19
355.179	306.73
355.562	316.9
355.944	325.03
356.326	349.44
356.709	335.66
357.091	351.25
357.473	340.63
357.855	328.2
358.238	361.42
358.62	340.17
359.002	320.97
359.384	348.54
359.766	347.41
360.148	335.88
360.53	342.89
360.912	345.15
361.294	363
361.676	352.15
362.057	343.56
362.439	355.32
362.821	344.02
363.203	305.83
363.584	310.12
363.966	325.26
364.348	314.64
364.729	337.01
365.111	318.48
365.493	318.71
365.874	318.48
366.256	309.89
366.637	326.16
367.019	321.87
367.4	315.54
367.781	310.34
368.163	312.38
368.544	306.96
368.925	321.19
369.306	330.91
369.688	305.15
370.069	323.9
370.45	319.84
370.831	297.92
371.212	325.94
371.593	318.93
371.974	305.15
372.355	316.67
372.736	304.92
373.117	314.41
373.498	322.77
373.879	293.85
374.26	303.34
374.641	312.38
375.021	323
375.402	329.78
375.783	317.58
376.163	318.71
376.544	335.43
376.925	324.58
377.305	324.13
377.686	325.49
378.066	320.06
378.447	331.81
378.827	335.2
379.208	327.75
379.588	321.19
379.968	355.32
380.349	324.58
380.729	329.78
381.109	323.68
381.489	328.42
381.87	332.49
382.25	350.57
382.63	343.34
383.01	356.67
383.39	334.75
383.77	355.09
384.15	345.6
384.53	350.12
384.91	317.12
385.29	356.45
385.67	349.89
386.049	339.04
386.429	341.76
386.809	343.56
387.189	340.63
387.568	350.8
387.948	342.89
388.328	367.29
388.707	372.94
389.087	347.18
389.466	342.21
389.846	363.22
390.225	384.24
390.605	369.1
390.984	366.61
391.363	360.51
391.743	374.75
392.122	381.08
392.501	361.87
392.881	394.18
393.26	374.75
393.639	379.27
394.018	389.44
394.397	382.66
394.776	385.37
395.155	364.81
395.534	370.46
395.913	367.07
396.292	384.02
396.671	378.37
397.05	393.28
397.429	416.1
397.808	396.22
398.186	378.59
398.565	376.56
398.944	396.67
399.323	417.91
399.701	376.33
400.08	393.51
400.458	398.25
400.837	419.95
401.215	396.44
401.594	389.66
401.972	392.15
402.351	390.79
402.729	407.97
403.107	395.77
403.486	396.67
403.864	411.36
404.242	420.17
404.62	412.49
404.999	418.82
405.377	416.33
405.755	431.25
406.133	417.91
406.511	441.87
406.889	446.84
407.267	432.6
407.645	460.62
408.023	440.51
408.401	457.91
408.779	451.36
409.156	477.57
409.534	483.45
409.912	452.49
410.29	466.73
410.667	493.84
411.045	477.57
411.422	483.67
411.8	486.84
412.178	524.12
412.555	508.53
412.933	510.34
413.31	537.68
413.687	539.94
414.065	514.63
414.442	519.83
414.819	528.19
415.197	543.11
415.574	541.3
415.951	532.71
416.328	556.44
416.705	546.5
417.082	552.15
417.46	582.65
417.837	561.64
418.214	581.52
418.591	592.6
418.967	599.83
419.344	607.29
419.721	608.64
420.098	595.54
420.475	622.88
420.852	620.17
421.228	630.11
421.605	615.65
421.982	639.38
422.358	644.8
422.735	676.89
423.111	643.22
423.488	650.45
423.864	674.18
424.241	692.03
424.617	672.37
424.994	685.02
425.37	696.1
425.746	708.3
426.123	726.61
426.499	735.42
426.875	716.44
427.251	714.4
427.627	738.58
428.003	732.93
428.379	756.89
428.756	755.98
429.132	762.76
429.507	772.25
429.883	767.06
430.259	799.82
430.635	801.18
431.011	786.26
431.387	821.97
431.763	812.03
432.138	831.69
432.514	818.13
432.89	853.16
433.265	840.73
433.641	874.17
434.016	893.38
434.392	874.62
434.767	887.28
435.143	889.99
435.518	909.88
435.894	913.49
436.269	918.24
436.644	933.38
437.02	930.89
437.395	930.67
437.77	941.97
438.145	956.66
438.52	962.76
438.895	990.78
439.271	993.72
439.646	977.22
440.021	1001.17
440.395	1021.74
440.77	977.45
441.145	1010.67
441.52	1045.47
441.895	1024.68
442.27	1008.86
442.645	1040.04
443.019	1049.08
443.394	1024.45
443.769	1068.52
444.143	1047.27
444.518	1057.9
444.892	1055.41
445.267	1058.35
445.641	1069.2
446.016	1079.36
446.39	1062.64
446.764	1070.78
447.139	1075.3
447.513	1094.73
447.887	1093.83
448.262	1091.57
448.636	1101.96
449.01	1111.23
449.384	1121.4
449.758	1130.66
450.132	1130.66
450.506	1152.13
450.88	1145.35
451.254	1144
451.628	1153.71
452.002	1169.76
452.376	1165.24
452.75	1173.83
453.123	1169.31
453.497	1206.59
453.871	1182.86
454.244	1207.27
454.618	1205.24
454.992	1197.55
455.365	1235.29
455.739	1258.79
456.112	1256.53
456.486	1239.81
456.859	1293.14
457.232	1288.85
457.606	1303.54
457.979	1296.99
458.352	1339.24
458.725	1332.01
459.099	1348.06
459.472	1348.06
459.845	1353.03
460.218	1374.5
460.591	1356.87
460.964	1384.67
461.337	1399.81
461.71	1390.99
462.083	1424.21
462.456	1403.42
462.829	1431.45
463.201	1446.13
463.574	1465.79
463.947	1470.99
464.32	1508.51
464.692	1504.21
465.065	1490.2
465.438	1507.15
465.81	1537.66
466.183	1545.57
466.555	1572.23
466.928	1609.52
467.3	1543.98
467.672	1602.06
468.045	1594.38
468.417	1630.99
468.789	1636.86
469.161	1631.67
469.534	1678.67
469.906	1681.16
470.278	1723.64
470.65	1741.49
471.022	1726.35
471.394	1787.37
471.766	1787.14
472.138	1805.9
472.51	1818.33
472.882	1834.6
473.253	1854.71
473.625	1894.26
473.997	1922.73
474.369	1909.85
474.74	1923.18
475.112	1942.62
475.484	2008.83
475.855	2014.93
476.227	2048.15
476.598	2085.21
476.97	2091.77
477.341	2134.93
477.713	2153.91
478.084	2183.06
478.455	2183.29
478.827	2214.25
479.198	2278.88
479.569	2274.81
479.94	2345.77
480.311	2345.77
480.682	2404.75
481.053	2437.07
481.424	2442.49
481.795	2474.13
482.166	2481.36
482.537	2531.98
482.908	2582.15
483.279	2571.75
483.65	2604.75
484.021	2637.29
484.391	2697.17
484.762	2674.35
485.133	2719.1
485.503	2762.48
485.874	2816.27
486.244	2832.54
486.615	2861.92
486.985	2895.14
487.356	2936.94
487.726	2943.5
488.097	3018.3
488.467	3031.4
488.837	3067.79
489.207	3099.65
489.578	3143.49
489.948	3168.57
490.318	3201.79
490.688	3187.33
491.058	3234.79
491.428	3273.2
491.798	3326.54
492.168	3374.45
492.538	3402.69
492.908	3432.75
493.278	3433.2
493.648	3428.46
494.017	3507.77
494.387	3521.79
494.757	3549.36
495.126	3569.92
495.496	3570.15
495.866	3573.54
496.235	3630.94
496.605	3676.36
496.974	3685.4
497.344	3696.24
497.713	3694.44
498.082	3726.07
498.452	3758.16
498.821	3759.52
499.19	3774.66
499.559	3821.44
499.928	3824.15
500.298	3844.04
500.667	3878.61
501.036	3875.22
501.405	3944.83
501.774	3875.67
502.143	3929.91
502.512	3946.18
502.88	3995.67
503.249	3965.84
503.618	4018.5
503.987	3976.69
504.356	4045.61
504.724	4029.34
505.093	4073.41
505.462	4065.27
505.83	4121.54
506.199	4126.06
506.567	4171.26
506.936	4184.37
507.304	4180.07
507.672	4185.72
508.041	4194.31
508.409	4245.61
508.777	4220.75
509.145	4240.86
509.514	4251.26
509.882	4277.7
510.25	4287.87
510.618	4324.93
510.986	4325.15
511.354	4340.52
511.722	4370.58
512.09	4372.84
512.458	4331.93
512.826	4401.76
513.193	4406.73
513.561	4413.29
513.929	4439.28
514.297	4464.36
514.664	4516.34
515.032	4500.29
515.4	4509.1
515.767	4515.21
516.135	4539.16
516.502	4527.86
516.869	4596.33
517.237	4583.45
517.604	4555.66
517.972	4582.1
518.339	4635.88
518.706	4636.78
519.073	4604.7
519.44	4663.22
519.808	4672.49
520.175	4669.1
520.542	4681.08
520.909	4683.79
521.276	4739.38
521.643	4752.94
522.009	4771.02
522.376	4789.78
522.743	4823.45
523.11	4860.51
523.477	4872.71
523.843	4861.64
524.21	4928.75
524.577	4943.9
524.943	4933.95
525.31	4950
525.676	5011.69
526.043	5015.31
526.409	5044.91
526.776	5105.25
527.142	5084.68
527.508	5119.26
527.874	5105.93
528.241	5173.04
528.607	5160.39
528.973	5208.07
529.339	5258.01
529.705	5244.23
530.071	5293.04
530.437	5313.6
530.803	5339.59
531.169	5353.6
531.535	5329.42
531.901	5363.32
532.267	5422.75
532.632	5420.27
532.998	5461.62
533.364	5458.46
533.73	5477.44
534.095	5521.73
534.461	5492.81
534.826	5556.99
535.192	5578.91
535.557	5634.95
535.923	5637.66
536.288	5657.55
536.653	5707.04
537.019	5664.55
537.384	5744.1
537.749	5742.52
538.114	5782.97
538.479	5763.08
538.845	5828.17
539.21	5810.09
539.575	5872.01
539.94	5883.53
540.305	5938.45
540.67	5826.36
541.034	5927.82
541.399	5900.48
541.764	5987.03
542.129	6009.86
542.494	6033.36
542.858	6023.42
543.223	6007.82
543.587	6112.68
543.952	6139.8
544.316	6145.45
544.681	6131.66
545.045	6184.99
545.41	6261.83
545.774	6224.31
546.138	6223.18
546.503	6221.38
546.867	6297.53
547.231	6290.98
547.595	6341.15
547.959	6395.16
548.324	6400.35
548.688	6416.63
549.052	6429.28
549.416	6458.66
549.779	6453.46
550.143	6464.76
550.507	6553.12
550.871	6625.21
551.235	6589.05
551.599	6576.85
551.962	6596.73
552.326	6616.62
552.689	6644.87
553.053	6700.46
553.417	6690.74
553.78	6747.92
554.143	6636.05
554.507	6691.65
554.87	6736.62
555.234	6855.94
555.597	6779.55
555.96	6835.6
556.323	6826.56
556.686	6863.17
557.05	6923.05
557.413	6872.66
557.776	6918.08
558.139	6966.89
558.502	6981.58
558.865	6959.89
559.228	7020.45
559.59	7048.25
559.953	7024.07
560.316	7124.86
560.679	7104.74
561.041	7126.44
561.404	7152.88
561.767	7225.19
562.129	7244.85
562.492	7232.42
562.854	7245.08
563.217	7281.01
563.579	7236.26
563.941	7356.71
564.304	7408.69
564.666	7387
565.028	7442.81
565.39	7354.91
565.753	7478.97
566.115	7448.46
566.477	7488.24
566.839	7516.48
567.201	7511.06
567.563	7530.95
567.925	7616.14
568.287	7608.91
568.648	7638.29
569.01	7707.21
569.372	7732.3
569.734	7713.99
570.095	7834.89
570.457	7857.04
570.819	7828.57
571.18	7863.37
571.542	7906.08
571.903	7927.55
572.265	7930.03
572.626	8105.85
572.987	8124.38
573.349	8136.35
573.71	8170.93
574.071	8188.56
574.432	8300.87
574.794	8321.66
575.155	8380.64
575.516	8431.26
575.877	8452.05
576.238	8509.45
576.599	8626.51
576.96	8635.1
577.32	8690.46
577.681	8831.25
578.042	8956.45
578.403	8951.25
578.763	9054.97
579.124	9089.1
579.485	9339.26
579.845	9429.43
580.206	9455.42
580.566	9575.86
580.927	9689.99
581.287	9878.45
581.648	9909.87
582.008	10175.17
582.368	10209.52
582.728	10398.22
583.089	10532.22
583.449	10708.72
583.809	10950.97
584.169	11141.92
584.529	11249.94
584.889	11482.25
585.249	11637.96
585.609	11764.28
585.969	12020.09
586.329	12240.65
586.688	12492.85
587.048	12664.82
587.408	12932.84
587.768	13081.53
588.127	13417.34
588.487	13614.85
588.846	13924.9
589.206	14091.45
589.565	14266.36
589.925	14734.82
590.284	14827.03
590.643	15166
591.003	15464.97
591.362	15735.48
591.721	16050.27
592.08	16190.83
592.44	16589.69
592.799	16896.58
593.158	17175.89
593.517	17343.34
593.876	17738.81
594.235	17964.12
594.593	18287.05
594.952	18618.11
595.311	18920.48
595.67	19278.89
596.029	19554.36
596.387	19966.1
596.746	20291.97
597.104	20504.16
597.463	20721.56
597.822	21165.62
598.18	21284.71
598.538	21665.72
598.897	21958.59
599.255	22155.42
599.613	22827.27
599.972	22802.63
600.33	23270.42
600.688	23316.75
601.046	23864.98
601.404	24187.68
601.762	24379.77
602.12	24742.47
602.478	25093.2
602.836	25303.59
603.194	25322.79
603.552	25854.08
603.91	25883.46
604.268	26366.61
604.625	26444.35
604.983	26726.83
605.341	26947.38
605.698	27255.85
606.056	27602.96
606.413	27786.91
606.771	28000.92
607.128	28347.57
607.485	28474.8
607.843	28709.15
608.2	29210.6
608.557	29428.45
608.914	29512.74
609.272	29754.54
609.629	30002.45
609.986	30329.89
610.343	30507.07
610.7	30855.76
611.057	30951.12
611.414	31211.68
611.771	31313.15
612.127	31594.49
612.484	31780.03
612.841	32009.62
613.198	31923.75
613.554	32368.26
613.911	32596.05
614.267	32661.58
614.624	32867.68
614.98	33000.11
615.337	33365.07
615.693	33483.03
616.05	33410.04
616.406	33948.1
616.762	33894.77
617.118	33983.13
617.475	34184.03
617.831	34350.35
618.187	34577.24
618.543	34746.73
618.899	34990.56
619.255	35074.4
619.611	35056.32
619.967	35404.56
620.323	35485.01
620.678	35441.85
621.034	35574.95
621.39	35782.41
621.746	35678.91
622.101	36209.97
622.457	35940.82
622.812	36224.2
623.168	36393.46
623.523	36427.81
623.879	36565.89
624.234	36544.19
624.589	36626.45
624.945	36700.12
625.3	36817.63
625.655	36906.22
626.01	36887.91
626.365	37080.68
626.72	37117.96
627.075	37126.78
627.43	37242.48
627.785	37248.81
628.14	37415.81
628.495	37442.25
628.85	37304.4
629.205	37374.91
629.559	37602.47
629.914	37576.94
630.269	37602.47
630.623	37673.88
630.978	37567.9
631.332	37768.8
631.687	37973.31
632.041	37738.06
632.396	37793.2
632.75	37718.4
633.104	37891.05
633.459	37709.81
633.813	37731.28
634.167	37720.66
634.521	37759.76
634.875	37952.29
635.229	37986.87
635.583	37888.57
635.937	37888.57
636.291	37823.26
636.645	37960.2
636.999	37844.27
637.352	37962.24
637.706	37845.4
638.06	37962.69
638.413	37825.52
638.767	37858.06
639.121	37979.18
639.474	37725.86
639.828	37842.92
640.181	37908.23
640.534	37820.09
640.888	37775.57
641.241	37570.83
641.594	37658.97
641.947	37769.92
642.301	37707.33
642.654	37938.96
643.007	37820.09
643.36	37704.39
643.713	37740.55
644.066	37780.32
644.419	37580.33
644.771	37493.77
645.124	37131.52
645.477	37002.94
645.83	36841.59
646.182	36848.59
646.535	36757.07
646.888	36709.84
647.24	36530.86
647.593	36725.66
647.945	36649.95
648.298	36414.25
648.65	36359.34
649.002	36247.48
649.355	36550.3
649.707	36430.98
650.059	36761.14
650.411	37015.37
650.763	37053.56
651.115	37488.12
651.467	37394.34
651.819	37408.35
652.171	37359.77
652.523	37260.56
652.875	37193.44
653.227	37080.9
653.578	37447.22
653.93	37135.37
654.282	37171.07
654.633	36963.39
654.985	37190.96
655.337	37099.89
655.688	37182.6
656.039	37421.91
656.391	36923.62
656.742	37010.85
657.094	37096.5
657.445	37150.96
657.796	37164.97
658.147	36933.79
658.498	36999.1
658.849	37084.97
659.2	36994.58
659.551	36972.66
659.902	37013.33
660.253	36945.54
660.604	37056.95
660.955	36872.32
661.306	37050.4
661.656	36913.68
662.007	36916.84
662.358	36917.29
662.708	36882.26
663.059	36919.55
663.409	36761.59
663.76	37014.69
664.11	36918.87
664.461	37024.18
664.811	36960.45
665.161	36885.43
665.511	36898.54
665.862	36951.42
666.212	36877.75
666.562	36960.91
666.912	36961.13
667.262	36939.44
667.612	36833.68
667.962	36769.95
668.312	36841.36
668.662	36958.19
669.011	36832.55
669.361	36771.08
669.711	36601.37
670.06	36735.6
670.41	36698.09
670.76	36583.06
671.109	36883.85
671.459	36791.87
671.808	36700.35
672.157	36807.69
672.507	36712.33
672.856	36715.94
673.205	36815.37
673.554	36842.94
673.904	36833.9
674.253	36866.45
674.602	36675.94
674.951	36143.53
675.3	35988.05
675.649	36686.11
675.998	36518.43
676.346	36426.46
676.695	36637.07
677.044	36445.89
677.393	36576.06
677.741	36487.02
678.09	36488.83
678.438	36354.59
678.787	36393.24
679.135	36350.98
679.484	36166.13
679.832	36146.69
680.181	36171.77
680.529	36229.85
680.877	36075.05
681.225	36083.19
681.573	36152.34
681.922	35925.45
682.27	35891.78
682.618	35853.82
682.966	35837.09
683.314	35939.69
683.661	35787.38
684.009	35673.26
684.357	35452.92
684.705	35502.64
685.053	35582.86
685.4	35504.67
685.748	35311.68
686.095	35218.13
686.443	35241.4
686.79	35183.78
687.138	35311.23
687.485	35254.06
687.832	35216.55
688.18	34994.86
688.527	34995.08
688.874	34888.64
689.221	34893.84
689.568	34797.35
689.915	34636.67
690.262	34584.25
690.609	34582.44
690.956	34457.02
691.303	34409.56
691.65	34308.55
691.997	34301.99
692.344	34221.09
692.69	34091.38
693.037	34106.97
693.383	33927.54
693.73	34023.58
694.077	33876.02
694.423	33843.25
694.769	33677.83
695.116	33595.57
695.462	33580.43
695.808	33402.58
696.155	33441
696.501	33209.37
696.847	33250.95
697.193	33043.04
697.539	33129.82
697.885	32922.59
698.231	32902.93
698.577	32863.16
698.923	32752.88
699.269	32579.55
699.614	32560.57
699.96	32310.63
700.306	32449.16
700.651	32278.32
700.997	32173.91
701.342	32136.17
701.688	32123.97
702.033	31999.46
702.379	32003.75
702.724	31910.87
703.069	31828.16
703.415	31524.67
703.76	31679.24
704.105	31620.93
704.45	31474.72
704.795	31387.95
705.14	31286.48
705.485	31129.87
705.83	31118.35
706.175	31133.26
706.52	30963.55
706.865	30978.92
707.209	30955.87
707.554	30757.45
707.899	30881.74
708.243	30740.73
708.588	30677.46
708.932	30528.76
709.277	30433.85
709.621	30464.35
709.966	30333.74
710.31	30385.94
710.654	30143.91
710.998	30134.42
711.342	30133.29
711.687	30000.86
712.031	29993.18
712.375	29849
712.719	29808.55
713.063	29844.71
713.407	30005.38
713.75	29593.87
714.094	29658.95
714.438	29533.53
714.782	29596.81
715.125	29402.69
715.469	29433.87
715.812	29296.48
716.156	29191.62
716.499	29211.96
716.843	29260.32
717.186	29143.49
717.53	29133.99
717.873	29124.73
718.216	29095.35
718.559	28831.4
718.902	28816.49
719.246	28841.12
719.589	28759.31
719.932	28736.04
720.275	28700.56
720.617	28564.52
720.96	28462.6
721.303	28503.28
721.646	28533.11
721.989	28396.61
722.331	28578.98
722.674	28341.92
723.016	28329.04
723.359	28308.25
723.701	28436.84
724.044	28026
724.386	27860.13
724.729	28127.92
725.071	27917.75
725.413	27896.29
725.755	28031.65
726.097	27846.8
726.439	27596.63
726.782	27771.77
727.124	27698.1
727.465	27634.6
727.807	27676.18
728.149	27652.68
728.491	27567.26
728.833	27641.15
729.175	27444.09
729.516	27421.27
729.858	27398.9
730.199	27425.34
730.541	27398.9
730.882	27397.77
731.224	27377.43
731.565	27151.67
731.906	27189.19
732.248	27225.34
732.589	27061.28
732.93	26990.55
733.271	26901.06
733.612	26981.51
733.953	26958.01
734.294	26879.82
734.635	26801.17
734.976	26811.12
735.317	26653.16
735.658	26584
735.999	26652.03
736.339	26697.45
736.68	26607.51
737.021	26534.51
737.361	26536.32
737.702	26628.75
738.042	26552.37
738.383	26521.63
738.723	26593.72
739.063	26382.65
739.404	26385.14
739.744	26407.29
740.084	26239.38
740.424	26266.72
740.764	26152.38
741.104	26319.15
741.444	26120.06
741.784	26079.84
742.124	25999.84
742.464	25892.27
742.804	25924.59
743.143	25841.88
743.483	25859.28
743.823	25721.43
744.162	25677.59
744.502	25724.59
744.841	25733.86
745.181	25735.89
745.52	25673.75
745.86	25583.8
746.199	25571.6
746.538	25395.79
746.877	25579.06
747.216	25447.31
747.556	25370.7
747.895	25393.75
748.234	25422.68
748.573	25302.68
748.911	25327.09
749.25	25232.63
749.589	25119.18
749.928	25155.12
750.267	25185.17
750.605	25154.44
750.944	24952.18
751.283	24926.65
751.621	24929.36
751.96	24781.79
752.298	24829.93
752.636	24762.36
752.975	24726.88
753.313	24631.74
753.651	24753.09
753.989	24585.64
754.327	24554.68
754.666	24411.63
755.004	24487.34
755.342	24536.37
755.679	24315.59
756.017	24233.78
756.355	24387.45
756.693	24165.08
757.031	24261.13
757.368	24066.1
757.706	23992.66
758.044	23914.47
758.381	23988.59
758.719	23833.57
759.056	23894.58
759.394	23602.61
759.731	23688.94
760.068	23606.91
760.405	23495.27
760.743	23483.97
761.08	23461.83
761.417	23433.8
761.754	23279.68
762.091	23281.94
762.428	23272
762.765	23009.41
763.102	23159.01
763.438	22996.53
763.775	22794.73
764.112	22923.31
764.449	22941.61
764.785	22732.58
765.122	22524.9
765.458	22381.85
765.795	22525.35
766.131	22490.78
766.467	22411.23
766.804	22347.96
767.14	22277
767.476	22063.45
767.812	22017.8
768.148	22051.69
768.485	21870.23
768.821	21771.25
769.157	21828.2
769.492	21796.56
769.828	21651.03
770.164	21400.64
770.5	21520.86
770.836	21515.66
771.171	21336.46
771.507	21350.24
771.842	21134.66
772.178	21145.5
772.513	21058.73
772.849	20919.07
773.184	20888.79
773.519	20901.44
773.855	20705.06
774.19	20710.71
774.525	20635.91
774.86	20671.84
775.195	20436.37
775.53	20390.27
775.865	20274.11
776.2	20199.54
776.535	20102.82
776.87	20170.84
777.205	20004.52
777.539	19915.48
777.874	19962.94
778.209	19831.19
778.543	19793.45
778.878	19719.1
779.212	19649.27
779.547	19460.12
779.881	19553
780.215	19448.6
780.55	19361.82
780.884	19265.55
781.218	19306.91
781.552	19226.68
781.886	19131.54
782.22	19083.64
782.554	18888.16
782.888	18825.56
783.222	18750.31
783.556	18611.56
783.889	18624.21
784.223	18456.76
784.557	18429.19
784.89	18547.61
785.224	18345.35
785.557	18263.32
785.891	18200.27
786.224	18195.98
786.558	18238.91
786.891	18055.87
787.224	17955.98
787.557	17944.46
787.891	17841.64
788.224	17945.81
788.557	17753.5
788.89	17771.35
789.223	17702.43
789.556	17480.29
789.888	17527.29
790.221	17445.49
790.554	17339.05
790.887	17363.23
791.219	17279.84
791.552	17184.93
791.884	17094.08
792.217	17117.13
792.549	17071.03
792.882	16857.93
793.214	16804.37
793.546	16780.42
793.879	16768.44
794.211	16709.01
794.543	16680.31
794.875	16585.17
795.207	16677.6
795.539	16568.9
795.871	16507.89
796.203	16417.94
796.535	16204.62
796.867	16193.32
797.198	16155.58
797.53	16210.49
797.862	15998.52
798.193	16111.74
798.525	16067.22
798.856	16046.2
799.188	15925.75
799.519	15872.65
799.85	15746.55
800.182	15720.11
800.513	15813.44
800.844	15544.97
801.175	15737.06
801.506	15510.17
801.837	15563.73
802.168	15489.15
802.499	15487.8
802.83	15322.83
803.161	15341.59
803.491	15353.11
803.822	15293.23
804.153	15212.33
804.483	15081.03
804.814	15099.79
805.145	15061.82
805.475	14928.04
805.805	15020.24
806.136	15022.73
806.466	14899.79
806.796	14883.07
807.126	14826.8
807.457	14785.67
807.787	14721.94
808.117	14635.17
808.447	14567.6
808.777	14723.75
809.107	14646.24
809.436	14478.56
809.766	14453.7
810.096	14438.11
810.426	14423.87
810.755	14458.45
811.085	14416.19
811.414	14392.46
811.744	14236.98
812.073	14128.96
812.403	14170.09
812.732	14117.89
813.061	14072.47
813.39	14046.93
813.719	13953.38
814.049	14077.21
814.378	13927.61
814.707	14003.09
815.036	13939.82
815.365	13812.59
815.693	13739.14
816.022	13729.88
816.351	13686.26
816.68	13677
817.008	13676.32
817.337	13536.21
817.665	13492.6
817.994	13498.7
818.322	13566.49
818.651	13423.22
818.979	13401.3
819.307	13523.1
819.636	13405.82
819.964	13310.68
820.292	13393.16
820.62	13368.53
820.948	13337.12
821.276	13296.67
821.604	13324.01
821.932	13270.23
822.259	13354.75
822.587	13205.83
822.915	13167.18
823.243	13278.59
823.57	13241.98
823.898	13226.16
824.225	13227.52
824.553	13121.99
824.88	13225.49
825.207	13250.8
825.535	13173.06
825.862	13268.2
826.189	13161.53
826.516	13201.08
826.843	13166.05
827.17	13179.61
827.497	13250.12
827.824	13204.47
828.151	13227.97
828.478	13163.34
828.805	13244.69
829.131	13126.05
829.458	13205.83
829.785	13142.1
830.111	13137.8
830.438	13233.85
830.764	13241.76
831.09	13216.67
831.417	13127.86
831.743	13158.37
832.069	13178.71
832.395	13057.58
832.722	13089.9
833.048	13100.52
833.374	13052.61
833.7	13084.47
834.026	13041.54
834.351	13096.22
834.677	13010.12
835.003	12998.6
835.329	13069.11
835.654	13011.71
835.98	12961.09
836.306	12905.27
836.631	12932.16
836.956	12943.46
837.282	12971.48
837.607	12883.35
837.932	12813.52
838.258	12889.9
838.583	12825.27
838.908	12728.55
839.233	12689.91
839.558	12802.67
839.883	12738.94
840.208	12656.01
840.533	12632.96
840.858	12637.93
841.182	12652.62
841.507	12696.46
841.832	12536.92
842.156	12487.43
842.481	12536.69
842.805	12500.31
843.13	12477.03
843.454	12478.61
843.778	12435.9
844.103	12442.68
844.427	12289.69
844.751	12342.8
845.075	12373.3
845.399	12317.71
845.723	12237.71
846.047	12227.09
846.371	12121.56
846.695	12204.95
847.019	12014.22
847.343	11992.52
847.666	11914.56
847.99	11885.18
848.313	11881.57
848.637	11820.1
848.96	11818.29
849.284	11684.96
849.607	11583.27
849.931	11603.38
850.254	11531.97
850.577	11551.63
850.9	11409.26
851.223	11359.77
851.546	11343.05
851.869	11266.22
852.192	11332.43
852.515	11258.08
852.838	11167.91
853.161	11226.67
853.483	11088.59
853.806	11038.2
854.129	11041.14
854.451	10950.97
854.774	10919.33
855.096	10907.13
855.419	10875.49
855.741	10869.84
856.063	10820.13
856.385	10826.9
856.708	10729.28
857.03	10761.14
857.352	10731.77
857.674	10683.18
857.996	10613.8
858.318	10569.28
858.64	10611.54
858.961	10573.13
859.283	10454.71
859.605	10481.15
859.926	10463.75
860.248	10489.29
860.57	10437.76
860.891	10382.17
861.212	10326.8
861.534	10300.14
861.855	10297.65
862.176	10299.69
862.498	10282.29
862.819	10261.27
863.14	10261.27
863.461	10169.97
863.782	10228.95
864.103	10161.84
864.424	10158.22
864.745	10151.67
865.065	10148.96
865.386	10099.92
865.707	10085.46
866.027	10048.17
866.348	10029.41
866.668	10015.4
866.989	9975.85
867.309	9922.75
867.63	9970.43
867.95	9947.15
868.27	9892.47
868.59	9877.55
868.91	9900.83
869.23	9867.83
869.55	9788.97
869.87	9828.29
870.19	9820.38
870.51	9832.35
870.83	9828.29
871.15	9720.49
871.469	9754.39
871.789	9796.42
872.109	9753.26
872.428	9691.12
872.748	9629.87
873.067	9685.24
873.386	9651.79
873.706	9659.03
874.025	9533.83
874.344	9572.7
874.663	9609.54
874.982	9535.87
875.301	9544.68
875.62	9583.77
875.939	9536.77
876.258	9519.14
876.577	9411.8
876.896	9482.53
877.214	9409.09
877.533	9433.95
877.852	9452.03
878.17	9486.37
878.489	9407.05
878.807	9414.74
879.125	9351.46
879.444	9419.94
879.762	9363.67
880.08	9413.38
880.398	9323.67
880.716	9309.43
881.034	9217.91
881.352	9292.03
881.67	9223.1
881.988	9217.68
882.306	9234.63
882.624	9191.24
882.941	9132.94
883.259	9043.22
883.577	9101.07
883.894	9101.3
884.212	9063.11
884.529	9056.1
884.846	8968.65
885.164	8976.11
885.481	9021.98
885.798	9008.42
886.115	8873.28
886.432	8889.1
886.75	8917.35
887.067	8880.29
887.383	8849.1
887.7	8864.47
888.017	8787.86
888.334	8773.17
888.651	8793.06
888.967	8728.2
889.284	8670.58
889.6	8665.38
889.917	8650.92
890.233	8650.92
890.55	8521.2
890.866	8637.58
891.182	8517.36
891.498	8566.85
891.815	8548.32
892.131	8505.84
892.447	8455.22
892.763	8469.45
893.079	8392.39
893.395	8394.43
893.71	8342.22
894.026	8391.04
894.342	8425.84
894.657	8236.24
894.973	8305.61
895.289	8244.37
895.604	8223.13
895.92	8155.34
896.235	8141.33
896.55	8135.22
896.865	8136.81
897.181	8029.46
897.496	8150.36
897.811	8012.29
898.126	8043.93
898.441	8005.74
898.756	7957.15
899.071	7882.12
899.386	7956.92
899.7	7791.28
900.015	7871.05
900.33	7723.03
900.644	7779.53
900.959	7784.27
901.273	7688.68
901.588	7660.66
901.902	7660.43
902.216	7623.15
902.531	7620.21
902.845	7614.11
903.159	7536.6
903.473	7486.65
903.787	7542.02
904.101	7429.25
904.415	7505.64
904.729	7417.95
905.042	7342.25
905.356	7395.58
905.67	7356.71
905.984	7278.52
906.297	7329.14
906.611	7311.06
906.924	7304.96
907.237	7209.15
907.551	7205.3
907.864	7149.26
908.177	7185.87
908.491	7122.14
908.804	7106.78
909.117	7066.1
909.43	7008.02
909.743	7003.05
910.056	6967.35
910.368	6987.68
910.681	6910.85
910.994	6867.46
911.307	6879.44
911.619	6785.65
911.932	6794.24
912.244	6775.71
912.557	6732.32
912.869	6731.65
913.181	6703.17
913.494	6689.61
913.806	6662.27
914.118	6648.71
914.43	6572.55
914.742	6549.28
915.054	6569.62
915.366	6544.53
915.678	6449.17
915.99	6462.73
916.302	6377.98
916.613	6394.25
916.925	6382.05
917.236	6332.11
917.548	6244.88
917.859	6319.45
918.171	6287.14
918.482	6192.9
918.794	6189.74
919.105	6175.95
919.416	6130.98
919.727	6098.67
920.038	6069.29
920.349	6050.76
920.66	6037.65
920.971	6097.76
921.282	5980.48
921.593	5996.3
921.903	5923.98
922.214	5921.72
922.525	5984.32
922.835	5897.09
923.146	5839.24
923.456	5817.09
923.767	5797.21
924.077	5793.59
924.387	5748.39
924.697	5770.09
925.008	5723.08
925.318	5644.67
925.628	5679.47
925.938	5695.74
926.248	5611.67
926.558	5591.11
926.867	5576.87
927.177	5563.09
927.487	5488.74
927.796	5473.82
928.106	5467.27
928.416	5488.97
928.725	5429.76
929.034	5423.66
929.344	5459.14
929.653	5334.39
929.962	5376.88
930.271	5316.99
930.581	5309.31
930.89	5319.7
931.199	5241.97
931.508	5266.37
931.817	5206.71
932.125	5185.7
932.434	5198.35
932.743	5115.19
933.051	5065.7
933.36	5098.02
933.669	5102.31
933.977	5044.68
934.286	5033.38
934.594	5019.6
934.902	4972.14
935.21	4932.14
935.519	4958.81
935.827	4943.9
936.135	4894.86
936.443	4829.77
936.751	4826.38
937.059	4832.26
937.367	4789.32
937.674	4811.02
937.982	4781.87
938.29	4764.69
938.597	4743
938.905	4674.98
939.213	4697.57
939.52	4652.38
939.827	4646.5
940.135	4600.63
940.442	4583.68
940.749	4571.02
941.056	4578.03
941.363	4555.43
941.67	4516.34
941.977	4542.32
942.284	4481.53
942.591	4483.34
942.898	4466.17
943.205	4444.93
943.511	4415.32
943.818	4448.99
944.125	4377.58
944.431	4349.79
944.738	4358.6
945.044	4340.07
945.35	4315.21
945.657	4307.98
945.963	4242.44
946.269	4261.43
946.575	4238.15
946.881	4220.75
947.187	4217.81
947.493	4191.6
947.799	4150.47
948.105	4188.66
948.41	4158.61
948.716	4071.83
949.022	4095.1
949.327	4060.53
949.633	4081.09
949.938	4045.16
950.244	4034.09
950.549	4030.7
950.854	3976.46
951.16	3968.78
951.465	3952.51
951.77	3921.78
952.075	3917.48
952.38	3886.52
952.685	3880.19
952.99	3867.09
953.294	3849.69
953.599	3855.79
953.904	3845.62
954.209	3820.54
954.513	3836.13
954.818	3771.95
955.122	3755
955.426	3774.43
955.731	3762.68
956.035	3712.06
956.339	3684.27
956.643	3657.6
956.948	3656.7
957.252	3634.1
957.556	3645.17
957.86	3632.74
958.163	3587.77
958.467	3571.05
958.771	3571.73
959.075	3542.12
959.378	3549.36
959.682	3520.2
959.985	3481.34
960.289	3499.19
960.592	3466.87
960.896	3476.82
961.199	3448.79
961.502	3443.14
961.805	3446.31
962.108	3423.94
962.411	3389.13
962.714	3392.07
963.017	3357.5
963.32	3315.46
963.623	3328.57
963.926	3342.36
964.228	3284.73
964.531	3280.89
964.833	3279.76
965.136	3258.74
965.438	3243.83
965.741	3242.47
966.043	3225.75
966.345	3218.07
966.648	3176.26
966.95	3190.5
967.252	3163.83
967.554	3136.26
967.856	3135.58
968.158	3112.98
968.46	3105.75
968.761	3113.66
969.063	3088.58
969.365	3057.17
969.666	3100.55
969.968	3054.91
970.269	3024.4
970.571	3002.25
970.872	3006.55
971.174	3011.74
971.475	3022.59
971.776	2997.28
972.077	2969.48
972.378	2919.99
972.679	2934.23
972.98	2952.31
973.281	2925.87
973.582	2887.68
973.883	2865.08
974.183	2866.66
974.484	2882.93
974.785	2828.24
975.085	2869.37
975.386	2850.39
975.686	2830.73
975.986	2793.9
976.287	2735.37
976.587	2736.95
976.887	2743.28
977.187	2758.64
977.487	2726.33
977.787	2726.78
978.087	2709.15
978.387	2692.66
978.687	2688.59
978.987	2708.7
979.286	2679.1
979.586	2644.52
979.885	2624.63
980.185	2647.68
980.484	2611.98
980.784	2627.35
981.083	2608.14
981.382	2576.5
981.682	2580.34
981.981	2532.43
982.28	2568.82
982.579	2543.73
982.878	2536.73
983.177	2540.79
983.475	2514.81
983.774	2467.58
984.073	2491.53
984.372	2478.42
984.67	2452.66
984.969	2450.85
985.267	2453.57
985.566	2468.25
985.864	2445.66
986.162	2388.93
986.461	2391.87
986.759	2402.95
987.057	2385.54
987.355	2356.62
987.653	2378.99
987.951	2376.73
988.249	2327.69
988.547	2314.81
988.844	2314.59
989.142	2336.28
989.44	2280.01
989.737	2279.78
990.035	2249.95
990.332	2255.83
990.63	2288.37
990.927	2249.28
991.224	2238.2
991.521	2253.12
991.819	2150.97
992.116	2190.07
992.413	2170.64
992.71	2149.17
993.006	2177.19
993.303	2170.64
993.6	2146.23
993.897	2156.4
994.193	2124.31
994.49	2107.81
994.787	2110.75
995.083	2101.71
995.379	2079.34
995.676	2076.4
995.972	2097.19
996.268	2103.97
996.565	2066.91
996.861	2027.81
997.157	2036.63
997.453	2022.84
997.749	2014.93
998.044	2014.93
998.34	2008.38
998.636	1983.97
998.932	1977.65
999.227	1971.09
999.523	1960.02
999.818	1923.64
1000.114	1913.47
1000.409	1913.69
1000.704	1915.27
1001	1902.39
1001.295	1878.89
1001.59	1884.31
1001.885	1904.65
1002.18	1882.96
1002.475	1835.5
1002.77	1855.62
1003.065	1838.67
1003.359	1853.81
1003.654	1823.75
1003.949	1841.6
1004.243	1792.34
1004.538	1791.21
1004.832	1789.85
1005.127	1747.6
1005.421	1764.32
1005.715	1761.61
1006.009	1717.09
1006.304	1751.21
1006.598	1713.7
1006.892	1700.59
1007.186	1706.92
1007.48	1688.84
1007.773	1696.3
1008.067	1684.32
1008.361	1658.78
1008.655	1668.28
1008.948	1654.72
1009.242	1632.34
1009.535	1651.1
1009.829	1601.61
1010.122	1607.49
1010.415	1607.49
1010.708	1585.11
1011.001	1614.94
1011.295	1582.63
1011.588	1608.16
1011.881	1583.98
1012.173	1566.36
1012.466	1554.61
1012.759	1542.18
1013.052	1550.76
1013.344	1517.54
1013.637	1492.01
1013.93	1478.45
1014.222	1492.69
1014.514	1493.82
1014.807	1473.7
1015.099	1436.87
1015.391	1468.73
1015.683	1441.16
1015.976	1429.19
1016.268	1452.91
1016.56	1409.3
1016.851	1404.55
1017.143	1401.39
1017.435	1400.94
1017.727	1400.26
1018.018	1371.79
1018.31	1383.31
1018.602	1366.36
1018.893	1377.44
1019.185	1366.14
1019.476	1356.19
1019.767	1346.93
1020.058	1325.23
1020.35	1301.28
1020.641	1315.29
1020.932	1286.82
1021.223	1293.37
1021.514	1287.95
1021.804	1278.91
1022.095	1271.45
1022.386	1266.93
1022.677	1267.83
1022.967	1243.2
1023.258	1227.83
1023.548	1242.07
1023.839	1240.04
1024.129	1226.03
1024.419	1214.73
1024.709	1191.45
1025	1197.33
1025.29	1160.49
1025.58	1154.39
1025.87	1200.72
1026.16	1176.31
1026.449	1177.21
1026.739	1142.87
1027.029	1154.84
1027.319	1133.6
1027.608	1127.05
1027.898	1137.89
1028.187	1094.96
1028.477	1094.51
1028.766	1109.42
1029.055	1098.57
1029.344	1070.1
1029.634	1053.83
1029.923	1089.76
1030.212	1063.09
1030.501	1053.15
1030.79	1059.7
1031.078	1052.02
1031.367	1047.95
1031.656	1029.65
1031.945	1026.48
1032.233	1033.94
1032.522	1011.12
1032.81	1018.12
1033.099	973.15
1033.387	990.1
1033.675	992.81
1033.963	993.94
1034.251	985.13
1034.54	952.14
1034.828	955.53
1035.116	988.07
1035.403	948.29
1035.691	939.71
1035.979	949.2
1036.267	939.48
1036.554	929.09
1036.842	915.07
1037.129	932.25
1037.417	924.57
1037.704	925.02
1037.992	898.8
1038.279	888.86
1038.566	885.92
1038.853	885.92
1039.14	885.92
