Data from hue_100_FLMS001491_00097.txt Node
Date: Tue Feb 07 17:03:54 GMT 2017
User: dcchb
Spectrometer: FLMS00149
Trigger mode: 0
Integration Time (sec): 2.000000E-2
Scans to average: 10
Electric dark correction enabled: true
Nonlinearity correction enabled: false
Boxcar width: 0
XAxis mode: Wavelengths
Number of Pixels in Spectrum: 2048
>>>>>Begin Spectral Data<<<<<
341.393	-15.55
341.776	-15.55
342.16	-15.55
342.543	-68.66
342.927	-53.29
343.31	-62.55
343.693	-53.06
344.077	-55.32
344.46	-70.01
344.843	-66.17
345.226	-50.13
345.61	-20.3
345.993	-16
346.376	-1.31
346.759	3.88
347.142	25.35
347.525	22.64
347.908	61.74
348.291	77.33
348.674	91.11
349.057	112.81
349.44	118.01
349.823	144.67
350.206	149.87
350.588	183.31
350.971	208.4
351.354	221.05
351.737	231
352.119	248.62
352.502	257.66
352.884	292.01
353.267	280.04
353.65	282.97
354.032	305.35
354.414	288.62
354.797	317.55
355.179	343.54
355.562	329.07
355.944	317.1
356.326	338.79
356.709	336.98
357.091	336.3
357.473	340.6
357.855	318
358.238	369.3
358.62	345.57
359.002	337.21
359.384	331.56
359.766	326.36
360.148	345.8
360.53	325.68
360.912	328.85
361.294	335.17
361.676	354.38
362.057	321.62
362.439	334.04
362.821	331.11
363.203	329.53
363.584	352.12
363.966	336.76
364.348	320.26
364.729	302.86
365.111	325.91
365.493	307.38
365.874	313.48
366.256	332.01
366.637	303.09
367.019	323.88
367.4	309.64
367.781	316.87
368.163	323.65
368.544	335.63
368.925	330.2
369.306	317.32
369.688	315.06
370.069	306.93
370.45	317.1
370.831	339.47
371.212	323.65
371.593	323.2
371.974	321.16
372.355	320.03
372.736	319.58
373.117	317.55
373.498	330.2
373.879	312.35
374.26	321.39
374.641	327.27
375.021	329.98
375.402	332.01
375.783	336.3
376.163	355.29
376.544	333.59
376.925	321.39
377.305	329.53
377.686	346.47
378.066	310.99
378.447	340.37
378.827	342.18
379.208	336.53
379.588	327.04
379.968	330.43
380.349	337.21
380.729	350.09
381.109	366.36
381.489	342.86
381.87	317.77
382.25	366.81
382.63	339.47
383.01	346.7
383.39	357.32
383.77	354.38
384.15	365
384.53	353.71
384.91	363.42
385.29	364.1
385.67	345.12
386.049	368.85
386.429	354.16
386.809	343.31
387.189	362.07
387.568	354.38
387.948	348.51
388.328	375.85
388.707	372.91
389.087	376.76
389.466	367.94
389.846	354.84
390.225	353.48
390.605	379.92
390.984	369.75
391.363	350.54
391.743	408.39
392.122	362.74
392.501	371.11
392.881	386.7
393.26	386.7
393.639	396.19
394.018	371.33
394.397	398.9
394.776	383.54
395.155	399.35
395.534	398.45
395.913	389.18
396.292	389.18
396.671	419.92
397.05	399.35
397.429	389.18
397.808	387.38
398.186	376.76
398.565	400.94
398.944	404.1
399.323	405.68
399.701	397.77
400.08	403.42
400.458	389.64
400.837	420.82
401.215	423.76
401.594	428.28
401.972	421.73
402.351	416.53
402.729	416.53
403.107	430.09
403.486	469.86
403.864	406.59
404.242	442.06
404.62	443.87
404.999	464.66
405.377	428.51
405.755	451.78
406.133	444.55
406.511	451.33
406.889	465.34
407.267	444.55
407.645	463.98
408.023	462.63
408.401	457.88
408.779	483.19
409.156	479.35
409.534	460.82
409.912	467.83
410.29	473.93
410.667	456.3
411.045	487.04
411.422	475.06
411.8	498.79
412.178	488.84
412.555	489.52
412.933	493.59
413.31	517.54
413.687	508.73
414.065	496.3
414.442	512.57
414.819	515.74
415.197	511.89
415.574	521.38
415.951	529.07
416.328	534.94
416.705	540.59
417.082	551.89
417.46	536.3
417.837	542.4
418.214	548.95
418.591	539.92
418.967	546.24
419.344	557.77
419.721	540.59
420.098	572.46
420.475	575.17
420.852	564.32
421.228	587.15
421.605	595.28
421.982	571.78
422.358	570.2
422.735	585.56
423.111	577.65
423.488	619.24
423.864	613.81
424.241	634.6
424.617	609.52
424.994	630.53
425.37	619.24
425.746	617.2
426.123	591.89
426.499	608.84
426.875	644.32
427.251	645.45
427.627	660.36
428.003	662.62
428.379	663.3
428.756	686.13
429.132	660.36
429.507	694.71
429.883	689.29
430.259	705.11
430.635	696.07
431.011	673.92
431.387	724.77
431.763	733.13
432.138	719.57
432.514	746.01
432.89	729.97
433.265	727.93
433.641	759.57
434.016	761.38
434.392	759.34
434.767	772.23
435.143	769.97
435.518	791.43
435.894	789.4
436.269	787.82
436.644	792.34
437.02	797.08
437.395	809.29
437.77	842.96
438.145	842.73
438.52	855.84
438.895	843.64
439.271	839.57
439.646	853.81
440.021	854.03
440.395	872.11
440.77	849.06
441.145	869.85
441.52	895.39
441.895	886.12
442.27	882.73
442.645	907.14
443.019	926.8
443.394	904.65
443.769	920.47
444.143	920.47
444.518	932.45
444.892	928.15
445.267	924.09
445.641	927.48
446.016	923.18
446.39	971.99
446.764	958.89
447.139	961.82
447.513	986.46
447.887	993.46
448.262	976.51
448.636	972.45
449.01	994.82
449.384	1015.83
449.758	1026
450.132	1026.68
450.506	1003.86
450.88	1052.9
451.254	1039.79
451.628	1054.03
452.002	1053.57
452.376	1073.23
452.75	1073.01
453.123	1057.87
453.497	1102.16
453.871	1103.97
454.244	1134.25
454.618	1137.41
454.992	1143.06
455.365	1144.42
455.739	1147.81
456.112	1193.23
456.486	1232.1
456.859	1193.91
457.232	1213.8
457.606	1254.92
457.979	1272.78
458.352	1253.79
458.725	1280.46
459.099	1279.56
459.472	1306.9
459.845	1320.46
460.218	1365.88
460.591	1364.3
460.964	1372.89
461.337	1416.5
461.71	1427.12
462.083	1433.23
462.456	1459.67
462.829	1463.73
463.201	1497.4
463.574	1493.34
463.947	1518.42
464.32	1547.35
464.692	1584.41
465.065	1561.81
465.438	1588.25
465.81	1634.8
466.183	1659.21
466.555	1685.42
466.928	1701.69
467.3	1696.49
467.672	1761.8
468.045	1805.64
468.417	1779.2
468.789	1832.99
469.161	1853.33
469.534	1888.13
469.906	1958.18
470.278	1976.94
470.65	2018.07
471.022	2029.14
471.394	2082.02
471.766	2090.83
472.138	2134
472.51	2190.72
472.882	2235.46
473.253	2270.04
473.625	2333.99
473.997	2368.79
474.369	2370.6
474.74	2438.17
475.112	2473.42
475.484	2562.23
475.855	2614.89
476.227	2665.06
476.598	2773.53
476.97	2799.52
477.341	2865.96
477.713	2954.31
478.084	2990.92
478.455	3099.17
478.827	3162.9
479.198	3259.39
479.569	3340.07
479.94	3464.58
480.311	3507.97
480.682	3628.42
481.053	3689.66
481.424	3850.56
481.795	3899.37
482.166	3966.27
482.537	4104.34
482.908	4244.45
483.279	4340.72
483.65	4391.57
484.021	4551.11
484.391	4640.6
484.762	4793.59
485.133	4849.18
485.503	4976.63
485.874	5122.85
486.244	5199.45
486.615	5417.08
486.985	5538.88
487.356	5690.51
487.726	5782.26
488.097	5947
488.467	6000.11
488.837	6181.8
489.207	6344.96
489.578	6494.11
489.948	6634.44
490.318	6776.14
490.688	6856.36
491.058	7123.92
491.428	7189.46
491.798	7357.59
492.168	7591.71
492.538	7677.13
492.908	7864.24
493.278	7993.5
493.648	8060.85
494.017	8292.71
494.387	8368.41
494.757	8497.9
495.126	8669.64
495.496	8810.21
495.866	8946.47
496.235	9035.06
496.605	9238.9
496.974	9286.35
497.344	9404.54
497.713	9545.33
498.082	9693.35
498.452	9846.79
498.821	9971.31
499.19	10082.26
499.559	10195.03
499.928	10190.28
500.298	10395.93
500.667	10522.93
501.036	10550.05
501.405	10712.3
501.774	10753.88
502.143	10905.74
502.512	10984.61
502.88	11152.97
503.249	11164.27
503.618	11336.69
503.987	11332.17
504.356	11409.01
504.724	11572.62
505.093	11645.61
505.462	11678.38
505.83	11820.97
506.199	11945.94
506.567	12114.53
506.936	12198.59
507.304	12265.03
507.672	12326.95
508.041	12405.14
508.409	12531.01
508.777	12632.48
509.145	12672.03
509.514	12662.08
509.882	12801.29
510.25	12839.7
510.618	12898.23
510.986	12955.41
511.354	13104.1
511.722	13155.63
512.09	13265.68
512.458	13176.19
512.826	13361.72
513.193	13400.82
513.561	13467.03
513.929	13550.87
514.297	13627.71
514.664	13714.71
515.032	13725.33
515.4	13823.63
515.767	13849.4
516.135	13879.23
516.502	13837.42
516.869	14025.66
517.237	14070.63
517.604	13952.44
517.972	14134.36
518.339	14222.27
518.706	14147.92
519.073	14179.78
519.44	14264.75
519.808	14344.98
520.175	14349.5
520.542	14473.33
520.909	14549.04
521.276	14511.98
521.643	14579.55
522.009	14535.25
522.376	14704.97
522.743	14705.42
523.11	14803.95
523.477	14824.51
523.843	14865.87
524.21	15003.94
524.577	15049.14
524.943	15120.77
525.31	15070.38
525.676	15272.86
526.043	15147.21
526.409	15239.42
526.776	15252.97
527.142	15299.08
527.508	15326.42
527.874	15389.24
528.241	15393.08
528.607	15342.01
528.973	15417.49
529.339	15365.51
529.705	15599.41
530.071	15570.25
530.437	15542.91
530.803	15628.11
531.169	15650.25
531.535	15589.69
531.901	15547.88
532.267	15546.75
532.632	15565.96
532.998	15745.39
533.364	15598.5
533.73	15644.15
534.095	15701.78
534.461	15606.19
534.826	15648.67
535.192	15648.22
535.557	15717.14
535.923	15610.48
536.288	15638.73
536.653	15692.29
537.019	15579.29
537.384	15414.1
537.749	15566.64
538.114	15576.81
538.479	15493.87
538.845	15436.47
539.21	15367.55
539.575	15431.05
539.94	15430.15
540.305	15466.98
540.67	15344.72
541.034	15365.74
541.399	15370.49
541.764	15330.49
542.129	15384.5
542.494	15360.32
542.858	15355.8
543.223	15218.63
543.587	15265.63
543.952	15191.06
544.316	15189.47
544.681	15123.03
545.045	15184.95
545.41	15232.41
545.774	15129.36
546.138	15013.88
546.503	15023.83
546.867	14970.72
547.231	15001.46
547.595	14988.35
547.959	14987.9
548.324	14889.37
548.688	14806.66
549.052	14948.35
549.416	14914.9
549.779	14910.38
550.143	14817.73
550.507	14819.99
550.871	14827.45
551.235	14676.94
551.599	14824.96
551.962	14833.1
552.326	14802.37
552.689	14853.89
553.053	14653.22
553.417	14618.19
553.78	14705.42
554.143	14659.09
554.507	14728.24
554.87	14618.64
555.234	14750.84
555.597	14677.17
555.96	14553.11
556.323	14593.33
556.686	14537.74
557.05	14628.36
557.413	14610.28
557.776	14526.67
558.139	14541.35
558.502	14584.29
558.865	14542.48
559.228	14570.96
559.59	14622.26
559.953	14575.48
560.316	14725.08
560.679	14699.09
561.041	14662.03
561.404	14661.35
561.767	14808.24
562.129	14650.28
562.492	14736.83
562.854	14714.91
563.217	14706.77
563.579	14672.42
563.941	14667.91
564.304	14796.04
564.666	14822.7
565.028	14854.79
565.39	14752.65
565.753	14846.66
566.115	14861.57
566.477	14918.52
566.839	14899.31
567.201	15001.68
567.563	14845.53
567.925	14998.74
568.287	14976.6
568.648	14885.3
569.01	14957.84
569.372	15107.22
569.734	14944.28
570.095	15153.77
570.457	15103.15
570.819	15149.47
571.18	15073.32
571.542	15130.49
571.903	15099.08
572.265	15201
572.626	15182.92
572.987	15195.58
573.349	15215.69
573.71	15209.81
574.071	15208.46
574.432	15208.91
574.794	15413.42
575.155	15270.83
575.516	15253.88
575.877	15293.88
576.238	15321.22
576.599	15296.59
576.96	15295.91
577.32	15281.22
577.681	15395.34
578.042	15381.78
578.403	15406.42
578.763	15326.87
579.124	15358.51
579.485	15438.73
579.845	15474.44
580.206	15406.19
580.566	15354.44
580.927	15393.99
581.287	15448.68
581.648	15346.98
582.008	15413.87
582.368	15349.02
582.728	15412.52
583.089	15346.31
583.449	15306.31
583.809	15365.06
584.169	15366.42
584.529	15237.61
584.889	15409.81
585.249	15313.54
585.609	15271.96
585.969	15424.95
586.329	15232.86
586.688	15275.57
587.048	15323.93
587.408	15239.42
587.768	15270.6
588.127	15230.38
588.487	15133.2
588.846	15233.77
589.206	15123.49
589.565	15239.87
589.925	15316.48
590.284	15158.06
590.643	15248.68
591.003	15212.3
591.362	15207.78
591.721	15172.3
592.08	15123.26
592.44	15207.55
592.799	15158.74
593.158	15129.81
593.517	15137.05
593.876	15281
594.235	15109.7
594.593	15121.68
594.952	15147.67
595.311	15127.33
595.67	15099.08
596.029	15128.91
596.387	15155.58
596.746	15164.39
597.104	15053.21
597.463	15144.73
597.822	15109.48
598.18	14962.81
598.538	15036.48
598.897	15168.91
599.255	14909.25
599.613	15321.9
599.972	15154.67
600.33	15184.28
600.688	15060.21
601.046	15139.53
601.404	15212.07
601.762	15104.28
602.12	15154.45
602.478	15109.48
602.836	15157.84
603.194	15001
603.552	15114
603.91	15040.55
604.268	15094.79
604.625	15054.56
604.983	15085.75
605.341	15059.31
605.698	15085.75
606.056	15139.76
606.413	15076.71
606.771	15093.43
607.128	15199.19
607.485	15094.33
607.843	15093.43
608.2	15238.06
608.557	15253.65
608.914	15120.55
609.272	15237.16
609.629	15238.96
609.986	15291.62
610.343	15192.64
610.7	15277.83
611.057	15298.62
611.414	15241.45
611.771	15328.9
612.127	15280.54
612.484	15307.66
612.841	15258.62
613.198	15342.92
613.554	15251.84
613.911	15309.47
614.267	15359.19
614.624	15324.61
614.98	15263.37
615.337	15441.67
615.693	15295.69
616.05	15343.14
616.406	15472.18
616.762	15427.66
617.118	15476.02
617.475	15379.98
617.831	15510.59
618.187	15453.2
618.543	15531.61
618.899	15596.47
619.255	15591.27
619.611	15504.95
619.967	15626.07
620.323	15570.71
620.678	15587.43
621.034	15583.14
621.39	15494.32
621.746	15626.75
622.101	15611.16
622.457	15527.09
622.812	15609.35
623.168	15639.41
623.523	15511.72
623.879	15647.54
624.234	15581.1
624.589	15593.98
624.945	15615.68
625.3	15579.97
625.655	15581.55
626.01	15502.01
626.365	15525.51
626.72	15534.32
627.075	15630.37
627.43	15511.72
627.785	15494.78
628.14	15581.1
628.495	15520.54
628.85	15472.4
629.205	15432.18
629.559	15540.2
629.914	15405.06
630.269	15470.37
630.623	15377.72
630.978	15462.69
631.332	15490.48
631.687	15483.93
632.041	15438.05
632.396	15451.16
632.75	15337.49
633.104	15344.72
633.459	15308.11
633.813	15332.97
634.167	15318.96
634.521	15272.86
634.875	15268.57
635.229	15362.8
635.583	15198.29
635.937	15161.9
636.291	15116.03
636.645	15210.04
636.999	15177.95
637.352	15166.2
637.706	15052.08
638.06	15186.08
638.413	15120.55
638.767	15137.27
639.121	15117.84
639.474	15021.79
639.828	15017.95
640.181	15060.66
640.534	15024.96
640.888	14973.66
641.241	14940.67
641.594	14941.34
641.947	15026.77
642.301	14940.44
642.654	14907.22
643.007	14905.64
643.36	14884.85
643.713	14924.17
644.066	14996.94
644.419	14908.8
644.771	14731.41
645.124	14703.16
645.477	14654.57
645.83	14553.11
646.182	14410.74
646.535	14473.33
646.888	14475.37
647.24	14296.62
647.593	14404.41
647.945	14343.17
648.298	14345.65
648.65	14231.76
649.002	14373.9
649.355	14415.26
649.707	14381.13
650.059	14475.59
650.411	14613.44
650.763	14626.32
651.115	14726.66
651.467	14711.52
651.819	14718.98
652.171	14663.39
652.523	14655.93
652.875	14606.89
653.227	14560.11
653.578	14653.22
653.93	14723.95
654.282	14613.67
654.633	14592.43
654.985	14664.06
655.337	14626.55
655.688	14683.5
656.039	14659.54
656.391	14511.53
656.742	14689.6
657.094	14655.25
657.445	14752.65
657.796	14699.54
658.147	14662.26
658.498	14665.42
658.849	14757.17
659.2	14761.91
659.551	14638.53
659.902	14701.8
660.253	14709.49
660.604	14697.28
660.955	14599.43
661.306	14849.14
661.656	14671.52
662.007	14683.5
662.358	14754
662.708	14805.08
663.059	14763.04
663.409	14636.49
663.76	14830.61
664.11	14748.58
664.461	14779.77
664.811	14697.06
665.161	14728.69
665.511	14751.07
665.862	14796.04
666.212	14751.97
666.562	14818.18
666.912	14739.09
667.262	14799.2
667.612	14813.66
667.962	14717.62
668.312	14779.54
668.662	14781.12
669.011	14780.9
669.361	14716.72
669.711	14803.04
670.06	14666.32
670.41	14711.97
670.76	14689.15
671.109	14721.24
671.459	14664.06
671.808	14639.88
672.157	14696.38
672.507	14515.37
672.856	14566.67
673.205	14652.76
673.554	14568.02
673.904	14603.5
674.253	14624.29
674.602	14516.04
674.951	14368.03
675.3	14272.44
675.649	14602.6
675.998	14451.19
676.346	14486.67
676.695	14602.82
677.044	14404.86
677.393	14491.41
677.741	14530.73
678.09	14432.66
678.438	14443.28
678.787	14297.52
679.135	14406.22
679.484	14261.14
679.832	14353.79
680.181	14278.76
680.529	14281.47
680.877	14207.13
681.225	14202.15
681.573	14235.15
681.922	14185.21
682.27	14123.29
682.618	14240.8
682.966	14061.14
683.314	14161.48
683.661	14062.27
684.009	14020.69
684.357	14024.98
684.705	13911.99
685.053	13956.74
685.4	13921.48
685.748	13841.49
686.095	13802.62
686.443	13857.53
686.79	13789.51
687.138	13817.31
687.485	13790.87
687.832	13759.91
688.18	13792.45
688.527	13595.17
688.874	13628.61
689.221	13606.46
689.568	13635.84
689.915	13605.11
690.262	13500.7
690.609	13441.04
690.956	13462.29
691.303	13392.46
691.65	13302.74
691.997	13335.51
692.344	13133.26
692.69	13225.91
693.037	13250.99
693.383	13068.4
693.73	13091
694.077	13013.49
694.423	13047.61
694.769	12937.56
695.116	12975.07
695.462	12891.45
695.808	12821.63
696.155	12920.15
696.501	12759.93
696.847	12720.61
697.193	12613.27
697.539	12664.34
697.885	12465.48
698.231	12509.32
698.577	12463.67
698.923	12354.07
699.269	12327.18
699.614	12324.69
699.96	12298.48
700.306	12297.35
700.651	12171.25
700.997	12112.72
701.342	12086.96
701.688	12137.12
702.033	12021.65
702.379	12112.72
702.724	11994.08
703.069	11960.41
703.415	11802.22
703.76	11800.41
704.105	11867.53
704.45	11849.22
704.795	11722.9
705.14	11686.06
705.485	11632.73
705.83	11643.8
706.175	11580.08
706.52	11595.22
706.865	11496.46
707.209	11579.85
707.554	11512.28
707.899	11505.95
708.243	11447.42
708.588	11416.47
708.932	11365.17
709.277	11353.87
709.621	11302.8
709.966	11183.7
710.31	11246.3
710.654	11088.11
710.998	11142.57
711.342	11159.97
711.687	11113.87
712.031	11043.59
712.375	11035.68
712.719	11060.99
713.063	10996.59
713.407	11065.74
713.75	10957.95
714.094	10962.24
714.438	10889.93
714.782	10900.09
715.125	10920.43
715.469	10934.67
715.812	10849.25
716.156	10726.31
716.499	10774.9
716.843	10794.11
717.186	10697.16
717.53	10705.3
717.873	10772.41
718.216	10721.79
718.559	10668.01
718.902	10639.99
719.246	10648.58
719.589	10589.82
719.932	10592.98
720.275	10601.12
720.617	10548.69
720.96	10550.73
721.303	10545.08
721.646	10513.44
721.989	10437.51
722.331	10479.99
722.674	10479.31
723.016	10478.18
723.359	10565.64
723.701	10443.16
724.044	10454
724.386	10439.32
724.729	10400.67
725.071	10409.49
725.413	10399.09
725.755	10331.97
726.097	10355.93
726.439	10251.75
726.782	10362.03
727.124	10365.19
727.465	10279.32
727.807	10295.59
728.149	10269.83
728.491	10307.57
728.833	10320.45
729.175	10254.91
729.516	10222.6
729.858	10250.39
730.199	10205.88
730.541	10280.68
730.882	10244.29
731.224	10251.3
731.565	10196.84
731.906	10220.34
732.248	10199.32
732.589	10181.92
732.93	10234.58
733.271	10200.23
733.612	10254.24
733.953	10199.32
734.294	10169.27
734.635	10154.8
734.976	10239.55
735.317	10165.42
735.658	10167.68
735.999	10247.46
736.339	10214.24
736.68	10214.69
737.021	10197.06
737.361	10240.45
737.702	10220.79
738.042	10240.23
738.383	10221.69
738.723	10264.18
739.063	10237.51
739.404	10290.62
739.744	10312.77
740.084	10244.07
740.424	10225.76
740.764	10248.13
741.104	10362.48
741.444	10304.63
741.784	10288.13
742.124	10322.26
742.464	10333.1
742.804	10382.59
743.143	10326.1
743.483	10400.67
743.823	10397.74
744.162	10424.4
744.502	10430.05
744.841	10470.05
745.181	10523.16
745.52	10516.38
745.86	10639.76
746.199	10678.86
746.538	10589.82
746.877	10736.48
747.216	10723.38
747.556	10800.66
747.895	10896.03
748.234	10880.43
748.573	10933.77
748.911	10880.21
749.25	11019.87
749.589	11102.8
749.928	11156.13
750.267	11221.22
750.605	11279.29
750.944	11407.2
751.283	11356.13
751.621	11532.39
751.96	11563.35
752.298	11640.64
752.636	11855.55
752.975	11892.84
753.313	11967.19
753.651	12126.28
753.989	12147.07
754.327	12286.95
754.666	12354.52
755.004	12514.52
755.342	12643.1
755.679	12745.02
756.017	12885.13
756.355	13101.39
756.693	13151.33
757.031	13328.73
757.368	13466.81
757.706	13592.45
758.044	13687.37
758.381	13872.22
758.719	13987.02
759.056	14202.38
759.394	14264.07
759.731	14422.71
760.068	14552.65
760.405	14749.26
760.743	14768.47
761.08	14965.75
761.417	15062.25
761.754	15322.58
762.091	15522.57
762.428	15650.03
762.765	15671.27
763.102	16048.21
763.438	16082.11
763.775	16186.06
764.112	16453.62
764.449	16559.61
764.785	16690.22
765.122	16731.58
765.458	16883.21
765.795	17079.59
766.131	17248.18
766.467	17346.48
766.804	17510.77
767.14	17604.78
767.476	17788.73
767.812	17759.12
768.148	17960.93
768.485	18057.65
768.821	18128.83
769.157	18282.73
769.492	18399.78
769.828	18579.89
770.164	18505.32
770.5	18677.74
770.836	18796.16
771.171	18823.73
771.507	19004.06
771.842	18881.81
772.178	19001.12
772.513	19101.69
772.849	19171.74
773.184	19233.89
773.519	19412.64
773.855	19304.17
774.19	19512.07
774.525	19520.21
774.86	19598.17
775.195	19680.88
775.53	19708.68
775.865	19611.05
776.2	19587.1
776.535	19600.2
776.87	19719.98
777.205	19701.9
777.539	19686.76
777.874	19893.08
778.209	19780.31
778.543	19700.32
778.878	19780.54
779.212	19878.39
779.547	19774.89
779.881	19957.71
780.215	19882.01
780.55	19869.58
780.884	19824.83
781.218	19817.6
781.552	19884.72
781.886	19825.74
782.22	19741.9
782.554	19638.4
782.888	19683.82
783.222	19639.3
783.556	19589.58
783.889	19625.97
784.223	19552.3
784.557	19635.91
784.89	19641.11
785.224	19628.23
785.557	19513.2
785.891	19475.01
786.224	19550.94
786.558	19513.43
786.891	19385.97
787.224	19432.98
787.557	19366.99
787.891	19366.31
788.224	19468.68
788.557	19471.62
788.89	19311.62
789.223	19399.98
789.556	19181.91
789.888	19289.7
790.221	19056.49
790.554	19017.62
790.887	19017.17
791.219	19051.97
791.552	18979.43
791.884	18889.49
792.217	18912.99
792.549	18980.11
792.882	18699.66
793.214	18746.22
793.546	18792.09
793.879	18693.79
794.211	18553.45
794.543	18586.9
794.875	18523.62
795.207	18654.92
795.539	18466.22
795.871	18518.43
796.203	18435.49
796.535	18283.18
796.867	18330.63
797.198	18329.05
797.53	18290.41
797.862	18067.36
798.193	18181.49
798.525	18050.87
798.856	18138.32
799.188	17933.13
799.519	17920.93
799.85	17828.27
800.182	17798.67
800.513	17878.22
800.844	17684.32
801.175	17866.92
801.506	17785.34
801.837	17707.83
802.168	17639.8
802.499	17572.91
802.83	17427.15
803.161	17536.76
803.491	17489.3
803.822	17451.11
804.153	17412.01
804.483	17271.9
804.814	17230.1
805.145	17258.35
805.475	17099.71
805.805	17124.34
806.136	17100.84
806.466	17134.51
806.796	17050.44
807.126	16954.85
807.457	16944.68
807.787	16901.29
808.117	16757.12
808.447	16709.89
808.777	16814.06
809.107	16758.7
809.436	16639.15
809.766	16608.19
810.096	16564.35
810.426	16601.87
810.755	16564.35
811.085	16573.84
811.414	16473.51
811.744	16414.3
812.073	16424.7
812.403	16432.83
812.732	16276
813.061	16250.24
813.39	16186.28
813.719	16258.82
814.049	16385.6
814.378	16149.45
814.707	16144.02
815.036	16104.25
815.365	16111.71
815.693	15908.78
816.022	15957.81
816.351	15944.48
816.68	15867.65
817.008	15970.7
817.337	15780.64
817.665	15740.19
817.994	15785.62
818.322	15817.25
818.651	15643.7
818.979	15550.59
819.307	15700.19
819.636	15693.42
819.964	15664.49
820.292	15623.81
820.62	15555.34
820.948	15445.29
821.276	15614.55
821.604	15501.56
821.932	15617.94
822.259	15522.35
822.587	15476.25
822.915	15585.62
823.243	15559.63
823.57	15456.13
823.898	15478.28
824.225	15494.32
824.553	15454.1
824.88	15382.46
825.207	15492.06
825.535	15461.1
825.862	15620.87
826.189	15456.59
826.516	15560.54
826.843	15620.65
827.17	15550.59
827.497	15511.27
827.824	15576.58
828.151	15622
828.478	15591.04
828.805	15617.94
829.131	15531.61
829.458	15538.39
829.785	15487.32
830.111	15437.38
830.438	15595.11
830.764	15521.89
831.09	15491.16
831.417	15459.52
831.743	15567.99
832.069	15471.05
832.395	15402.8
832.722	15440.54
833.048	15378.17
833.374	15463.59
833.7	15353.99
834.026	15306.76
834.351	15400.99
834.677	15357.15
835.003	15505.62
835.329	15325.97
835.654	15405.74
835.98	15186.08
836.306	15363.03
836.631	15253.43
836.956	15274.89
837.282	15328.9
837.607	15231.73
837.932	15149.93
838.258	15210.72
838.583	15240.55
838.908	15059.76
839.233	15152.19
839.558	15079.42
839.883	15072.87
840.208	15026.54
840.533	14899.99
840.858	15051.85
841.182	14935.02
841.507	15000.33
841.832	14894.79
842.156	14864.96
842.481	14902.93
842.805	14874.23
843.13	14818.41
843.454	14759.65
843.778	14783.16
844.103	14693.44
844.427	14613.9
844.751	14573.9
845.075	14572.77
845.399	14547.46
845.723	14448.02
846.047	14489.6
846.371	14308.82
846.695	14389.27
847.019	14377.29
847.343	14209.61
847.666	14122.38
847.99	14101.37
848.313	13998.32
848.637	13970.07
848.96	13992.44
849.284	13886.46
849.607	13814.37
849.931	13772.79
850.254	13729.62
850.577	13679.46
850.9	13604.2
851.223	13529.18
851.546	13491.67
851.869	13367.15
852.192	13391.55
852.515	13258.22
852.838	13284.66
853.161	13202.63
853.483	13221.62
853.806	13100.94
854.129	13095.29
854.451	13014.39
854.774	12937.56
855.096	13008.51
855.419	12965.58
855.741	12847.84
856.063	12825.24
856.385	12798.35
856.708	12773.49
857.03	12749.31
857.352	12788.63
857.674	12724.68
857.996	12618.24
858.318	12486.04
858.64	12558.81
858.961	12561.52
859.283	12475.19
859.605	12453.5
859.926	12418.25
860.248	12397.68
860.57	12435.65
860.891	12342.32
861.212	12295.31
861.534	12234.75
861.855	12214.86
862.176	12234.07
862.498	12197.91
862.819	12165.6
863.14	12178.25
863.461	12123.34
863.782	11989.78
864.103	12092.61
864.424	11991.14
864.745	12133.73
865.065	11898.71
865.386	11870.46
865.707	11903.23
866.027	11948.2
866.348	11855.78
866.668	11825.04
866.989	11914.53
867.309	11682
867.63	11837.92
867.95	11807.87
868.27	11727.19
868.59	11786.85
868.91	11706.18
869.23	11734.88
869.55	11660.3
869.87	11704.82
870.19	11689.23
870.51	11739.17
870.83	11676.35
871.15	11562.22
871.469	11622.34
871.789	11571.26
872.109	11560.64
872.428	11467.99
872.748	11508.67
873.067	11518.84
873.386	11488.55
873.706	11486.52
874.025	11370.59
874.344	11362.91
874.663	11408.1
874.982	11363.59
875.301	11406.52
875.62	11369.46
875.939	11288.56
876.258	11310.71
876.577	11265.96
876.896	11248.33
877.214	11251.5
877.533	11136.02
877.852	11248.33
878.17	11182.8
878.489	11238.16
878.807	11151.84
879.125	11117.49
879.444	11120.2
879.762	11144.61
880.08	11120.2
880.398	11029.81
880.716	11088.34
881.034	11042.69
881.352	10988.91
881.67	11013.09
881.988	10936.7
882.306	10891.06
882.624	10891.06
882.941	10811.28
883.259	10743.94
883.577	10808.12
883.894	10799.08
884.212	10772.87
884.529	10734.68
884.846	10725.41
885.164	10734.9
885.481	10658.52
885.798	10716.14
886.115	10606.32
886.432	10683.38
886.75	10498.07
887.067	10571.74
887.383	10531.52
887.7	10551.63
888.017	10463.04
888.334	10449.49
888.651	10365.87
888.967	10385.31
889.284	10387.57
889.6	10352.09
889.917	10257.4
890.233	10210.85
890.55	10175.14
890.866	10264.41
891.182	10222.82
891.498	10140.34
891.815	10110.74
892.131	10131.08
892.447	10031.87
892.763	10017.41
893.079	9985.77
893.395	9918.2
893.71	9967.24
894.026	9950.52
894.342	9855.38
894.657	9833
894.973	9755.72
895.289	9815.38
895.604	9780.35
895.92	9737.87
896.235	9624.87
896.55	9685.21
896.865	9586.46
897.181	9589.17
897.496	9592.11
897.811	9515.27
898.126	9437.99
898.441	9456.74
898.756	9466.69
899.071	9336.97
899.386	9382.62
899.7	9287.03
900.015	9292
900.33	9194.38
900.644	9176.07
900.959	9267.82
901.273	9237.54
901.588	9173.36
901.902	9088.39
902.216	9028.51
902.531	9021.73
902.845	9018.11
903.159	8941.28
903.473	8895.63
903.787	8837.55
904.101	8824.44
904.415	8800.94
904.729	8744.22
905.042	8770.89
905.356	8713.94
905.67	8694.95
905.984	8672.81
906.297	8657.22
906.611	8606.37
906.924	8585.58
907.237	8485.69
907.551	8499.25
907.864	8401.63
908.177	8433.27
908.491	8401.4
908.804	8367.96
909.117	8287.28
909.43	8199.15
909.743	8172.03
910.056	8185.36
910.368	8207.06
910.681	8172.48
910.994	8059.94
911.307	8126.83
911.619	8080.73
911.932	7990.34
912.244	7962.32
912.557	7934.07
912.869	7879.84
913.181	7871.47
913.494	7886.16
913.806	7794.87
914.118	7775.66
914.43	7798.93
914.742	7758.71
915.054	7666.96
915.366	7652.72
915.678	7571.37
915.99	7568.88
916.302	7557.81
916.613	7479.17
916.925	7500.86
917.236	7459.73
917.548	7450.47
917.859	7456.57
918.171	7384.25
918.482	7299.06
918.794	7320.3
919.105	7288.66
919.416	7198.95
919.727	7199.85
920.038	7222.68
920.349	7105.17
920.66	7159.85
920.971	7130.48
921.282	7073.08
921.593	7064.94
921.903	7101.32
922.214	6999.18
922.525	6988.79
922.835	6960.99
923.146	6896.36
923.456	6926.19
923.767	6773.65
924.077	6858.39
924.387	6804.84
924.697	6714.67
925.008	6738.17
925.318	6663.6
925.628	6685.06
925.938	6670.6
926.248	6585.63
926.558	6565.29
926.867	6597.16
927.177	6508.35
927.487	6448.23
927.796	6458.86
928.106	6435.35
928.416	6414.11
928.725	6391.74
929.034	6403.94
929.344	6389.48
929.653	6351.97
929.962	6300.44
930.271	6263.38
930.581	6241.69
930.89	6220.22
931.199	6174.34
931.508	6150.39
931.817	6164.17
932.125	6146.32
932.434	6102.03
932.743	6073.1
933.051	6034.23
933.36	6000.11
933.669	5957.4
933.977	6014.57
934.286	5940
934.594	5915.14
934.902	5902.71
935.21	5872.43
935.519	5847.12
935.827	5815.93
936.135	5745.43
936.443	5788.14
936.751	5752.43
937.059	5772.77
937.367	5663.85
937.674	5711.08
937.982	5672.44
938.29	5626.34
938.597	5603.74
938.905	5569.39
939.213	5546.34
939.52	5483.74
939.827	5516.51
940.135	5433.12
940.442	5471.31
940.749	5464.31
941.056	5491.2
941.363	5366.68
941.67	5359
941.977	5364.42
942.284	5278.1
942.591	5328.94
942.898	5243.07
943.205	5246.01
943.511	5218.44
943.818	5253.24
944.125	5220.47
944.431	5191.77
944.738	5187.02
945.044	5072.23
945.35	5116.29
945.657	5045.11
945.963	5046.01
946.269	5032.23
946.575	5041.49
946.881	4940.93
947.187	4969.4
947.493	4961.27
947.799	4909.74
948.105	4953.13
948.41	4902.29
948.716	4837.43
949.022	4872.91
949.327	4836.07
949.633	4774.61
949.938	4781.16
950.244	4782.29
950.549	4788.62
950.854	4739.8
951.16	4721.95
951.465	4690.99
951.77	4661.39
952.075	4689.86
952.38	4623.88
952.685	4680.82
952.99	4544.78
953.294	4566.93
953.599	4500.26
953.904	4531.67
954.209	4509.75
954.513	4487.83
954.818	4444.45
955.122	4414.84
955.426	4449.42
955.731	4391.34
956.035	4374.62
956.339	4329.65
956.643	4376.65
956.948	4302.98
957.252	4272.25
957.556	4288.29
957.86	4264.34
958.163	4232.02
958.467	4222.76
958.771	4224.34
959.075	4203.77
959.378	4162.87
959.682	4151.12
959.985	4159.26
960.289	4109.76
960.592	4115.87
960.896	4065.47
961.199	4074.06
961.502	4049.43
961.805	4006.49
962.108	4044
962.411	4060.05
962.714	3996.55
963.017	3997.9
963.32	4006.72
963.623	3936.21
963.926	3954.06
964.228	3889.21
964.531	3888.3
964.833	3849.21
965.136	3822.99
965.438	3801.07
965.741	3788.87
966.043	3815.99
966.345	3766.05
966.648	3760.85
966.95	3754.97
967.252	3705.48
967.554	3712.94
967.856	3728.08
968.158	3677.91
968.46	3649.21
968.761	3627.07
969.063	3623.45
969.365	3565.82
969.666	3591.13
969.968	3581.64
970.269	3600.85
970.571	3517.92
970.872	3559.5
971.174	3545.03
971.475	3561.76
971.776	3509.1
972.077	3501.19
972.378	3489.67
972.679	3426.39
972.98	3431.82
973.281	3405.38
973.582	3410.8
973.883	3389.11
974.183	3380.07
974.484	3376.68
974.785	3339.39
975.085	3343.91
975.386	3337.36
975.686	3260.97
975.986	3289.9
976.287	3289
976.587	3254.19
976.887	3224.36
977.187	3251.71
977.487	3195.21
977.787	3221.65
978.087	3209.68
978.387	3178.72
978.687	3157.25
978.987	3158.38
979.286	3123.8
979.586	3100.53
979.885	3093.75
980.185	3107.31
980.484	3061.2
980.784	3060.53
981.083	3028.21
981.382	3033.41
981.682	3020.75
981.981	3004.94
982.28	3030.92
982.579	2957.7
982.878	3013.97
983.177	2961.09
983.475	2943.92
983.774	2884.03
984.073	2904.37
984.372	2913.64
984.67	2867.09
984.969	2892.17
985.267	2883.13
985.566	2833.41
985.864	2803.58
986.162	2834.32
986.461	2805.17
986.759	2795.9
987.057	2761.78
987.355	2782.34
987.653	2761.33
987.951	2762.46
988.249	2713.87
988.547	2772.85
988.844	2691.5
989.142	2707.77
989.44	2703.93
989.737	2693.3
990.035	2645.4
990.332	2633.65
990.63	2649.92
990.927	2617.6
991.224	2627.32
991.521	2562.91
991.819	2565.4
992.116	2575.34
992.413	2543.03
992.71	2544.83
993.006	2550.03
993.303	2545.74
993.6	2506.19
993.897	2500.77
994.193	2494.89
994.49	2495.34
994.787	2478.62
995.083	2447.89
995.379	2439.98
995.676	2407.66
995.972	2411.28
996.268	2408.34
996.565	2349.59
996.861	2400.88
997.157	2350.94
997.453	2366.99
997.749	2303.03
998.044	2338.96
998.34	2324.95
998.636	2323.37
998.932	2251.51
999.227	2305.52
999.523	2286.76
999.818	2286.31
1000.114	2262.13
1000.409	2212.19
1000.704	2236.82
1001	2215.8
1001.295	2221.23
1001.59	2217.16
1001.885	2210.61
1002.18	2129.93
1002.475	2115.02
1002.77	2157.95
1003.065	2112.98
1003.359	2130.38
1003.654	2112.3
1003.949	2099.87
1004.243	2073.21
1004.538	2070.5
1004.832	2105.98
1005.127	2043.15
1005.421	2046.99
1005.715	2007.9
1006.009	2035.02
1006.304	2032.31
1006.598	1986.66
1006.892	1968.13
1007.186	1963.83
1007.48	1966.09
1007.773	1949.6
1008.067	1940.78
1008.361	1930.39
1008.655	1911.18
1008.948	1890.39
1009.242	1919.99
1009.535	1904.63
1009.829	1890.84
1010.122	1888.58
1010.415	1865.53
1010.708	1818.75
1011.001	1803.38
1011.295	1819.2
1011.588	1831.86
1011.881	1804.06
1012.173	1790.05
1012.466	1779.2
1012.759	1758.19
1013.052	1766.55
1013.344	1781.46
1013.637	1745.99
1013.93	1700.79
1014.222	1716.38
1014.514	1736.27
1014.807	1702.37
1015.099	1685.65
1015.391	1669.15
1015.683	1658.08
1015.976	1650.62
1016.268	1637.29
1016.56	1609.04
1016.851	1617.17
1017.143	1600.9
1017.435	1601.81
1017.727	1577.85
1018.018	1586.22
1018.31	1580.11
1018.602	1581.02
1018.893	1557.06
1019.185	1562.94
1019.476	1529.72
1019.767	1521.13
1020.058	1504.86
1020.35	1498.31
1020.641	1500.79
1020.932	1505.99
1021.223	1481.13
1021.514	1493.56
1021.804	1466.67
1022.095	1424.86
1022.386	1448.59
1022.677	1434.58
1022.967	1438.65
1023.258	1421.7
1023.548	1393
1023.839	1383.28
1024.129	1380.57
1024.419	1374.02
1024.709	1357.52
1025	1372.89
1025.29	1353.23
1025.58	1344.87
1025.87	1294.47
1026.16	1294.02
1026.449	1315.26
1026.739	1304.41
1027.029	1278.88
1027.319	1294.02
1027.608	1268.94
1027.898	1270.29
1028.187	1257.64
1028.477	1254.7
1028.766	1230.29
1029.055	1240.46
1029.344	1234.81
1029.634	1214.02
1029.923	1228.26
1030.212	1221.71
1030.501	1204.76
1030.79	1158.66
1031.078	1157.75
1031.367	1153.68
1031.656	1170.41
1031.945	1177.64
1032.233	1153.91
1032.522	1146.45
1032.81	1162.95
1033.099	1132.89
1033.387	1129.5
1033.675	1110.3
1033.963	1118.21
1034.251	1114.36
1034.54	1085.21
1034.828	1062.16
1035.116	1074.82
1035.403	1075.95
1035.691	1066.91
1035.979	1047.92
1036.267	1048.38
1036.554	1009.06
1036.842	1046.79
1037.129	1005.89
1037.417	1027.81
1037.704	1033.01
1037.992	1028.04
1038.279	1005.89
1038.566	1006.12
1038.853	1006.12
1039.14	1006.12
