Data from hue_20_FLMS001491_39.txt Node
Date: Mon Feb 06 15:33:59 GMT 2017
User: dcchb
Spectrometer: FLMS00149
Trigger mode: 0
Integration Time (sec): 2.000000E-2
Scans to average: 10
Electric dark correction enabled: true
Nonlinearity correction enabled: false
Boxcar width: 0
XAxis mode: Wavelengths
Number of Pixels in Spectrum: 2048
>>>>>Begin Spectral Data<<<<<
341.393	-1.53
341.776	-1.53
342.16	-1.53
342.543	-49.43
342.927	-73.16
343.31	-92.37
343.693	-73.16
344.077	-58.93
344.46	-67.51
344.843	-51.24
345.226	-46.72
345.61	-22.77
345.993	-8.3
346.376	12.03
346.759	10.23
347.142	27.63
347.525	46.61
347.908	53.61
348.291	74.63
348.674	84.35
349.057	111.92
349.44	131.35
349.823	143.78
350.206	159.37
350.588	188.53
350.971	217.9
351.354	205.47
351.737	220.62
352.119	244.8
352.502	256.09
352.884	258.13
353.267	301.74
353.65	293.83
354.032	293.83
354.414	292.03
354.797	292.93
355.179	325.02
355.562	325.25
355.944	304
356.326	332.25
356.709	311.46
357.091	343.32
357.473	335.41
357.855	345.58
358.238	324.79
358.62	336.32
359.002	340.16
359.384	347.17
359.766	323.66
360.148	348.07
360.53	327.96
360.912	330.44
361.294	318.69
361.676	329.09
362.057	312.14
362.439	300.61
362.821	330.22
363.203	329.99
363.584	338.58
363.966	322.53
364.348	326.6
364.729	314.62
365.111	321.63
365.493	309.65
365.874	320.95
366.256	310.78
366.637	305.59
367.019	304.23
367.4	310.56
367.781	309.88
368.163	312.82
368.544	321.63
368.925	299.03
369.306	305.59
369.688	318.24
370.069	318.01
370.45	305.81
370.831	312.36
371.212	310.33
371.593	318.47
371.974	293.38
372.355	314.62
372.736	310.33
373.117	293.38
373.498	310.56
373.879	304
374.26	326.38
374.641	296.09
375.021	307.85
375.402	319.6
375.783	305.81
376.163	313.04
376.544	324.57
376.925	315.75
377.305	306.49
377.686	338.13
378.066	326.6
378.447	334.96
378.827	320.27
379.208	336.77
379.588	325.02
379.968	302.42
380.349	323.66
380.729	315.3
381.109	324.57
381.489	344.45
381.87	318.69
382.25	339.93
382.63	344.91
383.01	324.57
383.39	340.16
383.77	339.03
384.15	335.19
384.53	338.35
384.91	342.19
385.29	333.61
385.67	335.19
386.049	327.73
386.429	347.17
386.809	339.03
387.189	340.16
387.568	348.75
387.948	344
388.328	353.27
388.707	348.97
389.087	337
389.466	350.33
389.846	344
390.225	338.8
390.605	344.91
390.984	361.18
391.363	365.24
391.743	357.79
392.122	358.47
392.501	390.33
392.881	362.08
393.26	345.36
393.639	368.18
394.018	367.5
394.397	365.24
394.776	359.82
395.155	367.73
395.534	352.36
395.913	385.36
396.292	373.83
396.671	372.48
397.05	387.62
397.429	371.8
397.808	366.83
398.186	381.52
398.565	388.29
398.944	369.76
399.323	372.48
399.701	399.82
400.08	379.93
400.458	400.05
400.837	397.56
401.215	400.72
401.594	392.36
401.972	377.9
402.351	391.01
402.729	391.91
403.107	390.33
403.486	399.37
403.864	394.4
404.242	402.98
404.62	379.03
404.999	401.18
405.377	400.5
405.755	388.97
406.133	416.09
406.511	400.27
406.889	396.66
407.267	398.46
407.645	397.79
408.023	408.41
408.401	383.1
408.779	406.83
409.156	422.64
409.534	425.81
409.912	413.15
410.29	420.16
410.667	441.4
411.045	413.6
411.422	434.17
411.8	434.62
412.178	443.66
412.555	434.4
412.933	445.69
413.31	462.42
413.687	436.43
414.065	444.34
414.442	445.69
414.819	447.28
415.197	433.04
415.574	450.21
415.951	445.47
416.328	473.26
416.705	443.43
417.082	452.02
417.46	445.02
417.837	487.95
418.214	468.29
418.591	459.48
418.967	463.1
419.344	472.36
419.721	468.74
420.098	472.36
420.475	474.39
420.852	476.65
421.228	493.38
421.605	477.56
421.982	491.57
422.358	492.7
422.735	513.49
423.111	489.08
423.488	507.61
423.864	504.45
424.241	512.13
424.617	522.08
424.994	519.82
425.37	525.92
425.746	530.89
426.123	525.92
426.499	526.6
426.875	506.26
427.251	505.81
427.627	533.38
428.003	531.34
428.379	529.99
428.756	552.58
429.132	520.95
429.507	534.51
429.883	564.11
430.259	537.44
430.635	561.17
431.011	542.64
431.387	553.94
431.763	577.22
432.138	552.36
432.514	582.64
432.89	573.6
433.265	573.6
433.641	572.92
434.016	597.33
434.392	583.77
434.767	596.42
435.143	625.35
435.518	623.54
435.894	614.28
436.269	595.52
436.644	633.49
437.02	624.9
437.395	620.61
437.77	662.19
438.145	635.29
438.52	640.27
438.895	651.34
439.271	643.88
439.646	665.12
440.021	689.08
440.395	646.59
440.77	643.88
441.145	657.67
441.52	678.46
441.895	653.82
442.27	676.87
442.645	675.52
443.019	684.78
443.394	694.28
443.769	691.56
444.143	690.89
444.518	713.71
444.892	700.6
445.267	707.16
445.641	706.25
446.016	715.74
446.39	711.9
446.764	703.54
447.139	735.86
447.513	718.23
447.887	742.18
448.262	730.66
448.636	765.69
449.01	732.24
449.384	736.08
449.758	759.13
450.132	745.8
450.506	755.97
450.88	760.94
451.254	764.56
451.628	760.04
452.002	786.7
452.376	784.89
452.75	776.99
453.123	778.34
453.497	820.37
453.871	802.07
454.244	820.6
454.618	807.49
454.992	828.96
455.365	820.15
455.739	830.32
456.112	872.12
456.486	843.2
456.859	862.86
457.232	838.9
457.606	854.27
457.979	859.47
458.352	890.88
458.725	881.39
459.099	886.36
459.472	924.55
459.845	891.33
460.218	904.44
460.591	941.5
460.964	915.96
461.337	951.67
461.71	955.29
462.083	938.56
462.456	996.41
462.829	978.79
463.201	975.62
463.574	1015.62
463.947	1010.88
464.32	1019.01
464.692	1048.16
465.065	1030.09
465.438	1051.1
465.81	1054.72
466.183	1053.81
466.555	1079.8
466.928	1072.12
467.3	1119.8
467.672	1113.93
468.045	1125.45
468.417	1136.3
468.789	1132
469.161	1150.99
469.534	1157.31
469.906	1219.69
470.278	1212.68
470.65	1238.89
471.022	1262.4
471.394	1299.91
471.766	1267.59
472.138	1281.83
472.51	1308.5
472.882	1317.54
473.253	1370.64
473.625	1355.95
473.997	1402.28
474.369	1402.28
474.74	1404.99
475.112	1442.5
475.484	1479.79
475.855	1500.36
476.227	1490.64
476.598	1549.62
476.97	1586
477.341	1592.11
477.713	1630.07
478.084	1620.35
478.455	1702.84
478.827	1685.66
479.198	1764.76
479.569	1744.64
479.94	1798.2
480.311	1779.44
480.682	1875.71
481.053	1879.56
481.424	1908.93
481.795	1929.95
482.166	1949.61
482.537	2006.33
482.908	2075.26
483.279	2071.87
483.65	2135.82
484.021	2170.85
484.391	2198.19
484.762	2231.64
485.133	2231.18
485.503	2287.23
485.874	2306.89
486.244	2331.75
486.615	2441.12
486.985	2413.1
487.356	2515.02
487.726	2497.84
488.097	2559.54
488.467	2548.92
488.837	2628.24
489.207	2666.2
489.578	2699.42
489.948	2764.73
490.318	2784.16
490.688	2783.03
491.058	2848.57
491.428	2880.21
491.798	2917.72
492.168	2963.37
492.538	2960.66
492.908	3012.41
493.278	3039.75
493.648	3089.69
494.017	3123.82
494.387	3182.57
494.757	3189.8
495.126	3230.25
495.496	3249.01
495.866	3261.21
496.235	3302.12
496.605	3371.72
496.974	3339.4
497.344	3380.31
497.713	3398.84
498.082	3433.64
498.452	3472.06
498.821	3515.9
499.19	3507.53
499.559	3577.59
499.928	3580.98
500.298	3591.83
500.667	3636.12
501.036	3655.78
501.405	3676.34
501.774	3681.54
502.143	3723.57
502.512	3699.85
502.88	3733.07
503.249	3740.75
503.618	3801.54
503.987	3788.43
504.356	3788.88
504.724	3856.9
505.093	3872.05
505.462	3868.88
505.83	3898.26
506.199	3937.35
506.567	3939.39
506.936	3961.53
507.304	3995.66
507.672	4016.9
508.041	3998.14
508.409	4067.97
508.777	4075.2
509.145	4135.31
509.514	4079.95
509.882	4160.63
510.25	4121.98
510.618	4218.25
510.986	4168.53
511.354	4203.79
511.722	4189.32
512.09	4241.53
512.458	4264.13
512.826	4279.49
513.193	4319.94
513.561	4267.06
513.929	4353.61
514.297	4370.79
514.664	4439.26
515.032	4384.12
515.4	4438.36
515.767	4401.52
516.135	4438.36
516.502	4436.1
516.869	4495.31
517.237	4462.54
517.604	4462.99
517.972	4545.47
518.339	4564.23
518.706	4507.96
519.073	4568.75
519.44	4558.13
519.808	4605.59
520.175	4609.88
520.542	4711.12
520.909	4695.3
521.276	4651.91
521.643	4714.73
522.009	4745.24
522.376	4739.59
522.743	4757.45
523.11	4789.76
523.477	4858.01
523.843	4825.92
524.21	4915.18
524.577	4908.85
524.943	4891.45
525.31	4959.25
525.676	5027.95
526.043	5017.33
526.409	5033.14
526.776	5092.13
527.142	5064.56
527.508	5087.15
527.874	5160.6
528.241	5196.3
528.607	5199.24
528.973	5234.5
529.339	5222.52
529.705	5279.92
530.071	5293.25
530.437	5337.32
530.803	5355.17
531.169	5385.45
531.535	5367.6
531.901	5367.82
532.267	5446.47
532.632	5441.04
532.998	5519.01
533.364	5521.49
533.73	5545.45
534.095	5565.79
534.461	5579.34
534.826	5644.2
535.192	5591.1
535.557	5683.3
535.923	5658.44
536.288	5709.96
536.653	5655.5
537.019	5733.47
537.384	5750.41
537.749	5793.12
538.114	5791.54
538.479	5787.47
538.845	5780.92
539.21	5872.44
539.575	5888.26
539.94	5895.95
540.305	5953.8
540.67	5883.52
541.034	5940.47
541.399	6005.77
541.764	5945.21
542.129	6043.06
542.494	6022.95
542.858	6070.63
543.223	6081.7
543.587	6116.51
543.952	6092.33
544.316	6190.18
544.681	6146.11
545.045	6209.61
545.41	6215.71
545.774	6257.75
546.138	6298.42
546.503	6282.38
546.867	6351.53
547.231	6412.09
547.595	6383.17
547.959	6388.36
548.324	6398.98
548.688	6391.07
549.052	6494.57
549.416	6436.5
549.779	6453.9
550.143	6485.76
550.507	6572.54
550.871	6548.36
551.235	6564.18
551.599	6590.62
551.962	6643.95
552.326	6703.61
552.689	6669.49
553.053	6681.24
553.417	6763.95
553.78	6812.08
554.143	6710.61
554.507	6777.05
554.87	6824.06
555.234	6861.57
555.597	6799.43
555.96	6831.29
556.323	6857.73
556.686	6878.75
557.05	6912.87
557.413	6894.79
557.776	6995.13
558.139	7003.49
558.502	7013.21
558.865	7001
559.228	7154.44
559.59	7130.72
559.953	7133.2
560.316	7176.59
560.679	7173.88
561.041	7225.86
561.404	7224.95
561.767	7293.2
562.129	7238.28
562.492	7306.98
562.854	7282.35
563.217	7355.8
563.579	7353.31
563.941	7344.5
564.304	7417.49
564.666	7399.86
565.028	7496.13
565.39	7534.32
565.753	7516.02
566.115	7537.26
566.477	7565.06
566.839	7697.03
567.201	7579.97
567.563	7644.6
567.925	7646.64
568.287	7701.1
568.648	7696.35
569.01	7765.73
569.372	7839.4
569.734	7835.33
570.095	7929.57
570.457	7935.44
570.819	7982.22
571.18	7996.68
571.542	8039.39
571.903	8008.66
572.265	8115.32
572.626	8144.93
572.987	8222.44
573.349	8249.11
573.71	8278.71
574.071	8209.11
574.432	8335.2
574.794	8466.95
575.155	8420.85
575.516	8412.04
575.877	8605.71
576.238	8576.1
576.599	8674.86
576.96	8712.82
577.32	8705.82
577.681	8812.25
578.042	8908.52
578.403	8943.32
578.763	9090.89
579.124	9097.44
579.485	9226.03
579.845	9293.15
580.206	9412.46
580.566	9447.27
580.927	9558.68
581.287	9670.76
581.648	9768.84
582.008	9900.59
582.368	10026.69
582.728	10085.89
583.089	10255.38
583.449	10369.05
583.809	10554.36
584.169	10671.19
584.529	10793.67
584.889	11084.06
585.249	11147.79
585.609	11307.78
585.969	11559.07
586.329	11606.76
586.688	11817.37
587.048	12019.63
587.408	12280.64
587.768	12431.59
588.127	12596.34
588.487	12763.79
588.846	13052.59
589.206	13217.56
589.565	13463.43
589.925	13723.31
590.284	13928.96
590.643	14187.03
591.003	14466.57
591.362	14731.65
591.721	14985.65
592.08	15198.75
592.44	15507.22
592.799	15798.06
593.158	15992.18
593.517	16317.14
593.876	16583.12
594.235	16772.72
594.593	17194.41
594.952	17363.67
595.311	17728.86
595.67	17962.07
596.029	18376.97
596.387	18688.38
596.746	18925.21
597.104	19096.73
597.463	19463.5
597.822	19705.3
598.18	19966.54
598.538	20320.88
598.897	20681.32
599.255	20821.66
599.613	21366.27
599.972	21511.81
600.33	21799.71
600.688	22100.49
601.046	22456.64
601.404	22744.77
601.762	22966.23
602.12	23260.01
602.478	23540.23
602.836	23819.54
603.194	23985.19
603.552	24217.95
603.91	24389.92
604.268	24858.16
604.625	25127.98
604.983	25304.93
605.341	25397.35
605.698	25847.51
606.056	26248.63
606.413	26408.85
606.771	26696.98
607.128	26938.56
607.485	27052.9
607.843	27318.89
608.2	27712.77
608.557	27915.03
608.914	28032.09
609.272	28432.3
609.629	28640.89
609.986	28899.41
610.343	29067.31
610.7	29519.73
611.057	29451.71
611.414	29754.08
611.771	29874.07
612.127	30295.08
612.484	30463.66
612.841	30714.5
613.198	30689.87
613.554	30956.08
613.911	31413.02
614.267	31416.18
614.624	31543.41
614.98	31727.81
615.337	31951.31
615.693	32121.7
616.05	32214.8
616.406	32591.52
616.762	32499.99
617.118	32783.83
617.475	32815.46
617.831	33054.55
618.187	33242.12
618.543	33465.17
618.899	33648.89
619.255	33784.25
619.611	33830.13
619.967	34081.42
620.323	34352.15
620.678	34294.07
621.034	34323.45
621.39	34389.89
621.746	34528.64
622.101	34969.98
622.457	34793.04
622.812	34836.88
623.168	35149.87
623.523	35242.29
623.879	35481.38
624.234	35329.52
624.589	35504.21
624.945	35576.52
625.3	35732.22
625.655	35807.48
626.01	35800.25
626.365	35894.93
626.72	36088.6
627.075	35980.81
627.43	36091.99
627.785	36128.37
628.14	36257.86
628.495	36385.31
628.85	36362.26
629.205	36314.81
629.559	36644.06
629.914	36581.02
630.269	36511.64
630.623	36536.04
630.978	36562.26
631.332	36786.89
631.687	36955.92
632.041	36703.5
632.396	36821.46
632.75	36731.07
633.104	36865.98
633.459	36633.22
633.813	36827.56
634.167	36842.03
634.521	36799.54
634.875	36848.58
635.229	36928.8
635.583	36759.32
635.937	36948.24
636.291	36684.29
636.645	36851.74
636.999	36794.57
637.352	36997.28
637.706	36699.2
638.06	36915.92
638.413	36682.03
638.767	36761.8
639.121	37056.71
639.474	36711.86
639.828	36842.25
640.181	36774.46
640.534	36984.17
640.888	36780.78
641.241	36717.96
641.594	36657.85
641.947	36899.88
642.301	36786.89
642.654	36801.12
643.007	36832.08
643.36	36779.2
643.713	36803.83
644.066	36900.33
644.419	36672.31
644.771	36536.5
645.124	36170.18
645.477	36120.91
645.83	35974.48
646.182	35866.01
646.535	35706.91
646.888	35792.79
647.24	35582.4
647.593	35854.48
647.945	35748.04
648.298	35572.68
648.65	35597.31
649.002	35463.98
649.355	35736.07
649.707	35643.64
650.059	35882.28
650.411	36086.34
650.763	36205.66
651.115	36745.76
651.467	36376.95
651.819	36486.33
652.171	36410.62
652.523	36382.15
652.875	36384.41
653.227	36283.4
653.578	36591.41
653.93	36365.65
654.282	36113.46
654.633	36106.68
654.985	36352.32
655.337	36250.18
655.688	36313.68
656.039	36260.12
656.391	36004.08
656.742	36130.41
657.094	36141.25
657.445	36294.47
657.796	36201.82
658.147	36191.65
658.498	36155.26
658.849	36279.55
659.2	36087.7
659.551	36124.76
659.902	36251.98
660.253	36098.32
660.604	36180.12
660.955	35991.2
661.306	36128.82
661.656	36137.19
662.007	36052.89
662.358	36014.25
662.708	36088.37
663.059	36070.75
663.409	35777.65
663.76	36117.52
664.11	36049.96
664.461	36155.26
664.811	36086.34
665.161	36018.32
665.511	35911.43
665.862	35976.29
666.212	36035.72
666.562	36105.32
666.912	36001.37
667.262	35997.08
667.612	36002.73
667.962	36049.05
668.312	35835.72
668.662	36155.94
669.011	35940.58
669.361	35935.83
669.711	35889.06
670.06	35883.63
670.41	35829.17
670.76	35802.28
671.109	35823.52
671.459	35953.24
671.808	35719.34
672.157	35895.38
672.507	35654.71
672.856	35643.87
673.205	35759.79
673.554	35886.8
673.904	35745.33
674.253	35889.28
674.602	35754.82
674.951	35232.35
675.3	34991.23
675.649	35657.65
675.998	35656.97
676.346	35523.64
676.695	35788.95
677.044	35565
677.393	35542.4
677.741	35598.67
678.09	35520.93
678.438	35380.37
678.787	35455.85
679.135	35525.68
679.484	35108.06
679.832	35455.85
680.181	35220.6
680.529	35393.93
680.877	35256.08
681.225	35296.08
681.573	35420.82
681.922	35182.63
682.27	35047.27
682.618	35059.02
682.966	35002.98
683.314	35056.76
683.661	34854.06
684.009	34815.86
684.357	34618.13
684.705	34709.88
685.053	34681.4
685.4	34531.13
685.748	34520.96
686.095	34525.02
686.443	34339.94
686.79	34304.01
687.138	34448.19
687.485	34317.8
687.832	34220.63
688.18	34338.36
688.527	34039.39
688.874	34045.71
689.221	34035.55
689.568	33893.18
689.915	33786.51
690.262	33906.28
690.609	33834.42
690.956	33698.61
691.303	33686.18
691.65	33462.68
691.997	33520.76
692.344	33346.07
692.69	33290.25
693.037	33299.29
693.383	33078.51
693.73	33082.58
694.077	33032.41
694.423	32777.95
694.769	33005.74
695.116	32673.1
695.462	32713.09
695.808	32670.84
696.155	32754
696.501	32526.21
696.847	32478.3
697.193	32138.19
697.539	32429.71
697.885	32130.74
698.231	32061.13
698.577	32021.14
698.923	32020.46
699.269	31769.39
699.614	31643.29
699.96	31642.39
700.306	31605.78
700.651	31450.53
700.997	31335.28
701.342	31364.88
701.688	31453.47
702.033	31095.28
702.379	31113.36
702.724	31114.27
703.069	31123.08
703.415	30752.24
703.76	30758.57
704.105	30789.53
704.45	30670.44
704.795	30574.85
705.14	30535.07
705.485	30511.34
705.83	30272.93
706.175	30406.94
706.52	30241.07
706.865	30185.7
707.209	30088.3
707.554	29966.5
707.899	30098.25
708.243	29937.12
708.588	29808.31
708.932	29700.07
709.277	29577.36
709.621	29652.16
709.966	29552.95
710.31	29621.65
710.654	29327.87
710.998	29470.02
711.342	29479.51
711.687	29333.52
712.031	29202
712.375	29170.14
712.719	29126.52
713.063	29110.25
713.407	29100.31
713.75	28937.37
714.094	29026.64
714.438	28753.2
714.782	28846.3
715.125	28677.49
715.469	28849.24
715.812	28727.21
716.156	28439.99
716.499	28346.88
716.843	28466.65
717.186	28281.12
717.53	28395.02
717.873	28369.93
718.216	28237.28
718.559	28112.99
718.902	28030.73
719.246	28089.04
719.589	27906.22
719.932	28027.12
720.275	27950.96
720.617	27895.82
720.96	27778.54
721.303	27762.72
721.646	27814.47
721.989	27707.8
722.331	27674.13
722.674	27581.03
723.016	27596.39
723.359	27589.61
723.701	27731.98
724.044	27435.49
724.386	27338.32
724.729	27338.32
725.071	27334.25
725.413	27217.42
725.755	27196.63
726.097	27062.4
726.439	27015.17
726.782	27090.42
727.124	27198.66
727.465	27028.05
727.807	27048.61
728.149	26987.82
728.491	26813.81
728.833	26916.18
729.175	26823.31
729.516	26697.89
729.858	26692.69
730.199	26701.05
730.541	26607.49
730.882	26593.26
731.224	26739.24
731.565	26556.65
731.906	26578.34
732.248	26400.27
732.589	26391.68
732.93	26317.33
733.271	26332.7
733.612	26301.51
733.953	26485.91
734.294	26101.97
734.635	26264
734.976	26270.78
735.317	26172.7
735.658	26066.49
735.999	26122.31
736.339	25992.59
736.68	26081.63
737.021	26007.73
737.361	25866.72
737.702	25878.92
738.042	25910.79
738.383	25867.4
738.723	25834.18
739.063	25727.52
739.404	25842.09
739.744	25636.44
740.084	25606.61
740.424	25611.36
740.764	25487.07
741.104	25652.94
741.444	25455.66
741.784	25341.54
742.124	25499.05
742.464	25444.81
742.804	25300.41
743.143	25348.54
743.483	25256.12
743.823	25217.25
744.162	25170.69
744.502	25304.48
744.841	25138.15
745.181	25142.67
745.52	25011.6
745.86	25077.14
746.199	25020.87
746.538	25001.21
746.877	25118.94
747.216	25022.9
747.556	25021.09
747.895	24943.36
748.234	24842.57
748.573	24775.68
748.911	24747.65
749.25	24793.98
749.589	24628.79
749.928	24706.75
750.267	24761.44
750.605	24584.27
750.944	24542.91
751.283	24552.18
751.621	24459.75
751.96	24428.79
752.298	24384.95
752.636	24334.33
752.975	24191.06
753.313	24322.58
753.651	24276.25
753.989	24116.03
754.327	24052.53
754.666	24009.59
755.004	24118.74
755.342	24070.61
755.679	24019.76
756.017	23860.67
756.355	23866.55
756.693	23896.6
757.031	23844.4
757.368	23679.21
757.706	23695.25
758.044	23619.55
758.381	23571.19
758.719	23509.49
759.056	23559.44
759.394	23432.89
759.731	23384.75
760.068	23232.67
760.405	23108.6
760.743	23093.23
761.08	23167.58
761.417	22987.02
761.754	23056.85
762.091	22988.38
762.428	22931.88
762.765	22775.05
763.102	22801.49
763.438	22610.08
763.775	22606.24
764.112	22650.99
764.449	22562.18
764.785	22473.36
765.122	22402.86
765.458	22179.59
765.795	22185.24
766.131	22226.82
766.467	22107.95
766.804	22103.88
767.14	21917.22
767.476	21965.58
767.812	21876.32
768.148	21822.76
768.485	21703.44
768.821	21673.61
769.157	21469.55
769.492	21561.75
769.828	21504.12
770.164	21330.34
770.5	21300.51
770.836	21370.79
771.171	21047.41
771.507	21110.01
771.842	20951.37
772.178	20998.37
772.513	20925.61
772.849	20781.66
773.184	20762.22
773.519	20785.27
773.855	20615.79
774.19	20565.84
774.525	20458.73
774.86	20385.06
775.195	20390.25
775.53	20248.56
775.865	20183.93
776.2	19992.98
776.535	19955.01
776.87	19917.95
777.205	19792.08
777.539	19698.52
777.874	19704.4
778.209	19552.08
778.543	19706.66
778.878	19465.08
779.212	19423.73
779.547	19345.76
779.881	19473.44
780.215	19235.93
780.55	19234.58
780.884	19088.14
781.218	19063.96
781.552	19075.94
781.886	18920.46
782.22	18885.21
782.554	18737.87
782.888	18649.51
783.222	18697.87
783.556	18494.49
783.889	18470.76
784.223	18343.3
784.557	18352.34
784.89	18341.95
785.224	18262.85
785.557	18103.99
785.891	18067.38
786.224	18031.9
786.558	17997.78
786.891	17883.65
787.224	17876.87
787.557	17713.26
787.891	17817.44
788.224	17713.72
788.557	17649.54
788.89	17558.01
789.223	17576.09
789.556	17463.33
789.888	17286.38
790.221	17295.65
790.554	17191.24
790.887	17196.21
791.219	17159.15
791.552	17005.94
791.884	17057.91
792.217	16975.43
792.549	16933.4
792.882	16748.77
793.214	16738.37
793.546	16792.38
793.879	16625.61
794.211	16593.74
794.543	16574.99
794.875	16462.67
795.207	16540.41
795.539	16435.78
795.871	16467.87
796.203	16218.39
796.535	16158.05
796.867	16176.81
797.198	16051.61
797.53	16083.48
797.862	15947.66
798.193	16045.06
798.525	15830.6
798.856	15909.69
799.188	15765.97
799.519	15684.84
799.85	15542.02
800.182	15689.14
800.513	15590.83
800.844	15477.62
801.175	15527.56
801.506	15521.46
801.837	15401.23
802.168	15390.16
802.499	15342.48
802.83	15252.99
803.161	15163.27
803.491	15268.13
803.822	15138.42
804.153	15127.34
804.483	15077.63
804.814	14952.88
805.145	14927.12
805.475	14917.86
805.805	14816.16
806.136	14815.94
806.466	14813
806.796	14818.88
807.126	14660.24
807.457	14613.01
807.787	14624.3
808.117	14570.75
808.447	14519.22
808.777	14551.31
809.107	14442.61
809.436	14479.22
809.766	14476.51
810.096	14320.13
810.426	14351.32
810.755	14352.9
811.085	14177.99
811.414	14257.53
811.744	14103.87
812.073	14056.86
812.403	14100.48
812.732	14028.39
813.061	14010.31
813.39	13898.45
813.719	13899.35
814.049	14015.06
814.378	13936.19
814.707	13843.08
815.036	13778.9
815.365	13780.94
815.693	13578.68
816.022	13714.72
816.351	13617.55
816.68	13547.95
817.008	13520.38
817.337	13496.65
817.665	13402.64
817.994	13419.59
818.322	13416.43
818.651	13377.56
818.979	13276.09
819.307	13365.13
819.636	13279.48
819.964	13258.92
820.292	13273.83
820.62	13229.99
820.948	13160.61
821.276	13218.92
821.604	13141.63
821.932	13217.56
822.259	13303.89
822.587	13207.62
822.915	13206.04
823.243	13212.36
823.57	13212.14
823.898	13154.51
824.225	13093.95
824.553	13152.48
824.88	13091.46
825.207	13198.35
825.535	13119.94
825.862	13131.24
826.189	13035.42
826.516	13138.47
826.843	13145.47
827.17	13098.47
827.497	13157.68
827.824	13087.4
828.151	13134.4
828.478	13082.42
828.805	13182.76
829.131	13125.59
829.458	13107.51
829.785	12949.32
830.111	13130.33
830.438	13085.59
830.764	13149.09
831.09	13117.45
831.417	12989.09
831.743	13129.65
832.069	13070.67
832.395	12999.94
832.722	12994.97
833.048	12962.43
833.374	12993.39
833.7	12915.42
834.026	12978.02
834.351	13025.48
834.677	12938.25
835.003	12979.38
835.329	12890.79
835.654	12912.03
835.98	12855.31
836.306	12827.52
836.631	12811.25
836.956	12896.21
837.282	12862.32
837.607	12767.86
837.932	12714.75
838.258	12713.62
838.583	12753.85
838.908	12715.65
839.233	12708.65
839.558	12602.66
839.883	12668.2
840.208	12583
840.533	12583
840.858	12619.39
841.182	12566.28
841.507	12560.18
841.832	12502.55
842.156	12487.41
842.481	12416.91
842.805	12428.2
843.13	12410.35
843.454	12369
843.778	12407.41
844.103	12283.8
844.427	12271.82
844.751	12299.85
845.075	12183.01
845.399	12222.11
845.723	12075.67
846.047	12134.43
846.371	12053.07
846.695	12059.17
847.019	11906.64
847.343	11915.68
847.666	11820.99
847.99	11775.57
848.313	11792.29
848.637	11640.65
848.96	11752.29
849.284	11679.98
849.607	11531.5
849.931	11516.36
850.254	11445.41
850.577	11421.23
850.9	11296.03
851.223	11251.74
851.546	11269.82
851.869	11209.71
852.192	11186.2
852.515	11092.19
852.838	11128.35
853.161	11079.77
853.483	11022.59
853.806	10980.78
854.129	10960.22
854.451	10886.55
854.774	10889.71
855.096	10824.63
855.419	10850.84
855.741	10763.62
856.063	10773.78
856.385	10712.32
856.708	10608.37
857.03	10645.65
857.352	10615.37
857.674	10539.44
857.996	10573.56
858.318	10487.24
858.64	10515.94
858.961	10418.77
859.283	10446.34
859.605	10421.48
859.926	10411.99
860.248	10320.46
860.57	10251.99
860.891	10338.99
861.212	10216.06
861.534	10258.77
861.855	10169.05
862.176	10253.35
862.498	10214.93
862.819	10196.85
863.14	10177.19
863.461	10103.97
863.782	10018.1
864.103	10098.55
864.424	10081.83
864.745	10088.15
865.065	10037.53
865.386	10027.59
865.707	9929.74
866.027	9934.03
866.348	9953.47
866.668	9973.58
866.989	9875.96
867.309	9906.91
867.63	9910.3
867.95	9927.71
868.27	9834.37
868.59	9873.7
868.91	9866.92
869.23	9862.17
869.55	9717.32
869.87	9837.76
870.19	9806.13
870.51	9783.98
870.83	9705.34
871.15	9670.31
871.469	9704.66
871.789	9677.99
872.109	9630.09
872.428	9632.35
872.748	9668.28
873.067	9652.23
873.386	9683.42
873.706	9555.51
874.025	9560.26
874.344	9485.46
874.663	9576.75
874.982	9557.09
875.301	9495.17
875.62	9480.03
875.939	9387.15
876.258	9468.96
876.577	9405.46
876.896	9455.4
877.214	9348.51
877.533	9376.31
877.852	9401.39
878.17	9393.03
878.489	9401.62
878.807	9368.17
879.125	9300.15
879.444	9301.05
879.762	9266.93
880.08	9281.62
880.398	9275.74
880.716	9305.35
881.034	9186.48
881.352	9186.71
881.67	9155.97
881.988	9174.05
882.306	9163.43
882.624	9134.73
882.941	9068.74
883.259	9086.82
883.577	9046.6
883.894	8972.02
884.212	9016.54
884.529	9008.86
884.846	8990.78
885.164	8952.82
885.481	8941.74
885.798	8967.73
886.115	8862.87
886.432	8917.56
886.75	8837.79
887.067	8849.99
887.383	8802.99
887.7	8789.43
888.017	8741.75
888.334	8773.61
888.651	8687.06
888.967	8644.57
889.284	8658.13
889.6	8665.14
889.917	8563.45
890.233	8576.33
890.55	8534.97
890.866	8549.89
891.182	8482.77
891.498	8508.99
891.815	8483.68
892.131	8439.16
892.447	8386.5
892.763	8344.7
893.079	8379.95
893.395	8347.18
893.71	8332.27
894.026	8297.01
894.342	8231.48
894.657	8225.38
894.973	8218.82
895.289	8162.55
895.604	8137.02
895.92	8098.37
896.235	8084.14
896.55	8126.17
896.865	8107.19
897.181	8059.96
897.496	8036.46
897.811	8042.78
898.126	7988.55
898.441	7903.35
898.756	7896.12
899.071	7916.01
899.386	7893.63
899.7	7820.64
900.015	7776.58
900.33	7719.18
900.644	7718.05
900.959	7717.59
901.273	7655
901.588	7617.71
901.902	7598.05
902.216	7580.65
902.531	7560.31
902.845	7606.41
903.159	7529.58
903.473	7482.8
903.787	7450.48
904.101	7445.96
904.415	7392.63
904.729	7354.67
905.042	7308.34
905.356	7319.41
905.67	7314.44
905.984	7279.64
906.297	7237.15
906.611	7214.78
906.924	7162.58
907.237	7185.86
907.551	7150.15
907.864	7070.38
908.177	7099.08
908.491	7099.08
908.804	7072.19
909.117	6987.22
909.43	6986.09
909.743	6956.48
910.056	6925.52
910.368	6885.53
910.681	6838.29
910.994	6860.44
911.307	6805.53
911.619	6716.72
911.932	6789.26
912.244	6687.34
912.557	6715.36
912.869	6648.24
913.181	6640.79
913.494	6621.13
913.806	6597.85
914.118	6561.01
914.43	6499.77
914.742	6494.8
915.054	6434.69
915.366	6466.78
915.678	6427.46
915.99	6429.04
916.302	6328.48
916.613	6369.61
916.925	6324.18
917.236	6284.86
917.548	6251.87
917.859	6220.91
918.171	6185.66
918.482	6159.44
918.794	6158.76
919.105	6218.88
919.416	6080.35
919.727	6040.58
920.038	6043.74
920.349	6050.29
920.66	5999.67
920.971	6003.74
921.282	6006
921.593	5942.05
921.903	5912.44
922.214	5896.85
922.525	5829.96
922.835	5827.93
923.146	5851.65
923.456	5791.99
923.767	5766.68
924.077	5775.95
924.387	5722.62
924.697	5715.39
925.008	5648.5
925.318	5650.3
925.628	5643.98
925.938	5598.78
926.248	5592.68
926.558	5553.58
926.867	5533.7
927.177	5464.09
927.487	5497.99
927.796	5455.05
928.106	5440.82
928.416	5415.28
928.725	5431.78
929.034	5351.1
929.344	5332.35
929.653	5339.58
929.962	5300.71
930.271	5243.31
930.581	5265.68
930.89	5224.55
931.199	5202.86
931.508	5186.13
931.817	5166.02
932.125	5089.19
932.434	5117.66
932.743	5076.08
933.051	5075.4
933.36	5038.57
933.669	5061.62
933.977	4985.01
934.286	5004.67
934.594	4955.86
934.902	4908.63
935.21	4943.66
935.519	4926.71
935.827	4900.04
936.135	4867.05
936.443	4822.08
936.751	4814.17
937.059	4782.3
937.367	4792.47
937.674	4783.43
937.982	4735.07
938.29	4709.09
938.597	4751.8
938.905	4661.4
939.213	4656.43
939.52	4663.44
939.827	4618.92
940.135	4634.96
940.442	4614.17
940.749	4566.72
941.056	4591.12
941.363	4532.37
941.67	4543.67
941.977	4501.18
942.284	4442.65
942.591	4441.52
942.898	4398.36
943.205	4409.66
943.511	4372.82
943.818	4413.73
944.125	4339.6
944.431	4338.47
944.738	4307.51
945.044	4270.9
945.35	4284.69
945.657	4215.99
945.963	4231.58
946.269	4209.44
946.575	4246.72
946.881	4154.75
947.187	4135.54
947.493	4173.73
947.799	4154.52
948.105	4122.43
948.41	4101.64
948.716	4080.4
949.022	4050.35
949.327	4021.19
949.633	4034.07
949.938	4004.92
950.244	4013.06
950.549	3983.23
950.854	3946.62
951.16	3957.92
951.465	3936.68
951.77	3892.84
952.075	3855.77
952.38	3897.58
952.685	3847.19
952.99	3818.49
953.294	3821.88
953.599	3827.75
953.904	3826.17
954.209	3815.78
954.513	3778.71
954.818	3744.59
955.122	3721.31
955.426	3729.68
955.731	3719.05
956.035	3680.41
956.339	3655.33
956.643	3644.48
956.948	3634.76
957.252	3585.72
957.556	3608.1
957.86	3627.53
958.163	3572.39
958.467	3562.45
958.771	3556.57
959.075	3529.68
959.378	3493.3
959.682	3534.65
959.985	3490.36
960.289	3434.99
960.592	3482
960.896	3450.59
961.199	3430.7
961.502	3410.36
961.805	3402
962.108	3414.88
962.411	3365.62
962.714	3339.86
963.017	3275.68
963.32	3358.61
963.623	3303.47
963.926	3301.66
964.228	3277.03
964.531	3239.29
964.833	3281.1
965.136	3256.92
965.438	3213.53
965.741	3246.75
966.043	3182.35
966.345	3174.89
966.648	3182.35
966.95	3227.09
967.252	3147.77
967.554	3131.73
967.856	3110.26
968.158	3089.47
968.46	3082.69
968.761	3065.29
969.063	3059.41
969.365	3054.67
969.666	3015.57
969.968	3027.1
970.269	3023.93
970.571	3009.02
970.872	2965.63
971.174	2989.36
971.475	2940.77
971.776	2946.19
972.077	2944.61
972.378	2920.66
972.679	2890.38
972.98	2933.99
973.281	2912.3
973.582	2897.61
973.883	2871.85
974.183	2875.01
974.484	2849.47
974.785	2799.98
975.085	2773.99
975.386	2792.07
975.686	2780.32
975.986	2745.75
976.287	2786.42
976.587	2783.49
976.887	2766.09
977.187	2746.42
977.487	2719.08
977.787	2670.95
978.087	2688.8
978.387	2656.26
978.687	2661.23
978.987	2625.75
979.286	2629.82
979.586	2640.67
979.885	2633.43
980.185	2586.66
980.484	2615.35
980.784	2570.61
981.083	2600.89
981.382	2546.43
981.682	2581.01
981.981	2538.75
982.28	2539.42
982.579	2539.88
982.878	2554.79
983.177	2541.01
983.475	2478.64
983.774	2439.99
984.073	2439.54
984.372	2431.86
984.67	2442.7
984.969	2444.29
985.267	2400.22
985.566	2398.86
985.864	2413.78
986.162	2414.23
986.461	2374.68
986.759	2350.05
987.057	2359.32
987.355	2350.73
987.653	2336.94
987.951	2323.39
988.249	2307.79
988.547	2319.32
988.844	2310.28
989.142	2258.53
989.44	2253.78
989.737	2272.31
990.035	2278.64
990.332	2283.84
990.63	2209.04
990.927	2238.87
991.224	2207.46
991.521	2227.57
991.819	2244.52
992.116	2206.55
992.413	2159.77
992.71	2155.93
993.006	2186.89
993.303	2148.7
993.6	2117.29
993.897	2159.55
994.193	2139.21
994.49	2100.57
994.787	2101.7
995.083	2090.85
995.379	2064.63
995.676	2065.09
995.972	2061.92
996.268	2051.08
996.565	2047.69
996.861	2029.61
997.157	2036.61
997.453	1995.48
997.749	1982.83
998.044	1981.02
998.34	1955.94
998.636	1950.74
998.932	1957.97
999.227	1941.25
999.523	1945.99
999.818	1945.09
1000.114	1934.24
1000.409	1935.15
1000.704	1905.09
1001	1912.32
1001.295	1882.04
1001.59	1867.13
1001.885	1854.7
1002.18	1848.14
1002.475	1842.27
1002.77	1851.31
1003.065	1818.54
1003.359	1809.5
1003.654	1779.9
1003.949	1807.24
1004.243	1790.07
1004.538	1795.26
1004.832	1727.69
1005.127	1766.79
1005.421	1746
1005.715	1712.78
1006.009	1734.47
1006.304	1718.66
1006.598	1726.34
1006.892	1696.74
1007.186	1700.58
1007.48	1668.94
1007.773	1668.94
1008.067	1644.76
1008.361	1637.75
1008.655	1634.82
1008.948	1621.26
1009.242	1620.13
1009.535	1617.87
1009.829	1595.72
1010.122	1625.78
1010.415	1578.32
1010.708	1586.46
1011.001	1566.57
1011.295	1560.24
1011.588	1539.68
1011.881	1525.44
1012.173	1544.87
1012.466	1535.61
1012.759	1496.29
1013.052	1534.93
1013.344	1484.99
1013.637	1521.82
1013.93	1471.2
1014.222	1507.14
1014.514	1460.58
1014.807	1458.1
1015.099	1442.96
1015.391	1421.04
1015.683	1434.14
1015.976	1430.3
1016.268	1423.07
1016.56	1403.64
1016.851	1394.6
1017.143	1407.25
1017.435	1378.1
1017.727	1355.5
1018.018	1370.19
1018.31	1372.68
1018.602	1362.28
1018.893	1374.48
1019.185	1350.3
1019.476	1323.86
1019.767	1316.18
1020.058	1331.32
1020.35	1286.8
1020.641	1314.82
1020.932	1305.11
1021.223	1313.47
1021.514	1295.39
1021.804	1269.4
1022.095	1270.08
1022.386	1258.33
1022.677	1242.74
1022.967	1237.76
1023.258	1245.67
1023.548	1188.27
1023.839	1207.93
1024.129	1212.45
1024.419	1192.34
1024.709	1200.02
1025	1190.08
1025.29	1145.56
1025.58	1153.7
1025.87	1154.38
1026.16	1152.57
1026.449	1147.6
1026.739	1134.04
1027.029	1115.51
1027.319	1146.24
1027.608	1109.63
1027.898	1110.99
1028.187	1099.69
1028.477	1078.45
1028.766	1080.71
1029.055	1090.2
1029.344	1109.41
1029.634	1055.4
1029.923	1060.59
1030.212	1047.26
1030.501	1055.62
1030.79	1036.41
1031.078	1009.52
1031.367	1031.67
1031.656	1009.52
1031.945	1013.14
1032.233	1025.11
1032.522	984.21
1032.81	988.73
1033.099	1016.07
1033.387	977.21
1033.675	961.39
1033.963	962.29
1034.251	951.9
1034.54	965.45
1034.828	976.75
1035.116	946.47
1035.403	932.01
1035.691	913.25
1035.979	911.22
1036.267	942.63
1036.554	915.06
1036.842	908.73
1037.129	922.74
1037.417	900.6
1037.704	931.11
1037.992	910.09
1038.279	885.91
1038.566	886.59
1038.853	886.59
1039.14	886.59
