Data from hue_340_FLMS001491_99.txt Node
Date: Mon Feb 06 15:43:54 GMT 2017
User: dcchb
Spectrometer: FLMS00149
Trigger mode: 0
Integration Time (sec): 2.000000E-2
Scans to average: 10
Electric dark correction enabled: true
Nonlinearity correction enabled: false
Boxcar width: 0
XAxis mode: Wavelengths
Number of Pixels in Spectrum: 2048
>>>>>Begin Spectral Data<<<<<
341.393	-2.56
341.776	-2.56
342.16	-2.56
342.543	-46.62
342.927	-71.03
343.31	-71.48
343.693	-53.63
344.077	-72.39
344.46	-54.98
344.843	-49.33
345.226	-48.88
345.61	-40.07
345.993	-34.19
346.376	-8.43
346.759	14.84
347.142	37.22
347.525	44.9
347.908	48.97
348.291	90.1
348.674	98.23
349.057	99.14
349.44	125.35
349.823	148.4
350.206	170.09
350.588	197.66
350.971	219.13
351.354	229.53
351.737	254.16
352.119	249.87
352.502	231.56
352.884	254.39
353.267	282.41
353.65	292.58
354.032	311.56
354.414	313.14
354.797	309.07
355.179	303.65
355.562	316.53
355.944	333.25
356.326	317.66
356.709	330.99
357.091	341.84
357.473	344.1
357.855	334.61
358.238	339.58
358.62	351.33
359.002	336.42
359.384	338.9
359.766	344.33
360.148	328.28
360.53	349.52
360.912	352.91
361.294	336.19
361.676	304.33
362.057	343.2
362.439	326.7
362.821	316.98
363.203	321.73
363.584	317.21
363.966	322.18
364.348	312.24
364.729	302.52
365.111	309.75
365.493	319.24
365.874	303.65
366.256	307.94
366.637	303.42
367.019	299.81
367.4	300.71
367.781	303.65
368.163	329.41
368.544	292.58
368.925	312.24
369.306	325.12
369.688	309.07
370.069	307.94
370.45	298.23
370.831	303.88
371.212	310.2
371.593	302.75
371.974	330.99
372.355	316.76
372.736	317.44
373.117	307.27
373.498	326.7
373.879	324.44
374.26	308.17
374.641	321.05
375.021	303.88
375.402	311.33
375.783	330.09
376.163	308.17
376.544	310.88
376.925	332.8
377.305	318.34
377.686	304.1
378.066	339.81
378.447	323.99
378.827	331.67
379.208	319.47
379.588	314.27
379.968	328.28
380.349	314.72
380.729	348.39
381.109	328.06
381.489	324.89
381.87	325.57
382.25	309.98
382.63	334.61
383.01	326.25
383.39	355.17
383.77	333.25
384.15	336.87
384.53	325.34
384.91	339.13
385.29	343.2
385.67	356.08
386.049	341.84
386.429	318.57
386.809	362.86
387.189	332.35
387.568	328.73
387.948	328.51
388.328	347.94
388.707	330.32
389.087	348.39
389.466	346.59
389.846	328.06
390.225	362.41
390.605	347.26
390.984	360.15
391.363	353.37
391.743	372.57
392.122	331.45
392.501	352.46
392.881	389.75
393.26	380.26
393.639	333.25
394.018	332.35
394.397	365.34
394.776	348.39
395.155	358.11
395.534	362.18
395.913	368.28
396.292	360.37
396.671	361.05
397.05	384.55
397.429	362.18
397.808	376.64
398.186	361.73
398.565	362.18
398.944	381.39
399.323	368.06
399.701	358.56
400.08	373.03
400.458	368.73
400.837	379.35
401.215	389.75
401.594	381.16
401.972	382.74
402.351	384.78
402.729	401.05
403.107	388.62
403.486	392.01
403.864	378.9
404.242	392.01
404.62	397.43
404.999	392.69
405.377	402.86
405.755	391.11
406.133	417.55
406.511	399.01
406.889	422.29
407.267	394.04
407.645	407.38
408.023	405.12
408.401	410.31
408.779	412.57
409.156	406.47
409.534	434.04
409.912	418.9
410.29	411.22
410.667	440.82
411.045	410.99
411.422	441.27
411.8	448.05
412.178	434.04
412.555	476.3
412.933	454.38
413.31	461.84
413.687	449.41
414.065	482.85
414.442	468.84
414.819	468.17
415.197	467.49
415.574	499.58
415.951	482.63
416.328	474.72
416.705	496.41
417.082	488.5
417.46	500.93
417.837	509.29
418.214	506.81
418.591	509.75
418.967	519.92
419.344	512.91
419.721	524.66
420.098	526.24
420.475	558.33
420.852	537.32
421.228	505.45
421.605	536.86
421.982	540.93
422.358	564.66
422.735	569.41
423.111	574.83
423.488	574.6
423.864	537.54
424.241	565.11
424.617	564.21
424.994	562.85
425.37	573.25
425.746	575.06
426.123	589.74
426.499	600.14
426.875	599.24
427.251	583.42
427.627	621.83
428.003	608.05
428.379	629.29
428.756	624.55
429.132	603.08
429.507	622.96
429.883	634.94
430.259	647.37
430.635	645.11
431.011	662.28
431.387	665
431.763	677.65
432.138	686.92
432.514	670.19
432.89	683.08
433.265	706.13
433.641	691.66
434.016	738.22
434.392	698.67
434.767	736.18
435.143	693.24
435.518	719.23
435.894	741.38
436.269	746.58
436.644	751.1
437.02	737.76
437.395	746.8
437.77	744.99
438.145	744.99
438.52	761.27
438.895	773.02
439.271	791.32
439.646	767.14
440.021	770.76
440.395	783.19
440.77	787.25
441.145	806.91
441.52	809.85
441.895	820.25
442.27	815.05
442.645	812.11
443.019	835.61
443.394	842.39
443.769	841.04
444.143	808.95
444.518	843.97
444.892	826.57
445.267	847.59
445.641	852.34
446.016	849.62
446.39	846.69
446.764	853.01
447.139	847.59
447.513	831.09
447.887	839
448.262	874.26
448.636	876.52
449.01	885.33
449.384	864.31
449.758	870.19
450.132	868.83
450.506	899.57
450.88	890.53
451.254	873.35
451.628	909.74
452.002	922.62
452.376	933.92
452.75	880.81
453.123	918.1
453.497	947.7
453.871	943.63
454.244	970.53
454.618	947.93
454.992	952.67
455.365	949.51
455.739	973.01
456.112	973.69
456.486	1001.26
456.859	975.27
457.232	966.68
457.606	997.64
457.979	1012.56
458.352	1026.34
458.725	1053.69
459.099	1022.5
459.472	1046.46
459.845	1062.05
460.218	1054.59
460.591	1053.69
460.964	1065.89
461.337	1107.47
461.71	1088.26
462.083	1107.47
462.456	1112.89
462.829	1118.09
463.201	1104.31
463.574	1129.39
463.947	1152.89
464.32	1176.85
464.692	1153.35
465.065	1188.82
465.438	1182.27
465.81	1191.08
466.183	1175.49
466.555	1204.64
466.928	1190.18
467.3	1221.82
467.672	1243.29
468.045	1264.08
468.417	1278.77
468.789	1253.91
469.161	1272.66
469.534	1302.72
469.906	1341.36
470.278	1339.78
470.65	1368.25
471.022	1365.09
471.394	1377.75
471.766	1375.26
472.138	1414.81
472.51	1444.41
472.882	1437.41
473.253	1440.8
473.625	1469.04
473.997	1482.38
474.369	1514.01
474.74	1498.65
475.112	1528.7
475.484	1586.78
475.855	1563.28
476.227	1599.89
476.598	1634.01
476.97	1605.76
477.341	1640.34
477.713	1694.12
478.084	1711.52
478.455	1731.41
478.827	1747
479.198	1794.23
479.569	1781.35
479.94	1839.88
480.311	1820.67
480.682	1900.9
481.053	1915.36
481.424	1931.63
481.795	1958.75
482.166	2001.68
482.537	2028.12
482.908	2043.27
483.279	2052.76
483.65	2094.11
484.021	2131.62
484.391	2140.44
484.762	2178.86
485.133	2195.35
485.503	2188.8
485.874	2243.71
486.244	2297.5
486.615	2309.02
486.985	2363.48
487.356	2387.89
487.726	2391.73
488.097	2425.18
488.467	2430.6
488.837	2509.24
489.207	2519.86
489.578	2569.81
489.948	2575
490.318	2616.13
490.688	2588.34
491.058	2638.28
491.428	2673.08
491.798	2696.58
492.168	2784.49
492.538	2735.45
492.908	2803.47
493.278	2836.24
493.648	2822.23
494.017	2891.15
494.387	2880.53
494.757	2867.88
495.126	2919.85
495.496	2948.33
495.866	2945.16
496.235	2987.42
496.605	3026.74
496.974	3025.61
497.344	3030.36
497.713	3053.63
498.082	3083.24
498.452	3121.43
498.821	3125.5
499.19	3156.68
499.559	3156.23
499.928	3177.25
500.298	3170.02
500.667	3230.8
501.036	3226.96
501.405	3261.76
501.774	3246.17
502.143	3285.04
502.512	3312.61
502.88	3282.78
503.249	3275.32
503.618	3313.06
503.987	3321.65
504.356	3386.96
504.724	3381.99
505.093	3380.41
505.462	3404.36
505.83	3409.56
506.199	3447.97
506.567	3494.53
506.936	3421.53
507.304	3476.45
507.672	3485.26
508.041	3515.32
508.409	3556.45
508.777	3550.8
509.145	3588.76
509.514	3553.96
509.882	3576.11
510.25	3607.52
510.618	3575.43
510.986	3605.94
511.354	3608.87
511.722	3683.67
512.09	3666.95
512.458	3691.81
512.826	3720.51
513.193	3718.48
513.561	3725.03
513.929	3728.42
514.297	3752.15
514.664	3763.45
515.032	3748.98
515.4	3758.7
515.767	3774.29
516.135	3767.06
516.502	3787.63
516.869	3811.58
517.237	3866.49
517.604	3820.39
517.972	3852.26
518.339	3816.33
518.706	3876.89
519.073	3871.24
519.44	3872.14
519.808	3901.3
520.175	3868.98
520.542	3932.48
520.909	3953.72
521.276	3949.43
521.643	3984.91
522.009	3954.63
522.376	4013.84
522.743	4003.67
523.11	4026.94
523.477	4023.78
523.843	4082.76
524.21	4091.35
524.577	4075.53
524.943	4112.82
525.31	4158.69
525.676	4178.8
526.043	4174.51
526.409	4226.03
526.776	4239.14
527.142	4274.85
527.508	4271.91
527.874	4286.6
528.241	4311.45
528.607	4271.46
528.973	4380.61
529.339	4372.92
529.705	4371.57
530.071	4433.03
530.437	4444.11
530.803	4413.37
531.169	4508.51
531.535	4441.17
531.901	4438.46
532.267	4506.48
532.632	4538.57
532.998	4560.26
533.364	4557.32
533.73	4603.2
534.095	4642.07
534.461	4631.9
534.826	4670.54
535.192	4691.56
535.557	4682.29
535.923	4665.34
536.288	4714.61
536.653	4725
537.019	4726.81
537.384	4757.54
537.749	4802.06
538.114	4828.05
538.479	4802.06
538.845	4814.27
539.21	4844.32
539.575	4816.07
539.94	4870.76
540.305	4882.96
540.67	4924.55
541.034	4970.65
541.399	5019.46
541.764	4998.44
542.129	4998.44
542.494	5026.01
542.858	5031.89
543.223	5044.32
543.587	5103.07
543.952	5094.48
544.316	5156.18
544.681	5106.24
545.045	5188.27
545.41	5194.6
545.774	5217.87
546.138	5212.22
546.503	5224.65
546.867	5233.46
547.231	5293.12
547.595	5287.7
547.959	5344.2
548.324	5333.12
548.688	5371.31
549.052	5432.33
549.416	5355.95
549.779	5368.83
550.143	5376.51
550.507	5444.76
550.871	5425.1
551.235	5475.49
551.599	5517.52
551.962	5527.47
552.326	5508.94
552.689	5567.01
553.053	5546.9
553.417	5589.61
553.78	5639.33
554.143	5576.51
554.507	5658.09
554.87	5611.53
555.234	5669.61
555.597	5677.97
555.96	5720.68
556.323	5718.2
556.686	5741.02
557.05	5723.39
557.413	5798.2
557.776	5757.52
558.139	5766.11
558.502	5794.13
558.865	5806.33
559.228	5862.15
559.59	5905.99
559.953	5906.21
560.316	5964.74
560.679	5909.83
561.041	5961.58
561.404	5968.13
561.767	6008.13
562.129	5950.51
562.492	6059.43
562.854	6043.61
563.217	5991.86
563.579	6056.04
563.941	6130.39
564.304	6130.84
564.666	6169.71
565.028	6152.31
565.39	6216.04
565.753	6144.85
566.115	6218.07
566.477	6245.41
566.839	6249.93
567.201	6305.3
567.563	6336.03
567.925	6348.91
568.287	6303.72
568.648	6315.24
569.01	6406.54
569.372	6402.92
569.734	6435.01
570.095	6422.81
570.457	6509.81
570.819	6475.24
571.18	6496.93
571.542	6582.36
571.903	6617.38
572.265	6637.04
572.626	6724.72
572.987	6766.76
573.349	6709.81
573.71	6824.38
574.071	6839.52
574.432	6874.55
574.794	6964.72
575.155	6960.88
575.516	6991.84
575.877	7093.3
576.238	7101.21
576.599	7185.5
576.96	7176.69
577.32	7250.81
577.681	7319.74
578.042	7457.13
578.403	7479.96
578.763	7553.86
579.124	7663.23
579.485	7730.8
579.845	7831.59
580.206	7910
580.566	8031.58
580.927	8094.18
581.287	8234.06
581.648	8266.83
582.008	8468.18
582.368	8568.74
582.728	8649.65
583.089	8833.6
583.449	8954.72
583.809	9151.33
584.169	9258.89
584.529	9357.42
584.889	9670.64
585.249	9693.01
585.609	9819.56
585.969	10084.18
586.329	10258.42
586.688	10473.1
587.048	10640.33
587.408	10807.55
587.768	11003.48
588.127	11216.13
588.487	11408.89
588.846	11745.84
589.206	11842.56
589.565	12019.5
589.925	12391.92
590.284	12514.85
590.643	12725.7
591.003	13082.98
591.362	13341.73
591.721	13588.05
592.08	13827.59
592.44	14109.61
592.799	14354.13
593.158	14577.63
593.517	14824.85
593.876	15152.75
594.235	15319.53
594.593	15658.95
594.952	15980.53
595.311	16196.34
595.67	16482.66
596.029	16826.38
596.387	17100.95
596.746	17379.81
597.104	17578.45
597.463	17875.84
597.822	18165.78
598.18	18400.8
598.538	18671.98
598.897	19051.41
599.255	19123.04
599.613	19829.24
599.972	19747.21
600.33	20254.54
600.688	20342.67
601.046	20715.32
601.404	20983.78
601.762	21261.52
602.12	21657.67
602.478	21819.02
602.836	22044.55
603.194	22125.68
603.552	22491.99
603.91	22608.15
604.268	22977.4
604.625	23143.05
604.983	23517.73
605.341	23561.8
605.698	23998.17
606.056	24265.05
606.413	24511.83
606.771	24705.27
607.128	24907.98
607.485	25031.59
607.843	25242.66
608.2	25471.8
608.557	25874.73
608.914	26046.93
609.272	26158.34
609.629	26530.98
609.986	26843.74
610.343	26871.31
610.7	27236.73
611.057	27295.03
611.414	27542.48
611.771	27702.93
612.127	27972.53
612.484	28046.65
612.841	28328.68
613.198	28432.85
613.554	28545.85
613.911	28850.7
614.267	28952.61
614.624	29125.04
614.98	29320.74
615.337	29548.76
615.693	29619.72
616.05	29785.36
616.406	30134.28
616.762	30052.47
617.118	30296.76
617.475	30351.45
617.831	30613.14
618.187	30738.56
618.543	30829.85
618.899	31099.22
619.255	31127.47
619.611	31202.27
619.967	31386.45
620.323	31675.93
620.678	31664.18
621.034	31602.26
621.39	31732.43
621.746	31898.07
622.101	32268.23
622.457	31985.08
622.812	32280.89
623.168	32456.7
623.523	32458.28
623.879	32578.73
624.234	32492.18
624.589	32762.01
624.945	32736.7
625.3	32922.45
625.655	32929.23
626.01	33123.13
626.365	33139.4
626.72	33053.52
627.075	33210.36
627.43	33167.64
627.785	33235.21
628.14	33401.54
628.495	33417.13
628.85	33500.07
629.205	33439.28
629.559	33740.06
629.914	33592.27
630.269	33691.92
630.623	33561.31
630.978	33563.57
631.332	33843.79
631.687	33818.48
632.041	33815.09
632.396	33916.55
632.75	33800.62
633.104	33893.95
633.459	33745.26
633.813	33829.32
634.167	33813.5
634.521	33814.86
634.875	33859.15
635.229	33877.46
635.583	33860.96
635.937	33751.58
636.291	33820.74
636.645	33970.34
636.999	33797.91
637.352	34019.83
637.706	33793.17
638.06	34002.43
638.413	34055.08
638.767	33838.14
639.121	33879.94
639.474	33681.98
639.828	33870.23
640.181	34066.6
640.534	33931.69
640.888	33860.73
641.241	33803.11
641.594	33765.37
641.947	33886.72
642.301	33932.37
642.654	33868.19
643.007	33853.05
643.36	33813.5
643.713	33851.47
644.066	33934.4
644.419	33825.25
644.771	33609.89
645.124	33212.62
645.477	33159.51
645.83	33090.58
646.182	32938.95
646.535	32857.37
646.888	32885.17
647.24	32741.67
647.593	32884.26
647.945	32869.35
648.298	32728.11
648.65	32732.4
649.002	32652.86
649.355	32797.49
649.707	32655.79
650.059	32768.11
650.411	33215.33
650.763	33225.72
651.115	33727.63
651.467	33473.63
651.819	33526.51
652.171	33452.84
652.523	33316.12
652.875	33478.6
653.227	33258.04
653.578	33545.04
653.93	33463
654.282	33300.75
654.633	33309.34
654.985	33449.9
655.337	33373.06
655.688	33327.64
656.039	33536.45
656.391	33125.16
656.742	33183.92
657.094	33239.28
657.445	33401.99
657.796	33168.55
658.147	33250.13
658.498	33234.08
658.849	33291.03
659.2	33138.04
659.551	33105.5
659.902	33293.74
660.253	33083.35
660.604	33233.18
660.955	33044.71
661.306	33182.33
661.656	33190.92
662.007	33240.64
662.358	33149.79
662.708	33084.94
663.059	33114.31
663.409	33015.11
663.76	33116.8
664.11	33241.09
664.461	33172.16
664.811	33185.95
665.161	32987.99
665.511	33175.33
665.862	33237.25
666.212	33272.73
666.562	33123.35
666.912	33199.28
667.262	33052.62
667.612	33142.79
667.962	33124.71
668.312	33068.89
668.662	33192.95
669.011	32949.8
669.361	33079.29
669.711	33011.49
670.06	32938.5
670.41	32969.46
670.76	32917.48
671.109	33025.28
671.459	32967.65
671.808	32937.37
672.157	32895.34
672.507	32907.76
672.856	32795.68
673.205	32949.8
673.554	32846.07
673.904	32779.41
674.253	32941.66
674.602	32914.54
674.951	32432.3
675.3	32313.88
675.649	32796.13
675.998	32736.92
676.346	32757.26
676.695	32916.8
677.044	32529.92
677.393	32693.31
677.741	32792.06
678.09	32746.86
678.438	32544.84
678.787	32734.21
679.135	32750.48
679.484	32453.54
679.832	32461.9
680.181	32385.97
680.529	32404.5
680.877	32415.8
681.225	32358.4
681.573	32513.2
681.922	32373.09
682.27	32209.25
682.618	32346.42
682.966	32277.72
683.314	32270.04
683.661	32115.02
684.009	31921.12
684.357	31990.27
684.705	31776.04
685.053	32096.71
685.4	31893.55
685.748	31917.06
686.095	31677.74
686.443	31584.86
686.79	31603.39
687.138	31505.77
687.485	31703.95
687.832	31455.37
688.18	31648.36
688.527	31466.45
688.874	31317.3
689.221	31294.93
689.568	31207.7
689.915	31071.43
690.262	31128.83
690.609	31013.58
690.956	30981.26
691.303	30947.59
691.65	30665.56
691.997	30849.97
692.344	30581.95
692.69	30580.82
693.037	30693.59
693.383	30345.12
693.73	30558.45
694.077	30198.68
694.423	30270.09
694.769	30166.82
695.116	30226.93
695.462	30065.58
695.808	30118.91
696.155	30052.02
696.501	29856.32
696.847	29919.82
697.193	29595.08
697.539	29746.27
697.885	29449.55
698.231	29449.55
698.577	29474.41
698.923	29395.54
699.269	29241.42
699.614	29163.46
699.96	29083.68
700.306	29240.29
700.651	28987.42
700.997	28845.05
701.342	28799.17
701.688	28835.56
702.033	28628.1
702.379	28699.74
702.724	28586.3
703.069	28646.41
703.415	28268.34
703.76	28452.74
704.105	28395.79
704.45	28268.56
704.795	28066.76
705.14	27921
705.485	27991.96
705.83	27974.56
706.175	27937.73
706.52	27869.93
706.865	27775.47
707.209	27765.3
707.554	27697.96
707.899	27720.78
708.243	27533.22
708.588	27520.79
708.932	27304.3
709.277	27373.45
709.621	27246.44
709.966	27149.27
710.31	27158.54
710.654	27019.33
710.998	27095.71
711.342	26999.9
711.687	26985.43
712.031	26702.5
712.375	26738.44
712.719	26814.14
713.063	26807.59
713.407	26782.73
713.75	26585.67
714.094	26688.72
714.438	26527.14
714.782	26547.48
715.125	26387.03
715.469	26379.57
715.812	26239.69
716.156	26122.41
716.499	26279.46
716.843	26181.84
717.186	26150.88
717.53	26151.33
717.873	26082.86
718.216	26089.19
718.559	25867.27
718.902	25766.71
719.246	25798.35
719.589	25707.95
719.932	25665.7
720.275	25646.03
720.617	25530.11
720.96	25538.47
721.303	25494.85
721.646	25590.89
721.989	25465.02
722.331	25508.86
722.674	25319.94
723.016	25307.29
723.359	25306.61
723.701	25406.27
724.044	25096.67
724.386	24953.62
724.729	25268.64
725.071	25189.78
725.413	25208.53
725.755	24990.46
726.097	24938.93
726.439	24882.89
726.782	24982.78
727.124	24902.33
727.465	24826.85
727.807	24809.9
728.149	24743.69
728.491	24646.51
728.833	24755.89
729.175	24703.46
729.516	24621.65
729.858	24607.42
730.199	24562
730.541	24603.35
730.882	24429.12
731.224	24618.72
731.565	24343.02
731.906	24314.09
732.248	24467.53
732.589	24284.26
732.93	24191.16
733.271	24242.91
733.612	24232.74
733.953	24214.89
734.294	24036.59
734.635	24062.8
734.976	24186.64
735.317	23955.01
735.658	23974.21
735.999	23949.36
736.339	23898.06
736.68	23960.2
737.021	23740.1
737.361	23776.93
737.702	23933.09
738.042	23786.87
738.383	23670.27
738.723	23706.42
739.063	23590.04
739.404	23680.66
739.744	23601.57
740.084	23559.76
740.424	23620.33
740.764	23506.88
741.104	23582.36
741.444	23469.14
741.784	23357.96
742.124	23447.22
742.464	23423.49
742.804	23306.89
743.143	23321.58
743.483	23359.99
743.823	23266.89
744.162	23241.13
744.502	23274.12
744.841	23096.05
745.181	23127.68
745.52	23051.98
745.86	23182.37
746.199	22936.28
746.538	22883.4
746.877	23087.01
747.216	23035.48
747.556	22817.18
747.895	22969.72
748.234	22751.87
748.573	22809.95
748.911	22785.32
749.25	22813.79
749.589	22633.23
749.928	22701.48
750.267	22778.77
750.605	22665.77
750.944	22463.97
751.283	22564.31
751.621	22510.3
751.96	22353.92
752.298	22380.13
752.636	22386.91
752.975	22327.48
753.313	22163.19
753.651	22271.89
753.989	22218.33
754.327	22146.01
754.666	22030.99
755.004	22085.68
755.342	22115.96
755.679	22036.86
756.017	21847.72
756.355	21906.92
756.693	21913.25
757.031	21866.7
757.368	21764.33
757.706	21697.89
758.044	21615.86
758.381	21663.99
758.719	21537.44
759.056	21495.18
759.394	21519.36
759.731	21254.96
760.068	21327.5
760.405	21231.46
760.743	21082.99
761.08	21197.11
761.417	21087.28
761.754	20970
762.091	20987.17
762.428	20888.87
762.765	20868.08
763.102	20896.78
763.438	20693.62
763.775	20609.11
764.112	20643.45
764.449	20653.62
764.785	20597.81
765.122	20442.33
765.458	20391.03
765.795	20360.75
766.131	20343.58
766.467	20273.97
766.804	20123.47
767.14	20100.87
767.476	20030.82
767.812	20017.26
768.148	20039.18
768.485	19931.61
768.821	19770.93
769.157	19787.66
769.492	19664.5
769.828	19569.81
770.164	19462.02
770.5	19462.69
770.836	19443.26
771.171	19232.64
771.507	19263.6
771.842	19110.84
772.178	19130.05
772.513	19093.89
772.849	19055.47
773.184	18955.36
773.519	18851.86
773.855	18817.29
774.19	18756.72
774.525	18615.26
774.86	18693.9
775.195	18622.94
775.53	18531.42
775.865	18403.97
776.2	18396.06
776.535	18130.53
776.87	18251.88
777.205	18219.34
777.539	18105.22
777.874	18032
778.209	17927.37
778.543	17841.27
778.878	17840.82
779.212	17693.93
779.547	17703.19
779.881	17730.54
780.215	17650.09
780.55	17573.7
780.884	17462.52
781.218	17366.03
781.552	17559.69
781.886	17300.72
782.22	17156.77
782.554	17182.98
782.888	17058.01
783.222	16986.15
783.556	16924.91
783.889	16906.83
784.223	16766.04
784.557	16749.55
784.89	16731.01
785.224	16540.51
785.557	16538.48
785.891	16598.59
786.224	16408.31
786.558	16521.08
786.891	16338.03
787.224	16199.05
787.557	16168.77
787.891	16195.21
788.224	16172.39
788.557	16085.38
788.89	16075.66
789.223	16046.29
789.556	15914.77
789.888	15893.3
790.221	15786.41
790.554	15772.17
790.887	15705.05
791.219	15598.62
791.552	15556.36
791.884	15500.31
792.217	15433.42
792.549	15425.29
792.882	15309.58
793.214	15304.16
793.546	15295.35
793.879	15113.2
794.211	15081.11
794.543	15111.17
794.875	15098.74
795.207	15081.79
795.539	15020.33
795.871	14956.37
796.203	14812.2
796.535	14687.68
796.867	14859.65
797.198	14737.62
797.53	14786.21
797.862	14617.4
798.193	14597.51
798.525	14529.26
798.856	14499.44
799.188	14343.28
799.519	14394.13
799.85	14270.51
800.182	14369.95
800.513	14287.24
800.844	14137.86
801.175	14167.24
801.506	14114.81
801.837	14090.86
802.168	14004.76
802.499	14009.05
802.83	14009.28
803.161	13909.39
803.491	13948.04
803.822	13967.25
804.153	13783.75
804.483	13687.93
804.814	13715.95
805.145	13683.86
805.475	13668.95
805.805	13535.39
806.136	13578.56
806.466	13568.39
806.796	13520.7
807.126	13413.36
807.457	13435.73
807.787	13466.69
808.117	13374.94
808.447	13318
808.777	13280.94
809.107	13243.65
809.436	13204.55
809.766	13127.95
810.096	13130.88
810.426	13049.76
810.755	13074.16
811.085	13023.54
811.414	13009.53
811.744	12971.79
812.073	12910.1
812.403	12885.69
812.732	12807.5
813.061	12789.65
813.39	12697.22
813.719	12659.48
814.049	12773.83
814.378	12685.25
814.707	12607.06
815.036	12588.52
815.365	12561.18
815.693	12485.93
816.022	12429.66
816.351	12393.73
816.68	12389.89
817.008	12438.02
817.337	12240.96
817.665	12215.2
817.994	12215.43
818.322	12261.75
818.651	12157.58
818.979	12170.46
819.307	12185.6
819.636	12205.48
819.964	12014.08
820.292	12160.51
820.62	12049.56
820.948	12026.28
821.276	12121.42
821.604	12023.12
821.932	12030.12
822.259	12017.92
822.587	11993.29
822.915	11965.04
823.243	12125.71
823.57	11999.61
823.898	12101.76
824.225	11958.03
824.553	11889.11
824.88	11988.31
825.207	11997.35
825.535	11928.43
825.862	12005.49
826.189	11933.63
826.516	11987.86
826.843	12000.29
827.17	12004.81
827.497	11992.83
827.824	11973.63
828.151	11988.54
828.478	11952.16
828.805	11960.74
829.131	12008.2
829.458	11966.39
829.785	11910.35
830.111	11880.97
830.438	12018.14
830.764	11925.27
831.09	11916.9
831.417	11890.01
831.743	11900.63
832.069	11947.41
832.395	11898.15
832.722	11842.1
833.048	11890.46
833.374	11819.96
833.7	11777.25
834.026	11845.04
834.351	11855.89
834.677	11813.63
835.003	11890.01
835.329	11855.66
835.654	11806.85
835.98	11759.17
836.306	11789.9
836.631	11727.53
836.956	11744.71
837.282	11727.08
837.607	11659.28
837.932	11631.49
838.258	11639.85
838.583	11632.17
838.908	11555.78
839.233	11618.15
839.558	11600.3
839.883	11522.34
840.208	11472.4
840.533	11491.38
840.858	11466.29
841.182	11516.46
841.507	11368.22
841.832	11396.24
842.156	11382.68
842.481	11419.74
842.805	11326.86
843.13	11284.15
843.454	11264.27
843.778	11245.74
844.103	11194.89
844.427	11226.53
844.751	11156.02
845.075	11130.94
845.399	11136.59
845.723	11088.68
846.047	11121.9
846.371	11006.42
846.695	10910.83
847.019	10974.78
847.343	10880.55
847.666	10796.26
847.99	10731.62
848.313	10745.41
848.637	10706.54
848.96	10713.55
849.284	10590.61
849.607	10521.01
849.931	10486.89
850.254	10464.96
850.577	10386.32
850.9	10405.08
851.223	10378.87
851.546	10329.15
851.869	10269.49
852.192	10194.92
852.515	10179.32
852.838	10164.86
853.161	10122.83
853.483	10067.24
853.806	10013.23
854.129	10112.21
854.451	9954.92
854.774	9896.17
855.096	9902.72
855.419	9881.93
855.741	9880.35
856.063	9754.48
856.385	9791.31
856.708	9779.56
857.03	9692.78
857.352	9715.61
857.674	9699.34
857.996	9646
858.318	9629.96
858.64	9649.85
858.961	9590.41
859.283	9570.07
859.605	9487.59
859.926	9507.48
860.248	9461.83
860.57	9420.02
860.891	9453.24
861.212	9423.41
861.534	9362.4
861.855	9378.44
862.176	9353.36
862.498	9305
862.819	9328.72
863.14	9267.71
863.461	9251.66
863.782	9237.88
864.103	9202.4
864.424	9202.85
864.745	9205.11
865.065	9134.15
865.386	9129.63
865.707	9094.38
866.027	9133.02
866.348	9054.61
866.668	9102.29
866.989	9023.87
867.309	9022.97
867.63	9017.09
867.95	9043.08
868.27	8949.98
868.59	8995.85
868.91	8990.88
869.23	8943.65
869.55	8946.36
869.87	8931.45
870.19	8910.43
870.51	8931.9
870.83	8870.43
871.15	8842.63
871.469	8829.75
871.789	8843.54
872.109	8858.68
872.428	8775.52
872.748	8840.15
873.067	8834.95
873.386	8835.63
873.706	8749.53
874.025	8735.52
874.344	8785.91
874.663	8730.55
874.982	8728.74
875.301	8678.57
875.62	8669.76
875.939	8640.61
876.258	8599.7
876.577	8542.08
876.896	8620.72
877.214	8521.74
877.533	8595.18
877.852	8555.41
878.17	8553.15
878.489	8549.99
878.807	8534.39
879.125	8504.11
879.444	8486.71
879.762	8443.55
880.08	8516.32
880.398	8449.2
880.716	8441.29
881.034	8408.52
881.352	8375.08
881.67	8339.37
881.988	8357.9
882.306	8366.26
882.624	8401.06
882.941	8299.6
883.259	8253.72
883.577	8284.46
883.894	8215.08
884.212	8237.45
884.529	8188.19
884.846	8255.08
885.164	8168.3
885.481	8188.87
885.798	8163.78
886.115	8101.86
886.432	8105.25
886.75	8022.09
887.067	8064.58
887.383	8036.1
887.7	8044.24
888.017	8008.76
888.334	8013.5
888.651	7975.76
888.967	7998.59
889.284	7983.9
889.6	7844.69
889.917	7845.82
890.233	7898.25
890.55	7843.56
890.866	7836.79
891.182	7800.18
891.498	7727.86
891.815	7733.96
892.131	7731.93
892.447	7685.6
892.763	7692.16
893.079	7649.22
893.395	7633.85
893.71	7594.76
894.026	7545.49
894.342	7513.63
894.657	7523.57
894.973	7514.76
895.289	7491.03
895.604	7447.42
895.92	7447.42
896.235	7390.92
896.55	7401.54
896.865	7413.29
897.181	7334.43
897.496	7377.36
897.811	7272.73
898.126	7275.44
898.441	7237.48
898.756	7251.72
899.071	7189.12
899.386	7156.35
899.7	7100.76
900.015	7133.98
900.33	7056.02
900.644	7028.9
900.959	7040.2
901.273	7017.82
901.588	6980.54
901.902	7000.2
902.216	6908
902.531	6910.03
902.845	6897.6
903.159	6824.16
903.473	6858.51
903.787	6846.76
904.101	6819.86
904.415	6784.38
904.729	6724.95
905.042	6660.09
905.356	6685.86
905.67	6630.72
905.984	6677.49
906.297	6632.52
906.611	6636.37
906.924	6580.77
907.237	6604.73
907.551	6521.11
907.864	6473.88
908.177	6464.84
908.491	6470.04
908.804	6409.7
909.117	6421.23
909.43	6369.25
909.743	6357.5
910.056	6340.55
910.368	6267.56
910.681	6252.42
910.994	6228.47
911.307	6183.04
911.619	6214.46
911.932	6183.27
912.244	6155.47
912.557	6125.87
912.869	6069.83
913.181	6098.07
913.494	6057.17
913.806	6029.83
914.118	5982.6
914.43	5965.65
914.742	5955.93
915.054	5936.04
915.366	5888.36
915.678	5887.46
915.99	5894.46
916.302	5814.69
916.613	5804.97
916.925	5741.7
917.236	5783.96
917.548	5746.22
917.859	5734.24
918.171	5685.43
918.482	5634.36
918.794	5632.1
919.105	5623.06
919.416	5599.56
919.727	5557.52
920.038	5577.41
920.349	5535.83
920.66	5470.97
920.971	5539.22
921.282	5457.86
921.593	5417.19
921.903	5430.07
922.214	5430.52
922.525	5353.01
922.835	5355.04
923.146	5325.21
923.456	5292.9
923.767	5266.01
924.077	5268.27
924.387	5272.79
924.697	5259
925.008	5209.96
925.318	5207.93
925.628	5162.05
925.938	5161.15
926.248	5108.72
926.558	5076.18
926.867	5050.87
927.177	5052.68
927.487	4972
927.796	4981.04
928.106	4997.76
928.416	4983.98
928.725	4967.03
929.034	4909.18
929.344	4933.36
929.653	4926.13
929.962	4855.62
930.271	4861.04
930.581	4822.18
930.89	4786.02
931.199	4771.78
931.508	4779.92
931.817	4696.53
932.125	4713.03
932.434	4722.52
932.743	4708.28
933.051	4650.65
933.36	4640.03
933.669	4597.1
933.977	4582.18
934.286	4536.31
934.594	4548.96
934.902	4538.57
935.21	4501.05
935.519	4513.48
935.827	4486.37
936.135	4431.68
936.443	4488.85
936.751	4444.56
937.059	4384.22
937.367	4394.62
937.674	4440.72
937.982	4390.77
938.29	4362.75
938.597	4333.15
938.905	4275.3
939.213	4272.13
939.52	4246.37
939.827	4276.2
940.135	4224.9
940.442	4298.8
940.749	4236.2
941.056	4240.27
941.363	4179.71
941.67	4151.68
941.977	4125.7
942.284	4148.52
942.591	4081.63
942.898	4058.13
943.205	4070.33
943.511	4022.42
943.818	4017.68
944.125	4011.58
944.431	3973.61
944.738	4006.6
945.044	3960.96
945.35	3949.43
945.657	3947.85
945.963	3874.18
946.269	3878.02
946.575	3869.43
946.881	3899.04
947.187	3838.7
947.493	3787.85
947.799	3784.46
948.105	3762.99
948.41	3763.22
948.716	3754.41
949.022	3718.48
949.327	3747.85
949.633	3692.49
949.938	3685.93
950.244	3708.98
950.549	3662.21
950.854	3656.1
951.16	3628.99
951.465	3647.29
951.77	3608.2
952.075	3589.89
952.38	3546.73
952.685	3538.14
952.99	3561.64
953.294	3506.73
953.599	3501.53
953.904	3463.57
954.209	3471.48
954.513	3477.8
954.818	3443.45
955.122	3479.61
955.426	3454.75
955.731	3410.46
956.035	3391.7
956.339	3405.72
956.643	3356.9
956.948	3341.99
957.252	3324.81
957.556	3351.03
957.86	3293.63
958.163	3311.25
958.467	3254.31
958.771	3282.55
959.075	3245.04
959.378	3262.44
959.682	3219.73
959.985	3206.62
960.289	3175.67
960.592	3200.52
960.896	3191.48
961.199	3137.93
961.502	3134.31
961.805	3134.54
962.108	3124.59
962.411	3086.18
962.714	3044.82
963.017	3057.02
963.32	3039.4
963.623	3059.51
963.926	3026.52
964.228	2997.14
964.531	3026.52
964.833	3027.42
965.136	2963.69
965.438	2998.72
965.741	2963.92
966.043	2946.07
966.345	2919.85
966.648	2935.22
966.95	2895.45
967.252	2928.67
967.554	2880.76
967.856	2902.9
968.158	2830.14
968.46	2843.02
968.761	2823.81
969.063	2819.29
969.365	2806.18
969.666	2826.07
969.968	2794.88
970.269	2807.09
970.571	2772.74
970.872	2732.51
971.174	2736.81
971.475	2717.82
971.776	2709.69
972.077	2731.16
972.378	2749.69
972.679	2684.83
972.98	2645.74
973.281	2680.08
973.582	2655
973.883	2668.33
974.183	2646.19
974.484	2566.19
974.785	2612.52
975.085	2596.02
975.386	2589.92
975.686	2554.66
975.986	2574.78
976.287	2581.78
976.587	2520.32
976.887	2537.04
977.187	2516.7
977.487	2528
977.787	2497.49
978.087	2493.88
978.387	2459.98
978.687	2441
978.987	2415.23
979.286	2415.01
979.586	2429.02
979.885	2396.48
980.185	2433.54
980.484	2391.05
980.784	2370.71
981.083	2355.57
981.382	2392.18
981.682	2362.58
981.981	2341.56
982.28	2344.05
982.579	2316.03
982.878	2326.87
983.177	2327.33
983.475	2272.86
983.774	2299.76
984.073	2302.02
984.372	2247.55
984.67	2274.67
984.969	2267.89
985.267	2241.45
985.566	2264.5
985.864	2225.86
986.162	2203.26
986.461	2211.4
986.759	2194.45
987.057	2180.44
987.355	2194
987.653	2164.84
987.951	2168.46
988.249	2130.27
988.547	2099.99
988.844	2154
989.142	2123.04
989.44	2100.67
989.737	2096.37
990.035	2090.27
990.332	2085.98
990.63	2068.35
990.927	2080.55
991.224	2063.6
991.521	2045.07
991.819	2069.93
992.116	2007.56
992.413	2020.44
992.71	2003.49
993.006	2002.14
993.303	2004.4
993.6	2027.9
993.897	1947.45
994.193	1976.83
994.49	1944.74
994.787	1968.01
995.083	1933.44
995.379	1901.12
995.676	1925.98
995.972	1905.42
996.268	1914.91
996.565	1923.49
996.861	1889.15
997.157	1897.96
997.453	1867.45
997.749	1862.03
998.044	1832.65
998.34	1819.54
998.636	1832.42
998.932	1800.11
999.227	1793.55
999.523	1796.27
999.818	1784.29
1000.114	1769.6
1000.409	1776.38
1000.704	1769.6
1001	1767.34
1001.295	1748.58
1001.59	1732.09
1001.885	1738.19
1002.18	1720.79
1002.475	1704.97
1002.77	1697.51
1003.065	1707.91
1003.359	1678.3
1003.654	1671.3
1003.949	1704.97
1004.243	1671.07
1004.538	1617.51
1004.832	1650.73
1005.127	1659.55
1005.421	1596.95
1005.715	1626.1
1006.009	1611.86
1006.304	1627.23
1006.598	1614.58
1006.892	1611.41
1007.186	1579.55
1007.48	1559.89
1007.773	1556.05
1008.067	1541.81
1008.361	1547.01
1008.655	1501.81
1008.948	1525.09
1009.242	1535.48
1009.535	1528.02
1009.829	1517.4
1010.122	1496.61
1010.415	1448.48
1010.708	1471.3
1011.001	1470.85
1011.295	1468.14
1011.588	1424.52
1011.881	1449.83
1012.173	1451.64
1012.466	1452.55
1012.759	1410.74
1013.052	1423.62
1013.344	1391.31
1013.637	1424.98
1013.93	1394.47
1014.222	1376.16
1014.514	1387.46
1014.807	1389.27
1015.099	1337.07
1015.391	1363.28
1015.683	1358.99
1015.976	1347.92
1016.268	1360.57
1016.56	1319.89
1016.851	1293.68
1017.143	1317.18
1017.435	1326.67
1017.727	1302.95
1018.018	1278.09
1018.31	1300.23
1018.602	1274.47
1018.893	1275.6
1019.185	1256.85
1019.476	1257.98
1019.767	1232.44
1020.058	1239.67
1020.35	1233.34
1020.641	1204.42
1020.932	1229.05
1021.223	1209.84
1021.514	1215.26
1021.804	1173.23
1022.095	1200.58
1022.386	1157.64
1022.677	1166.23
1022.967	1165.1
1023.258	1146.34
1023.548	1148.15
1023.839	1150.41
1024.129	1140.69
1024.419	1129.84
1024.709	1115.38
1025	1121.93
1025.29	1093.23
1025.58	1094.82
1025.87	1074.25
1026.16	1075.61
1026.449	1093.46
1026.739	1058.88
1027.029	1079.45
1027.319	1065.66
1027.608	1055.95
1027.898	1027.47
1028.187	1014.59
1028.477	1021.82
1028.766	1051.65
1029.055	1010.52
1029.344	1019.56
1029.634	1026.57
1029.923	998.1
1030.212	1019.56
1030.501	987.02
1030.79	998.32
1031.078	968.49
1031.367	976.17
1031.656	992.22
1031.945	944.54
1032.233	969.85
1032.522	937.53
1032.81	913.58
1033.099	932.56
1033.387	929.62
1033.675	913.8
1033.963	921.49
1034.251	944.31
1034.54	925.33
1034.828	906.12
1035.116	904.76
1035.403	893.69
1035.691	863.41
1035.979	874.93
1036.267	866.35
1036.554	867.93
1036.842	882.17
1037.129	869.06
1037.417	883.75
1037.704	872
1037.992	836.97
1038.279	842.62
1038.566	824.99
1038.853	824.99
1039.14	824.99
