Data from hue_20_FLMS001491_46.txt Node
Date: Mon Feb 06 15:34:11 GMT 2017
User: dcchb
Spectrometer: FLMS00149
Trigger mode: 0
Integration Time (sec): 2.000000E-2
Scans to average: 10
Electric dark correction enabled: true
Nonlinearity correction enabled: false
Boxcar width: 0
XAxis mode: Wavelengths
Number of Pixels in Spectrum: 2048
>>>>>Begin Spectral Data<<<<<
341.393	-12.87
341.776	-12.87
342.16	-12.87
342.543	-54.22
342.927	-66.2
343.31	-66.65
343.693	-64.39
344.077	-61.91
344.46	-60.32
344.843	-42.24
345.226	-46.09
345.61	-18.97
345.993	-27.1
346.376	-21.45
346.759	13.8
347.142	39.79
347.525	27.36
347.908	58.09
348.291	78.43
348.674	101.25
349.057	90.41
349.44	110.75
349.823	140.58
350.206	171.99
350.588	207.01
350.971	198.88
351.354	230.74
351.737	248.82
352.119	242.72
352.502	265.77
352.884	270.52
353.267	245.21
353.65	308.48
354.032	308.71
354.414	325.43
354.797	320.46
355.179	321.36
355.562	350.06
355.944	320.23
356.326	322.49
356.709	334.47
357.091	341.7
357.473	357.97
357.855	355.71
358.238	329.27
358.62	329.5
359.002	342.38
359.384	332.89
359.766	329.72
360.148	333.56
360.53	338.31
360.912	350.29
361.294	326.11
361.676	342.6
362.057	334.47
362.439	305.54
362.821	324.07
363.203	326.79
363.584	312.55
363.966	334.02
364.348	315.03
364.729	324.53
365.111	321.81
365.493	323.62
365.874	311.87
366.256	338.31
366.637	320.91
367.019	319.78
367.4	323.62
367.781	309.38
368.163	312.77
368.544	295.6
368.925	296.73
369.306	329.5
369.688	341.25
370.069	294.7
370.45	335.6
370.831	309.16
371.212	312.1
371.593	310.74
371.974	316.39
372.355	317.97
372.736	309.38
373.117	320.46
373.498	314.36
373.879	317.97
374.26	331.08
374.641	312.77
375.021	308.93
375.402	314.13
375.783	316.84
376.163	344.41
376.544	320.91
376.925	315.26
377.305	343.28
377.686	316.62
378.066	326.56
378.447	333.11
378.827	336.73
379.208	339.21
379.588	332.21
379.968	337.86
380.349	325.66
380.729	343.73
381.109	347.35
381.489	327.92
381.87	346.45
382.25	341.93
382.63	327.69
383.01	343.51
383.39	348.71
383.77	343.96
384.15	358.2
384.53	348.48
384.91	345.09
385.29	371.98
385.67	357.97
386.049	349.38
386.429	352.77
386.809	364.75
387.189	351.64
387.568	367.69
387.948	361.36
388.328	385.54
388.707	369.95
389.087	336.73
389.466	369.95
389.846	376.28
390.225	348.25
390.605	376.73
390.984	358.87
391.363	376.5
391.743	382.15
392.122	373.11
392.501	368.37
392.881	389.61
393.26	378.31
393.639	374.69
394.018	388.93
394.397	401.36
394.776	375.6
395.155	386.22
395.534	401.59
395.913	396.16
396.292	400.91
396.671	430.06
397.05	403.85
397.429	405.88
397.808	387.8
398.186	405.2
398.565	392.32
398.944	390.74
399.323	404.52
399.701	416.27
400.08	407.01
400.458	412.66
400.837	423.28
401.215	406.33
401.594	408.59
401.972	414.69
402.351	418.08
402.729	425.09
403.107	435.93
403.486	422.38
403.864	434.35
404.242	447.46
404.62	431.64
404.999	419.66
405.377	443.17
405.755	423.28
406.133	441.58
406.511	421.47
406.889	455.82
407.267	444.75
407.645	473.67
408.023	436.84
408.401	451.75
408.779	475.71
409.156	450.17
409.534	462.37
409.912	466.67
410.29	471.19
410.667	468.48
411.045	483.17
411.422	477.97
411.8	465.54
412.178	484.97
412.555	489.94
412.933	503.96
413.31	495.37
413.687	502.6
414.065	504.41
414.442	476.84
414.819	484.3
415.197	501.47
415.574	531.3
415.951	525.65
416.328	510.06
416.705	519.32
417.082	522.03
417.46	545.08
417.837	541.02
418.214	537.18
418.591	528.36
418.967	531.98
419.344	537.4
419.721	532.66
420.098	560.45
420.475	542.6
420.852	537.85
421.228	558.42
421.605	563.39
421.982	567.91
422.358	557.06
422.735	572.43
423.111	566.78
423.488	577.63
423.864	586.21
424.241	582.15
424.617	593.22
424.994	602.48
425.37	578.76
425.746	600.68
426.123	609.04
426.499	583.95
426.875	604.97
427.251	613.11
427.627	626.44
428.003	617.85
428.379	640.68
428.756	616.95
429.132	632.77
429.507	633.67
429.883	645.65
430.259	679.32
430.635	665.53
431.011	693.56
431.387	678.41
431.763	697.4
432.138	672.54
432.514	707.11
432.89	721.35
433.265	708.47
433.641	719.54
434.016	725.87
434.392	738.98
434.767	716.38
435.143	733.55
435.518	741.92
435.894	753.67
436.269	748.47
436.644	752.76
437.02	766.32
437.395	768.58
437.77	768.81
438.145	767.9
438.52	785.3
438.895	763.84
439.271	788.47
439.646	808.81
440.021	818.52
440.395	820.78
440.77	814
441.145	833.21
441.52	828.47
441.895	829.82
442.27	858.52
442.645	846.09
443.019	855.81
443.394	855.81
443.769	851.52
444.143	875.02
444.518	863.49
444.892	875.7
445.267	858.97
445.641	875.02
446.016	872.31
446.39	885.41
446.764	873.89
447.139	877.96
447.513	900.78
447.887	917.73
448.262	916.37
448.636	925.64
449.01	936.03
449.384	939.2
449.758	932.64
450.132	953.89
450.506	967.9
450.88	945.3
451.254	975.36
451.628	966.09
452.002	957.96
452.376	984.4
452.75	965.19
453.123	991.63
453.497	1020.55
453.871	1011.06
454.244	1050.83
454.618	1054.45
454.992	1037.73
455.365	1055.81
455.739	1098.06
456.112	1080.89
456.486	1072.75
456.859	1117.5
457.232	1119.98
457.606	1124.5
457.979	1089.25
458.352	1122.7
458.725	1147.55
459.099	1159.08
459.472	1186.88
459.845	1170.38
460.218	1199.3
460.591	1211.51
460.964	1210.6
461.337	1240.66
461.71	1232.3
462.083	1265.52
462.456	1260.77
462.829	1300.09
463.201	1285.18
463.574	1284.73
463.947	1322.01
464.32	1349.58
464.692	1378.51
465.065	1385.51
465.438	1383.03
465.81	1413.31
466.183	1444.04
466.555	1446.53
466.928	1451.05
467.3	1438.17
467.672	1468.68
468.045	1514.55
468.417	1520.2
468.789	1534.44
469.161	1526.53
469.534	1580.09
469.906	1604.27
470.278	1610.82
470.65	1634.77
471.022	1686.52
471.394	1681.78
471.766	1725.84
472.138	1724.26
472.51	1753.19
472.882	1771.72
473.253	1827.31
473.625	1814.88
473.997	1884.48
474.369	1886.97
474.74	1929.91
475.112	1955.22
475.484	1969
475.855	2039.96
476.227	2016.68
476.598	2081.32
476.97	2115.66
477.341	2163.57
477.713	2156.34
478.084	2218.71
478.455	2283.8
478.827	2278.15
479.198	2347.3
479.569	2335.09
479.94	2446.05
480.311	2443.79
480.682	2520.85
481.053	2581.19
481.424	2581.87
481.795	2636.33
482.166	2682.43
482.537	2686.72
482.908	2816.21
483.279	2797.23
483.65	2886.27
484.021	2924.23
484.391	2963.78
484.762	3016.43
485.133	3059.37
485.503	3070.44
485.874	3148.18
486.244	3163.09
486.615	3236.77
486.985	3336.42
487.356	3377.55
487.726	3322.86
488.097	3468.4
488.467	3510.88
488.837	3550.88
489.207	3596.53
489.578	3621.61
489.948	3721.95
490.318	3752.46
490.688	3777.32
491.058	3832.91
491.428	3874.94
491.798	3958.33
492.168	4031.77
492.538	4041.04
492.908	4086.46
493.278	4149.74
493.648	4183.18
494.017	4198.77
494.387	4240.81
494.757	4311.54
495.126	4357.87
495.496	4378.66
495.866	4434.7
496.235	4477.86
496.605	4571.42
496.974	4544.98
497.344	4573
497.713	4658.65
498.082	4643.96
498.452	4700.68
498.821	4669.72
499.19	4772.77
499.559	4758.99
499.928	4807.57
500.298	4907.23
500.667	4855.48
501.036	4946.32
501.405	4987.23
501.774	4960.79
502.143	5046.21
502.512	5052.99
502.88	5107.9
503.249	5105.19
503.618	5110.16
503.987	5195.81
504.356	5205.75
504.724	5236.49
505.093	5249.37
505.462	5262.7
505.83	5300.89
506.199	5359.65
506.567	5364.84
506.936	5443.49
507.304	5451.85
507.672	5466.31
508.041	5495.69
508.409	5552.86
508.777	5584.5
509.145	5615.46
509.514	5671.5
509.882	5668.79
510.25	5712.63
510.618	5739.98
510.986	5726.42
511.354	5739.98
511.722	5772.97
512.09	5850.71
512.458	5892.74
512.826	5951.04
513.193	5935.23
513.561	5935.45
513.929	5954.66
514.297	6008.67
514.664	6066.97
515.032	6071.72
515.4	6084.6
515.767	6098.38
516.135	6157.59
516.502	6114.66
516.869	6223.13
517.237	6251.38
517.604	6233.97
517.972	6277.82
518.339	6318.72
518.706	6305.39
519.073	6377.25
519.44	6411.14
519.808	6454.76
520.175	6418.6
520.542	6500.41
520.909	6509
521.276	6479.17
521.643	6582.44
522.009	6651.36
522.376	6619.5
522.743	6653.17
523.11	6725.04
523.477	6767.07
523.843	6852.26
524.21	6859.27
524.577	6929.1
524.943	6896.33
525.31	7003.67
525.676	7050.9
526.043	7076.66
526.409	7113.73
526.776	7183.78
527.142	7234.4
527.508	7189.88
527.874	7277.56
528.241	7300.16
528.607	7371.57
528.973	7351.46
529.339	7395.3
529.705	7434.39
530.071	7498.35
530.437	7503.09
530.803	7587.61
531.169	7626.71
531.535	7665.8
531.901	7676.2
532.267	7706.25
532.632	7796.42
532.998	7780.15
533.364	7824.89
533.73	7868.73
534.095	7927.72
534.461	7960.03
534.826	8034.38
535.192	7957.55
535.557	8038.22
535.923	8020.14
536.288	8129.52
536.653	8187.14
537.019	8174.71
537.384	8196.41
537.749	8252.23
538.114	8203.87
538.479	8294.03
538.845	8337.65
539.21	8337.65
539.575	8323.19
539.94	8423.07
540.305	8476.85
540.67	8466.01
541.034	8563.18
541.399	8555.72
541.764	8567.7
542.129	8591.43
542.494	8633.23
542.858	8707.58
543.223	8704.64
543.587	8790.52
543.952	8790.74
544.316	8772.66
544.681	8768.6
545.045	8854.24
545.41	8847.01
545.774	8922.49
546.138	8932.66
546.503	8984.41
546.867	8978.54
547.231	9137.18
547.595	9136.05
547.959	9172.43
548.324	9126.78
548.688	9197.74
549.052	9277.28
549.416	9289.71
549.779	9286.78
550.143	9255.82
550.507	9342.14
550.871	9361.58
551.235	9348.47
551.599	9460.33
551.962	9505.98
552.326	9537.39
552.689	9577.62
553.053	9543.27
553.417	9575.36
553.78	9688.8
554.143	9627.33
554.507	9700.78
554.87	9782.58
555.234	9811.28
555.597	9741.68
555.96	9800.66
556.323	9770.83
556.686	9833.88
557.05	9966.08
557.413	9904.84
557.776	10051.05
558.139	9989.36
558.502	10088.56
558.865	10039.98
559.228	10180.31
559.59	10185.06
559.953	10230.25
560.316	10306.41
560.679	10293.98
561.041	10299.86
561.404	10392.74
561.767	10460.53
562.129	10364.71
562.492	10449
562.854	10521.32
563.217	10591.15
563.579	10573.3
563.941	10616.01
564.304	10671.37
564.666	10729.45
565.028	10760.64
565.39	10745.49
565.753	10798.37
566.115	10770.8
566.477	10921.31
566.839	10877.47
567.201	10963.34
567.563	10990.46
567.925	11014.64
568.287	11086.95
568.648	11141.19
569.01	11178.25
569.372	11293.95
569.734	11191.58
570.095	11343.44
570.457	11399.94
570.819	11431.58
571.18	11383.9
571.542	11447.17
571.903	11518.81
572.265	11483.1
572.626	11650.33
572.987	11660.05
573.349	11714.28
573.71	11813.94
574.071	11826.6
574.432	11881.96
574.794	11998.12
575.155	11988.63
575.516	12001.73
575.877	12108.62
576.238	12186.36
576.599	12287.6
576.96	12291.89
577.32	12362.4
577.681	12493.24
578.042	12563.75
578.403	12644.65
578.763	12716.29
579.124	12770.75
579.485	12876.51
579.845	13012.78
580.206	13155.37
580.566	13258.42
580.927	13337.97
581.287	13535.03
581.648	13551.97
582.008	13771.86
582.368	13840.33
582.728	14002.36
583.089	14074.67
583.449	14259.75
583.809	14443.48
584.169	14690.25
584.529	14765.73
584.889	15067.64
585.249	15125.94
585.609	15238.26
585.969	15582.88
586.329	15700.39
586.688	15860.84
587.048	16133.6
587.408	16284.11
587.768	16564.78
588.127	16732.91
588.487	16964.77
588.846	17293.12
589.206	17448.37
589.565	17753.22
589.925	17978.98
590.284	18229.14
590.643	18517.04
591.003	18864.38
591.362	19201.09
591.721	19384.59
592.08	19677.46
592.44	19944.8
592.799	20228.41
593.158	20561.96
593.517	20842.86
593.876	21177.08
594.235	21380.47
594.593	21691.2
594.952	22066.33
595.311	22196.49
595.67	22632.64
596.029	22907.66
596.387	23310.81
596.746	23699.73
597.104	23898.37
597.463	24122.32
597.822	24588.75
598.18	24856.31
598.538	25095.63
598.897	25581.94
599.255	25704.65
599.613	26341.92
599.972	26465.08
600.33	26817.84
600.688	27098.28
601.046	27457.15
601.404	27853.07
601.762	28015.32
602.12	28379.15
602.478	28780.5
602.836	29076.31
603.194	29212.35
603.552	29597.2
603.91	29737.09
604.268	30164.64
604.625	30241.7
604.983	30774.12
605.341	30911.29
605.698	31289.36
606.056	31658.84
606.413	31937.25
606.771	32227.87
607.128	32536.33
607.485	32629.66
607.843	32943.1
608.2	33319.59
608.557	33656.08
608.914	33838.9
609.272	34153.24
609.629	34517.75
609.986	34760
610.343	34819.21
610.7	35262.36
611.057	35256.94
611.414	35663.94
611.771	35835.23
612.127	36214.43
612.484	36378.49
612.841	36594.76
613.198	36696.68
613.554	36869.78
613.911	37284.01
614.267	37388.18
614.624	37589.08
614.98	37741.85
615.337	38097.77
615.693	38256.64
616.05	38370.76
616.406	38645.1
616.762	38639.68
617.118	38833.34
617.475	38984.3
617.831	39378.19
618.187	39444.85
618.543	39671.29
618.899	40036.02
619.255	40001.45
619.611	40164.83
619.967	40376.81
620.323	40453.41
620.678	40561.21
621.034	40679.4
621.39	40619.29
621.746	40809.56
622.101	41294.07
622.457	41067.86
622.812	41358.25
623.168	41531.8
623.523	41523.67
623.879	41694.29
624.234	41607.28
624.589	41833.04
624.945	41975.86
625.3	42047.27
625.655	42188.06
626.01	42282.07
626.365	42329.52
626.72	42336.08
627.075	42428.73
627.43	42548.73
627.785	42414.04
628.14	42612.45
628.495	42719.57
628.85	42660.59
629.205	42829.85
629.559	43129.73
629.914	42955.04
630.269	42982.39
630.623	42958.21
630.978	42895.38
631.332	43110.29
631.687	43265.32
632.041	43001.14
632.396	43312.32
632.75	43054.48
633.104	43275.71
633.459	43040.24
633.813	43130.18
634.167	43192.55
634.521	43181.7
634.875	43277.52
635.229	43180.57
635.583	43044.31
635.937	43146.45
636.291	43150.29
636.645	43176.28
636.999	43282.72
637.352	43480.45
637.706	43081.37
638.06	43308.71
638.413	43258.09
638.767	43284.07
639.121	43352.77
639.474	42987.36
639.828	43239.33
640.181	43200.46
640.534	43237.3
640.888	43065.1
641.241	42941.48
641.594	43072.33
641.947	43325.65
642.301	43002.95
642.654	43165.21
643.007	43142.38
643.36	43115.94
643.713	43106.9
644.066	43123.17
644.419	42928.83
644.771	42837.31
645.124	42301.27
645.477	42405
645.83	42124.1
646.182	41875.3
646.535	41791.46
646.888	41973.6
647.24	41761.85
647.593	41895.18
647.945	41766.83
648.298	41635.3
648.65	41743.1
649.002	41560.73
649.355	41757.79
649.707	41774.73
650.059	41833.72
650.411	42410.65
650.763	42396.64
651.115	42827.59
651.467	42593.47
651.819	42806.12
652.171	42680.7
652.523	42560.25
652.875	42612.23
653.227	42536.07
653.578	42568.61
653.93	42704.43
654.282	42408.84
654.633	42398.22
654.985	42527.94
655.337	42489.74
655.688	42528.16
656.039	42597.54
656.391	42340.14
656.742	42322.29
657.094	42329.07
657.445	42545.56
657.796	42416.3
658.147	42230.77
658.498	42216.08
658.849	42494.04
659.2	42306.7
659.551	42274.83
659.902	42385.57
660.253	42275.06
660.604	42374.27
660.955	42178.57
661.306	42257.89
661.656	42246.81
662.007	42092.47
662.358	42276.64
662.708	42153.48
663.059	42169.07
663.409	41861.51
663.76	42180.37
664.11	42286.13
664.461	42129.08
664.811	42309.64
665.161	42182.86
665.511	42033.94
665.862	42151.67
666.212	42298.79
666.562	42217.44
666.912	42114.84
667.262	42093.14
667.612	42211.11
667.962	42280.26
668.312	42065.12
668.662	42169.53
669.011	42122.07
669.361	42137.44
669.711	42026.93
670.06	41948.74
670.41	41884.11
670.76	42029.64
671.109	42154.84
671.459	42069.87
671.808	41915.97
672.157	42093.14
672.507	41743.32
672.856	41956.43
673.205	42019.7
673.554	42014.28
673.904	41803.66
674.253	42096.31
674.602	41875.52
674.951	41256.56
675.3	41210
675.649	41689.99
675.998	41631.69
676.346	41691.8
676.695	41939.93
677.044	41521.41
677.393	41554.18
677.741	41598.02
678.09	41491.8
678.438	41417.91
678.787	41477.57
679.135	41565.7
679.484	41185.82
679.832	41492.26
680.181	41217.01
680.529	41423.11
680.877	41315.09
681.225	41159.16
681.573	41461.3
681.922	41076.45
682.27	41103.34
682.618	40985.15
682.966	40971.37
683.314	41010.91
683.661	40796
684.009	40876.91
684.357	40748.1
684.705	40640.53
685.053	40619.06
685.4	40516.91
685.748	40517.82
686.095	40390.82
686.443	40238.96
686.79	40319.41
687.138	40317.6
687.485	40375
687.832	40229.46
688.18	40118.06
688.527	40009.13
688.874	39951.73
689.221	39875.58
689.568	39635.36
689.915	39754
690.262	39744.96
690.609	39583.61
690.956	39461.58
691.303	39410.05
691.65	39163.96
691.997	39316.49
692.344	38952.44
692.69	39110.4
693.037	38880.35
693.383	38642.61
693.73	38783.4
694.077	38658.66
694.423	38556.51
694.769	38409.17
695.116	38307.93
695.462	38432.22
695.808	38270.19
696.155	38400.81
696.501	38022.52
696.847	38104.77
697.193	37843.31
697.539	37888.28
697.885	37778.23
698.231	37585.47
698.577	37593.83
698.923	37530.55
699.269	37311.12
699.614	37112.03
699.96	37078.36
700.306	37204.46
700.651	36870.23
700.997	36804.47
701.342	36728.09
701.688	36719.5
702.033	36648.09
702.379	36533.52
702.724	36550.24
703.069	36614.42
703.415	36114.32
703.76	36175.33
704.105	36227.31
704.45	36049.01
704.795	35887.43
705.14	35771.05
705.485	35804.27
705.83	35676.36
706.175	35703.93
706.52	35633.2
706.865	35404.51
707.209	35472.3
707.554	35170.61
707.899	35290.16
708.243	35203.83
708.588	35111.18
708.932	34781.25
709.277	34910.28
709.621	34868.02
709.966	34656.73
710.31	34765.65
710.654	34494.02
710.998	34488.15
711.342	34524.3
711.687	34343.07
712.031	34262.62
712.375	34250.19
712.719	34185.33
713.063	34251.77
713.407	34181.94
713.75	34183.52
714.094	34025.33
714.438	33856.75
714.782	33841.84
715.125	33715.74
715.469	33701.5
715.812	33497.21
716.156	33407.95
716.499	33370.21
716.843	33493.37
717.186	33303.77
717.53	33452.24
717.873	33367.05
718.216	33282.3
718.559	33185.36
718.902	33039.37
719.246	33059.26
719.589	32954.4
719.932	32850.68
720.275	32882.09
720.617	32771.36
720.96	32678.7
721.303	32652.49
721.646	32625.37
721.989	32488.65
722.331	32654.75
722.674	32566.62
723.016	32464.25
723.359	32287.07
723.701	32398.48
724.044	32218.6
724.386	32055.22
724.729	32104.93
725.071	32220.18
725.413	32028.55
725.755	32125.27
726.097	31963.02
726.439	31814.54
726.782	31801.21
727.124	31896.8
727.465	31673.76
727.807	31656.81
728.149	31515.34
728.491	31577.94
728.833	31625.62
729.175	31527.09
729.516	31428.79
729.858	31450.71
730.199	31470.6
730.541	31330.04
730.882	31229.48
731.224	31344.05
731.565	31072.19
731.906	31119.87
732.248	31220.89
732.589	30865.64
732.93	30956.26
733.271	30995.13
733.612	31037.16
733.953	31008.46
734.294	30817.96
734.635	30850.28
734.976	30706.1
735.317	30683.5
735.658	30648.93
735.999	30577.52
736.339	30469.5
736.68	30507.01
737.021	30477.18
737.361	30384.07
737.702	30601.02
738.042	30387.92
738.383	30289.84
738.723	30383.62
739.063	30200.35
739.404	30335.49
739.744	30138.43
740.084	30000.81
740.424	30114.25
740.764	29992.9
741.104	30144.31
741.444	29906.57
741.784	29843.07
742.124	29896.63
742.464	29803.75
742.804	29814.82
743.143	29675.17
743.483	29714.49
743.823	29652.57
744.162	29686.69
744.502	29683.98
744.841	29499.13
745.181	29547.94
745.52	29408.05
745.86	29455.06
746.199	29488.73
746.538	29509.52
746.877	29444.89
747.216	29336.19
747.556	29324.89
747.895	29220.94
748.234	29123.99
748.573	29217.78
748.911	29088.51
749.25	29041.06
749.589	28902.53
749.928	28946.15
750.267	28933.04
750.605	28818.01
750.944	28806.49
751.283	28833.83
751.621	28726.04
751.96	28534.86
752.298	28661.41
752.636	28518.36
752.975	28509.1
753.313	28291.25
753.651	28520.62
753.989	28290.34
754.327	28285.37
754.666	28134.87
755.004	28208.99
755.342	28184.58
755.679	28134.87
756.017	27973.29
756.355	27977.36
756.693	27920.64
757.031	27897.13
757.368	27784.37
757.706	27823.24
758.044	27632.51
758.381	27748.21
758.719	27642.68
759.056	27648.1
759.394	27463.92
759.731	27342.12
760.068	27391.38
760.405	27320.65
760.743	27209.92
761.08	27237.04
761.417	26966.31
761.754	27070.71
762.091	26905.52
762.428	26823.49
762.765	26634.57
763.102	26766.54
763.438	26649.71
763.775	26365.42
764.112	26437.51
764.449	26382.6
764.785	26263.96
765.122	26119.1
765.458	26070.74
765.795	26100.8
766.131	26042.72
766.467	25885.89
766.804	25846.34
767.14	25689.96
767.476	25738.77
767.812	25575.16
768.148	25527.93
768.485	25465.56
768.821	25357.31
769.157	25247.94
769.492	25182.18
769.828	25286.35
770.164	24972.24
770.5	24967.95
770.836	24875.29
771.171	24808.4
771.507	24726.37
771.842	24501.74
772.178	24483.89
772.513	24468.07
772.849	24256.78
773.184	24171.81
773.519	24231.02
773.855	24082.77
774.19	23903.34
774.525	24021.53
774.86	23970.91
775.195	23895.21
775.53	23838.48
775.865	23637.36
776.2	23466.29
776.535	23330.47
776.87	23450.92
777.205	23179.29
777.539	23097.03
777.874	23230.36
778.209	22930.03
778.543	22868.57
778.878	22857.72
779.212	22771.39
779.547	22669.47
779.881	22660.66
780.215	22479.2
780.55	22535.92
780.884	22450.05
781.218	22332.76
781.552	22291.18
781.886	22223.61
782.22	22099.77
782.554	22005.99
782.888	21892.55
783.222	21779.1
783.556	21632.21
783.889	21666.56
784.223	21503.63
784.557	21436.51
784.89	21490.07
785.224	21300.02
785.557	21264.09
785.891	21113.58
786.224	21082.85
786.558	21136.86
786.891	20931.44
787.224	20873.82
787.557	20813.93
787.891	20758.79
788.224	20704.78
788.557	20676.31
788.89	20583.88
789.223	20490.55
789.556	20396.31
789.888	20324.23
790.221	20287.84
790.554	20126.04
790.887	20147.51
791.219	20033.61
791.552	19971.47
791.884	19909.77
792.217	19759.95
792.549	19734.18
792.882	19646.5
793.214	19573.06
793.546	19691.7
793.879	19486.06
794.211	19323.12
794.543	19404.25
794.875	19357.7
795.207	19369.67
795.539	19244.48
795.871	19290.35
796.203	19022.56
796.535	18893.75
796.867	18856.47
797.198	18841.55
797.53	18858.28
797.862	18710.26
798.193	18759.07
798.525	18545.97
798.856	18624.38
799.188	18451.73
799.519	18407.21
799.85	18265.07
800.182	18283.83
800.513	18278.86
800.844	18149.82
801.175	18289.48
801.506	18249.25
801.837	18111.4
802.168	18013.78
802.499	17883.61
802.83	17784.86
803.161	17776.04
803.491	17781.92
803.822	17718.19
804.153	17620.57
804.483	17450.85
804.814	17517.29
805.145	17440.91
805.475	17538.54
805.805	17390.97
806.136	17460.12
806.466	17313.23
806.796	17338.54
807.126	17265.32
807.457	17130.86
807.787	17050.19
808.117	17026.69
808.447	17048.61
808.777	16966.8
809.107	16892.45
809.436	16815.17
809.766	16859.91
810.096	16742.62
810.426	16778.1
810.755	16725.22
811.085	16673.93
811.414	16635.28
811.744	16483.2
812.073	16535.62
812.403	16452.01
812.732	16436.42
813.061	16380.6
813.39	16280.72
813.719	16264.9
814.049	16370.43
814.378	16238.91
814.707	16117.56
815.036	16174.73
815.365	16098.35
815.693	15960.05
816.022	15971.12
816.351	15863.33
816.68	15803.44
817.008	15909.2
817.337	15677.34
817.665	15673.5
817.994	15795.98
818.322	15718.7
818.651	15562.77
818.979	15619.94
819.307	15616.55
819.636	15605.03
819.964	15486.61
820.292	15523.9
820.62	15561.86
820.948	15445.03
821.276	15565.25
821.604	15398.93
821.932	15499.04
822.259	15469.21
822.587	15492.26
822.915	15422.43
823.243	15446.39
823.57	15437.12
823.898	15414.3
824.225	15327.29
824.553	15352.38
824.88	15384.02
825.207	15390.8
825.535	15324.81
825.862	15436.67
826.189	15323.45
826.516	15425.82
826.843	15399.84
827.17	15397.8
827.497	15413.62
827.824	15385.82
828.151	15374.3
828.478	15283.68
828.805	15317.13
829.131	15294.98
829.458	15233.51
829.785	15235.32
830.111	15245.26
830.438	15301.76
830.764	15375.2
831.09	15331.81
831.417	15172.04
831.743	15259.73
832.069	15335.43
832.395	15190.58
832.722	15213.85
833.048	15221.76
833.374	15243.68
833.7	15116.9
834.026	15191.48
834.351	15113.29
834.677	15244.59
835.003	15028.55
835.329	15171.82
835.654	15139.05
835.98	15033.07
836.306	15018.83
836.631	14963.91
836.956	15037.13
837.282	15027.19
837.607	14888.89
837.932	14915.78
838.258	14897.7
838.583	14859.06
838.908	14768.89
839.233	14774.99
839.558	14812.51
839.883	14747.65
840.208	14683.92
840.533	14723.24
840.858	14790.59
841.182	14671.04
841.507	14631.49
841.832	14631.95
842.156	14554.21
842.481	14627.43
842.805	14519.86
843.13	14432.85
843.454	14479.63
843.778	14494.55
844.103	14462.23
844.427	14359.86
844.751	14304.95
845.075	14381.56
845.399	14204.39
845.723	14132.75
846.047	14197.83
846.371	14025.86
846.695	14032.41
847.019	13919.87
847.343	13951.29
847.666	13813.89
847.99	13734.57
848.313	13752.87
848.637	13647.79
848.96	13628.81
849.284	13606.44
849.607	13501.35
849.931	13527.57
850.254	13350.62
850.577	13366.67
850.9	13232.89
851.223	13256.84
851.546	13156.96
851.869	13102.49
852.192	13129.16
852.515	13025.43
852.838	12961.26
853.161	12969.62
853.483	12982.5
853.806	12827.93
854.129	12798.1
854.451	12736.63
854.774	12702.96
855.096	12647.14
855.419	12676.97
855.741	12551.1
856.063	12567.59
856.385	12556.75
856.708	12457.31
857.03	12454.6
857.352	12413.02
857.674	12329.86
857.996	12268.84
858.318	12263.65
858.64	12199.69
858.961	12250.09
859.283	12150.66
859.605	12126.02
859.926	12100.49
860.248	12086.7
860.57	12045.12
860.891	12086.25
861.212	12011
861.534	11933.94
861.855	11922.86
862.176	11967.38
862.498	11895.97
862.819	11942.07
863.14	11872.02
863.461	11779.82
863.782	11777.78
864.103	11765.35
864.424	11731.01
864.745	11743.21
865.065	11729.2
865.386	11627.73
865.707	11707.95
866.027	11634.96
866.348	11613.49
866.668	11604
866.989	11567.39
867.309	11464.12
867.63	11534.4
867.95	11481.75
868.27	11436.55
868.59	11456.21
868.91	11437.45
869.23	11444.23
869.55	11347.74
869.87	11432.48
870.19	11321.07
870.51	11345.03
870.83	11318.13
871.15	11283.56
871.469	11243.33
871.789	11325.37
872.109	11300.28
872.428	11207.4
872.748	11220.74
873.067	11231.81
873.386	11305.03
873.706	11241.07
874.025	11156.78
874.344	11171.25
874.663	11133.51
874.982	11037.01
875.301	11150.23
875.62	11085.6
875.939	10941.87
876.258	11015.09
876.577	10951.82
876.896	11011.93
877.214	10910.91
877.533	10962.66
877.852	10939.61
878.17	10940.52
878.489	10878.6
878.807	10909.33
879.125	10853.29
879.444	10868.88
879.762	10827.75
880.08	10797.02
880.398	10768.77
880.716	10810.8
881.034	10697.36
881.352	10753.4
881.67	10690.13
881.988	10689.68
882.306	10778.94
882.624	10665.72
882.941	10599.51
883.259	10564.48
883.577	10495.78
883.894	10536.46
884.212	10534.43
884.529	10507.99
884.846	10461.89
885.164	10461.66
885.481	10368.33
885.798	10364.26
886.115	10353.87
886.432	10383.92
886.75	10306.64
887.067	10289.91
887.383	10255.56
887.7	10272.74
888.017	10176.92
888.334	10178.5
888.651	10131.5
888.967	10064.61
889.284	10083.36
889.6	10032.97
889.917	9990.26
890.233	10013.76
890.55	9896.03
890.866	9969.47
891.182	9925.63
891.498	9932.63
891.815	9891.51
892.131	9832.75
892.447	9821.45
892.763	9672.3
893.079	9737.16
893.395	9713.21
893.71	9768.34
894.026	9703.71
894.342	9620.33
894.657	9612.19
894.973	9571.06
895.289	9535.58
895.604	9573.1
895.92	9467.34
896.235	9422.14
896.55	9430.05
896.865	9414
897.181	9333.78
897.496	9378.07
897.811	9249.26
898.126	9261.47
898.441	9223.05
898.756	9263.95
899.071	9145.54
899.386	9114.12
899.7	9084.3
900.015	9092.66
900.33	9004.07
900.644	9015.37
900.959	9064.86
901.273	8950.29
901.588	8968.37
901.902	8884.3
902.216	8872.1
902.531	8859.44
902.845	8768.6
903.159	8737.64
903.473	8653.8
903.787	8676.62
904.101	8669.16
904.415	8631.43
904.729	8577.42
905.042	8544.65
905.356	8507.14
905.67	8466.23
905.984	8469.85
906.297	8456.51
906.611	8446.8
906.924	8365.67
907.237	8369.96
907.551	8325.22
907.864	8245.22
908.177	8286.58
908.491	8292
908.804	8208.61
909.117	8148.73
909.43	8109.86
909.743	8073.7
910.056	8088.39
910.368	7995.51
910.681	7982.18
910.994	7931.11
911.307	7940.6
911.619	7822.63
911.932	7897.66
912.244	7835.51
912.557	7872.58
912.869	7680.72
913.181	7714.84
913.494	7670.55
913.806	7613.83
914.118	7680.72
914.43	7554.84
914.742	7568.63
915.054	7516.65
915.366	7514.84
915.678	7437.33
915.99	7406.15
916.302	7358.24
916.613	7383.32
916.925	7329.09
917.236	7268.75
917.548	7249.54
917.859	7337
918.171	7206.6
918.482	7197.34
918.794	7173.38
919.105	7154.18
919.416	7097.68
919.727	7110.56
920.038	6991.69
920.349	7012.03
920.66	7031.92
920.971	6927.74
921.282	6962.32
921.593	6854.75
921.903	6917.12
922.214	6852.72
922.525	6766.84
922.835	6781.76
923.146	6743.34
923.456	6758.71
923.767	6745.6
924.077	6714.19
924.387	6623.79
924.697	6556.68
925.008	6548.09
925.318	6564.81
925.628	6553.74
925.938	6521.2
926.248	6439.17
926.558	6456.57
926.867	6378.6
927.177	6389.9
927.487	6352.16
927.796	6311.71
928.106	6313.29
928.416	6313.75
928.725	6288.21
929.034	6248.44
929.344	6242.11
929.653	6172.51
929.962	6114.43
930.271	6113.53
930.581	6137.93
930.89	6096.13
931.199	6051.83
931.508	6016.81
931.817	5988.11
932.125	5953.3
932.434	5934.77
932.743	5916.69
933.051	5899.29
933.36	5850.93
933.669	5800.09
933.977	5802.12
934.286	5815.68
934.594	5761.9
934.902	5744.5
935.21	5657.04
935.519	5755.57
935.827	5687.55
936.135	5591.28
936.443	5608.68
936.751	5542.02
937.059	5485.52
937.367	5508.57
937.674	5510.83
937.982	5459.76
938.29	5467.22
938.597	5474.9
938.905	5384.05
939.213	5397.84
939.52	5350.16
939.827	5381.57
940.135	5285.3
940.442	5332.98
940.749	5309.93
941.056	5267.9
941.363	5201.23
941.67	5192.65
941.977	5171.63
942.284	5197.39
942.591	5164.85
942.898	5117.62
943.205	5131.86
943.511	5094.8
943.818	5065.42
944.125	5026.77
944.431	4998.53
944.738	5011.63
945.044	4981.13
945.35	4996.49
945.657	4896.61
945.963	4868.59
946.269	4915.82
946.575	4918.75
946.881	4812.32
947.187	4803.73
947.493	4837.4
947.799	4811.64
948.105	4811.64
948.41	4732.09
948.716	4762.6
949.022	4761.02
949.327	4703.17
949.633	4666.56
949.938	4655.48
950.244	4615.71
950.549	4643.06
950.854	4589.27
951.16	4567.35
951.465	4506.79
951.77	4500.46
952.075	4464.53
952.38	4473.12
952.685	4471.08
952.99	4442.84
953.294	4469.28
953.599	4361.93
953.904	4363.52
954.209	4301.6
954.513	4353.8
954.818	4301.37
955.122	4313.35
955.426	4256.63
955.731	4248.26
956.035	4248.72
956.339	4234.03
956.643	4229.06
956.948	4215.04
957.252	4187.25
957.556	4186.12
957.86	4142.96
958.163	4114.71
958.467	4073.13
958.771	4083.97
959.075	4074.94
959.378	4054.82
959.682	4034.94
959.985	4008.95
960.289	4020.7
960.592	3976.86
960.896	3972.57
961.199	3945.9
961.502	3950.19
961.805	3900.7
962.108	3888.95
962.411	3905.9
962.714	3875.39
963.017	3833.36
963.32	3854.38
963.623	3810.99
963.926	3843.08
964.228	3784.1
964.531	3762.63
964.833	3737.77
965.136	3697.77
965.438	3762.18
965.741	3697.32
966.043	3688.5
966.345	3695.28
966.648	3672.46
966.95	3668.17
967.252	3604.44
967.554	3622.07
967.856	3588.17
968.158	3576.19
968.46	3566.25
968.761	3554.5
969.063	3540.49
969.365	3538.23
969.666	3515.18
969.968	3462.3
970.269	3469.75
970.571	3489.19
970.872	3432.24
971.174	3429.3
971.475	3378.23
971.776	3413.94
972.077	3384.56
972.378	3335.97
972.679	3346.37
972.98	3320.38
973.281	3320.38
973.582	3298.23
973.883	3303.66
974.183	3246.48
974.484	3267.05
974.785	3238.8
975.085	3235.18
975.386	3225.24
975.686	3243.09
975.986	3172.13
976.287	3186.15
976.587	3147.73
976.887	3158.8
977.187	3155.19
977.487	3120.38
977.787	3091.46
978.087	3102.76
978.387	3075.64
978.687	3070.89
978.987	3038.13
979.286	3048.97
979.586	3001.29
979.885	2986.15
980.185	2970.78
980.484	2965.59
980.784	2970.33
981.083	2926.72
981.382	2937.79
981.682	2923.55
981.981	2920.16
982.28	2904.34
982.579	2891.24
982.878	2888.07
983.177	2879.26
983.475	2862.31
983.774	2837.91
984.073	2825.25
984.372	2793.84
984.67	2821.86
984.969	2805.14
985.267	2752.94
985.566	2752.26
985.864	2743.67
986.162	2752.71
986.461	2722.43
986.759	2718.36
987.057	2701.64
987.355	2675.42
987.653	2661.64
987.951	2662.99
988.249	2666.61
988.547	2664.35
988.844	2605.82
989.142	2627.29
989.44	2600.85
989.737	2580.29
990.035	2593.17
990.332	2573.73
990.63	2544.13
990.927	2549.1
991.224	2553.62
991.521	2525.6
991.819	2504.81
992.116	2487.41
992.413	2531.25
992.71	2481.3
993.006	2473.85
993.303	2444.02
993.6	2426.84
993.897	2419.16
994.193	2412.61
994.49	2432.94
994.787	2414.87
995.083	2380.74
995.379	2371.03
995.676	2361.31
995.972	2342.55
996.268	2318.15
996.565	2336.68
996.861	2327.86
997.157	2280.41
997.453	2329.9
997.749	2289.67
998.044	2248.32
998.34	2262.78
998.636	2269.33
998.932	2258.49
999.227	2227.53
999.523	2195.89
999.818	2217.13
1000.114	2166.74
1000.409	2163.8
1000.704	2202.89
1001	2163.12
1001.295	2127.42
1001.59	2100.75
1001.885	2116.34
1002.18	2106.63
1002.475	2082.22
1002.77	2100.98
1003.065	2019.85
1003.359	2061.43
1003.654	2040.64
1003.949	2054.42
1004.243	2023.46
1004.538	2026.85
1004.832	1999.06
1005.127	2015.55
1005.421	1989.57
1005.715	1971.26
1006.009	1948.89
1006.304	1944.37
1006.598	1956.12
1006.892	1942.79
1007.186	1910.47
1007.48	1883.58
1007.773	1931.71
1008.067	1869.12
1008.361	1885.61
1008.655	1861.89
1008.948	1846.07
1009.242	1870.93
1009.535	1851.49
1009.829	1828.44
1010.122	1812.4
1010.415	1786.18
1010.708	1807.65
1011.001	1808.78
1011.295	1796.13
1011.588	1765.84
1011.881	1732.4
1012.173	1748.22
1012.466	1742.79
1012.759	1711.83
1013.052	1745.05
1013.344	1714.77
1013.637	1682.46
1013.93	1684.04
1014.222	1652.4
1014.514	1668.22
1014.807	1659.63
1015.099	1646.98
1015.391	1658.95
1015.683	1660.08
1015.976	1586.64
1016.268	1602.01
1016.56	1584.15
1016.851	1578.73
1017.143	1574.44
1017.435	1560.88
1017.727	1584.38
1018.018	1564.72
1018.31	1536.92
1018.602	1503.03
1018.893	1526.53
1019.185	1503.7
1019.476	1489.01
1019.767	1488.11
1020.058	1491.73
1020.35	1478.62
1020.641	1476.36
1020.932	1461.67
1021.223	1444.72
1021.514	1446.53
1021.804	1401.11
1022.095	1406.3
1022.386	1393.88
1022.677	1390.49
1022.967	1400.43
1023.258	1351.39
1023.548	1359.75
1023.839	1355.46
1024.129	1360.88
1024.419	1370.37
1024.709	1346.65
1025	1335.8
1025.29	1307.1
1025.58	1276.82
1025.87	1297.38
1026.16	1280.66
1026.449	1302.58
1026.739	1282.01
1027.029	1263.94
1027.319	1246.08
1027.608	1232.75
1027.898	1238.17
1028.187	1239.98
1028.477	1233.65
1028.766	1199.08
1029.055	1193.2
1029.344	1222.35
1029.634	1206.99
1029.923	1192.53
1030.212	1170.6
1030.501	1177.61
1030.79	1163.37
1031.078	1165.63
1031.367	1146.65
1031.656	1142.36
1031.945	1144.39
1032.233	1120.21
1032.522	1111.85
1032.81	1107.1
1033.099	1089.48
1033.387	1082.25
1033.675	1093.54
1033.963	1089.93
1034.251	1078.18
1034.54	1069.36
1034.828	1049.7
1035.116	1078.86
1035.403	1032.3
1035.691	1042.02
1035.979	1025.07
1036.267	1001.57
1036.554	1051.29
1036.842	1011.74
1037.129	979.42
1037.417	997.28
1037.704	991.63
1037.992	998.41
1038.279	980.1
1038.566	983.49
1038.853	983.49
1039.14	983.49
