Data from hue_310_FLMS001491_70.txt Node
Date: Mon Feb 06 15:50:02 GMT 2017
User: dcchb
Spectrometer: FLMS00149
Trigger mode: 0
Integration Time (sec): 2.000000E-2
Scans to average: 10
Electric dark correction enabled: true
Nonlinearity correction enabled: false
Boxcar width: 0
XAxis mode: Wavelengths
Number of Pixels in Spectrum: 2048
>>>>>Begin Spectral Data<<<<<
341.393	-15.61
341.776	-15.61
342.16	-15.61
342.543	-67.13
342.927	-72.78
343.31	-61.48
343.693	-78.2
344.077	-53.12
344.46	-82.95
344.843	-44.53
345.226	-43.4
345.61	-23.74
345.993	-18.09
346.376	14
346.759	4.05
347.142	28.91
347.525	42.24
347.908	41.79
348.291	67.33
348.674	106.42
349.057	100.77
349.44	116.37
349.823	146.87
350.206	154.56
350.588	198.62
350.971	218.29
351.354	236.59
351.737	225.52
352.119	243.37
352.502	250.6
352.884	280.43
353.267	275.01
353.65	302.58
354.032	288.34
354.414	294.89
354.797	319.98
355.179	336.93
355.562	334.44
355.944	317.04
356.326	325.63
356.709	330.82
357.091	338.96
357.473	350.03
357.855	322.92
358.238	343.25
358.62	348.45
359.002	353.87
359.384	327.66
359.766	345.51
360.148	327.89
360.53	359.07
360.912	319.53
361.294	341.45
361.676	347.55
362.057	321.33
362.439	314.78
362.821	331.28
363.203	329.69
363.584	338.73
363.966	329.69
364.348	335.12
364.729	310.94
365.111	321.33
365.493	317.04
365.874	326.76
366.256	315.23
366.637	324.72
367.019	316.14
367.4	333.31
367.781	306.64
368.163	312.97
368.544	315.68
368.925	299.41
369.306	326.98
369.688	303.71
370.069	314.33
370.45	291.5
370.831	310.94
371.212	299.19
371.593	315.68
371.974	309.58
372.355	313.88
372.736	313.2
373.117	331.5
373.498	317.49
373.879	308.68
374.26	299.64
374.641	310.71
375.021	315.91
375.402	317.49
375.783	319.53
376.163	323.14
376.544	323.14
376.925	326.3
377.305	344.38
377.686	319.07
378.066	325.63
378.447	339.86
378.827	327.43
379.208	335.8
379.588	318.85
379.968	344.61
380.349	352.07
380.729	326.98
381.109	337.38
381.489	327.43
381.87	322.24
382.25	336.7
382.63	317.49
383.01	352.52
383.39	332.18
383.77	330.15
384.15	343.25
384.53	338.06
384.91	345.51
385.29	325.4
385.67	353.42
386.049	372.86
386.429	341.45
386.809	361.11
387.189	350.49
387.568	330.15
387.948	338.73
388.328	357.04
388.707	339.41
389.087	369.24
389.466	390.94
389.846	357.26
390.225	367.21
390.605	357.26
390.984	388.22
391.363	353.87
391.743	367.89
392.122	364.72
392.501	351.39
392.881	363.37
393.26	356.13
393.639	372.18
394.018	389.58
394.397	403.82
394.776	365.85
395.155	366.08
395.534	377.15
395.913	386.42
396.292	384.38
396.671	383.93
397.05	381.67
397.429	380.31
397.808	386.42
398.186	392.52
398.565	394.33
398.944	392.52
399.323	383.48
399.701	375.8
400.08	409.24
400.458	395.46
400.837	394.78
401.215	409.01
401.594	394.55
401.972	391.39
402.351	409.92
402.729	415.57
403.107	430.71
403.486	428.9
403.864	428.9
404.242	438.62
404.62	438.62
404.999	442.91
405.377	426.42
405.755	437.04
406.133	444.95
406.511	446.08
406.889	421.67
407.267	454.89
407.645	456.02
408.023	462.35
408.401	477.26
408.779	458.5
409.156	491.27
409.534	513.64
409.912	467.32
410.29	491.05
410.667	489.46
411.045	496.47
411.422	509.8
411.8	518.39
412.178	531.72
412.555	521.78
412.933	550.25
413.31	538.28
413.687	526.98
414.065	542.57
414.442	562
414.819	570.14
415.197	575.34
415.574	568.56
415.951	585.28
416.328	604.72
416.705	584.15
417.082	605.39
417.46	623.7
417.837	599.52
418.214	631.16
418.591	642
418.967	622.12
419.344	644.26
419.721	651.95
420.098	652.62
420.475	640.42
420.852	687.2
421.228	654.66
421.605	679.06
421.982	698.5
422.358	708.22
422.735	691.27
423.111	720.19
423.488	695.33
423.864	718.39
424.241	740.98
424.617	763.36
424.994	762.23
425.37	759.97
425.746	743.02
426.123	767.88
426.499	797.71
426.875	786.18
427.251	785.05
427.627	815.33
428.003	817.14
428.379	849
428.756	816.01
429.132	858.72
429.507	825.95
429.883	859.4
430.259	853.3
430.635	878.83
431.011	881.32
431.387	882.67
431.763	912.73
432.138	926.06
432.514	921.54
432.89	942.56
433.265	951.37
433.641	952.28
434.016	972.62
434.392	966.06
434.767	987.3
435.143	1000.86
435.518	1003.35
435.894	1029.56
436.269	1032.05
436.644	1048.77
437.02	1052.39
437.395	1057.13
437.77	1054.42
438.145	1060.75
438.52	1086.96
438.895	1094.19
439.271	1078.15
439.646	1129.9
440.021	1117.24
440.395	1174.19
440.77	1122.67
441.145	1153.85
441.52	1159.73
441.895	1181.42
442.27	1168.54
442.645	1186.17
443.019	1171.25
443.394	1187.07
443.769	1193.85
444.143	1165.38
444.518	1213.51
444.892	1191.14
445.267	1199.28
445.641	1194.76
446.016	1193.85
446.39	1201.08
446.764	1224.36
447.139	1234.3
447.513	1203.8
447.887	1221.2
448.262	1245.6
448.636	1238.15
449.01	1267.3
449.384	1256.9
449.758	1237.02
450.132	1288.09
450.506	1277.01
450.88	1273.85
451.254	1270.23
451.628	1293.51
452.002	1307.07
452.376	1298.93
452.75	1315.88
453.123	1283.12
453.497	1310.69
453.871	1338.93
454.244	1333.28
454.618	1382.55
454.992	1367.86
455.365	1375.09
455.739	1392.49
456.112	1397.01
456.486	1406.5
456.859	1431.81
457.232	1416.45
457.606	1414.64
457.979	1449.21
458.352	1444.92
458.725	1469.1
459.099	1452.83
459.472	1478.14
459.845	1471.81
460.218	1493.96
460.591	1534.63
460.964	1531.92
461.337	1536.67
461.71	1548.42
462.083	1595.88
462.456	1596.78
462.829	1553.39
463.201	1582.77
463.574	1572.6
463.947	1608.98
464.32	1618.7
464.692	1650.34
465.065	1655.99
465.438	1667.29
465.81	1639.72
466.183	1640.39
466.555	1688.53
466.928	1743.89
467.3	1728.3
467.672	1762.88
468.045	1779.37
468.417	1762.2
468.789	1783.44
469.161	1773.95
469.534	1826.15
469.906	1822.08
470.278	1900.27
470.65	1825.47
471.022	1900.5
471.394	1882.42
471.766	1902.99
472.138	1921.74
472.51	1939.6
472.882	1966.94
473.253	1971.01
473.625	1995.64
473.997	2026.37
474.369	2022.31
474.74	2051.91
475.112	2078.35
475.484	2119.48
475.855	2147.5
476.227	2130.33
476.598	2175.3
476.97	2190.44
477.341	2238.57
477.713	2223.88
478.084	2218.46
478.455	2254.62
478.827	2308.4
479.198	2327.83
479.569	2381.17
479.94	2406.93
480.311	2405.8
480.682	2476.08
481.053	2490.54
481.424	2502.52
481.795	2498.9
482.166	2551.11
482.537	2575.51
482.908	2632.46
483.279	2613.25
483.65	2695.51
484.021	2696.19
484.391	2715.39
484.762	2706.58
485.133	2707.71
485.503	2731.89
485.874	2788.39
486.244	2841.95
486.615	2872
486.985	2926.91
487.356	2904.32
487.726	2924.2
488.097	2956.29
488.467	2997.65
488.837	3040.36
489.207	3055.27
489.578	3074.26
489.948	3082.16
490.318	3143.86
490.688	3136.4
491.058	3174.82
491.428	3210.07
491.798	3274.25
492.168	3273.12
492.538	3297.53
492.908	3326.68
493.278	3353.8
493.648	3352.44
494.017	3367.58
494.387	3386.11
494.757	3449.84
495.126	3432.89
495.496	3504.53
495.866	3456.84
496.235	3471.98
496.605	3500.23
496.974	3540.23
497.344	3533.45
497.713	3540.01
498.082	3549.05
498.452	3623.85
498.821	3573.9
499.19	3583.62
499.559	3621.81
499.928	3685.31
500.298	3630.85
500.667	3699.55
501.036	3726.44
501.405	3730.28
501.774	3704.07
502.143	3742.03
502.512	3767.34
502.88	3818.42
503.249	3762.37
503.618	3801.92
503.987	3822.48
504.356	3851.86
504.724	3811.64
505.093	3892.09
505.462	3857.51
505.83	3897.74
506.199	3900.67
506.567	3965.08
506.936	3897.74
507.304	3951.29
507.672	3940.45
508.041	3993.33
508.409	4019.09
508.777	4043.27
509.145	4031.52
509.514	4001.24
509.882	4065.42
510.25	4089.14
510.618	4050.5
510.986	4120.1
511.354	4125.53
511.722	4144.28
512.09	4126.43
512.458	4149.03
512.826	4172.76
513.193	4150.84
513.561	4165.53
513.929	4162.36
514.297	4227.67
514.664	4210.04
515.032	4228.58
515.4	4271.96
515.767	4266.31
516.135	4281.23
516.502	4219.54
516.869	4310.61
517.237	4314.67
517.604	4341.34
517.972	4305.86
518.339	4350.83
518.706	4276.94
519.073	4363.71
519.44	4323.26
519.808	4415.01
520.175	4370.49
520.542	4412.98
520.909	4400.32
521.276	4437.38
521.643	4461.11
522.009	4492.98
522.376	4482.58
522.743	4502.69
523.11	4545.63
523.477	4575.23
523.843	4611.16
524.21	4603.48
524.577	4659.3
524.943	4654.78
525.31	4644.84
525.676	4708.34
526.043	4712.4
526.409	4734.32
526.776	4750.82
527.142	4751.5
527.508	4781.78
527.874	4764.38
528.241	4836.02
528.607	4849.8
528.973	4905.85
529.339	4907.43
529.705	4955.11
530.071	4951.27
530.437	4929.12
530.803	5029.91
531.169	5008.44
531.535	5022.23
531.901	5045.28
532.267	5101.32
532.632	5153.75
532.998	5136.8
533.364	5172.05
533.73	5106.52
534.095	5236.68
534.461	5179.06
534.826	5250.47
535.192	5249.79
535.557	5306.51
535.923	5308.32
536.288	5336.79
536.653	5354.65
537.019	5323.24
537.384	5365.27
537.749	5405.49
538.114	5387.19
538.479	5376.12
538.845	5432.84
539.21	5437.36
539.575	5440.75
539.94	5536.56
540.305	5514.64
540.67	5503.57
541.034	5561.2
541.399	5571.14
541.764	5556.22
542.129	5596.67
542.494	5661.08
542.858	5649.78
543.223	5682.55
543.587	5703.34
543.952	5762.55
544.316	5763.22
544.681	5755.54
545.045	5882.32
545.41	5815.88
545.774	5867.18
546.138	5834.63
546.503	5874.63
546.867	5906.95
547.231	6002.09
547.595	5913.95
547.959	5990.56
548.324	6012.94
548.688	6042.31
549.052	6049.32
549.416	6075.76
549.779	6108.53
550.143	6099.94
550.507	6162.99
550.871	6128.19
551.235	6113.27
551.599	6209.77
551.962	6182.2
552.326	6252.7
552.689	6232.82
553.053	6227.17
553.417	6267.62
553.78	6357.78
554.143	6293.38
554.507	6298.58
554.87	6357.78
555.234	6375.19
555.597	6338.35
555.96	6417.9
556.323	6412.47
556.686	6365.02
557.05	6484.79
557.413	6481.17
557.776	6490.89
558.139	6554.39
558.502	6553.94
558.865	6567.27
559.228	6583.54
559.59	6620.6
559.953	6553.26
560.316	6665.8
560.679	6647.04
561.041	6738.57
561.404	6732.46
561.767	6801.39
562.129	6754.38
562.492	6791.45
562.854	6830.09
563.217	6840.48
563.579	6822.41
563.941	6894.27
564.304	6863.31
564.666	6911.44
565.028	6896.08
565.39	6959.8
565.753	6975.85
566.115	7005.9
566.477	7012.68
566.839	7025.79
567.201	7096.52
567.563	7070.76
567.925	7177.65
568.287	7146.46
568.648	7160.7
569.01	7165.45
569.372	7305.33
569.734	7202.73
570.095	7285.22
570.457	7341.94
570.819	7323.41
571.18	7344.2
571.542	7405.21
571.903	7487.7
572.265	7494.7
572.626	7500.81
572.987	7530.18
573.349	7610.86
573.71	7670.07
574.071	7694.7
574.432	7814.47
574.794	7784.87
575.155	7883.85
575.516	7905.99
575.877	8002.49
576.238	7988.7
576.599	8110.96
576.96	8142.14
577.32	8207
577.681	8295.36
578.042	8338.75
578.403	8449.03
578.763	8512.76
579.124	8641.79
579.485	8726.99
579.845	8836.59
580.206	8924.05
580.566	9006.53
580.927	9163.13
581.287	9272.06
581.648	9349.57
582.008	9510.24
582.368	9628.89
582.728	9752.05
583.089	9969.22
583.449	10060.06
583.809	10274.74
584.169	10380.73
584.529	10554.96
584.889	10808.74
585.249	10894.61
585.609	11039.24
585.969	11290.08
586.329	11484.66
586.688	11779.56
587.048	11870.18
587.408	12159.21
587.768	12380.45
588.127	12585.64
588.487	12745.64
588.846	13073.31
589.206	13314.44
589.565	13545.84
589.925	13881.2
590.284	14115.09
590.643	14357.35
591.003	14656.55
591.362	14881.4
591.721	15153.26
592.08	15373.37
592.44	15702.62
592.799	16020.58
593.158	16226.9
593.517	16559.32
593.876	16888.58
594.235	17070.5
594.593	17406.08
594.952	17718.62
595.311	17945.95
595.67	18284.93
596.029	18717.23
596.387	18949.32
596.746	19280.38
597.104	19429.76
597.463	19852.35
597.822	20133.47
598.18	20281.71
598.538	20507.7
598.897	21130.96
599.255	21148.58
599.613	21703.37
599.972	21841.22
600.33	22106.52
600.688	22417.02
601.046	22764.81
601.404	23173.39
601.762	23375.87
602.12	23708.06
602.478	23976.53
602.836	24228.28
603.194	24354.15
603.552	24775.15
603.91	24884.98
604.268	25231.86
604.625	25399.77
604.983	25811.96
605.341	25935.12
605.698	26265.28
606.056	26607.2
606.413	26670.92
606.771	27107.97
607.128	27288.31
607.485	27461.18
607.843	27761.74
608.2	28019.36
608.557	28290.77
608.914	28475.85
609.272	28626.35
609.629	28925.1
609.986	29303.17
610.343	29380
610.7	29638.53
611.057	29884.62
611.414	29935.92
611.771	30211.62
612.127	30454.33
612.484	30691.61
612.841	31036.01
613.198	30925.73
613.554	31176.57
613.911	31306.51
614.267	31562.55
614.624	31756.21
614.98	32009.99
615.337	32272.36
615.693	32360.04
616.05	32554.84
616.406	32673.25
616.762	32738.11
617.118	32960.93
617.475	33135.16
617.831	33175.38
618.187	33322.27
618.543	33616.5
618.899	33983.5
619.255	33885.2
619.611	33946.66
619.967	34176.04
620.323	34470.04
620.678	34240.89
621.034	34396.37
621.39	34533.32
621.746	34674.1
622.101	34951.84
622.457	34930.37
622.812	35140.08
623.168	35136.46
623.523	35329.23
623.879	35404.03
624.234	35229.79
624.589	35585.26
624.945	35678.37
625.3	35748.2
625.655	35918.82
626.01	35876.33
626.365	35964.69
626.72	36033.84
627.075	36065.7
627.43	36194.51
627.785	36079.49
628.14	36328.52
628.495	36413.04
628.85	36409.65
629.205	36230.45
629.559	36666.82
629.914	36540.49
630.269	36523.09
630.623	36504.79
630.978	36586.37
631.332	36643.77
631.687	36794.5
632.041	36669.08
632.396	36800.6
632.75	36633.15
633.104	36868.17
633.459	36712.24
633.813	36716.31
634.167	36686.93
634.521	36704.33
634.875	36802.18
635.229	36977.77
635.583	36762.86
635.937	36800.6
636.291	36803.31
636.645	36754.5
636.999	36845.12
637.352	37005.34
637.706	36635.63
638.06	36943.87
638.413	36843.99
638.767	36840.83
639.121	36913.37
639.474	36602.41
639.828	36690.55
640.181	36806.25
640.534	36858.68
640.888	36716.53
641.241	36819.58
641.594	36709.08
641.947	36767.38
642.301	36708.4
642.654	36757.44
643.007	36784.78
643.36	36901.39
643.713	36784.78
644.066	36866.36
644.419	36627.5
644.771	36451.23
645.124	36307.73
645.477	36163.1
645.83	35820.74
646.182	35871.59
646.535	35708.43
646.888	35858.25
647.24	35582.1
647.593	35843.34
647.945	35777.58
648.298	35688.54
648.65	35565.83
649.002	35625.49
649.355	35771.7
649.707	35734.87
650.059	35789.33
650.411	36211.46
650.763	36110.45
651.115	36584.79
651.467	36337.79
651.819	36440.84
652.171	36347.96
652.523	36385.92
652.875	36341.63
653.227	36212.14
653.578	36394.51
653.93	36422.53
654.282	36264.8
654.633	36270.22
654.985	36364.45
655.337	36349.09
655.688	36231.58
656.039	36348.63
656.391	36182.99
656.742	36229.77
657.094	36236.77
657.445	36271.57
657.796	36268.18
658.147	36211.46
658.498	36258.02
658.849	36301.4
659.2	36189.99
659.551	35924.47
659.902	36179.37
660.253	36196.32
660.604	36238.36
660.955	36147.06
661.306	36252.14
661.656	36023.9
662.007	36075.2
662.358	36047.4
662.708	36076.1
663.059	36154.74
663.409	35893.96
663.76	36158.13
664.11	36080.17
664.461	35998.14
664.811	36158.81
665.161	35963.33
665.511	35967.4
665.862	36069.55
666.212	36084.91
666.562	36146.15
666.912	36075.65
667.262	35942.54
667.612	35947.06
667.962	35962.88
668.312	35964.92
668.662	36089.21
669.011	35966.27
669.361	35908.87
669.711	35985.48
670.06	35947.97
670.41	35845.15
670.76	35788.42
671.109	35983.45
671.459	35874.97
671.808	35907.29
672.157	35784.13
672.507	35577.58
672.856	35679.27
673.205	35810.12
673.554	35823.45
673.904	35800.63
674.253	35907.06
674.602	35686.96
674.951	35251.94
675.3	35029.35
675.649	35724.92
675.998	35653.06
676.346	35672.49
676.695	35728.09
677.044	35441.31
677.393	35581.2
677.741	35645.83
678.09	35633.85
678.438	35459.84
678.787	35593.4
679.135	35600.86
679.484	35333.29
679.832	35536.23
680.181	35292.62
680.529	35413.97
680.877	35274.76
681.225	35300.3
681.573	35418.04
681.922	35313.18
682.27	35089.68
682.618	35112.28
682.966	35026.86
683.314	35129.91
683.661	34971.5
684.009	34823.03
684.357	34753.42
684.705	34792.07
685.053	34771.5
685.4	34901.22
685.748	34633.2
686.095	34444.5
686.443	34475.46
686.79	34389.59
687.138	34485.41
687.485	34526.76
687.832	34294.68
688.18	34356.37
688.527	34251.06
688.874	34140.11
689.221	34084.97
689.568	33954.35
689.915	33985.98
690.262	33936.95
690.609	33790.06
690.956	33813.33
691.303	33649.95
691.65	33577.86
691.997	33561.59
692.344	33471.2
692.69	33361.37
693.037	33386.23
693.383	33041.6
693.73	33257.64
694.077	33025.11
694.423	33081.15
694.769	32878.44
695.116	32948.95
695.462	32900.36
695.808	32716.64
696.155	32764.32
696.501	32520.71
696.847	32441.39
697.193	32303.09
697.539	32448.85
697.885	32234.39
698.231	32162.98
698.577	32085.02
698.923	32095.87
699.269	31915.3
699.614	31678.7
699.96	31744.91
700.306	31744.24
700.651	31690.45
700.997	31521.64
701.342	31564.58
701.688	31490.23
702.033	31309.22
702.379	31251.59
702.724	31143.8
703.069	31261.99
703.415	30851.15
703.76	30878.04
704.105	30928.44
704.45	30904.03
704.795	30661.1
705.14	30615.68
705.485	30483.25
705.83	30424.95
706.175	30539.3
706.52	30349.24
706.865	30257.27
707.209	30349.47
707.554	30197.38
707.899	30330.26
708.243	30116.71
708.588	30156.93
708.932	29855.25
709.277	29751.52
709.621	29913.32
709.966	29713.33
710.31	29735.93
710.654	29504.52
710.998	29652.99
711.342	29534.12
711.687	29464.07
712.031	29280.12
712.375	29246.22
712.719	29261.59
713.063	29254.81
713.407	29283.96
713.75	29140.46
714.094	29072.89
714.438	28937.98
714.782	29068.6
715.125	28799.23
715.469	28939.56
715.812	28815.5
716.156	28655.28
716.499	28565.11
716.843	28697.54
717.186	28472.91
717.53	28663.19
717.873	28607.82
718.216	28465.45
718.559	28410.31
718.902	28209.19
719.246	28255.29
719.589	28317.43
719.932	28069.3
720.275	28085.12
720.617	28068.4
720.96	27990.89
721.303	27986.59
721.646	28003.09
721.989	27762.65
722.331	28036.76
722.674	27843.1
723.016	27874.28
723.359	27827.95
723.701	27767.62
724.044	27604.91
724.386	27525.14
724.729	27722.87
725.071	27433.84
725.413	27525.36
725.755	27433.61
726.097	27254.64
726.439	27122.44
726.782	27254.41
727.124	27296.22
727.465	27146.62
727.807	27230.23
728.149	26893.29
728.491	27024.13
728.833	27074.08
729.175	26851.94
729.516	26893.29
729.858	26855.78
730.199	26791.15
730.541	26763.12
730.882	26833.63
731.224	26745.95
731.565	26521.32
731.906	26634.31
732.248	26606.74
732.589	26488.55
732.93	26376.02
733.271	26445.39
733.612	26518.84
733.953	26513.86
734.294	26423.47
734.635	26240.65
734.976	26389.57
735.317	26231.84
735.658	26118.85
735.999	26201.78
736.339	26078.17
736.68	26221.9
737.021	26119.75
737.361	26019.64
737.702	26111.62
738.042	26039.98
738.383	25860.55
738.723	26028.23
739.063	25890.83
739.404	25974.9
739.744	25780.1
740.084	25765.86
740.424	25760.44
740.764	25780.55
741.104	25746.65
741.444	25545.53
741.784	25583.27
742.124	25513.21
742.464	25493.1
742.804	25511.63
743.143	25438.64
743.483	25612.65
743.823	25376.95
744.162	25300.56
744.502	25383.05
744.841	25164.3
745.181	25294.69
745.52	25251.98
745.86	25137.86
746.199	25035.94
746.538	25093.11
746.877	25114.81
747.216	25058.76
747.556	25001.59
747.895	25044.98
748.234	24856.73
748.573	24735.83
748.911	24861.03
749.25	24775.15
749.589	24767.47
749.928	24737.41
750.267	24712.33
750.605	24637.53
750.944	24474.6
751.283	24556.63
751.621	24566.8
751.96	24430.08
752.298	24490.87
752.636	24337.43
752.975	24215.85
753.313	24183.98
753.651	24274.38
753.989	24093.59
754.327	23962.29
754.666	23953.93
755.004	24074.61
755.342	23968.85
755.679	23881.84
756.017	23776.54
756.355	23847.49
756.693	23643.88
757.031	23791
757.368	23632.13
757.706	23534.28
758.044	23464.45
758.381	23543.55
758.719	23464
759.056	23470.33
759.394	23257
759.731	23186.49
760.068	23160.28
760.405	23057.01
760.743	22983.79
761.08	23149.43
761.417	22815.43
761.754	22950.12
762.091	22854.98
762.428	22710.35
762.765	22611.59
763.102	22684.81
763.438	22450.69
763.775	22419.51
764.112	22449.34
764.449	22421.09
764.785	22342.22
765.122	22186.3
765.458	22108.11
765.795	22118.73
766.131	22146.52
766.467	21936.13
766.804	21919.41
767.14	21750.83
767.476	21685.29
767.812	21678.74
768.148	21672.41
768.485	21626.08
768.821	21437.84
769.157	21371.4
769.492	21354.23
769.828	21293.21
770.164	21128.47
770.5	21079.43
770.836	21111.52
771.171	20880.79
771.507	20952.66
771.842	20722.83
772.178	20792.66
772.513	20644.41
772.849	20613
773.184	20583.63
773.519	20544.08
773.855	20387.92
774.19	20404.87
774.525	20264.54
774.86	20235.84
775.195	20183.18
775.53	20175.5
775.865	20034.71
776.2	19892.34
776.535	19823.65
776.87	19825.23
777.205	19582.3
777.539	19592.47
777.874	19699.81
778.209	19464.33
778.543	19448.51
778.878	19386.82
779.212	19238.8
779.547	19186.83
779.881	19287.16
780.215	19171.01
780.55	19041.52
780.884	18981.18
781.218	18918.36
781.552	18946.15
781.886	18745.48
782.22	18712.04
782.554	18648.31
782.888	18518.82
783.222	18497.58
783.556	18421.42
783.889	18217.59
784.223	18208.09
784.557	18089
784.89	18276.79
785.224	18049.91
785.557	17997.7
785.891	17940.98
786.224	17842
786.558	17882.45
786.891	17710.71
787.224	17638.62
787.557	17545.74
787.891	17621.9
788.224	17499.64
788.557	17520.43
788.89	17453.99
789.223	17423.48
789.556	17239.98
789.888	17093.32
790.221	17225.52
790.554	17056.94
790.887	17013.32
791.219	16966.09
791.552	16908.24
791.884	16807
792.217	16753.44
792.549	16763.84
792.882	16574.92
793.214	16540.57
793.546	16515.26
793.879	16476.39
794.211	16384.87
794.543	16389.61
794.875	16334.47
795.207	16390.74
795.539	16287.69
795.871	16322.27
796.203	16016.06
796.535	15980.36
796.867	15969.96
797.198	15999.11
797.53	15983.75
797.862	15774.49
798.193	15895.61
798.525	15803.86
798.856	15776.75
799.188	15573.14
799.519	15550.09
799.85	15505.34
800.182	15579.92
800.513	15434.61
800.844	15240.72
801.175	15452.69
801.506	15339.02
801.837	15327.49
802.168	15261.96
802.499	15174.73
802.83	14993.26
803.161	15176.08
803.491	15044.11
803.822	15055.41
804.153	14973.83
804.483	14953.49
804.814	14782.65
805.145	14769.09
805.475	14781.52
805.805	14757.11
806.136	14662.65
806.466	14692.71
806.796	14633.5
807.126	14570.68
807.457	14486.84
807.787	14542.2
808.117	14385.37
808.447	14426.05
808.777	14441.41
809.107	14329.55
809.436	14340.4
809.766	14346.05
810.096	14218.6
810.426	14153.74
810.755	14115.77
811.085	14068.09
811.414	14127.75
811.744	13961.88
812.073	13996.68
812.403	13952.61
812.732	13844.82
813.061	13908.55
813.39	13856.12
813.719	13757.14
814.049	13768.89
814.378	13748.1
814.707	13674.43
815.036	13689.57
815.365	13623.58
815.693	13473.3
816.022	13483.47
816.351	13502.68
816.68	13391.05
817.008	13457.71
817.337	13351.73
817.665	13277.83
817.994	13306.53
818.322	13349.69
818.651	13219.3
818.979	13212.07
819.307	13224.5
819.636	13201.22
819.964	13149.02
820.292	13127.78
820.62	13122.58
820.948	13155.8
821.276	13078.06
821.604	13123.71
821.932	13229.02
822.259	13132.52
822.587	13090.04
822.915	13049.13
823.243	13098.4
823.57	13003.71
823.898	13032.86
824.225	13068.12
824.553	12976.82
824.88	13015.46
825.207	13058.85
825.535	13026.76
825.862	13004.62
826.189	12975.01
826.516	13083.48
826.843	13092.52
827.17	13122.13
827.497	13052.3
827.824	13038.74
828.151	13072.64
828.478	12950.61
828.805	13001.45
829.131	12993.99
829.458	13007.33
829.785	12960.32
830.111	12995.35
830.438	12953.54
830.764	12971.4
831.09	13040.09
831.417	12991.28
831.743	13013.65
832.069	12965.29
832.395	12934.11
832.722	13002.36
833.048	12858.4
833.374	12925.97
833.7	12855.47
834.026	12829.71
834.351	12879.87
834.677	12887.33
835.003	12878.29
835.329	12819.31
835.654	12840.33
835.98	12771.85
836.306	12784.28
836.631	12681.01
836.956	12733.66
837.282	12733.66
837.607	12606.21
837.932	12658.41
838.258	12615.7
838.583	12704.96
838.908	12591.97
839.233	12612.31
839.558	12623.16
839.883	12504.97
840.208	12474.46
840.533	12491.41
840.858	12468.36
841.182	12386.33
841.507	12433.11
841.832	12396.72
842.156	12327.12
842.481	12354.92
842.805	12327.35
843.13	12271.53
843.454	12248.03
843.778	12156.73
844.103	12183.39
844.427	12151.08
844.751	12181.13
845.075	12127.35
845.399	12097.29
845.723	11981.37
846.047	11952.67
846.371	11801.48
846.695	11935.04
847.019	11854.36
847.343	11777.76
847.666	11722.39
847.99	11705.89
848.313	11696.85
848.637	11606.46
848.96	11644.65
849.284	11536.86
849.607	11460.02
849.931	11454.37
850.254	11347.94
850.577	11271.33
850.9	11243.76
851.223	11204.21
851.546	11161.95
851.869	11086.7
852.192	11159.47
852.515	11016.19
852.838	11010.32
853.161	10961.73
853.483	10996.98
853.806	10918.79
854.129	10865.91
854.451	10816.65
854.774	10809.87
855.096	10710.89
855.419	10789.76
855.741	10691.46
856.063	10581.63
856.385	10557
856.708	10584.11
857.03	10511.35
857.352	10517.22
857.674	10557.22
857.996	10481.52
858.318	10417.79
858.64	10382.99
858.961	10353.84
859.283	10342.31
859.605	10239.04
859.926	10321.52
860.248	10334.86
860.57	10218.25
860.891	10259.38
861.212	10227.51
861.534	10129.44
861.855	10133.96
862.176	10142.09
862.498	10103
862.819	10092.83
863.14	9982.55
863.461	10022.32
863.782	9958.37
864.103	10006.28
864.424	9934.19
864.745	9956.11
865.065	9946.39
865.386	9888.09
865.707	9891.93
866.027	9896.9
866.348	9888.99
866.668	9899.16
866.989	9840.41
867.309	9754.53
867.63	9776.45
867.95	9782.1
868.27	9676.79
868.59	9778.03
868.91	9691.71
869.23	9709.11
869.55	9615.33
869.87	9665.27
870.19	9705.49
870.51	9663.69
870.83	9678.15
871.15	9527.19
871.469	9584.82
871.789	9612.39
872.109	9642.9
872.428	9497.14
872.748	9535.55
873.067	9471.15
873.386	9457.82
873.706	9490.81
874.025	9426.18
874.344	9365.84
874.663	9518.15
874.982	9387.31
875.301	9380.98
875.62	9362.23
875.939	9300.08
876.258	9416.01
876.577	9364.71
876.896	9344.15
877.214	9213.3
877.533	9321.77
877.852	9327.42
878.17	9293.53
878.489	9345.5
878.807	9302.11
879.125	9184.83
879.444	9242.68
879.762	9187.54
880.08	9201.1
880.398	9087.2
880.716	9125.62
881.034	9152.97
881.352	9154.77
881.67	9118.62
881.988	9097.15
882.306	9072.97
882.624	8971.05
882.941	8985.51
883.259	9015.12
883.577	8977.6
883.894	8983.03
884.212	8906.19
884.529	8943.48
884.846	8800.66
885.164	8867.78
885.481	8820.77
885.798	8776.7
886.115	8766.08
886.432	8724.05
886.75	8772.41
887.067	8837.72
887.383	8679.53
887.7	8720.66
888.017	8632.3
888.334	8762.92
888.651	8619.19
888.967	8635.92
889.284	8572.42
889.6	8600.66
889.917	8437.28
890.233	8544.39
890.55	8452.42
890.866	8453.32
891.182	8476.6
891.498	8389.6
891.815	8454.23
892.131	8397.05
892.447	8400.44
892.763	8308.47
893.079	8294.46
893.395	8276.83
893.71	8258.07
894.026	8225.53
894.342	8211.07
894.657	8111.64
894.973	8149.15
895.289	8122.94
895.604	8138.75
895.92	8120
896.235	7996.84
896.55	8014.24
896.865	8012.66
897.181	8005.65
897.496	7977.63
897.811	7875.26
898.126	7884.52
898.441	7811.31
898.756	7849.27
899.071	7786.9
899.386	7809.05
899.7	7744.19
900.015	7741.25
900.33	7607.24
900.644	7647.92
900.959	7660.12
901.273	7569.73
901.588	7601.59
901.902	7578.09
902.216	7508.04
902.531	7480.02
902.845	7503.74
903.159	7457.42
903.473	7354.59
903.787	7359.11
904.101	7320.25
904.415	7423.07
904.729	7339
905.042	7263.07
905.356	7244.54
905.67	7237.08
905.984	7214.26
906.297	7168.61
906.611	7120.48
906.924	7131.1
907.237	7091.55
907.551	7089.97
907.864	6946.02
908.177	7047.03
908.491	7021.95
908.804	7015.17
909.117	6897.21
909.43	6883.87
909.743	6873.7
910.056	6857.66
910.368	6814.5
910.681	6818.34
910.994	6738.57
911.307	6764.33
911.619	6685.23
911.932	6725.46
912.244	6650.66
912.557	6631.9
912.869	6588.74
913.181	6555.75
913.494	6570.21
913.806	6503.77
914.118	6559.14
914.43	6410.89
914.742	6461.06
915.054	6423.55
915.366	6454.28
915.678	6381.74
915.99	6337.22
916.302	6312.36
916.613	6271.91
916.925	6288.86
917.236	6157.34
917.548	6157.79
917.859	6231.91
918.171	6193.27
918.482	6163.21
918.794	6119.6
919.105	6090
919.416	6044.57
919.727	6105.36
920.038	6037.79
920.349	5986.95
920.66	5918.93
920.971	5943.56
921.282	5937.68
921.593	5851.81
921.903	5859.27
922.214	5800.51
922.525	5798.03
922.835	5826.73
923.146	5724.13
923.456	5730
923.767	5763.9
924.077	5688.88
924.387	5687.75
924.697	5588.09
925.008	5685.94
925.318	5633.28
925.628	5584.25
925.938	5583.79
926.248	5517.35
926.558	5500.18
926.867	5438.26
927.177	5453.63
927.487	5463.57
927.796	5412.5
928.106	5418.15
928.416	5334.31
928.725	5314.42
929.034	5367.75
929.344	5354.42
929.653	5329.11
929.962	5292.05
930.271	5271.03
930.581	5223.8
930.89	5200.3
931.199	5158.04
931.508	5151.04
931.817	5142.22
932.125	5096.12
932.434	5083.92
932.743	5020.42
933.051	5044.6
933.36	5003.7
933.669	4976.58
933.977	4962.12
934.286	4935.45
934.594	4967.54
934.902	4913.08
935.21	4853.64
935.519	4921.44
935.827	4871.5
936.135	4817.26
936.443	4770.26
936.751	4805.51
937.059	4772.97
937.367	4772.74
937.674	4757.83
937.982	4749.24
938.29	4683.7
938.597	4655.91
938.905	4660.65
939.213	4585.4
939.52	4600.32
939.827	4627.21
940.135	4549.24
940.442	4603.25
940.749	4513.99
941.056	4569.81
941.363	4472.18
941.67	4465.63
941.977	4459.53
942.284	4451.39
942.591	4393.09
942.898	4384.28
943.205	4408.68
943.511	4365.07
943.818	4347.44
944.125	4284.39
944.431	4271.29
944.738	4283.94
945.044	4274.68
945.35	4248.24
945.657	4202.36
945.963	4208.91
946.269	4176.15
946.575	4182.47
946.881	4158.52
947.187	4148.8
947.493	4131.18
947.799	4151.06
948.105	4090.27
948.41	4070.84
948.716	4052.31
949.022	4008.02
949.327	4060.22
949.633	3950.39
949.938	3973.44
950.244	3946.1
950.549	3968.92
950.854	3940.22
951.16	3902.48
951.465	3905.65
951.77	3878.08
952.075	3897.74
952.38	3869.49
952.685	3816.16
952.99	3846.89
953.294	3822.26
953.599	3811.64
953.904	3760.56
954.209	3764.63
954.513	3772.77
954.818	3759.21
955.122	3712.66
955.426	3707.23
955.731	3693.9
956.035	3621.81
956.339	3647.12
956.643	3619.55
956.948	3619.1
957.252	3604.41
957.556	3597.41
957.86	3580.68
958.163	3572.77
958.467	3505.2
958.771	3544.07
959.075	3500.46
959.378	3511.76
959.682	3485.77
959.985	3454.13
960.289	3471.08
960.592	3441.25
960.896	3380.01
961.199	3373
961.502	3395.6
961.805	3335.94
962.108	3370.74
962.411	3322.16
962.714	3344.53
963.017	3317.86
963.32	3336.62
963.623	3277.19
963.926	3296.4
964.228	3228.83
964.531	3286.68
964.833	3250.07
965.136	3194.03
965.438	3214.36
965.741	3208.04
966.043	3183.86
966.345	3162.39
966.648	3156.74
966.95	3142.05
967.252	3116.06
967.554	3077.42
967.856	3114.03
968.158	3051.21
968.46	3051.43
968.761	3044.43
969.063	3051.88
969.365	3040.81
969.666	3005.56
969.968	3008.72
970.269	2978.89
970.571	2983.64
970.872	2951.55
971.174	2935.95
971.475	2917.2
971.776	2899.34
972.077	2948.16
972.378	2897.54
972.679	2875.16
972.98	2864.09
973.281	2898.67
973.582	2849.85
973.883	2830.87
974.183	2825.45
974.484	2809.86
974.785	2825.9
975.085	2813.7
975.386	2785
975.686	2796.52
975.986	2736.86
976.287	2764.21
976.587	2734.6
976.887	2731.67
977.187	2715.62
977.487	2698.9
977.787	2673.36
978.087	2661.61
978.387	2662.74
978.687	2636.75
978.987	2639.69
979.286	2605.34
979.586	2639.46
979.885	2623.87
980.185	2594.27
980.484	2573.25
980.784	2554.95
981.083	2571.9
981.382	2534.16
981.682	2558.11
981.981	2526.93
982.28	2546.36
982.579	2510.2
982.878	2510.65
983.177	2497.1
983.475	2468.85
983.774	2440.37
984.073	2437.89
984.372	2394.95
984.67	2405.57
984.969	2429.75
985.267	2413.48
985.566	2411
985.864	2378.23
986.162	2368.29
986.461	2372.35
986.759	2359.02
987.057	2331.9
987.355	2363.09
987.653	2325.12
987.951	2338.23
988.249	2330.32
988.547	2318.34
988.844	2304.11
989.142	2276.08
989.44	2253.94
989.737	2234.5
990.035	2198.57
990.332	2228.4
990.63	2206.93
990.927	2202.64
991.224	2217.78
991.521	2207.84
991.819	2185.24
992.116	2168.52
992.413	2155.41
992.71	2166.26
993.006	2120.83
993.303	2138.01
993.6	2140.27
993.897	2112.25
994.193	2120.16
994.49	2109.76
994.787	2078.8
995.083	2084
995.379	2072.02
995.676	2039.25
995.972	2040.84
996.268	2062.76
996.565	2034.51
996.861	2035.86
997.157	1979.14
997.453	2006.26
997.749	2001.97
998.044	1972.36
998.34	1972.59
998.636	1945.25
998.932	1932.14
999.227	1953.38
999.523	1938.24
999.818	1923.78
1000.114	1912.93
1000.409	1886.94
1000.704	1900.27
1001	1859.6
1001.295	1856.66
1001.59	1846.27
1001.885	1848.75
1002.18	1831.12
1002.475	1854.17
1002.77	1829.32
1003.065	1802.65
1003.359	1802.42
1003.654	1801.07
1003.949	1803.1
1004.243	1803.78
1004.538	1788.41
1004.832	1787.74
1005.127	1759.26
1005.421	1740.51
1005.715	1747.06
1006.009	1735.31
1006.304	1699.15
1006.598	1710.45
1006.892	1705.93
1007.186	1696.66
1007.48	1667.74
1007.773	1668.64
1008.067	1645.37
1008.361	1653.28
1008.655	1641.75
1008.948	1637.23
1009.242	1598.14
1009.535	1584.58
1009.829	1594.29
1010.122	1583.9
1010.415	1584.13
1010.708	1577.35
1011.001	1583.67
1011.295	1571.92
1011.588	1558.59
1011.881	1548.42
1012.173	1507.74
1012.466	1538.48
1012.759	1477.24
1013.052	1516.78
1013.344	1509.55
1013.637	1511.58
1013.93	1491.25
1014.222	1480.85
1014.514	1460.96
1014.807	1456.67
1015.099	1446.95
1015.391	1420.06
1015.683	1422.32
1015.976	1419.84
1016.268	1424.58
1016.56	1408.99
1016.851	1390.68
1017.143	1358.82
1017.435	1410.34
1017.727	1406.05
1018.018	1364.7
1018.31	1369.89
1018.602	1368.54
1018.893	1345.71
1019.185	1314.08
1019.476	1311.59
1019.767	1319.27
1020.058	1322.44
1020.35	1300.06
1020.641	1275.66
1020.932	1289.9
1021.223	1265.26
1021.514	1282.66
1021.804	1241.31
1022.095	1233.4
1022.386	1257.35
1022.677	1260.52
1022.967	1222.33
1023.258	1211.93
1023.548	1216.9
1023.839	1236.11
1024.129	1204.02
1024.419	1199.5
1024.709	1202.44
1025	1185.49
1025.29	1162.89
1025.58	1139.62
1025.87	1154.76
1026.16	1150.01
1026.449	1140.52
1026.739	1131.48
1027.029	1129.22
1027.319	1113.63
1027.608	1092.84
1027.898	1126.51
1028.187	1112.5
1028.477	1106.17
1028.766	1104.14
1029.055	1057.36
1029.344	1071.37
1029.634	1068.21
1029.923	1064.59
1030.212	1031.15
1030.501	1071.82
1030.79	1032.95
1031.078	1057.81
1031.367	1029.11
1031.656	1046.29
1031.945	1014.65
1032.233	995.21
1032.522	1023.01
1032.81	1008.32
1033.099	1005.84
1033.387	956.8
1033.675	980.98
1033.963	974.65
1034.251	992.5
1034.54	962.45
1034.828	956.57
1035.116	933.97
1035.403	955.44
1035.691	947.76
1035.979	929.45
1036.267	925.61
1036.554	917.93
1036.842	899.4
1037.129	905.27
1037.417	886.74
1037.704	898.72
1037.992	886.52
1038.279	883.8
1038.566	879.06
1038.853	879.06
1039.14	879.06
