Data from hue_120_FLMS001491_00029.txt Node
Date: Tue Feb 07 16:59:09 GMT 2017
User: dcchb
Spectrometer: FLMS00149
Trigger mode: 0
Integration Time (sec): 2.000000E-2
Scans to average: 10
Electric dark correction enabled: true
Nonlinearity correction enabled: false
Boxcar width: 0
XAxis mode: Wavelengths
Number of Pixels in Spectrum: 2048
>>>>>Begin Spectral Data<<<<<
341.393	-16.04
341.776	-16.04
342.16	-16.04
342.543	-44.29
342.927	-61.24
343.31	-61.69
343.693	-67.79
344.077	-52.88
344.46	-61.69
344.843	-43.61
345.226	-62.37
345.61	-38.64
345.993	-16.72
346.376	-11.3
346.759	17.4
347.142	14.01
347.525	39.32
347.908	60.34
348.291	83.61
348.674	83.84
349.057	118.19
349.44	125.65
349.823	148.47
350.206	167.45
350.588	217.17
350.971	219.66
351.354	217.85
351.737	245.42
352.119	254.68
352.502	256.26
352.884	259.65
353.267	284.74
353.65	294.91
354.032	294
354.414	301.01
354.797	324.74
355.179	305.3
355.562	320.67
355.944	336.49
356.326	319.77
356.709	333.78
357.091	325.87
357.473	348.69
357.855	344.17
358.238	334.68
358.62	332.42
359.002	345.75
359.384	318.18
359.766	346.66
360.148	348.47
360.53	347.56
360.912	339.2
361.294	370.61
361.676	343.04
362.057	300.11
362.439	307.56
362.821	320.67
363.203	336.49
363.584	311.63
363.966	331.29
364.348	321.57
364.729	318.86
365.111	297.17
365.493	308.24
365.874	313.44
366.256	316.15
366.637	300.11
367.019	315.7
367.4	310.5
367.781	318.64
368.163	327.67
368.544	317.05
368.925	315.25
369.306	309.14
369.688	300.78
370.069	317.51
370.45	319.09
370.831	308.69
371.212	321.35
371.593	319.54
371.974	317.05
372.355	311.4
372.736	324.74
373.117	328.35
373.498	296.04
373.879	312.76
374.26	307.56
374.641	317.51
375.021	314.34
375.402	341.01
375.783	352.99
376.163	341.46
376.544	326.77
376.925	336.26
377.305	318.64
377.686	330.16
378.066	341.91
378.447	312.08
378.827	329.26
379.208	342.59
379.588	334.91
379.968	349.14
380.349	329.48
380.729	332.87
381.109	338.97
381.489	347.79
381.87	335.58
382.25	350.73
382.63	350.05
383.01	363.38
383.39	343.04
383.77	352.31
384.15	344.4
384.53	343.72
384.91	339.88
385.29	340.1
385.67	335.36
386.049	339.88
386.429	368.8
386.809	375.13
387.189	362.7
387.568	369.26
387.948	362.93
388.328	350.95
388.707	372.19
389.087	364.28
389.466	387.79
389.846	367.45
390.225	374.91
390.605	362.25
390.984	356.83
391.363	383.72
391.743	351.86
392.122	374.45
392.501	381.23
392.881	375.13
393.26	359.31
393.639	370.16
394.018	404.51
394.397	397.5
394.776	380.1
395.155	395.7
395.534	382.81
395.913	397.05
396.292	385.75
396.671	387.56
397.05	410.38
397.429	395.7
397.808	409.03
398.186	407.22
398.565	413.55
398.944	395.47
399.323	387.33
399.701	401.8
400.08	414.23
400.458	415.13
400.837	416.71
401.215	397.28
401.594	428.01
401.972	431.63
402.351	412.87
402.729	428.46
403.107	429.14
403.486	427.56
403.864	412.19
404.242	419.88
404.62	440.89
404.999	450.16
405.377	426.2
405.755	437.73
406.133	421.23
406.511	432.31
406.889	467.33
407.267	422.36
407.645	440.44
408.023	461.23
408.401	460.1
408.779	467.33
409.156	463.94
409.534	468.69
409.912	442.47
410.29	464.85
410.667	495.35
411.045	471.17
411.422	475.47
411.8	478.63
412.178	474.34
412.555	492.64
412.933	494
413.31	509.14
413.687	502.81
414.065	510.5
414.442	505.07
414.819	522.47
415.197	496.71
415.574	523.83
415.951	504.62
416.328	522.47
416.705	519.31
417.082	512.08
417.46	528.57
417.837	528.12
418.214	504.62
418.591	533.09
418.967	546.65
419.344	526.99
419.721	559.08
420.098	568.35
420.475	536.71
420.852	548.01
421.228	576.48
421.605	568.35
421.982	556.37
422.358	560.44
422.735	567.44
423.111	575.8
423.488	581.68
423.864	588.46
424.241	574.45
424.617	606.31
424.994	606.31
425.37	609.25
425.746	625.97
426.123	616.48
426.499	592.98
426.875	617.61
427.251	626.2
427.627	640.89
428.003	639.98
428.379	628.01
428.756	656.71
429.132	658.51
429.507	660.55
429.883	653.32
430.259	676.14
430.635	688.34
431.011	656.03
431.387	673.65
431.763	693.09
432.138	695.57
432.514	688.57
432.89	709.13
433.265	697.38
433.641	737.38
434.016	700.09
434.392	712.75
434.767	756.82
435.143	732.18
435.518	732.64
435.894	771.28
436.269	738.06
436.644	752.3
437.02	769.47
437.395	784.39
437.77	771.73
438.145	773.31
438.52	780.77
438.895	801.79
439.271	814.67
439.646	809.47
440.021	817.61
440.395	838.4
440.77	827.32
441.145	820.32
441.52	815.12
441.895	836.36
442.27	839.53
442.645	831.39
443.019	862.12
443.394	845.85
443.769	871.16
444.143	853.99
444.518	873.88
444.892	859.64
445.267	888.34
445.641	879.98
446.016	895.57
446.39	895.34
446.764	917.72
447.139	914.78
447.513	918.39
447.887	914.33
448.262	920.88
448.636	963.59
449.01	945.96
449.384	932.63
449.758	940.09
450.132	990.48
450.506	953.2
450.88	975.12
451.254	974.21
451.628	999.97
452.002	1018.05
452.376	1010.37
452.75	1038.84
453.123	1030.93
453.497	1046.53
453.871	1052.63
454.244	1071.16
454.618	1078.39
454.992	1079.75
455.365	1084.27
455.739	1090.82
456.112	1123.59
456.486	1097.82
456.859	1122
457.232	1165.39
457.606	1152.74
457.979	1169.91
458.352	1195.9
458.725	1207.65
459.099	1207.2
459.472	1218.73
459.845	1221.21
460.218	1257.14
460.591	1285.62
460.964	1273.86
461.337	1328.33
461.71	1307.76
462.083	1327.87
462.456	1354.77
462.829	1356.35
463.201	1371.94
463.574	1401.32
463.947	1410.58
464.32	1426.18
464.692	1479.96
465.065	1469.11
465.438	1479.28
465.81	1511.37
466.183	1547.3
466.555	1585.04
466.928	1566.06
467.3	1599.05
467.672	1585.95
468.045	1667.53
468.417	1662.33
468.789	1680.18
469.161	1700.29
469.534	1784.36
469.906	1784.59
470.278	1790.24
470.65	1846.73
471.022	1904.58
471.394	1975.09
471.766	1973.51
472.138	1959.04
472.51	2039.04
472.882	2090.57
473.253	2108.87
473.625	2155.88
473.997	2233.61
474.369	2246.04
474.74	2309.32
475.112	2349.99
475.484	2393.16
475.855	2460.73
476.227	2464.12
476.598	2566.03
476.97	2638.57
477.341	2670.66
477.713	2730.55
478.084	2796.08
478.455	2938
478.827	2995.85
479.198	3066.59
479.569	3096.64
479.94	3260.48
480.311	3312.91
480.682	3410.08
481.053	3469.51
481.424	3580.02
481.795	3660.92
482.166	3763.06
482.537	3829.05
482.908	3983.17
483.279	4064.53
483.65	4180.23
484.021	4289.38
484.391	4380.9
484.762	4529.6
485.133	4615.02
485.503	4748.58
485.874	4857.05
486.244	5018.17
486.615	5160.09
486.985	5238.96
487.356	5390.14
487.726	5521.44
488.097	5664.94
488.467	5719.4
488.837	5948.77
489.207	6044.59
489.578	6169.56
489.948	6322.32
490.318	6539.94
490.688	6630.56
491.058	6808.63
491.428	6912.59
491.798	7046.82
492.168	7321.84
492.538	7335.63
492.908	7519.58
493.278	7673.47
493.648	7769.74
494.017	7949.62
494.387	8095.38
494.757	8209.05
495.126	8374.24
495.496	8437.07
495.866	8560.68
496.235	8733.78
496.605	8866.66
496.974	9043.83
497.344	9138.52
497.713	9275.91
498.082	9371.96
498.452	9541.22
498.821	9615.79
499.19	9661.44
499.559	9871.38
499.928	9983.24
500.298	10140.3
500.667	10253.97
501.036	10244.93
501.405	10400.4
501.774	10413.29
502.143	10594.98
502.512	10643.34
502.88	10813.95
503.249	10849.43
503.618	11048.07
503.987	11083.32
504.356	11120.61
504.724	11236.77
505.093	11364.9
505.462	11371.45
505.83	11440.6
506.199	11547.94
506.567	11726.02
506.936	11799.69
507.304	11939.57
507.672	11936.41
508.041	12019.34
508.409	12130.3
508.777	12172.79
509.145	12306.34
509.514	12303.41
509.882	12410.97
510.25	12377.98
510.618	12570.52
510.986	12542.04
511.354	12641.25
511.722	12766.22
512.09	12837.4
512.458	12867.68
512.826	13019.77
513.193	12979.77
513.561	13083.72
513.929	13127.56
514.297	13146.1
514.664	13297.28
515.032	13250.27
515.4	13418.86
515.767	13380.89
516.135	13411.85
516.502	13411.85
516.869	13609.36
517.237	13662.24
517.604	13541.11
517.972	13589.47
518.339	13733.88
518.706	13710.6
519.073	13823.59
519.44	13768.68
519.808	13877.38
520.175	13852.74
520.542	14003.47
520.909	14036.92
521.276	14015.68
521.643	14116.46
522.009	14142.45
522.376	14191.49
522.743	14249.12
523.11	14269
523.477	14411.37
523.843	14375.44
524.21	14529.79
524.577	14462.9
524.943	14541.09
525.31	14483.01
525.676	14667.41
526.043	14654.3
526.409	14603.91
526.776	14846.39
527.142	14676.9
527.508	14783.57
527.874	14764.58
528.241	14777.92
528.607	14783.34
528.973	14827.86
529.339	14787.86
529.705	14892.94
530.071	14894.98
530.437	14964.35
530.803	14922.55
531.169	15053.84
531.535	14995.76
531.901	14875.09
532.267	14996.44
532.632	14890.68
532.998	14961.87
533.364	14969.1
533.73	14997.57
534.095	15036.44
534.461	15047.74
534.826	15014.97
535.192	14988.76
535.557	14993.96
535.923	14904.24
536.288	14905.37
536.653	14874.64
537.019	14862.21
537.384	14830.12
537.749	14830.8
538.114	14758.03
538.479	14774.3
538.845	14721.42
539.21	14644.13
539.575	14688.43
539.94	14590.58
540.305	14713.51
540.67	14554.65
541.034	14523.69
541.399	14554.19
541.764	14495.44
542.129	14451.82
542.494	14541.76
542.858	14489.56
543.223	14382.9
543.587	14477.13
543.952	14323.92
544.316	14367.98
544.681	14290.47
545.045	14238.5
545.41	14278.95
545.774	14247.08
546.138	14186.29
546.503	14168.67
546.867	14112.85
547.231	14219.51
547.595	14117.82
547.959	14087.77
548.324	13978.39
548.688	13987.2
549.052	13984.49
549.416	13887.09
549.779	13882.35
550.143	13854.32
550.507	13868.11
550.871	13880.99
551.235	13796.7
551.599	13855.23
551.962	13817.49
552.326	13796.93
552.689	13786.08
553.053	13649.58
553.417	13619.3
553.78	13803.7
554.143	13702.24
554.507	13669.47
554.87	13637.83
555.234	13728
555.597	13643.94
555.96	13564.84
556.323	13554.45
556.686	13584.5
557.05	13620.88
557.413	13548.34
557.776	13499.53
558.139	13566.87
558.502	13509.02
558.865	13566.87
559.228	13539.98
559.59	13536.37
559.953	13482.13
560.316	13652.07
560.679	13668.12
561.041	13647.1
561.404	13612.07
561.767	13583.6
562.129	13558.06
562.492	13588.12
562.854	13556.48
563.217	13585.86
563.579	13546.31
563.941	13642.58
564.304	13656.36
564.666	13660.66
565.028	13675.35
565.39	13646.65
565.753	13670.38
566.115	13726.64
566.477	13778.39
566.839	13677.15
567.201	13776.81
567.563	13679.64
567.925	13862.69
568.287	13820.88
568.648	13799.41
569.01	13806.42
569.372	13928.22
569.734	13797.83
570.095	13909.46
570.457	13829.92
570.819	13842.12
571.18	13902.01
571.542	13965.73
571.903	13901.1
572.265	13943.81
572.626	13990.82
572.987	14002.34
573.349	13967.09
573.71	14051.16
574.071	14012.74
574.432	13998.73
574.794	14111.95
575.155	14022.91
575.516	13977.49
575.877	14043.02
576.238	14057.48
576.599	14042.79
576.96	14063.81
577.32	14116.69
577.681	14185.39
578.042	14105.62
578.403	14047.09
578.763	14049.12
579.124	14103.58
579.485	14104.04
579.845	14223.81
580.206	14140.65
580.566	14083.7
580.927	14082.12
581.287	14176.35
581.648	14076.01
582.008	14160.76
582.368	14163.02
582.728	14142.45
583.089	14147.42
583.449	14102.91
583.809	14032.17
584.169	14142
584.529	14087.31
584.889	14144.49
585.249	14127.76
585.609	13963.47
585.969	13987.43
586.329	14060.42
586.688	14104.94
587.048	13984.27
587.408	13965.51
587.768	13910.14
588.127	13969.12
588.487	13906.3
588.846	13997.37
589.206	13946.53
589.565	13852.52
589.925	14051.83
590.284	13932.29
590.643	13965.96
591.003	13972.51
591.362	13970.03
591.721	13880.99
592.08	13932.52
592.44	13891.61
592.799	13856.81
593.158	13928.22
593.517	13925.74
593.876	13905.62
594.235	13845.74
594.593	13875.57
594.952	13891.39
595.311	13829.47
595.67	13799.19
596.029	13899.75
596.387	13847.55
596.746	13877.38
597.104	13808.22
597.463	13834.89
597.822	13779.52
598.18	13723.48
598.538	13750.82
598.897	13876.7
599.255	13800.77
599.613	13887.77
599.972	13749.69
600.33	13801.67
600.688	13815.23
601.046	13834.66
601.404	13826.98
601.762	13882.8
602.12	13859.07
602.478	13816.81
602.836	13831.05
603.194	13778.85
603.552	13758.96
603.91	13791.28
604.268	13753.54
604.625	13745.4
604.983	13838.28
605.341	13754.44
605.698	13840.09
606.056	13823.37
606.413	13843.03
606.771	13887.32
607.128	13897.26
607.485	13876.02
607.843	13869.24
608.2	13879.64
608.557	13870.37
608.914	13889.58
609.272	13937.49
609.629	13966.19
609.986	13930.71
610.343	13836.02
610.7	13985.17
611.057	13950.82
611.414	13948.79
611.771	13893.65
612.127	14014.77
612.484	13938.84
612.841	14032.4
613.198	14026.98
613.554	13974.32
613.911	14094.32
614.267	14117.37
614.624	14048.9
614.98	14069.23
615.337	14049.12
615.693	14135
616.05	14081.66
616.406	14141.55
616.762	14146.75
617.118	14130.93
617.475	14125.05
617.831	14180.64
618.187	14178.61
618.543	14196.01
618.899	14270.36
619.255	14205.73
619.611	14182.23
619.967	14320.53
620.323	14309.91
620.678	14229
621.034	14145.39
621.39	14184.03
621.746	14163.47
622.101	14343.8
622.457	14177.93
622.812	14243.24
623.168	14331.15
623.523	14226.07
623.879	14283.47
624.234	14188.55
624.589	14283.69
624.945	14243.92
625.3	14253.64
625.655	14247.53
626.01	14198.04
626.365	14275.56
626.72	14247.76
627.075	14238.04
627.43	14226.97
627.785	14134.54
628.14	14155.56
628.495	14217.48
628.85	14219.74
629.205	14117.59
629.559	14226.29
629.914	14199.63
630.269	14154.66
630.623	14083.25
630.978	14092.96
631.332	14089.12
631.687	14216.8
632.041	14046.18
632.396	14169.12
632.75	13950.37
633.104	13998.05
633.459	14055
633.813	13965.28
634.167	13970.25
634.521	14052.96
634.875	13953.98
635.229	13908.79
635.583	13900.65
635.937	13894.32
636.291	13919.86
636.645	13896.13
636.999	13894.1
637.352	13851.84
637.706	13772.29
638.06	13832.18
638.413	13855
638.767	13759.86
639.121	13821.33
639.474	13766.87
639.828	13718.06
640.181	13659.53
640.534	13714.89
640.888	13683.71
641.241	13626.31
641.594	13694.33
641.947	13678.28
642.301	13692.75
642.654	13704.72
643.007	13710.6
643.36	13615.24
643.713	13586.31
644.066	13681
644.419	13586.76
644.771	13443.71
645.124	13405.3
645.477	13379.76
645.83	13278.97
646.182	13175.92
646.535	13169.82
646.888	13216.15
647.24	13125.76
647.593	13253.44
647.945	13155.13
648.298	13057.96
648.65	13021.8
649.002	13119.66
649.355	13144.06
649.707	13133.89
650.059	13229.26
650.411	13353.1
650.763	13297.28
651.115	13459.99
651.467	13441.68
651.819	13468.12
652.171	13457.95
652.523	13375.02
652.875	13433.55
653.227	13391.96
653.578	13540.89
653.93	13405.75
654.282	13379.99
654.633	13386.54
654.985	13405.98
655.337	13432.19
655.688	13430.83
656.039	13424.96
656.391	13345.64
656.742	13365.07
657.094	13344.28
657.445	13430.38
657.796	13394.45
658.147	13423.83
658.498	13477.61
658.849	13450.49
659.2	13370.27
659.551	13274.91
659.902	13408.91
660.253	13427.44
660.604	13464.5
660.955	13429.03
661.306	13405.98
661.656	13394.45
662.007	13453.66
662.358	13478.97
662.708	13471.28
663.059	13533.66
663.409	13354.9
663.76	13474.67
664.11	13442.81
664.461	13540.89
664.811	13501.57
665.161	13492.07
665.511	13487.78
665.862	13497.27
666.212	13488.91
666.562	13573.65
666.912	13475.8
667.262	13469.48
667.612	13484.62
667.962	13514.22
668.312	13514.67
668.662	13574.33
669.011	13505.18
669.361	13511.28
669.711	13505.63
670.06	13514.67
670.41	13388.8
670.76	13389.7
671.109	13558.06
671.459	13428.8
671.808	13415.47
672.157	13509.7
672.507	13338.41
672.856	13309.25
673.205	13321.68
673.554	13391.74
673.904	13387.44
674.253	13488.23
674.602	13393.55
674.951	13124.85
675.3	13062.93
675.649	13295.24
675.998	13274.45
676.346	13247.56
676.695	13379.76
677.044	13230.39
677.393	13316.03
677.741	13315.13
678.09	13275.81
678.438	13266.54
678.787	13214.34
679.135	13233.1
679.484	13126.21
679.832	13123.04
680.181	13030.84
680.529	13104.97
680.877	13035.36
681.225	13041.69
681.573	13117.17
681.922	13050.5
682.27	12836.05
682.618	12963.05
682.966	12907.46
683.314	12895.48
683.661	12916.95
684.009	12787.01
684.357	12767.8
684.705	12819.55
685.053	12751.3
685.4	12770.96
685.748	12699.78
686.095	12679.44
686.443	12608.71
686.79	12631.98
687.138	12669.95
687.485	12668.37
687.832	12564.64
688.18	12598.76
688.527	12526
688.874	12548.6
689.221	12467.69
689.568	12449.39
689.915	12380.92
690.262	12347.02
690.609	12327.36
690.956	12261.37
691.303	12292.33
691.65	12272.22
691.997	12183.18
692.344	12115.84
692.69	12074.48
693.037	12023.41
693.383	11947.93
693.73	11936.18
694.077	11851.21
694.423	11918.56
694.769	11862.51
695.116	11772.57
695.462	11764.89
695.808	11755.62
696.155	11725.12
696.501	11618.23
696.847	11687.15
697.193	11546.82
697.539	11552.01
697.885	11515.86
698.231	11436.31
698.577	11433.82
698.923	11435.86
699.269	11322.87
699.614	11207.61
699.96	11254.39
700.306	11311.34
700.651	11206.49
700.997	11146.83
701.342	11051.69
701.688	11030.44
702.033	11065.7
702.379	11011.91
702.724	11019.6
703.069	10948.64
703.415	10802.43
703.76	10826.16
704.105	10845.36
704.45	10758.59
704.795	10727.4
705.14	10660.96
705.485	10682.88
705.83	10639.27
706.175	10623.45
706.52	10570.8
706.865	10542.77
707.209	10529.89
707.554	10463.91
707.899	10516.33
708.243	10422.78
708.588	10437.47
708.932	10353.63
709.277	10346.85
709.621	10317.47
709.966	10303.23
710.31	10327.19
710.654	10196.12
710.998	10170.13
711.342	10237.24
711.687	10217.58
712.031	10161.31
712.375	10106.4
712.719	10178.49
713.063	10082.9
713.407	10130.13
713.75	10001.77
714.094	9988.21
714.438	9992.05
714.782	10035.22
715.125	9924.26
715.469	9897.59
715.812	9973.75
716.156	9838.84
716.499	9884.71
716.843	9825.96
717.186	9783.7
717.53	9848.33
717.873	9809.01
718.216	9837.48
718.559	9758.84
718.902	9671.38
719.246	9743.92
719.589	9685.62
719.932	9660.31
720.275	9729.01
720.617	9638.62
720.96	9620.54
721.303	9684.49
721.646	9600.65
721.989	9599.3
722.331	9620.31
722.674	9536.02
723.016	9571.05
723.359	9546.19
723.701	9562.01
724.044	9586.64
724.386	9507.77
724.729	9544.83
725.071	9564.04
725.413	9538.28
725.755	9514.1
726.097	9468.45
726.439	9449.7
726.782	9500.54
727.124	9496.93
727.465	9455.12
727.807	9499.64
728.149	9498.73
728.491	9437.27
728.833	9492.18
729.175	9431.84
729.516	9392.97
729.858	9422.8
730.199	9478.85
730.541	9420.32
730.882	9461.22
731.224	9422.13
731.565	9362.47
731.906	9458.51
732.248	9364.05
732.589	9346.87
732.93	9325.4
733.271	9348.23
733.612	9380.54
733.953	9425.06
734.294	9331.96
734.635	9309.81
734.976	9402.01
735.317	9294.44
735.658	9354.1
735.999	9367.89
736.339	9364.27
736.68	9331.96
737.021	9355.46
737.361	9301
737.702	9433.65
738.042	9346.19
738.383	9356.82
738.723	9454.67
739.063	9366.76
739.404	9452.63
739.744	9443.37
740.084	9371.96
740.424	9449.7
740.764	9406.98
741.104	9493.08
741.444	9434.78
741.784	9402.92
742.124	9512.07
742.464	9476.14
742.804	9504.61
743.143	9537.6
743.483	9546.87
743.823	9564.49
744.162	9577.38
744.502	9611.05
744.841	9680.42
745.181	9730.59
745.52	9739.86
745.86	9775.56
746.199	9783.7
746.538	9852.85
746.877	9908.21
747.216	9927.2
747.556	9939.63
747.895	10004.26
748.234	10000.64
748.573	10115.21
748.911	10201.54
749.25	10229.56
749.589	10254.42
749.928	10386.17
750.267	10492.61
750.605	10461.19
750.944	10579.61
751.283	10612.6
751.621	10785.93
751.96	10695.99
752.298	10827.29
752.636	11027.73
752.975	11007.39
753.313	11181.63
753.651	11323.09
753.989	11351.79
754.327	11425.69
754.666	11521.05
755.004	11659.58
755.342	11888.95
755.679	12019.12
756.017	12137.08
756.355	12351.31
756.693	12317.87
757.031	12483.06
757.368	12573.68
757.706	12829.27
758.044	12912.65
758.381	13113.55
758.719	13304.96
759.056	13451.4
759.394	13584.73
759.731	13736.81
760.068	13816.36
760.405	13985.85
760.743	14150.81
761.08	14369.34
761.417	14445.04
761.754	14664.25
762.091	14772.27
762.428	14922.77
762.765	15107.17
763.102	15316.89
763.438	15492.02
763.775	15512.13
764.112	15686.59
764.449	15986.92
764.785	16058.56
765.122	16237.77
765.458	16302.85
765.795	16426.69
766.131	16748.03
766.467	16930.4
766.804	16963.17
767.14	16950.06
767.476	17179.21
767.812	17279.09
768.148	17559.54
768.485	17540.78
768.821	17635.92
769.157	17775.58
769.492	17910.04
769.828	18001.11
770.164	18026.42
770.5	18187.32
770.836	18325.85
771.171	18328.33
771.507	18453.98
771.842	18430.02
772.178	18635.22
772.513	18735.33
772.849	18822.78
773.184	18865.49
773.519	19036.11
773.855	18930.58
774.19	19097.12
774.525	19112.04
774.86	19215.31
775.195	19267.06
775.53	19331.47
775.865	19277.91
776.2	19228.42
776.535	19212.38
776.87	19428.42
777.205	19440.17
777.539	19475.42
777.874	19615.3
778.209	19381.19
778.543	19437.91
778.878	19438.36
779.212	19542.99
779.547	19479.04
779.881	19668.18
780.215	19584.34
780.55	19606.72
780.884	19627.05
781.218	19646.49
781.552	19679.93
781.886	19656.21
782.22	19540.05
782.554	19618.24
782.888	19391.13
783.222	19521.75
783.556	19449.88
783.889	19486.95
784.223	19282.43
784.557	19459.83
784.89	19435.2
785.224	19293.5
785.557	19356.78
785.891	19212.83
786.224	19354.07
786.558	19458.25
786.891	19271.58
787.224	19178.7
787.557	19138.93
787.891	19195.43
788.224	19243.56
788.557	19265.93
788.89	19204.24
789.223	19101.87
789.556	19174.64
789.888	19096.45
790.221	18937.81
790.554	18927.86
790.887	18955.43
791.219	18823.23
791.552	18853.74
791.884	18875.21
792.217	18713.63
792.549	18734.87
792.882	18721.99
793.214	18622.11
793.546	18704.82
793.879	18531.94
794.211	18530.36
794.543	18483.36
794.875	18463.24
795.207	18569.91
795.539	18426.63
795.871	18422.79
796.203	18287.43
796.535	18220.99
796.867	18245.62
797.198	18241.78
797.53	18212.18
797.862	18195
798.193	18093.31
798.525	18009.92
798.856	18068
799.188	17909.13
799.519	17872.07
799.85	17825.29
800.182	17814.9
800.513	17786.65
800.844	17693.09
801.175	17843.15
801.506	17613.77
801.837	17590.27
802.168	17511.63
802.499	17512.31
802.83	17340.11
803.161	17421.46
803.491	17389.15
803.822	17427.56
804.153	17321.35
804.483	17155.48
804.814	17129.49
805.145	17116.16
805.475	17115.03
805.805	17081.13
806.136	17118.87
806.466	17084.3
806.796	17065.09
807.126	16889.73
807.457	16971.31
807.787	16942.15
808.117	16769.73
808.447	16719.11
808.777	16755.72
809.107	16694.25
809.436	16714.59
809.766	16663.52
810.096	16607.02
810.426	16520.24
810.755	16573.58
811.085	16613.35
811.414	16478.66
811.744	16350.98
812.073	16411.32
812.403	16349.17
812.732	16296.07
813.061	16268.27
813.39	16156.64
813.719	16103.31
814.049	16202.96
814.378	16207.71
814.707	16033.7
815.036	16097.88
815.365	15983.76
815.693	15839.36
816.022	15929.52
816.351	15931.11
816.68	15764.33
817.008	15859.7
817.337	15711.9
817.665	15658.57
817.994	15770.66
818.322	15762.52
818.651	15649.08
818.979	15607.27
819.307	15696.08
819.636	15620.38
819.964	15477.56
820.292	15583.77
820.62	15586.71
820.948	15583.77
821.276	15591
821.604	15492.25
821.932	15507.61
822.259	15543.55
822.587	15539.48
822.915	15459.71
823.243	15548.07
823.57	15478.92
823.898	15521.63
824.225	15447.28
824.553	15548.29
824.88	15486.82
825.207	15536.09
825.535	15520.72
825.862	15433.49
826.189	15501.51
826.516	15556.43
826.843	15513.72
827.17	15548.74
827.497	15597.78
827.824	15558.46
828.151	15629.19
828.478	15585.35
828.805	15661.28
829.131	15476.2
829.458	15494.51
829.785	15475.75
830.111	15432.59
830.438	15579.93
830.764	15490.89
831.09	15527.95
831.417	15456.54
831.743	15571.57
832.069	15515.75
832.395	15441.85
832.722	15401.85
833.048	15372.93
833.374	15365.92
833.7	15372.03
834.026	15383.1
834.351	15392.14
834.677	15434.62
835.003	15344.91
835.329	15362.99
835.654	15308.52
835.98	15233.5
836.306	15278.69
836.631	15178.58
836.956	15246.15
837.282	15245.7
837.607	15179.94
837.932	15120.51
838.258	15113.05
838.583	15085.03
838.908	15073.05
839.233	15137.46
839.558	15052.26
839.883	15015.65
840.208	14939.95
840.533	15011.36
840.858	14993.28
841.182	14966.39
841.507	14928.65
841.832	14874.64
842.156	14920.74
842.481	14936.1
842.805	14823.79
843.13	14746.28
843.454	14742.66
843.778	14605.27
844.103	14661.08
844.427	14657.92
844.751	14595.55
845.075	14582.44
845.399	14474.65
845.723	14554.87
846.047	14505.61
846.371	14364.59
846.695	14310.13
847.019	14173.41
847.343	14121.89
847.666	14012.29
847.99	14094.09
848.313	14029.46
848.637	13917.15
848.96	13943.59
849.284	13871.5
849.607	13802.12
849.931	13751.95
850.254	13690.71
850.577	13589.93
850.9	13510.61
851.223	13583.82
851.546	13428.35
851.869	13256.6
852.192	13398.74
852.515	13275.58
852.838	13193.55
853.161	13169.15
853.483	13202.36
853.806	13105.19
854.129	13210.27
854.451	12968.92
854.774	12984.29
855.096	12956.04
855.419	12919.43
855.741	12937.96
856.063	12853.67
856.385	12753.56
856.708	12758.08
857.03	12739.33
857.352	12693.23
857.674	12629.27
857.996	12613.23
858.318	12525.77
858.64	12596.28
858.961	12512.89
859.283	12482.38
859.605	12414.36
859.926	12435.83
860.248	12417.07
860.57	12293.69
860.891	12302.95
861.212	12328.04
861.534	12244.2
861.855	12126.69
862.176	12170.98
862.498	12175.5
862.819	12153.35
863.14	12166.01
863.461	12076.29
863.782	12034.71
864.103	12165.78
864.424	12032.68
864.745	11996.75
865.065	11910.42
865.386	11894.83
865.707	11857.09
866.027	11974.6
866.348	11928.5
866.668	11878.11
866.989	11836.98
867.309	11762.85
867.63	11788.39
867.95	11839.46
868.27	11779.35
868.59	11686.47
868.91	11775.28
869.23	11693.25
869.55	11580.03
869.87	11729.64
870.19	11646.93
870.51	11763.31
870.83	11705.91
871.15	11628.62
871.469	11625.46
871.789	11566.48
872.109	11545.23
872.428	11516.76
872.748	11528.06
873.067	11509.98
873.386	11437.89
873.706	11456.42
874.025	11408.97
874.344	11387.72
874.663	11373.26
874.982	11265.69
875.301	11340.72
875.62	11310.89
875.939	11312.47
876.258	11313.15
876.577	11278.35
876.896	11243.77
877.214	11169.88
877.533	11229.54
877.852	11201.51
878.17	11214.17
878.489	11177.33
878.807	11140.5
879.125	11093.49
879.444	11130.1
879.762	11083.32
880.08	11087.84
880.398	11026.15
880.716	11085.81
881.034	10988.64
881.352	10940.5
881.67	10954.06
881.988	10978.92
882.306	10887.17
882.624	10874.52
882.941	10878.36
883.259	10807.17
883.577	10772.37
883.894	10834.74
884.212	10766.95
884.529	10780.06
884.846	10683.56
885.164	10771.47
885.481	10652.83
885.798	10675.2
886.115	10577.12
886.432	10567.41
886.75	10593.17
887.067	10570.12
887.383	10551.36
887.7	10550.23
888.017	10446.73
888.334	10450.35
888.651	10466.17
888.967	10466.62
889.284	10408.54
889.6	10345.26
889.917	10339.16
890.233	10275.21
890.55	10252.16
890.866	10237.92
891.182	10145.5
891.498	10168.55
891.815	10182.78
892.131	10129.23
892.447	10044.03
892.763	9983.92
893.079	9999.51
893.395	9981.43
893.71	9890.81
894.026	9935.56
894.342	9872.28
894.657	9829.57
894.973	9790.7
895.289	9786.86
895.604	9746.41
895.92	9736.02
896.235	9632.74
896.55	9672.97
896.865	9524.95
897.181	9639.75
897.496	9587.32
897.811	9544.38
898.126	9517.26
898.441	9502.35
898.756	9444.05
899.071	9424.16
899.386	9362.47
899.7	9253.32
900.015	9266.87
900.33	9215.12
900.644	9190.04
900.959	9175.35
901.273	9129.7
901.588	9141.91
901.902	9082.25
902.216	9067.11
902.531	8958.18
902.845	8984.85
903.159	8951.4
903.473	8877.96
903.787	8888.13
904.101	8841.35
904.415	8749.6
904.729	8763.84
905.042	8719.09
905.356	8743.5
905.67	8648.59
905.984	8672.09
906.297	8652.88
906.611	8602.49
906.924	8610.62
907.237	8501.25
907.551	8554.58
907.864	8463.51
908.177	8480.45
908.491	8357.75
908.804	8355.71
909.117	8319.78
909.43	8247.01
909.743	8266
910.056	8194.81
910.368	8163.85
910.681	8170.41
910.994	8096.51
911.307	8137.87
911.619	8058.32
911.932	8037.3
912.244	8017.42
912.557	7968.38
912.869	7945.78
913.181	7828.49
913.494	7898.32
913.806	7834.14
914.118	7711.89
914.43	7766.35
914.742	7818.55
915.054	7637.54
915.366	7621.95
915.678	7595.73
915.99	7567.26
916.302	7517.32
916.613	7435.74
916.925	7499.46
917.236	7484.32
917.548	7375.63
917.859	7441.16
918.171	7385.12
918.482	7317.1
918.794	7250.2
919.105	7317.32
919.416	7181.51
919.727	7249.98
920.038	7195.07
920.349	7158
920.66	7156.65
920.971	7086.59
921.282	7000.72
921.593	7032.58
921.903	7008.63
922.214	6992.36
922.525	6974.05
922.835	6953.94
923.146	6874.85
923.456	6888.63
923.767	6838.01
924.077	6791.46
924.387	6790.56
924.697	6735.87
925.008	6721.63
925.318	6740.16
925.628	6628.98
925.938	6643.67
926.248	6666.27
926.558	6638.92
926.867	6566.16
927.177	6522.54
927.487	6467.17
927.796	6477.8
928.106	6412.26
928.416	6385.82
928.725	6375.43
929.034	6319.38
929.344	6370.45
929.653	6292.49
929.962	6295.2
930.271	6273.06
930.581	6273.28
930.89	6155.32
931.199	6129.78
931.508	6164.58
931.817	6161.65
932.125	6087.52
932.434	6101.99
932.743	6073.51
933.051	6070.35
933.36	6000.07
933.669	5947.87
933.977	5930.01
934.286	5969.79
934.594	5948.77
934.902	5897.92
935.21	5811.15
935.519	5863.8
935.827	5833.52
936.135	5758.27
936.443	5707.42
936.751	5718.72
937.059	5707.87
937.367	5716.91
937.674	5647.31
937.982	5682.34
938.29	5634.2
938.597	5628.55
938.905	5588.1
939.213	5551.49
939.52	5529.12
939.827	5531.38
940.135	5473.3
940.442	5400.76
940.749	5502.23
941.056	5456.35
941.363	5365.51
941.67	5417.48
941.977	5326.64
942.284	5310.37
942.591	5293.42
942.898	5293.19
943.205	5276.92
943.511	5230.82
943.818	5223.82
944.125	5202.35
944.431	5219.98
944.738	5171.39
945.044	5151.28
945.35	5086.42
945.657	5062.01
945.963	5024.73
946.269	5038.29
946.575	5017.72
946.881	4942.92
947.187	4993.99
947.493	4917.38
947.799	4956.71
948.105	4899.53
948.41	4897.5
948.716	4896.82
949.022	4888.23
949.327	4832.87
949.633	4809.59
949.938	4804.17
950.244	4785.41
950.549	4750.61
950.854	4758.07
951.16	4734.56
951.465	4694.34
951.77	4655.47
952.075	4605.53
952.38	4597.17
952.685	4637.39
952.99	4568.02
953.294	4528.02
953.599	4552.87
953.904	4530.73
954.209	4484.18
954.513	4502.03
954.818	4495.48
955.122	4438.08
955.426	4449.6
955.731	4406.89
956.035	4401.01
956.339	4368.47
956.643	4347.68
956.948	4321.47
957.252	4276.05
957.556	4256.84
957.86	4208.25
958.163	4276.95
958.467	4217.06
958.771	4267.46
959.075	4203.96
959.378	4173.68
959.682	4160.57
959.985	4156.95
960.289	4143.85
960.592	4117.86
960.896	4076.5
961.199	4063.17
961.502	4053
961.805	4047.58
962.108	3992.44
962.411	3982.49
962.714	3996.05
963.017	3968.26
963.32	3944.08
963.623	3912.89
963.926	3933.91
964.228	3872.67
964.531	3868.82
964.833	3873.57
965.136	3825.66
965.438	3828.37
965.741	3829.96
966.043	3818.88
966.345	3800.13
966.648	3799
966.95	3762.84
967.252	3729.62
967.554	3732.56
967.856	3710.64
968.158	3629.74
968.46	3669.73
968.761	3647.81
969.063	3652.56
969.365	3608.72
969.666	3631.99
969.968	3593.35
970.269	3585.22
970.571	3551.77
970.872	3553.58
971.174	3505.44
971.475	3493.69
971.776	3522.85
972.077	3459.34
972.378	3473.81
972.679	3493.47
972.98	3475.61
973.281	3404.2
973.582	3413.92
973.883	3421.6
974.183	3396.29
974.484	3368.5
974.785	3374.6
975.085	3324.43
975.386	3325.34
975.686	3287.6
975.986	3267.48
976.287	3299.57
976.587	3254.38
976.887	3243.08
977.187	3236.98
977.487	3232.68
977.787	3187.26
978.087	3174.61
978.387	3155.4
978.687	3152.69
978.987	3132.8
979.286	3092.57
979.586	3092.57
979.885	3064.55
980.185	3055.51
980.484	3067.94
980.784	3087.83
981.083	3050.32
981.382	3025.68
981.682	3054.61
981.981	3028.62
982.28	2990.2
982.579	3009.86
982.878	2981.84
983.177	2942.3
983.475	2906.82
983.774	2884.9
984.073	2896.87
984.372	2889.42
984.67	2879.7
984.969	2868.4
985.267	2890.77
985.566	2838.8
985.864	2819.59
986.162	2838.57
986.461	2810.55
986.759	2773.03
987.057	2767.38
987.355	2764.67
987.653	2754.73
987.951	2761.96
988.249	2747.5
988.547	2742.3
988.844	2703.21
989.142	2724.22
989.44	2669.31
989.737	2651.46
990.035	2656.43
990.332	2606.03
990.63	2625.92
990.927	2620.95
991.224	2601.97
991.521	2576.88
991.819	2581.85
992.116	2580.72
992.413	2548.86
992.71	2561.74
993.006	2565.36
993.303	2531.23
993.6	2531.46
993.897	2545.02
994.193	2493.04
994.49	2456.21
994.787	2469.77
995.083	2450.56
995.379	2444.46
995.676	2427.96
995.972	2406.72
996.268	2391.8
996.565	2387.96
996.861	2377.56
997.157	2389.99
997.453	2367.85
997.749	2372.59
998.044	2367.85
998.34	2320.39
998.636	2320.16
998.932	2274.52
999.227	2288.3
999.523	2279.49
999.818	2232.48
1000.114	2241.52
1000.409	2246.49
1000.704	2230.9
1001	2218.7
1001.295	2214.18
1001.59	2191.81
1001.885	2193.16
1002.18	2160.85
1002.475	2170.11
1002.77	2155.42
1003.065	2112.94
1003.359	2101.19
1003.654	2120.85
1003.949	2076.78
1004.243	2095.09
1004.538	2053.96
1004.832	2066.16
1005.127	2058.93
1005.421	2079.49
1005.715	2043.56
1006.009	2008.76
1006.304	2016.9
1006.598	1990.46
1006.892	1996.11
1007.186	1992.26
1007.48	1933.51
1007.773	1941.64
1008.067	1937.12
1008.361	1950.68
1008.655	1926.05
1008.948	1940.97
1009.242	1896.45
1009.535	1874.53
1009.829	1865.26
1010.122	1867.52
1010.415	1861.87
1010.708	1839.05
1011.001	1843.34
1011.295	1833.17
1011.588	1810.35
1011.881	1792.04
1012.173	1794.53
1012.466	1752.04
1012.759	1768.54
1013.052	1755.43
1013.344	1703.68
1013.637	1757.24
1013.93	1736.68
1014.222	1703.46
1014.514	1709.11
1014.807	1663.91
1015.099	1682.67
1015.391	1670.01
1015.683	1659.39
1015.976	1669.79
1016.268	1684.93
1016.56	1609.22
1016.851	1599.28
1017.143	1611.48
1017.435	1621.2
1017.727	1594.99
1018.018	1576.91
1018.31	1570.13
1018.602	1524.48
1018.893	1607.87
1019.185	1529.68
1019.476	1561.09
1019.767	1559.06
1020.058	1512.95
1020.35	1483.8
1020.641	1493.75
1020.932	1493.29
1021.223	1463.69
1021.514	1493.52
1021.804	1467.53
1022.095	1444.71
1022.386	1416.91
1022.677	1424.82
1022.967	1417.14
1023.258	1415.78
1023.548	1389.34
1023.839	1392.05
1024.129	1350.92
1024.419	1404.26
1024.709	1377.36
1025	1380.53
1025.29	1327.87
1025.58	1324.26
1025.87	1334.43
1026.16	1308.67
1026.449	1282.45
1026.739	1325.84
1027.029	1286.75
1027.319	1302.11
1027.608	1269.12
1027.898	1265.05
1028.187	1283.81
1028.477	1276.12
1028.766	1271.38
1029.055	1232.51
1029.344	1229.57
1029.634	1223.47
1029.923	1223.02
1030.212	1192.29
1030.501	1199.97
1030.79	1169.01
1031.078	1191.83
1031.367	1169.69
1031.656	1170.82
1031.945	1147.54
1032.233	1143.7
1032.522	1178.73
1032.81	1129.46
1033.099	1118.39
1033.387	1088.33
1033.675	1100.54
1033.963	1129.01
1034.251	1094.89
1034.54	1072.51
1034.828	1062.57
1035.116	1073.64
1035.403	1062.12
1035.691	1075.45
1035.979	1053.76
1036.267	1037.94
1036.554	1036.36
1036.842	1032.97
1037.129	1038.62
1037.417	1028
1037.704	1028
1037.992	983.7
1038.279	1011.72
1038.566	985.28
1038.853	985.28
1039.14	985.28
