Data from hue_90_FLMS001491_92.txt Node
Date: Mon Feb 06 15:25:56 GMT 2017
User: dcchb
Spectrometer: FLMS00149
Trigger mode: 0
Integration Time (sec): 2.000000E-2
Scans to average: 10
Electric dark correction enabled: true
Nonlinearity correction enabled: false
Boxcar width: 0
XAxis mode: Wavelengths
Number of Pixels in Spectrum: 2048
>>>>>Begin Spectral Data<<<<<
341.393	-13.8
341.776	-13.8
342.16	-13.8
342.543	-72.78
342.927	-81.82
343.31	-57.41
343.693	-66.23
344.077	-60.35
344.46	-67.13
344.843	-52.44
345.226	-44.08
345.61	-35.49
345.993	-19.22
346.376	-19.22
346.759	11.74
347.142	27.33
347.525	49.93
347.908	63.71
348.291	84.73
348.674	87.67
349.057	96.48
349.44	133.54
349.823	143.71
350.206	162.24
350.588	194.11
350.971	207.89
351.354	217.83
351.737	224.61
352.119	239.53
352.502	271.62
352.884	254.44
353.267	279.3
353.65	291.28
354.032	271.84
354.414	305.06
354.797	316.59
355.179	315.01
355.562	322.01
355.944	333.31
356.326	327.89
356.709	337.83
357.091	331.73
357.473	329.47
357.855	351.84
358.238	333.76
358.62	320.88
359.002	337.83
359.384	315.23
359.766	348.68
360.148	331.28
360.53	322.92
360.912	337.38
361.294	325.18
361.676	335.57
362.057	342.12
362.439	340.32
362.821	333.31
363.203	313.42
363.584	324.5
363.966	312.29
364.348	339.19
364.729	306.87
365.111	298.06
365.493	321.79
365.874	301.9
366.256	302.12
366.637	311.84
367.019	324.27
367.4	315.68
367.781	305.74
368.163	288.34
368.544	319.07
368.925	309.81
369.306	314.33
369.688	331.73
370.069	317.04
370.45	320.43
370.831	324.5
371.212	323.37
371.593	315.01
371.974	317.94
372.355	316.36
372.736	313.42
373.117	307.1
373.498	307.32
373.879	296.48
374.26	308.45
374.641	338.28
375.021	314.33
375.402	318.62
375.783	312.97
376.163	342.58
376.544	324.95
376.925	336.25
377.305	323.37
377.686	338.96
378.066	336.02
378.447	307.1
378.827	325.4
379.208	320.66
379.588	329.69
379.968	329.24
380.349	333.99
380.729	323.14
381.109	328.56
381.489	324.72
381.87	329.69
382.25	327.21
382.63	337.83
383.01	335.8
383.39	358.85
383.77	355.23
384.15	343.25
384.53	359.3
384.91	343.71
385.29	327.66
385.67	332.18
386.049	341.45
386.429	354.33
386.809	356.81
387.189	331.05
387.568	340.99
387.948	341.9
388.328	352.52
388.707	338.96
389.087	353.87
389.466	356.13
389.846	345.29
390.225	362.46
390.605	352.29
390.984	352.74
391.363	358.39
391.743	391.61
392.122	362.01
392.501	365.63
392.881	382.12
393.26	369.24
393.639	362.01
394.018	373.08
394.397	383.48
394.776	371.28
395.155	370.6
395.534	373.08
395.913	364.27
396.292	370.37
396.671	381.9
397.05	365.63
397.429	373.31
397.808	395.23
398.186	393.87
398.565	387.55
398.944	391.39
399.323	383.7
399.701	404.27
400.08	397.49
400.458	407.21
400.837	425.96
401.215	419.18
401.594	400.2
401.972	380.31
402.351	399.75
402.729	398.17
403.107	398.17
403.486	385.51
403.864	416.92
404.242	426.64
404.62	413.08
404.999	398.17
405.377	410.14
405.755	430.26
406.133	417.15
406.511	424.83
406.889	440.65
407.267	434.32
407.645	439.3
408.023	449.01
408.401	428.45
408.779	445.4
409.156	432.74
409.534	449.01
409.912	443.82
410.29	457.15
410.667	445.4
411.045	484.94
411.422	460.09
411.8	461.44
412.178	465.06
412.555	464.38
412.933	469.8
413.31	468.67
413.687	472.74
414.065	507.32
414.442	482.91
414.819	507.54
415.197	497.83
415.574	518.16
415.951	496.02
416.328	507.09
416.705	507.32
417.082	493.08
417.46	499.63
417.837	518.84
418.214	515.68
418.591	508.22
418.967	504.61
419.344	515.45
419.721	525.62
420.098	497.15
420.475	529.01
420.852	523.36
421.228	526.07
421.605	513.64
421.982	547.32
422.358	530.82
422.735	528.33
423.111	542.12
423.488	553.87
423.864	555.23
424.241	566.3
424.617	569.01
424.994	556.13
425.37	546.86
425.746	574.43
426.123	587.54
426.499	552.06
426.875	550.71
427.251	587.99
427.627	597.94
428.003	601.55
428.379	599.74
428.756	607.2
429.132	611.72
429.507	618.95
429.883	619.4
430.259	611.72
430.635	619.63
431.011	619.63
431.387	632.74
431.763	643.36
432.138	638.61
432.514	664.38
432.89	664.83
433.265	677.71
433.641	661.89
434.016	677.71
434.392	678.84
434.767	697.82
435.143	679.74
435.518	715.22
435.894	688.33
436.269	701.89
436.644	727.42
437.02	703.24
437.395	713.64
437.77	737.59
438.145	735.11
438.52	748.21
438.895	750.25
439.271	760.64
439.646	759.74
440.021	767.42
440.395	777.59
440.77	760.87
441.145	775.56
441.52	759.29
441.895	773.3
442.27	804.48
442.645	799.06
443.019	816.24
443.394	787.76
443.769	799.06
444.143	803.81
444.518	800.64
444.892	807.87
445.267	820.98
445.641	810.59
446.016	822.11
446.39	818.95
446.764	815.78
447.139	847.2
447.513	871.83
447.887	860.53
448.262	877.02
448.636	863.69
449.01	864.14
449.384	882.45
449.758	882.22
450.132	903.46
450.506	902.79
450.88	906.4
451.254	922.67
451.628	934.42
452.002	923.58
452.376	903.46
452.75	928.32
453.123	960.41
453.497	967.87
453.871	967.42
454.244	980.3
454.618	981.65
454.992	1021.43
455.365	987.53
455.739	1013.97
456.112	1046.51
456.486	1036.57
456.859	1051.03
457.232	1058.72
457.606	1053.29
457.979	1066.4
458.352	1091.26
458.725	1123.8
459.099	1118.15
459.472	1134.87
459.845	1151.37
460.218	1152.27
460.591	1153.85
460.964	1180.52
461.337	1199.5
461.71	1227.98
462.083	1250.57
462.456	1234.98
462.829	1243.79
463.201	1270.91
463.574	1278.37
463.947	1300.29
464.32	1311.14
464.692	1347.75
465.065	1345.26
465.438	1354.3
465.81	1407.63
466.183	1433.39
466.555	1410.8
466.928	1432.94
467.3	1466.61
467.672	1473.39
468.045	1535.09
468.417	1538.02
468.789	1536.44
469.161	1554.3
469.534	1589.1
469.906	1631.81
470.278	1684.24
470.65	1670
471.022	1703.67
471.394	1728.53
471.766	1779.15
472.138	1776.44
472.51	1841.97
472.882	1869.77
473.253	1908.18
473.625	1963.32
473.997	1974.62
474.369	2021.85
474.74	2067.05
475.112	2115.41
475.484	2135.52
475.855	2233.15
476.227	2251.45
476.598	2329.19
476.97	2333.94
477.341	2388.17
477.713	2447.61
478.084	2508.62
478.455	2572.12
478.827	2639.69
479.198	2735.06
479.569	2755.85
479.94	2859.12
480.311	2944.32
480.682	3028.83
481.053	3132.11
481.424	3213.91
481.795	3248.71
482.166	3372.33
482.537	3414.13
482.908	3523.96
483.279	3595.37
483.65	3684.41
484.021	3800.11
484.391	3880.34
484.762	3957.85
485.133	4010.5
485.503	4142.25
485.874	4309.25
486.244	4316.71
486.615	4486.42
486.985	4580.43
487.356	4769.35
487.726	4824.27
488.097	4965.73
488.467	5026.52
488.837	5219.51
489.207	5323.46
489.578	5425.38
489.948	5585.38
490.318	5723.68
490.688	5794.86
491.058	5878.93
491.428	6078.02
491.798	6170.45
492.168	6297.45
492.538	6413.83
492.908	6576.76
493.278	6669.19
493.648	6757.32
494.017	6890.65
494.387	7061.04
494.757	7156.41
495.126	7369.06
495.496	7370.19
495.866	7419
496.235	7592.1
496.605	7764.08
496.974	7781.93
497.344	7931.08
497.713	8064.41
498.082	8143.5
498.452	8322.03
498.821	8354.57
499.19	8464.4
499.559	8562.25
499.928	8713.66
500.298	8762.47
500.667	8891.28
501.036	8912.52
501.405	9019.86
501.774	9064.38
502.143	9182.57
502.512	9291.72
502.88	9458.49
503.249	9476.8
503.618	9529.9
503.987	9596.34
504.356	9655.78
504.724	9757.47
505.093	9845.38
505.462	9853.51
505.83	9994.3
506.199	10104.8
506.567	10223.67
506.936	10164.01
507.304	10274.74
507.672	10361.3
508.041	10386.61
508.409	10436.32
508.777	10562.65
509.145	10743.88
509.514	10615.3
509.882	10708.18
510.25	10820.49
510.618	10864.33
510.986	10924.22
511.354	10978.91
511.722	11031.33
512.09	11147.49
512.458	11100.94
512.826	11157.21
513.193	11351.78
513.561	11305.45
513.929	11338.67
514.297	11389.29
514.664	11540.7
515.032	11494.37
515.4	11523.52
515.767	11639.91
516.135	11600.58
516.502	11617.31
516.869	11755.16
517.237	11758.32
517.604	11749.96
517.972	11882.84
518.339	11897.53
518.706	11752.22
519.073	11952.89
519.44	11999.22
519.808	12023.62
520.175	11973.23
520.542	12198.31
520.909	12130.74
521.276	12080.35
521.643	12202.15
522.009	12264.07
522.376	12326.22
522.743	12396.95
523.11	12403.28
523.477	12492.54
523.843	12586.77
524.21	12571.63
524.577	12629.26
524.943	12581.58
525.31	12613.21
525.676	12704.28
526.043	12770.27
526.409	12676.94
526.776	12787.67
527.142	12770.95
527.508	12842.81
527.874	12946.09
528.241	12882.13
528.607	12841.68
528.973	13006.42
529.339	12910.15
529.705	13035.58
530.071	13070.15
530.437	12965.75
530.803	13093.65
531.169	13066.08
531.535	12963.94
531.901	13062.47
532.267	12927.1
532.632	12993.99
532.998	13026.99
533.364	13012.75
533.73	12988.8
534.095	13041
534.461	13080.55
534.826	13131.39
535.192	13065.86
535.557	13161.9
535.923	13008.91
536.288	13041.22
536.653	12997.61
537.019	12900.89
537.384	13021.79
537.749	13000.1
538.114	12995.58
538.479	12872.19
538.845	12952.41
539.21	12840.55
539.575	12898.86
539.94	12870.38
540.305	12835.81
540.67	12793.32
541.034	12806.88
541.399	12795.13
541.764	12815.47
542.129	12737.96
542.494	12771.4
542.858	12718.75
543.223	12679.2
543.587	12684.62
543.952	12799.42
544.316	12574.12
544.681	12573.21
545.045	12612.31
545.41	12559.43
545.774	12588.58
546.138	12552.88
546.503	12465.87
546.867	12426.78
547.231	12446.89
547.595	12452.77
547.959	12481.01
548.324	12456.61
548.688	12368.47
549.052	12325.54
549.416	12323.05
549.779	12315.82
550.143	12348.14
550.507	12300.68
550.871	12278.76
551.235	12218.65
551.599	12332.09
551.962	12255.93
552.326	12206.67
552.689	12298.87
553.053	12161.25
553.417	12159.67
553.78	12217.29
554.143	12156.05
554.507	12119.67
554.87	12124.19
555.234	12191.3
555.597	12074.02
555.96	12032.44
556.323	12174.13
556.686	12067.92
557.05	12088.03
557.413	12109.95
557.776	12064.3
558.139	12169.84
558.502	12032.66
558.865	12050.52
559.228	12119.44
559.59	12128.48
559.953	12069.73
560.316	12175.94
560.679	12121.25
561.041	12135.26
561.404	12074.02
561.767	12188.14
562.129	12018.2
562.492	12147.46
562.854	12123.73
563.217	12163.06
563.579	12168.03
563.941	12185.2
564.304	12248.48
564.666	12249.61
565.028	12221.36
565.39	12258.87
565.753	12221.36
566.115	12296.84
566.477	12334.8
566.839	12292.54
567.201	12412.77
567.563	12347.01
567.925	12341.36
568.287	12357.85
568.648	12358.76
569.01	12438.75
569.372	12424.52
569.734	12366.44
570.095	12495.7
570.457	12516.72
570.819	12438.08
571.18	12520.79
571.542	12547
571.903	12525.08
572.265	12540.9
572.626	12525.31
572.987	12541.8
573.349	12624.96
573.71	12634.23
574.071	12606.43
574.432	12621.8
574.794	12702.02
575.155	12717.84
575.516	12643.04
575.877	12624.96
576.238	12627
576.599	12643.04
576.96	12721.01
577.32	12722.82
577.681	12695.92
578.042	12751.97
578.403	12714.45
578.763	12760.33
579.124	12758.52
579.485	12806.65
579.845	12821.8
580.206	12810.95
580.566	12680.56
580.927	12700.44
581.287	12773.21
581.648	12717.62
582.008	12858.63
582.368	12710.39
582.728	12729.82
583.089	12727.33
583.449	12750.61
583.809	12730.5
584.169	12755.13
584.529	12664.74
584.889	12824.51
585.249	12605.53
585.609	12625.42
585.969	12816.37
586.329	12705.19
586.688	12641.01
587.048	12764.4
587.408	12642.59
587.768	12661.57
588.127	12666.09
588.487	12666.09
588.846	12752.19
589.206	12592.65
589.565	12605.08
589.925	12618.19
590.284	12571.18
590.643	12652.99
591.003	12635.13
591.362	12685.53
591.721	12593.1
592.08	12626.55
592.44	12599.65
592.799	12582.03
593.158	12551.75
593.517	12608.69
593.876	12578.41
594.235	12524.4
594.593	12498.19
594.952	12499.32
595.311	12564.63
595.67	12565.98
596.029	12622.48
596.387	12567.57
596.746	12615.25
597.104	12548.81
597.463	12531.86
597.822	12591.75
598.18	12533.44
598.538	12507.91
598.897	12574.57
599.255	12464.52
599.613	12672.65
599.972	12561.69
600.33	12574.34
600.688	12507.68
601.046	12553.33
601.404	12570.73
601.762	12559.43
602.12	12556.94
602.478	12584.51
602.836	12605.53
603.194	12530.5
603.552	12584.74
603.91	12499.09
604.268	12574.57
604.625	12444.63
604.983	12558.53
605.341	12533.67
605.698	12516.04
606.056	12525.53
606.413	12524.63
606.771	12553.55
607.128	12558.3
607.485	12530.73
607.843	12536.15
608.2	12596.49
608.557	12605.53
608.914	12594.46
609.272	12658.41
609.629	12622.03
609.986	12619.99
610.343	12608.92
610.7	12752.42
611.057	12691.18
611.414	12720.1
611.771	12754
612.127	12760.33
612.484	12698.64
612.841	12728.24
613.198	12697.05
613.554	12736.15
613.911	12765.98
614.267	12723.95
614.624	12749.71
614.98	12837.61
615.337	12846.2
615.693	12799.65
616.05	12800.1
616.406	12846.2
616.762	12770.5
617.118	12862.25
617.475	12828.12
617.831	12906.31
618.187	12896.37
618.543	12866.54
618.899	12929.82
619.255	12952.64
619.611	12919.87
619.967	12996.03
620.323	12989.02
620.678	12864.51
621.034	12916.48
621.39	12860.89
621.746	12917.16
622.101	13119.19
622.457	12952.19
622.812	12934.79
623.168	12917.16
623.523	13027.44
623.879	12972.07
624.234	12943.6
624.589	12949.25
624.945	12866.54
625.3	13019.98
625.655	13000.77
626.01	12974.11
626.365	12968.46
626.72	12929.59
627.075	12958.29
627.43	12958.06
627.785	12942.02
628.14	12915.35
628.495	12834
628.85	12888.91
629.205	12866.09
629.559	12905.86
629.914	12882.81
630.269	12860.89
630.623	12807.56
630.978	12747
631.332	12914.45
631.687	12809.59
632.041	12757.16
632.396	12759.2
632.75	12747.22
633.104	12735.24
633.459	12714.91
633.813	12713.55
634.167	12636.26
634.521	12679.88
634.875	12687.79
635.229	12685.53
635.583	12595.36
635.937	12628.58
636.291	12639.2
636.645	12646.88
636.999	12590.16
637.352	12615.02
637.706	12584.97
638.06	12617.51
638.413	12587.68
638.767	12545.19
639.121	12552.42
639.474	12509.49
639.828	12483.73
640.181	12552.88
640.534	12450.51
640.888	12457.96
641.241	12385.42
641.594	12447.12
641.947	12405.31
642.301	12414.12
642.654	12390.39
643.007	12433.78
643.36	12347.01
643.713	12382.26
644.066	12453.9
644.419	12310.85
644.771	12288.7
645.124	12072.89
645.477	12212.77
645.83	12035.83
646.182	11997.41
646.535	11945.66
646.888	12001.7
647.24	11919.9
647.593	12055.04
647.945	11981.37
648.298	11913.34
648.65	11881.03
649.002	11893.91
649.355	11946.34
649.707	11908.83
650.059	11926.9
650.411	12081.93
650.763	12102.04
651.115	12212.55
651.467	12259.32
651.819	12242.83
652.171	12246.22
652.523	12272.43
652.875	12223.62
653.227	12131.87
653.578	12210.29
653.93	12154.02
654.282	12134.13
654.633	12176.84
654.985	12193.11
655.337	12165.77
655.688	12177.07
656.039	12203.05
656.391	12131.42
656.742	12117.63
657.094	12218.65
657.445	12111.76
657.796	12207.35
658.147	12154.92
658.498	12194.92
658.849	12221.36
659.2	12194.02
659.551	12151.98
659.902	12121.7
660.253	12158.54
660.604	12091.42
660.955	12111.98
661.306	12207.12
661.656	12166.22
662.007	12150.85
662.358	12120.57
662.708	12199.44
663.059	12111.08
663.409	12130.74
663.76	12169.38
664.11	12201.92
664.461	12255.03
664.811	12193.56
665.161	12196.73
665.511	12181.81
665.862	12255.26
666.212	12252.09
666.562	12217.29
666.912	12239.21
667.262	12250.29
667.612	12249.61
667.962	12220.23
668.312	12245.31
668.662	12253.22
669.011	12246.9
669.361	12250.06
669.711	12266.56
670.06	12176.84
670.41	12180
670.76	12179.33
671.109	12211.19
671.459	12147.46
671.808	12185.2
672.157	12169.38
672.507	12109.5
672.856	12126.22
673.205	12178.87
673.554	12095.94
673.904	12026.79
674.253	12149.27
674.602	12065.66
674.951	11964.19
675.3	11932.33
675.649	12029.27
675.998	11994.47
676.346	12032.44
676.695	12062.72
677.044	11993.79
677.393	11977.07
677.741	11895.04
678.09	11912.22
678.438	11923.06
678.787	11937.53
679.135	11928.49
679.484	11864.31
679.832	11942.27
680.181	11850.75
680.529	11852.78
680.877	11884.65
681.225	11818.21
681.573	11841.26
681.922	11742.5
682.27	11749.06
682.618	11790.41
682.966	11704.76
683.314	11711.77
683.661	11774.82
684.009	11574.37
684.357	11640.58
684.705	11572.56
685.053	11605.56
685.4	11515.84
685.748	11535.95
686.095	11494.37
686.443	11461.15
686.79	11446.69
687.138	11467.03
687.485	11488.05
687.832	11440.36
688.18	11384.09
688.527	11253.93
688.874	11260.03
689.221	11292.8
689.568	11159.92
689.915	11233.36
690.262	11243.98
690.609	11140.94
690.956	11142.74
691.303	11146.36
691.65	10961.96
691.997	11044.22
692.344	10999.47
692.69	10942.3
693.037	10913.82
693.383	10874.05
693.73	10920.6
694.077	10867.72
694.423	10823.2
694.769	10786.59
695.116	10747.73
695.462	10739.36
695.808	10679.48
696.155	10663.89
696.501	10523.32
696.847	10619.59
697.193	10474.06
697.539	10567.62
697.885	10404.46
698.231	10347.51
698.577	10368.98
698.923	10391.8
699.269	10280.62
699.614	10243.11
699.96	10308.19
700.306	10225.71
700.651	10138.02
700.997	10055.77
701.342	10099.83
701.688	10094.86
702.033	10013.28
702.379	9974.41
702.724	10021.42
703.069	9999.27
703.415	9904.58
703.76	9837.92
704.105	9855.32
704.45	9820.29
704.795	9763.12
705.14	9665.04
705.485	9671.37
705.83	9691.71
706.175	9680.18
706.52	9653.29
706.865	9562.9
707.209	9592.5
707.554	9561.54
707.899	9577.59
708.243	9594.76
708.588	9481.77
708.932	9442.9
709.277	9418.04
709.621	9404.26
709.966	9404.03
710.31	9408.1
710.654	9281.32
710.998	9355.22
711.342	9246.97
711.687	9200.2
712.031	9247.2
712.375	9233.64
712.719	9239.74
713.063	9249.91
713.407	9237.48
713.75	9132.4
714.094	9082.01
714.438	9055.79
714.782	9115
715.125	8982.12
715.469	9068.67
715.812	9016.02
716.156	8943.03
716.499	8963.14
716.843	9018.28
717.186	8943.93
717.53	8937.38
717.873	9035.91
718.216	8947.77
718.559	8905.74
718.902	8855.35
719.246	8900.99
719.589	8924.27
719.932	8823.71
720.275	8817.83
720.617	8793.2
720.96	8786.2
721.303	8795.23
721.646	8821
721.989	8758.85
722.331	8759.53
722.674	8738.06
723.016	8736.48
723.359	8748.91
723.701	8795.69
724.044	8729.7
724.386	8631.85
724.729	8734.9
725.071	8648.57
725.413	8727.67
725.755	8657.39
726.097	8642.24
726.439	8668.23
726.782	8660.1
727.124	8665.75
727.465	8595.69
727.807	8618.74
728.149	8576.71
728.491	8556.37
728.833	8577.61
729.175	8586.88
729.516	8582.81
729.858	8527.45
730.199	8590.95
730.541	8561.12
730.882	8570.61
731.224	8643.83
731.565	8545.52
731.906	8451.97
732.248	8564.28
732.589	8486.54
732.93	8489.48
733.271	8456.26
733.612	8480.89
733.953	8548.01
734.294	8535.58
734.635	8517.95
734.976	8493.32
735.317	8480.67
735.658	8472.31
735.999	8507.11
736.339	8501.68
736.68	8546.65
737.021	8512.3
737.361	8449.26
737.702	8588.46
738.042	8463.27
738.383	8522.25
738.723	8554.56
739.063	8524.96
739.404	8498.75
739.744	8531.96
740.084	8568.35
740.424	8568.57
740.764	8525.64
741.104	8607.67
741.444	8564.73
741.784	8577.84
742.124	8619.19
742.464	8627.33
742.804	8608.12
743.143	8632.3
743.483	8699.87
743.823	8675.01
744.162	8666.42
744.502	8705.75
744.841	8767.89
745.181	8775.35
745.52	8806.53
745.86	8844.05
746.199	8848.34
746.538	8864.39
746.877	8964.04
747.216	8971.28
747.556	8960.88
747.895	8998.17
748.234	9019.18
748.573	9049.47
748.911	9163.59
749.25	9229.12
749.589	9199.74
749.928	9322.23
750.267	9348.67
750.605	9408.33
750.944	9393.19
751.283	9398.83
751.621	9590.69
751.96	9545.27
752.298	9657.59
752.636	9787.07
752.975	9885.6
753.313	9856
753.651	9967.18
753.989	10095.31
754.327	10122.21
754.666	10217.34
755.004	10346.38
755.342	10509.54
755.679	10624.11
756.017	10642.19
756.355	10827.05
756.693	10859.81
757.031	11011.22
757.368	11095.06
757.706	11255.74
758.044	11289.63
758.381	11485.56
758.719	11609.4
759.056	11777.76
759.394	11886.68
759.731	11878.54
760.068	12070.18
760.405	12241.25
760.743	12394.91
761.08	12517.17
761.417	12669.26
761.754	12800.33
762.091	12786.54
762.428	12982.24
762.765	13075.57
763.102	13322.8
763.438	13361.89
763.775	13429.69
764.112	13700.42
764.449	13863.12
764.785	14034.19
765.122	13944.25
765.458	14047.3
765.795	14231.7
766.131	14437.57
766.467	14444.58
766.804	14581.75
767.14	14712.37
767.476	14779.94
767.812	14930.67
768.148	15008.86
768.485	15078.23
768.821	15228.74
769.157	15237.78
769.492	15451.56
769.828	15454.04
770.164	15482.29
770.5	15596.41
770.836	15822.17
771.171	15755.5
771.507	15874.37
771.842	15830.76
772.178	15974.71
772.513	16094.03
772.849	16148.26
773.184	16128.15
773.519	16222.38
773.855	16306.68
774.19	16287.92
774.525	16402.04
774.86	16465.32
775.195	16529.95
775.53	16453.11
775.865	16467.12
776.2	16464.19
776.535	16468.71
776.87	16630.28
777.205	16605.65
777.539	16654.69
777.874	16773.33
778.209	16656.27
778.543	16636.84
778.878	16585.09
779.212	16682.26
779.547	16740.56
779.881	16751.41
780.215	16745.31
780.55	16772.43
780.884	16687.68
781.218	16726.78
781.552	16724.52
781.886	16724.97
782.22	16772.2
782.554	16640.9
782.888	16671.41
783.222	16641.58
783.556	16575.37
783.889	16546.9
784.223	16458.54
784.557	16516.39
784.89	16565.43
785.224	16533.34
785.557	16464.86
785.891	16432.55
786.224	16479.55
786.558	16510.29
786.891	16424.41
787.224	16429.16
787.557	16367.01
787.891	16322.27
788.224	16333.34
788.557	16388.93
788.89	16408.82
789.223	16439.33
789.556	16209.73
789.888	16241.14
790.221	16222.84
790.554	16160.69
790.887	16157.08
791.219	16092.67
791.552	16065.33
791.884	16076.85
792.217	15974.03
792.549	15950.75
792.882	15958.66
793.214	15800.47
793.546	15917.08
793.879	15736.97
794.211	15683.42
794.543	15803.41
794.875	15753.47
795.207	15795.05
795.539	15745.79
795.871	15765.45
796.203	15549.41
796.535	15543.08
796.867	15464.89
797.198	15430.31
797.53	15501.73
797.862	15416.08
798.193	15427.6
798.525	15344.89
798.856	15336.76
799.188	15200.04
799.519	15251.11
799.85	15104.67
800.182	15148.51
800.513	15126.59
800.844	14995.75
801.175	15120.94
801.506	15033.04
801.837	14947.39
802.168	14966.37
802.499	14836.43
802.83	14820.84
803.161	14794.63
803.491	14885.92
803.822	14895.41
804.153	14720.28
804.483	14632.82
804.814	14602.09
805.145	14615.42
805.475	14647.06
805.805	14592.82
806.136	14527.51
806.466	14546.04
806.796	14584.91
807.126	14405.93
807.457	14400.74
807.787	14399.61
808.117	14277.8
808.447	14309.89
808.777	14263.34
809.107	14282.32
809.436	14216.79
809.766	14241.19
810.096	14188.77
810.426	14139.5
810.755	14220.18
811.085	14165.26
811.414	14001.43
811.744	13998.04
812.073	13958.71
812.403	13970.92
812.732	13831.03
813.061	13840.07
813.39	13822
813.719	13802.11
814.049	13863.58
814.378	13823.13
814.707	13723.01
815.036	13703.35
815.365	13596.92
815.693	13563.25
816.022	13580.19
816.351	13541.1
816.68	13487.31
817.008	13434.89
817.337	13366.19
817.665	13328.22
817.994	13357.83
818.322	13366.19
818.651	13347.88
818.979	13264.72
819.307	13389.24
819.636	13360.99
819.964	13233.54
820.292	13295
820.62	13274.67
820.948	13196.7
821.276	13249.58
821.604	13147.66
821.932	13244.61
822.259	13211.84
822.587	13245.74
822.915	13233.08
823.243	13223.14
823.57	13191.5
823.898	13183.59
824.225	13156.25
824.553	13136.14
824.88	13247.32
825.207	13268.34
825.535	13162.35
825.862	13137.27
826.189	13261.33
826.516	13185.85
826.843	13304.27
827.17	13213.88
827.497	13301.78
827.824	13316.47
828.151	13289.58
828.478	13274.21
828.805	13355.34
829.131	13125.29
829.458	13185.18
829.785	13124.84
830.111	13201.45
830.438	13279.86
830.764	13202.12
831.09	13202.8
831.417	13165.97
831.743	13152.18
832.069	13208
832.395	13178.62
832.722	13250.48
833.048	13129.13
833.374	13186.98
833.7	13095.46
834.026	13054.11
834.351	13154.67
834.677	13058.63
835.003	13165.97
835.329	13130.49
835.654	13010.94
835.98	12970.72
836.306	13066.31
836.631	12982.47
836.956	13036.71
837.282	12989.93
837.607	12852.08
837.932	12908.35
838.258	12946.76
838.583	12933.21
838.908	12873.32
839.233	12854.79
839.558	12824.73
839.883	12801.46
840.208	12771.63
840.533	12786.54
840.858	12727.56
841.182	12804.85
841.507	12684.85
841.832	12744.06
842.156	12634.68
842.481	12648.24
842.805	12632.87
843.13	12559.88
843.454	12527.79
843.778	12516.94
844.103	12502.48
844.427	12407.57
844.751	12500.45
845.075	12416.16
845.399	12382.49
845.723	12283.05
846.047	12325.09
846.371	12307.91
846.695	12252.55
847.019	12137.75
847.343	12055.49
847.666	12036.28
847.99	12064.75
848.313	12019.56
848.637	11871.54
848.96	11879
849.284	11830.18
849.607	11790.18
849.931	11768.49
850.254	11720.36
850.577	11604.2
850.9	11565.78
851.223	11561.49
851.546	11509.97
851.869	11431.55
852.192	11496.86
852.515	11331.21
852.838	11286.24
853.161	11358.78
853.483	11249.63
853.806	11156.75
854.129	11221.84
854.451	11125.57
854.774	11074.5
855.096	11079.92
855.419	11056.42
855.741	10989.53
856.063	10973.93
856.385	10968.06
856.708	10903.88
857.03	10885.12
857.352	10912.02
857.674	10790.66
857.996	10762.19
858.318	10699.82
858.64	10715.64
858.961	10656.65
859.283	10648.97
859.605	10620.72
859.926	10581.4
860.248	10574.62
860.57	10536.21
860.891	10560.16
861.212	10461.86
861.534	10491.91
861.855	10424.8
862.176	10473.16
862.498	10395.87
862.819	10467.73
863.14	10316.55
863.461	10318.81
863.782	10326.49
864.103	10295.76
864.424	10278.36
864.745	10297.12
865.065	10219.6
865.386	10135.31
865.707	10162.2
866.027	10183.22
866.348	10153.39
866.668	10213.73
866.989	10136.67
867.309	10016.9
867.63	10087.18
867.95	10070.91
868.27	9981.64
868.59	10051.02
868.91	9990.68
869.23	10035.65
869.55	9964.47
869.87	10024.36
870.19	9974.86
870.51	9958.59
870.83	9946.39
871.15	9903.68
871.469	9819.39
871.789	9866.17
872.109	9833.85
872.428	9880.86
872.748	9820.74
873.067	9807.64
873.386	9768.99
873.706	9836.34
874.025	9771.25
874.344	9808.77
874.663	9787.07
874.982	9722.67
875.301	9709.79
875.62	9713.85
875.939	9677.47
876.258	9699.62
876.577	9658.04
876.896	9634.53
877.214	9640.41
877.533	9561.99
877.852	9557.7
878.17	9554.99
878.489	9512.73
878.807	9512.05
879.125	9539.17
879.444	9494.65
879.762	9455.56
880.08	9470.7
880.398	9408.1
880.716	9404.94
881.034	9454.65
881.352	9411.94
881.67	9369.01
881.988	9357.93
882.306	9335.56
882.624	9321.1
882.941	9272.74
883.259	9258.05
883.577	9249.01
883.894	9213.53
884.212	9169.24
884.529	9204.26
884.846	9203.13
885.164	9165.17
885.481	9109.12
885.798	9094.21
886.115	9030.93
886.432	9075.68
886.75	9032.74
887.067	9100.31
887.383	8975.57
887.7	9077.49
888.017	8929.92
888.334	8978.28
888.651	8948
888.967	8880.43
889.284	8783.71
889.6	8819.41
889.917	8749.13
890.233	8752.3
890.55	8736.03
890.866	8739.87
891.182	8703.94
891.498	8715.91
891.815	8654.45
892.131	8626.88
892.447	8577.39
892.763	8577.16
893.079	8587.1
893.395	8509.37
893.71	8467.79
894.026	8484.28
894.342	8466.2
894.657	8373.78
894.973	8415.81
895.289	8399.09
895.604	8383.04
895.92	8312.54
896.235	8204.06
896.55	8205.42
896.865	8192.31
897.181	8260.56
897.496	8193.67
897.811	8109.6
898.126	8098.08
898.441	8111.41
898.756	8097.17
899.071	8040
899.386	8007.91
899.7	7980.12
900.015	7913.68
900.33	7898.54
900.644	7912.77
900.959	7915.71
901.273	7822.15
901.588	7783.96
901.902	7734.92
902.216	7761.14
902.531	7679.78
902.845	7707.81
903.159	7658.99
903.473	7594.59
903.787	7530.86
904.101	7555.27
904.415	7557.08
904.729	7523.18
905.042	7468.26
905.356	7463.52
905.67	7405.89
905.984	7440.24
906.297	7364.09
906.611	7359.11
906.924	7276.63
907.237	7327.48
907.551	7262.85
907.864	7196.63
908.177	7257.87
908.491	7178.78
908.804	7114.6
909.117	7106.01
909.43	7084.55
909.743	7039.12
910.056	6986.24
910.368	7003.19
910.681	6954.83
910.994	6943.08
911.307	6840.71
911.619	6810.88
911.932	6864.44
912.244	6785.57
912.557	6817.89
912.869	6805.46
913.181	6755.74
913.494	6752.8
913.806	6656.76
914.118	6624.67
914.43	6652.24
914.742	6545.58
915.054	6540.15
915.366	6507.16
915.678	6516.88
915.99	6472.81
916.302	6429.2
916.613	6400.95
916.925	6436.2
917.236	6400.5
917.548	6346.94
917.859	6386.26
918.171	6307.16
918.482	6315.75
918.794	6230.1
919.105	6231.46
919.416	6204.57
919.727	6200.95
920.038	6165.02
920.349	6090
920.66	6158.69
920.971	6111.69
921.282	6086.61
921.593	6036.21
921.903	6053.39
922.214	6028.08
922.525	5981.3
922.835	5963.44
923.146	5911.24
923.456	5861.53
923.767	5888.87
924.077	5859.27
924.387	5845.71
924.697	5781.53
925.008	5777.46
925.318	5786.73
925.628	5763
925.938	5743.11
926.248	5661.08
926.558	5697.01
926.867	5675.09
927.177	5663.57
927.487	5588.54
927.796	5550.35
928.106	5523
928.416	5513.74
928.725	5528.65
929.034	5504.47
929.344	5464.25
929.653	5498.82
929.962	5443.46
930.271	5407.08
930.581	5338.83
930.89	5379.05
931.199	5315.33
931.508	5345.38
931.817	5300.86
932.125	5301.54
932.434	5245.27
932.743	5216.35
933.051	5170.25
933.36	5206.85
933.669	5147.42
933.977	5129.34
934.286	5089.34
934.594	5087.99
934.902	5068.1
935.21	5039.85
935.519	5094.32
935.827	5045.5
936.135	5012.28
936.443	4988.1
936.751	4989.91
937.059	4939.97
937.367	4902.68
937.674	4930.48
937.982	4878.73
938.29	4834.66
938.597	4855.68
938.905	4760.54
939.213	4767.32
939.52	4752.18
939.827	4753.76
940.135	4718.28
940.442	4711.73
940.749	4666.08
941.056	4675.8
941.363	4674.21
941.67	4596.48
941.977	4607.77
942.284	4550.15
942.591	4570.04
942.898	4526.19
943.205	4509.02
943.511	4495.46
943.818	4489.13
944.125	4461.56
944.431	4397.61
944.738	4453.2
945.044	4446.87
945.35	4387.67
945.657	4391.73
945.963	4345.86
946.269	4345.41
946.575	4344.05
946.881	4336.6
947.187	4321.23
947.493	4258.63
947.799	4221.12
948.105	4227.45
948.41	4196.26
948.716	4221.8
949.022	4197.39
949.327	4132.31
949.633	4151.74
949.938	4101.35
950.244	4148.8
950.549	4118.52
950.854	4062.48
951.16	4030.61
951.465	4045.08
951.77	4018.86
952.075	3986.55
952.38	4006.89
952.685	3993.55
952.99	3951.97
953.294	3931.18
953.599	3910.84
953.904	3875.14
954.209	3861.35
954.513	3848.47
954.818	3846.66
955.122	3809.38
955.426	3838.98
955.731	3774.8
956.035	3762.15
956.339	3795.37
956.643	3735.03
956.948	3744.07
957.252	3718.31
957.556	3692.32
957.86	3692.09
958.163	3715.59
958.467	3707.46
958.771	3635.6
959.075	3589.5
959.378	3623.62
959.682	3637.86
959.985	3613.45
960.289	3583.85
960.592	3590.17
960.896	3547.92
961.199	3534.13
961.502	3531.87
961.805	3494.36
962.108	3463.62
962.411	3463.62
962.714	3434.92
963.017	3400.57
963.32	3427.01
963.623	3403.06
963.926	3399.22
964.228	3356.28
964.531	3362.84
964.833	3332.55
965.136	3315.6
965.438	3323.97
965.741	3316.28
966.043	3295.72
966.345	3323.51
966.648	3281.93
966.95	3232.22
967.252	3180.92
967.554	3217.3
967.856	3200.58
968.158	3188.83
968.46	3150.64
968.761	3143.63
969.063	3144.54
969.365	3139.34
969.666	3133.91
969.968	3102.5
970.269	3048.95
970.571	3097.53
970.872	3081.94
971.174	3035.16
971.475	3052.56
971.776	3037.42
972.077	3003.97
972.378	3007.59
972.679	3020.25
972.98	3001.26
973.281	2973.69
973.582	2943.64
973.883	2915.62
974.183	2933.92
974.484	2921.26
974.785	2922.85
975.085	2926.01
975.386	2863.41
975.686	2868.39
975.986	2851.66
976.287	2868.16
976.587	2801.49
976.887	2803.75
977.187	2798.56
977.487	2813.92
977.787	2790.87
978.087	2759.69
978.387	2766.92
978.687	2748.61
978.987	2758.78
979.286	2730.08
979.586	2766.24
979.885	2710.2
980.185	2702.74
980.484	2661.61
980.784	2697.54
981.083	2657.54
981.382	2621.61
981.682	2603.31
981.981	2631.56
982.28	2618.22
982.579	2583.87
982.878	2578
983.177	2560.6
983.475	2555.17
983.774	2562.4
984.073	2539.13
984.372	2519.24
984.67	2521.73
984.969	2519.02
985.267	2473.59
985.566	2460.26
985.864	2469.07
986.162	2480.15
986.461	2456.42
986.759	2418.91
987.057	2422.97
987.355	2440.83
987.653	2417.78
987.951	2373.26
988.249	2404.44
988.547	2363.31
988.844	2367.83
989.142	2334.61
989.44	2366.03
989.737	2321.73
990.035	2323.99
990.332	2276.54
990.63	2302.75
990.927	2293.71
991.224	2288.51
991.521	2274.28
991.819	2268.17
992.116	2238.35
992.413	2253.94
992.71	2221.4
993.006	2230.44
993.303	2191.79
993.6	2228.18
993.897	2179.82
994.193	2158.12
994.49	2141.17
994.787	2131
995.083	2136.43
995.379	2125.81
995.676	2138.69
995.972	2141.17
996.268	2082.42
996.565	2119.7
996.861	2088.74
997.157	2060.27
997.453	2061.63
997.749	2054.62
998.044	2049.42
998.34	2011.68
998.636	2021.85
998.932	2018.24
999.227	2019.82
999.523	1991.35
999.818	1992.7
1000.114	1957.67
1000.409	1954.96
1000.704	1919.94
1001	1938.92
1001.295	1920.61
1001.59	1901.63
1001.885	1913.83
1002.18	1907.51
1002.475	1905.47
1002.77	1910.67
1003.065	1908.41
1003.359	1866.38
1003.654	1856.89
1003.949	1845.36
1004.243	1822.31
1004.538	1787.74
1004.832	1805.59
1005.127	1811.01
1005.421	1802.65
1005.715	1771.92
1006.009	1774.4
1006.304	1750.45
1006.598	1728.75
1006.892	1715.65
1007.186	1752.03
1007.48	1734.63
1007.773	1723.1
1008.067	1714.74
1008.361	1706.61
1008.655	1667.51
1008.948	1663.22
1009.242	1683.78
1009.535	1673.39
1009.829	1646.5
1010.122	1629.55
1010.415	1630.68
1010.708	1636.55
1011.001	1591.58
1011.295	1576.67
1011.588	1596.1
1011.881	1581.64
1012.173	1585.03
1012.466	1568.53
1012.759	1571.47
1013.052	1549.78
1013.344	1543.22
1013.637	1520.85
1013.93	1518.36
1014.222	1508.65
1014.514	1525.37
1014.807	1487.18
1015.099	1527.4
1015.391	1484.47
1015.683	1465.26
1015.976	1483.11
1016.268	1462.32
1016.56	1451.47
1016.851	1448.54
1017.143	1432.94
1017.435	1437.46
1017.727	1401.98
1018.018	1407.41
1018.31	1400.85
1018.602	1393.85
1018.893	1372.38
1019.185	1383
1019.476	1361.53
1019.767	1367.86
1020.058	1333.51
1020.35	1334.64
1020.641	1327.41
1020.932	1328.54
1021.223	1301.87
1021.514	1279.95
1021.804	1292.16
1022.095	1268.2
1022.386	1238.6
1022.677	1271.59
1022.967	1255.55
1023.258	1264.59
1023.548	1231.82
1023.839	1234.08
1024.129	1230.46
1024.419	1246.05
1024.709	1220.97
1025	1189.33
1025.29	1184.14
1025.58	1189.56
1025.87	1167.41
1026.16	1177.58
1026.449	1160.63
1026.739	1150.24
1027.029	1141.65
1027.319	1147.75
1027.608	1152.95
1027.898	1110.24
1028.187	1144.36
1028.477	1120.86
1028.766	1129.9
1029.055	1105.04
1029.344	1096.68
1029.634	1077.02
1029.923	1092.61
1030.212	1069.34
1030.501	1059.85
1030.79	1068.43
1031.078	1064.14
1031.367	1073.63
1031.656	1025.72
1031.945	1036.34
1032.233	1038.6
1032.522	1028.66
1032.81	1022.11
1033.099	1026.17
1033.387	1024.59
1033.675	994.76
1033.963	993.18
1034.251	988.89
1034.54	961.32
1034.828	985.95
1035.116	964.48
1035.403	952.96
1035.691	969.45
1035.979	936.23
1036.267	950.47
1036.554	947.31
1036.842	969.23
1037.129	936.46
1037.417	910.24
1037.704	911.6
1037.992	892.62
1038.279	921.09
1038.566	903.46
1038.853	903.46
1039.14	903.46
