Data from hue_300_FLMS001491_00094.txt Node
Date: Tue Feb 07 15:51:28 GMT 2017
User: dcchb
Spectrometer: FLMS00149
Trigger mode: 0
Integration Time (sec): 2.000000E-2
Scans to average: 10
Electric dark correction enabled: true
Nonlinearity correction enabled: false
Boxcar width: 0
XAxis mode: Wavelengths
Number of Pixels in Spectrum: 2048
>>>>>Begin Spectral Data<<<<<
341.393	-7.99
341.776	-7.99
342.16	-7.99
342.543	-67.43
342.927	-80.99
343.31	-64.49
343.693	-63.81
344.077	-80.76
344.46	-67.88
344.843	-44.38
345.226	-33.3
345.61	-15.45
345.993	-3.25
346.376	-28.78
346.759	-9.35
347.142	38.56
347.525	38.78
347.908	61.16
348.291	70.42
348.674	84.43
349.057	118.1
349.44	119.91
349.823	152.45
350.206	147.93
350.588	188.38
350.971	213.47
351.354	221.38
351.737	220.47
352.119	240.81
352.502	236.52
352.884	243.3
353.267	268.38
353.65	278.78
354.032	281.49
354.414	300.92
354.797	309.96
355.179	321.49
355.562	313.35
355.944	316.52
356.326	334.82
356.709	319.23
357.091	321.71
357.473	342.96
357.855	349.06
358.238	335.05
358.62	325.78
359.002	334.6
359.384	339.79
359.766	340.92
360.148	331.21
360.53	321.49
360.912	334.14
361.294	312.45
361.676	349.28
362.057	334.14
362.439	313.35
362.821	338.89
363.203	335.73
363.584	330.98
363.966	305.22
364.348	324.65
364.729	302.51
365.111	320.36
365.493	300.25
365.874	333.92
366.256	311.32
366.637	321.04
367.019	301.38
367.4	304.99
367.781	318.32
368.163	314.26
368.544	298.89
368.925	307.03
369.306	315.84
369.688	304.31
370.069	302.05
370.45	304.09
370.831	313.58
371.212	288.72
371.593	302.96
371.974	330.75
372.355	312
372.736	314.26
373.117	313.13
373.498	323.3
373.879	313.58
374.26	321.49
374.641	299.57
375.021	318.55
375.402	329.4
375.783	319
376.163	303.18
376.544	312.9
376.925	331.88
377.305	313.58
377.686	329.62
378.066	318.55
378.447	318.1
378.827	319.91
379.208	325.56
379.588	308.83
379.968	326.91
380.349	316.74
380.729	318.32
381.109	330.75
381.489	345.67
381.87	332.11
382.25	328.27
382.63	333.69
383.01	339.57
383.39	319
383.77	334.6
384.15	317.65
384.53	329.4
384.91	345.89
385.29	362.17
385.67	343.41
386.049	331.66
386.429	338.66
386.809	352.9
387.189	334.6
387.568	330.53
387.948	354.93
388.328	360.36
388.707	347.25
389.087	366.46
389.466	333.24
389.846	343.86
390.225	326.46
390.605	359.45
390.984	362.62
391.363	363.52
391.743	373.01
392.122	352
392.501	377.53
392.881	376.4
393.26	376.4
393.639	363.97
394.018	373.69
394.397	368.95
394.776	375.05
395.155	378.66
395.534	372.56
395.913	398.55
396.292	367.59
396.671	374.59
397.05	370.53
397.429	388.83
397.808	416.18
398.186	393.35
398.565	402.39
398.944	403.07
399.323	395.16
399.701	389.51
400.08	403.97
400.458	401.03
400.837	409.85
401.215	402.39
401.594	409.4
401.972	414.82
402.351	402.16
402.729	428.6
403.107	420.92
403.486	414.37
403.864	428.38
404.242	439.23
404.62	420.92
404.999	443.97
405.377	444.2
405.755	444.2
406.133	434.25
406.511	440.81
406.889	444.2
407.267	434.25
407.645	486.68
408.023	444.42
408.401	450.52
408.779	476.74
409.156	483.52
409.534	476.06
409.912	490.98
410.29	485.33
410.667	514.03
411.045	496.85
411.422	499.56
411.8	514.7
412.178	558.32
412.555	531.2
412.933	534.36
413.31	560.13
413.687	568.49
414.065	586.34
414.442	588.15
414.819	566.91
415.197	585.66
415.574	606.45
415.951	609.39
416.328	606.68
416.705	619.56
417.082	634.02
417.46	635.15
417.837	602.16
418.214	652.78
418.591	666.56
418.967	655.72
419.344	662.04
419.721	702.95
420.098	716.96
420.475	702.27
420.852	717.64
421.228	723.29
421.605	724.87
421.982	732.78
422.358	755.15
422.735	753.34
423.111	754.02
423.488	763.51
423.864	778.43
424.241	784.53
424.617	788.82
424.994	791.76
425.37	795.15
425.746	811.65
426.123	806.9
426.499	833.57
426.875	812.78
427.251	860.23
427.627	840.8
428.003	850.29
428.379	894.58
428.756	870.4
429.132	901.81
429.507	918.76
429.883	919.21
430.259	912.21
430.635	925.77
431.011	930.96
431.387	952.66
431.763	954.69
432.138	961.92
432.514	976.39
432.89	991.08
433.265	1025.65
433.641	1018.87
434.016	1046.44
434.392	1058.64
434.767	1083.73
435.143	1068.59
435.518	1080.11
435.894	1112.2
436.269	1085.08
436.644	1108.13
437.02	1127.34
437.395	1147.91
437.77	1175.25
438.145	1158.75
438.52	1173.67
438.895	1197.4
439.271	1170.05
439.646	1206.89
440.021	1201.24
440.395	1211.86
440.77	1182.48
441.145	1213.67
441.52	1231.07
441.895	1194.46
442.27	1256.61
442.645	1227
443.019	1250.28
443.394	1283.95
443.769	1262.93
444.143	1269.49
444.518	1280.56
444.892	1271.29
445.267	1298.19
445.641	1304.29
446.016	1287.34
446.39	1318.52
446.764	1286.21
447.139	1307.9
447.513	1317.85
447.887	1286.89
448.262	1333.89
448.636	1320.78
449.01	1339.54
449.384	1333.89
449.758	1346.55
450.132	1361.46
450.506	1344.51
450.88	1373.89
451.254	1356.04
451.628	1359.65
452.002	1382.25
452.376	1393.1
452.75	1383.61
453.123	1403.04
453.497	1437.39
453.871	1404.4
454.244	1441.01
454.618	1443.49
454.992	1423.15
455.365	1440.1
455.739	1478.97
456.112	1485.75
456.486	1483.04
456.859	1494.79
457.232	1513.77
457.606	1508.58
457.979	1488.69
458.352	1529.59
458.725	1565.3
459.099	1553.55
459.472	1608.91
459.845	1583.83
460.218	1571.63
460.591	1602.58
460.964	1608.01
461.337	1637.39
461.71	1668.57
462.083	1671.74
462.456	1642.36
462.829	1651.62
463.201	1684.62
463.574	1688.01
463.947	1696.37
464.32	1751.51
464.692	1722.81
465.065	1744.05
465.438	1740.89
465.81	1766.87
466.183	1782.69
466.555	1794.67
466.928	1817.95
467.3	1795.8
467.672	1787.66
468.045	1838.51
468.417	1858.85
468.789	1828.12
469.161	1900.2
469.534	1892.07
469.906	1911.73
470.278	1955.57
470.65	1919.86
471.022	2006.42
471.394	1987.89
471.766	2016.59
472.138	2023.82
472.51	2045.96
472.882	2085.28
473.253	2101.33
473.625	2081.89
473.997	2140.65
474.369	2142.46
474.74	2159.41
475.112	2170.25
475.484	2180.2
475.855	2199.41
476.227	2198.95
476.598	2223.81
476.97	2294.77
477.341	2316.01
477.713	2317.37
478.084	2330.7
478.455	2362.56
478.827	2398.27
479.198	2414.99
479.569	2433.98
479.94	2512.84
480.311	2487.31
480.682	2510.36
481.053	2546.29
481.424	2596.68
481.795	2605.27
482.166	2637.81
482.537	2619.51
482.908	2662.22
483.279	2692.95
483.65	2707.87
484.021	2738.6
484.391	2782.44
484.762	2786.51
485.133	2793.06
485.503	2798.94
485.874	2860.86
486.244	2870.12
486.615	2939.05
486.985	2962.1
487.356	3030.12
487.726	3019.5
488.097	3035.09
488.467	3020.85
488.837	3063.79
489.207	3053.39
489.578	3157.35
489.948	3139.72
490.318	3174.3
490.688	3186.95
491.058	3192.15
491.428	3263.11
491.798	3246.61
492.168	3295.65
492.538	3318.25
492.908	3329.55
493.278	3333.84
493.648	3402.09
494.017	3409.77
494.387	3402.99
494.757	3449.32
495.126	3467.85
495.496	3415.87
495.866	3473.72
496.235	3492.48
496.605	3487.96
496.974	3530.22
497.344	3574.74
497.713	3572.7
498.082	3546.49
498.452	3647.95
498.821	3606.83
499.19	3614.28
499.559	3605.92
499.928	3649.08
500.298	3663.1
500.667	3695.64
501.036	3673.26
501.405	3702.19
501.774	3737.44
502.143	3745.58
502.512	3772.92
502.88	3760.04
503.249	3772.25
503.618	3773.6
503.987	3799.59
504.356	3825.58
504.724	3822.87
505.093	3794.17
505.462	3841.62
505.83	3836.42
506.199	3818.57
506.567	3881.4
506.936	3896.99
507.304	3895.86
507.672	3913.03
508.041	3922.3
508.409	3960.94
508.777	3952.58
509.145	3947.61
509.514	3956.65
509.882	3942.64
510.25	3988.51
510.618	4000.04
510.986	4049.98
511.354	4007.04
511.722	4091.33
512.09	4075.97
512.458	4095.63
512.826	4077.55
513.193	4062.18
513.561	4082.75
513.929	4142.18
514.297	4187.83
514.664	4115.06
515.032	4120.94
515.4	4159.35
515.767	4187.83
516.135	4127.72
516.502	4135.85
516.869	4185.79
517.237	4225.34
517.604	4151.44
517.972	4209.52
518.339	4259.92
518.706	4222.63
519.073	4230.99
519.44	4224.44
519.808	4260.14
520.175	4269.41
520.542	4330.2
520.909	4324.1
521.276	4298.33
521.643	4337.65
522.009	4360.03
522.376	4390.31
522.743	4407.71
523.11	4412.45
523.477	4434.6
523.843	4479.8
524.21	4491.1
524.577	4512.34
524.943	4492.68
525.31	4497.88
525.676	4566.35
526.043	4542.39
526.409	4583.07
526.776	4610.19
527.142	4667.59
527.508	4629.62
527.874	4642.96
528.241	4684.09
528.607	4697.64
528.973	4734.03
529.339	4678.66
529.705	4747.59
530.071	4753.91
530.437	4865.1
530.803	4837.3
531.169	4867.58
531.535	4826
531.901	4819
532.267	4863.97
532.632	4907.81
532.998	4911.65
533.364	4971.54
533.73	4977.19
534.095	4989.16
534.461	4976.28
534.826	5032.55
535.192	5018.99
535.557	5093.11
535.923	5052.21
536.288	5115.49
536.653	5082.49
537.019	5099.67
537.384	5160.01
537.749	5173.34
538.114	5175.82
538.479	5167.91
538.845	5230.29
539.21	5222.15
539.575	5233
539.94	5204.07
540.305	5280.68
540.67	5310.96
541.034	5257.63
541.399	5303.28
541.764	5365.42
542.129	5408.81
542.494	5382.6
542.858	5392.99
543.223	5400
543.587	5486.1
543.952	5473.9
544.316	5542.59
544.681	5524.52
545.045	5550.96
545.41	5593.67
545.774	5574.01
546.138	5565.19
546.503	5615.81
546.867	5635.93
547.231	5665.08
547.595	5697.39
547.959	5702.36
548.324	5707.11
548.688	5723.83
549.052	5728.8
549.416	5781.01
549.779	5799.31
550.143	5791.18
550.507	5844.06
550.871	5893.09
551.235	5846.32
551.599	5867.33
551.962	5907.1
552.326	5967.89
552.689	6009.25
553.053	5896.94
553.417	5964.05
553.78	5978.74
554.143	6013.09
554.507	6015.58
554.87	6012.41
555.234	6163.37
555.597	6077.27
555.96	6114.1
556.323	6113.2
556.686	6118.85
557.05	6177.61
557.413	6192.07
557.776	6139.87
558.139	6209.47
558.502	6183.03
558.865	6205.63
559.228	6295.79
559.59	6266.64
559.953	6285.4
560.316	6324.72
560.679	6293.08
561.041	6301.44
561.404	6391.84
561.767	6445.17
562.129	6431.38
562.492	6397.94
562.854	6430.71
563.217	6431.16
563.579	6427.99
563.941	6462.57
564.304	6558.84
564.666	6544.83
565.028	6461.89
565.39	6576.24
565.753	6571.72
566.115	6597.48
566.477	6623.92
566.839	6730.36
567.201	6706.18
567.563	6667.76
567.925	6680.64
568.287	6767.65
568.648	6767.87
569.01	6786.4
569.372	6829.79
569.734	6801.77
570.095	6847.87
570.457	6921.54
570.819	6958.38
571.18	6940.52
571.542	7013.29
571.903	7012.84
572.265	7112.72
572.626	7134.42
572.987	7144.81
573.349	7175.55
573.71	7166.05
574.071	7308.2
574.432	7298.48
574.794	7360.17
575.155	7443.56
575.516	7501.64
575.877	7543.22
576.238	7584.8
576.599	7750.45
576.96	7751.12
577.32	7877.9
577.681	7873.15
578.042	8030.89
578.403	8013.26
578.763	8144.56
579.124	8247.83
579.485	8314.72
579.845	8382.29
580.206	8511.78
580.566	8631.55
580.927	8736.86
581.287	8873.81
581.648	8992.67
582.008	9233.8
582.368	9343.85
582.728	9476.5
583.089	9674.46
583.449	9767.57
583.809	10004.62
584.169	10141.34
584.529	10291.85
584.889	10540.66
585.249	10723.48
585.609	10816.13
585.969	11209.56
586.329	11312.39
586.688	11489.1
587.048	11669.21
587.408	11950.34
587.768	12191.23
588.127	12456.08
588.487	12629.19
588.846	12997.31
589.206	13115.5
589.565	13375.38
589.925	13755.26
590.284	13947.12
590.643	14239.77
591.003	14518.4
591.362	14837.72
591.721	15135.56
592.08	15391.6
592.44	15642.44
592.799	15864.81
593.158	16203.78
593.517	16540.05
593.876	16810.77
594.235	17042.18
594.593	17493.69
594.952	17708.38
595.311	18018.65
595.67	18245.54
596.029	18714.45
596.387	18974.33
596.746	19260.2
597.104	19522.11
597.463	19763.01
597.822	20165.71
598.18	20290.91
598.538	20685.25
598.897	21127.27
599.255	21232.58
599.613	21742.17
599.972	21877.76
600.33	22263.06
600.688	22403.17
601.046	22787.56
601.404	23194.33
601.762	23390.94
602.12	23689.24
602.478	23907.99
602.836	24346.39
603.194	24314.08
603.552	24738.47
603.91	24803.78
604.268	25221.17
604.625	25407.61
604.983	25712.23
605.341	25902.51
605.698	26182.5
606.056	26487.35
606.413	26632.66
606.771	27064.29
607.128	27282.14
607.485	27264.96
607.843	27515.35
608.2	27828.79
608.557	28236.69
608.914	28351.26
609.272	28703.57
609.629	28953.5
609.986	29121.86
610.343	29229.88
610.7	29612.24
611.057	29701.06
611.414	29969.52
611.771	30074.6
612.127	30387.36
612.484	30427.82
612.841	30647.25
613.198	30880.69
613.554	30996.84
613.911	31338.3
614.267	31338.53
614.624	31574.68
614.98	31738.52
615.337	32172.18
615.693	32073.65
616.05	32247.43
616.406	32525.16
616.762	32427.31
617.118	32735.55
617.475	32866.4
617.831	32965.83
618.187	33100.29
618.543	33332.6
618.899	33577.56
619.255	33633.16
619.611	33745.47
619.967	33966.71
620.323	34069.08
620.678	34006.25
621.034	34053.48
621.39	34217.32
621.746	34313.59
622.101	34748.83
622.457	34610.76
622.812	34782.96
623.168	34804.65
623.523	34890.75
623.879	35178.65
624.234	34930.97
624.589	35248.03
624.945	35237.41
625.3	35350.4
625.655	35356.95
626.01	35497.29
626.365	35628.13
626.72	35520.56
627.075	35595.36
627.43	35569.38
627.785	35672.65
628.14	35805.75
628.495	35886.43
628.85	35838.52
629.205	35714.68
629.559	36104.73
629.914	35935.47
630.269	36068.35
630.623	35914.23
630.978	36076.03
631.332	36065.63
631.687	36196.25
632.041	36141.11
632.396	36200.77
632.75	36040.1
633.104	36229.47
633.459	36210.94
633.813	36181.11
634.167	36161
634.521	36240.77
634.875	36344.27
635.229	36100.66
635.583	36121.23
635.937	36215.69
636.291	36253.65
636.645	36312.18
636.999	36180.43
637.352	36296.36
637.706	36133.43
638.06	36325.97
638.413	36312.41
638.767	36152.19
639.121	36266.53
639.474	35989.93
639.828	35949.25
640.181	36268.79
640.534	36220.21
640.888	36155.57
641.241	35980.66
641.594	36104.73
641.947	36193.09
642.301	36053.66
642.654	36070.38
643.007	36107.21
643.36	36099.98
643.713	36057.5
644.066	36208.91
644.419	35959.87
644.771	35839.42
645.124	35514.24
645.477	35474.46
645.83	35291.64
646.182	35055.49
646.535	35189.27
646.888	35145.88
647.24	35020.24
647.593	35206.22
647.945	35252.32
648.298	35004.87
648.65	35069.05
649.002	34876.51
649.355	34973.23
649.707	35049.39
650.059	35183.4
650.411	35500.9
650.763	35613.44
651.115	35944.51
651.467	35818.41
651.819	35710.16
652.171	35731.41
652.523	35731.63
652.875	35681.69
653.227	35611.63
653.578	35849.82
653.93	35749.94
654.282	35579.54
654.633	35443.28
654.985	35491.41
655.337	35653.44
655.688	35677.85
656.039	35685.3
656.391	35442.83
656.742	35485.76
657.094	35586.78
657.445	35772.76
657.796	35604.4
658.147	35516.95
658.498	35507.68
658.849	35688.92
659.2	35573.9
659.551	35502.26
659.902	35697.28
660.253	35605.76
660.604	35509.94
660.955	35443.96
661.306	35641.69
661.656	35505.42
662.007	35564.18
662.358	35670.16
662.708	35549.26
663.059	35636.27
663.409	35306.11
663.76	35545.2
664.11	35444.86
664.461	35502.26
664.811	35530.73
665.161	35576.83
665.511	35511.98
665.862	35454.12
666.212	35536.83
666.562	35520.79
666.912	35384.75
667.262	35452.09
667.612	35433.79
667.962	35474.46
668.312	35361.7
668.662	35602.82
669.011	35560.34
669.361	35418.64
669.711	35333.22
670.06	35244.19
670.41	35288.03
670.76	35303.17
671.109	35386.33
671.459	35336.84
671.808	35217.75
672.157	35279.44
672.507	34995.61
672.856	35183.17
673.205	35123.74
673.554	35274.69
673.904	35042.84
674.253	35259.33
674.602	35217.75
674.951	34687.59
675.3	34681.26
675.649	35145.88
675.998	35089.16
676.346	34989.28
676.695	35155.15
677.044	34856.4
677.393	35070.41
677.741	35147.24
678.09	35010.07
678.438	34821.37
678.787	34973.23
679.135	34912.9
679.484	34674.71
679.832	34811.43
680.181	34629.97
680.529	34614.37
680.877	34775.27
681.225	34599.46
681.573	34770.3
681.922	34512
682.27	34468.61
682.618	34519.69
682.966	34438.33
683.314	34388.62
683.661	34342.29
684.009	34086.48
684.357	34099.58
684.705	34169.41
685.053	34203.99
685.4	34021.85
685.748	33971
686.095	33929.87
686.443	33787.95
686.79	33875.18
687.138	33754.73
687.485	33806.03
687.832	33629.77
688.18	33724
688.527	33480.62
688.874	33403.56
689.221	33329.66
689.568	33253.5
689.915	33215.99
690.262	33253.05
690.609	33082.89
690.956	33048.99
691.303	32992.72
691.65	32843.12
691.997	32864.81
692.344	32704.37
692.69	32692.84
693.037	32661.2
693.383	32332.17
693.73	32584.14
694.077	32313.87
694.423	32333.08
694.769	32290.37
695.116	32207.43
695.462	32005.85
695.808	32056.02
696.155	32060.99
696.501	31947.78
696.847	31839.3
697.193	31591.17
697.539	31855.35
697.885	31532.42
698.231	31506.21
698.577	31360.22
698.923	31424.63
699.269	31306.44
699.614	31050.62
699.96	31044.07
700.306	31100.79
700.651	31032.09
700.997	30800.24
701.342	30776.28
701.688	30731.54
702.033	30546.91
702.379	30661.71
702.724	30485.67
703.069	30617.87
703.415	30134.94
703.76	30231.89
704.105	30343.75
704.45	30085.23
704.795	29983.53
705.14	29798.23
705.485	29909.19
705.83	29862.18
706.175	29759.36
706.52	29634.62
706.865	29572.47
707.209	29552.13
707.554	29409.31
707.899	29415.19
708.243	29369.09
708.588	29405.92
708.932	29244.34
709.277	29045.03
709.621	29137.45
709.966	28890.68
710.31	28954.63
710.654	28861.08
710.998	28748.31
711.342	28768.2
711.687	28653.4
712.031	28528.43
712.375	28515.55
712.719	28518.94
713.063	28354.2
713.407	28530.46
713.75	28309.23
714.094	28344.25
714.438	28269.45
714.782	28351.03
715.125	28208.67
715.469	28277.59
715.812	28089.12
716.156	27888.22
716.499	27943.59
716.843	27977.03
717.186	27826.08
717.53	27968.67
717.873	27841.9
718.216	27766.64
718.559	27558.51
718.902	27455.24
719.246	27612.07
719.589	27500.89
719.932	27368.69
720.275	27306.54
720.617	27332.76
720.96	27313.1
721.303	27277.39
721.646	27324.85
721.989	27179.09
722.331	27240.1
722.674	27122.82
723.016	27133.67
723.359	27027.23
723.701	27033.78
724.044	26846.67
724.386	26698.87
724.729	27011.86
725.071	26864.52
725.413	26755.82
725.755	26696.84
726.097	26703.17
726.439	26557.64
726.782	26419.56
727.124	26636.73
727.465	26460.46
727.807	26490.97
728.149	26382.95
728.491	26412.33
728.833	26511.53
729.175	26239.45
729.516	26288.26
729.858	26276.51
730.199	26230.64
730.541	26193.35
730.882	26197.64
731.224	26155.16
731.565	26089.62
731.906	26119.68
732.248	26152.22
732.589	25921.27
732.93	25927.37
733.271	26033.13
733.612	25965.33
733.953	25974.6
734.294	25792.46
734.635	25756.07
734.976	25858.22
735.317	25732.57
735.658	25681.27
735.999	25582.29
736.339	25627.49
736.68	25778.45
737.021	25652.35
737.361	25410.77
737.702	25559.24
738.042	25511.11
738.383	25386.59
738.723	25584.78
739.063	25448.51
739.404	25382.98
739.744	25349.53
740.084	25218.46
740.424	25321.96
740.764	25250.1
741.104	25364.9
741.444	25142.53
741.784	25134.4
742.124	25222.75
742.464	25050.33
742.804	25034.96
743.143	24945.02
743.483	25071.12
743.823	24900.73
744.162	24815.99
744.502	24872.93
744.841	24818.02
745.181	24740.06
745.52	24797.23
745.86	24790.45
746.199	24751.13
746.538	24649.44
746.877	24726.04
747.216	24768.76
747.556	24742.77
747.895	24606.73
748.234	24495.99
748.573	24555.2
748.911	24571.92
749.25	24455.77
749.589	24346.17
749.928	24437.24
750.267	24483.79
750.605	24366.96
750.944	24354.08
751.283	24297.13
751.621	24329.9
751.96	24181.2
752.298	24217.13
752.636	24187.75
752.975	24135.55
753.313	24081.54
753.651	24148.21
753.989	24043.12
754.327	24093.52
754.666	23925.61
755.004	23956.57
755.342	23922.45
755.679	23929.91
756.017	23790.93
756.355	23918.38
756.693	23794.54
757.031	23797.93
757.368	23574.44
757.706	23682
758.044	23549.58
758.381	23629.58
758.719	23500.77
759.056	23501.22
759.394	23444.04
759.731	23271.17
760.068	23219.87
760.405	23255.35
760.743	23195.69
761.08	23237.95
761.417	23098.29
761.754	23023.72
762.091	22992.98
762.428	22935.58
762.765	22806.77
763.102	22941.91
763.438	22641.81
763.775	22676.38
764.112	22717.74
764.449	22715.93
764.785	22560.23
765.122	22461.7
765.458	22385.99
765.795	22438.2
766.131	22268.26
766.467	22260.57
766.804	22093.57
767.14	22070.75
767.476	21990.07
767.812	21979.22
768.148	22040.47
768.485	21829.85
768.821	21776.74
769.157	21745.56
769.492	21734.94
769.828	21692.45
770.164	21319.58
770.5	21466.02
770.836	21417.66
771.171	21321.16
771.507	21280.71
771.842	21112.13
772.178	21140.15
772.513	21015.63
772.849	20904.22
773.184	20967.5
773.519	20905.58
773.855	20729.54
774.19	20506.72
774.525	20480.73
774.86	20586.72
775.195	20667.85
775.53	20469.43
775.865	20343.11
776.2	20256.11
776.535	20106.73
776.87	20214.07
777.205	20041.2
777.539	19969.79
777.874	20061.31
778.209	19799.17
778.543	19774.54
778.878	19618.38
779.212	19659.51
779.547	19486.63
779.881	19651.6
780.215	19443.02
780.55	19523.02
780.884	19358.73
781.218	19256.58
781.552	19243.48
781.886	19218.39
782.22	19107.21
782.554	19001.22
782.888	18818.86
783.222	18712.19
783.556	18693.66
783.889	18581.35
784.223	18516.72
784.557	18448.02
784.89	18509.71
785.224	18403.95
785.557	18301.13
785.891	18259.77
786.224	18243.5
786.558	18177.97
786.891	18014.81
787.224	17978.88
787.557	17982.27
787.891	17910.18
788.224	17873.8
788.557	17772.78
788.89	17836.06
789.223	17793.12
789.556	17615.95
789.888	17623.41
790.221	17446.24
790.554	17356.3
790.887	17378.22
791.219	17255.73
791.552	17257.09
791.884	17242.17
792.217	17107.04
792.549	17131.44
792.882	16942.75
793.214	16877.66
793.546	16864.56
793.879	16803.77
794.211	16798.57
794.543	16769.87
794.875	16664.79
795.207	16825.46
795.539	16541.63
795.871	16571.91
796.203	16424.34
796.535	16297.11
796.867	16239.04
797.198	16259.6
797.53	16260.96
797.862	16143.45
798.193	16157.46
798.525	16096.89
798.856	16182.31
799.188	15876.11
799.519	15880.18
799.85	15730.12
800.182	15804.92
800.513	15803.12
800.844	15623.23
801.175	15714.08
801.506	15638.83
801.837	15573.07
802.168	15548.66
802.499	15483.12
802.83	15445.38
803.161	15366.97
803.491	15415.33
803.822	15297.14
804.153	15164.04
804.483	15165.39
804.814	15135.79
805.145	15103.92
805.475	15091.95
805.805	15000.65
806.136	15053.98
806.466	15004.94
806.796	14921.78
807.126	14830.49
807.457	14720.21
807.787	14774.44
808.117	14682.24
808.447	14637.27
808.777	14708.91
809.107	14629.14
809.436	14625.07
809.766	14606.76
810.096	14450.38
810.426	14482.7
810.755	14473.66
811.085	14450.61
811.414	14431.63
811.744	14296.49
812.073	14268.92
812.403	14226.43
812.732	14215.36
813.061	14142.82
813.39	14122.26
813.719	14055.36
814.049	14109.15
814.378	14020.11
814.707	14006.33
815.036	13920.45
815.365	13864.86
815.693	13799.55
816.022	13849.95
816.351	13720.01
816.68	13653.79
817.008	13752.77
817.337	13597.98
817.665	13542.61
817.994	13664.87
818.322	13549.62
818.651	13452.67
818.979	13511.42
819.307	13496.51
819.636	13463.52
819.964	13389.62
820.292	13462.16
820.62	13346.23
820.948	13305.78
821.276	13451.54
821.604	13245.67
821.932	13418.55
822.259	13371.99
822.587	13340.36
822.915	13273.46
823.243	13403.86
823.57	13297.87
823.898	13277.98
824.225	13243.86
824.553	13328.83
824.88	13256.97
825.207	13316.85
825.535	13225.78
825.862	13297.64
826.189	13284.76
826.516	13336.29
826.843	13411.09
827.17	13379.22
827.497	13342.84
827.824	13218.32
828.151	13366.57
828.478	13247.7
828.805	13288.38
829.131	13364.76
829.458	13281.83
829.785	13142.85
830.111	13330.64
830.438	13252.22
830.764	13254.71
831.09	13241.15
831.417	13203.64
831.743	13277.08
832.069	13248.15
832.395	13171.32
832.722	13274.14
833.048	13078.89
833.374	13198.66
833.7	13151.89
834.026	13106.92
834.351	13128.61
834.677	13109.4
835.003	13046.58
835.329	13035.5
835.654	12977.88
835.98	13027.82
836.306	13020.59
836.631	12943.98
836.956	13025.56
837.282	13076.86
837.607	12911.89
837.932	12851.33
838.258	12921.61
838.583	12851.33
838.908	12787.6
839.233	12801.61
839.558	12786.25
839.883	12732.01
840.208	12729.3
840.533	12713.93
840.858	12721.61
841.182	12747.6
841.507	12672.12
841.832	12607.95
842.156	12590.09
842.481	12536.99
842.805	12574.05
843.13	12451.34
843.454	12483.2
843.778	12499.93
844.103	12409.08
844.427	12351.45
844.751	12386.48
845.075	12315.75
845.399	12365.47
845.723	12281.17
846.047	12244.11
846.371	12236.66
846.695	12156.43
847.019	12061.97
847.343	11996.44
847.666	11939.49
847.99	11869.89
848.313	11942.88
848.637	11775.2
848.96	11808.64
849.284	11700.62
849.607	11657.01
849.931	11567.97
850.254	11631.25
850.577	11506.05
850.9	11466.73
851.223	11514.87
851.546	11356.23
851.869	11280.52
852.192	11306.51
852.515	11239.85
852.838	11156.23
853.161	11252.73
853.483	11158.49
853.806	11078.04
854.129	11093.86
854.451	10981.55
854.774	11044.6
855.096	10945.62
855.419	10920.53
855.741	10880.31
856.063	10781.33
856.385	10810.93
856.708	10833.75
857.03	10769.58
857.352	10723.93
857.674	10660.88
857.996	10656.36
858.318	10638.96
858.64	10594.66
858.961	10593.54
859.283	10509.47
859.605	10486.65
859.926	10578.62
860.248	10487.32
860.57	10342.69
860.891	10441.22
861.212	10365.07
861.534	10351.51
861.855	10291.17
862.176	10340.43
862.498	10293.43
862.819	10255.24
863.14	10300.89
863.461	10246.2
863.782	10197.61
864.103	10268.12
864.424	10134.56
864.745	10186.54
865.065	10138.18
865.386	10076.03
865.707	10023.38
866.027	10103.6
866.348	10104.28
866.668	10073.32
866.989	10089.14
867.309	10015.02
867.63	10029.71
867.95	9950.39
868.27	9887.34
868.59	9920.33
868.91	9901.58
869.23	9914.46
869.55	9893.21
869.87	9854.35
870.19	9848.47
870.51	9901.35
870.83	9872.42
871.15	9726.89
871.469	9823.39
871.789	9859.77
872.109	9766.66
872.428	9731.41
872.748	9726.67
873.067	9825.42
873.386	9680.34
873.706	9679.89
874.025	9655.25
874.344	9596.27
874.663	9622.49
874.982	9657.97
875.301	9699.32
875.62	9616.84
875.939	9601.47
876.258	9583.39
876.577	9481.7
876.896	9527.12
877.214	9491.64
877.533	9518.76
877.852	9462.72
878.17	9517.86
878.489	9486.9
878.807	9453.68
879.125	9422.04
879.444	9426.33
879.762	9374.36
880.08	9370.52
880.398	9336.17
880.716	9294.36
881.034	9307.92
881.352	9321.7
881.67	9288.26
881.988	9321.25
882.306	9272.89
882.624	9229.73
882.941	9213.23
883.259	9168.26
883.577	9175.72
883.894	9088.26
884.212	9139.56
884.529	9145.89
884.846	9058.89
885.164	9061.37
885.481	9041.71
885.798	9007.14
886.115	8987.25
886.432	8956.97
886.75	8911.55
887.067	8958.78
887.383	8820.7
887.7	8870.64
888.017	8891.66
888.334	8904.99
888.651	8858.21
888.967	8839.23
889.284	8803.3
889.6	8759.68
889.917	8660.93
890.233	8725.79
890.55	8662.51
890.866	8681.95
891.182	8664.32
891.498	8578.67
891.815	8487.83
892.131	8569.18
892.447	8450.99
892.763	8484.44
893.079	8472.46
893.395	8467.26
893.71	8417.1
894.026	8401.05
894.342	8415.74
894.657	8318.11
894.973	8241.28
895.289	8294.61
895.604	8248.06
895.92	8089.65
896.235	8122.19
896.55	8137.55
896.865	8173.49
897.181	8102.53
897.496	8156.08
897.811	8097.1
898.126	8014.62
898.441	8004
898.756	7989.08
899.071	7934.85
899.386	7970.1
899.7	7909.99
900.015	7844.23
900.33	7831.57
900.644	7812.59
900.959	7816.66
901.273	7735.76
901.588	7761.07
901.902	7739.6
902.216	7672.48
902.531	7627.74
902.845	7605.36
903.159	7585.93
903.473	7520.4
903.787	7543.45
904.101	7440.85
904.415	7537.34
904.729	7410.79
905.042	7385.71
905.356	7376.67
905.67	7314.53
905.984	7334.64
906.297	7362.89
906.611	7263.45
906.924	7230.23
907.237	7264.13
907.551	7202.21
907.864	7219.16
908.177	7183.46
908.491	7132.38
908.804	7100.07
909.117	7095.32
909.43	6993.18
909.743	7017.58
910.056	6951.37
910.368	6950.47
910.681	6955.21
910.994	6945.72
911.307	6832.05
911.619	6833.86
911.932	6880.64
912.244	6789.12
912.557	6778.04
912.869	6679.51
913.181	6694.65
913.494	6675.9
913.806	6614.88
914.118	6626.41
914.43	6577.14
914.742	6531.04
915.054	6532.85
915.366	6545.96
915.678	6510.7
915.99	6472.06
916.302	6504.15
916.613	6334.89
916.925	6380.54
917.236	6353.42
917.548	6353.65
917.859	6329.47
918.171	6284.04
918.482	6253.54
918.794	6223.03
919.105	6249.24
919.416	6169.92
919.727	6147.55
920.038	6073.43
920.349	6136.7
920.66	6042.69
920.971	6056.25
921.282	6019.42
921.593	6014.45
921.903	5963.15
922.214	5899.42
922.525	5879.99
922.835	5906.43
923.146	5855.35
923.456	5806.77
923.767	5773.55
924.077	5806.09
924.387	5816.94
924.697	5748.92
925.008	5720.67
925.318	5700.78
925.628	5704.85
925.938	5622.82
926.248	5555.93
926.558	5545.08
926.867	5568.58
927.177	5548.47
927.487	5479.55
927.796	5470.51
928.106	5503.73
928.416	5441.81
928.725	5424.41
929.034	5384.86
929.344	5399.77
929.653	5362.71
929.962	5335.59
930.271	5310.96
930.581	5319.55
930.89	5299.21
931.199	5299.44
931.508	5252.88
931.817	5247.69
932.125	5169.04
932.434	5185.99
932.743	5140.8
933.051	5124.53
933.36	5083.85
933.669	5062.38
933.977	5063.96
934.286	5067.35
934.594	5001.82
934.902	4958.43
935.21	4988.94
935.519	4950.75
935.827	4935.83
936.135	4924.53
936.443	4899.9
936.751	4865.32
937.059	4842.95
937.367	4850.64
937.674	4808.6
937.982	4832.56
938.29	4795.95
938.597	4759.56
938.905	4735.38
939.213	4697.19
939.52	4673.92
939.827	4661.71
940.135	4603.64
940.442	4619.68
940.749	4601.38
941.056	4596.63
941.363	4565.22
941.67	4537.42
941.977	4471.44
942.284	4496.07
942.591	4465.33
942.898	4437.54
943.205	4423.98
943.511	4421.95
943.818	4434.37
944.125	4404.32
944.431	4342.17
944.738	4360.93
945.044	4336.52
945.35	4310.99
945.657	4289.52
945.963	4243.19
946.269	4208.84
946.575	4274.61
946.881	4211.33
947.187	4209.97
947.493	4175.85
947.799	4161.39
948.105	4131.56
948.41	4099.47
948.716	4093.37
949.022	4064.44
949.327	4095.4
949.633	4017.44
949.938	4087.27
950.244	4030.54
950.549	3980.83
950.854	3972.92
951.16	3927.27
951.465	3957.1
951.77	3902.19
952.075	3890.89
952.38	3914.39
952.685	3886.59
952.99	3845.24
953.294	3814.5
953.599	3798.91
953.904	3807.95
954.209	3777.22
954.513	3775.86
954.818	3721.17
955.122	3734.51
955.426	3722.98
955.731	3722.08
956.035	3705.58
956.339	3718.24
956.643	3667.84
956.948	3619.03
957.252	3631.46
957.556	3592.14
957.86	3598.69
958.163	3587.84
958.467	3574.28
958.771	3562.53
959.075	3580.16
959.378	3555.3
959.682	3513.95
959.985	3499.94
960.289	3495.87
960.592	3438.24
960.896	3470.33
961.199	3452.93
961.502	3469.2
961.805	3425.14
962.108	3377.91
962.411	3363.44
962.714	3348.98
963.017	3385.36
963.32	3344.91
963.623	3334.29
963.926	3320.05
964.228	3264.69
964.531	3319.15
964.833	3305.37
965.136	3231.24
965.438	3239.15
965.741	3190.79
966.043	3274.86
966.345	3198.7
966.648	3151.7
966.95	3156.22
967.252	3137.69
967.554	3139.04
967.856	3081.42
968.158	3117.35
968.46	3108.53
968.761	3094.98
969.063	3069.21
969.365	3089.33
969.666	3021.53
969.968	3048.42
970.269	3029.67
970.571	3034.64
970.872	3004.36
971.174	2984.47
971.475	2941.98
971.776	2943.11
972.077	2945.83
972.378	2905.83
972.679	2926.17
972.98	2910.35
973.281	2894.08
973.582	2878.71
973.883	2865.38
974.183	2867.64
974.484	2840.74
974.785	2842.78
975.085	2836.68
975.386	2797.58
975.686	2785.15
975.986	2781.99
976.287	2742.22
976.587	2749.67
976.887	2750.13
977.187	2706.74
977.487	2733.63
977.787	2696.34
978.087	2707.19
978.387	2675.33
978.687	2692.5
978.987	2625.83
979.286	2631.48
979.586	2635.1
979.885	2617.7
980.185	2573.86
980.484	2598.94
980.784	2620.19
981.083	2544.03
981.382	2581.54
981.682	2536.12
981.981	2561.43
982.28	2522.56
982.579	2519.62
982.878	2525.27
983.177	2513.07
983.475	2459.29
983.774	2465.61
984.073	2454.31
984.372	2460.87
984.67	2434.2
984.969	2443.69
985.267	2432.17
985.566	2444.6
985.864	2408.44
986.162	2395.78
986.461	2393.98
986.759	2344.49
987.057	2371.83
987.355	2346.29
987.653	2325.28
987.951	2348.1
988.249	2346.97
988.547	2307.88
988.844	2318.72
989.142	2294.77
989.44	2283.25
989.737	2271.95
990.035	2250.48
990.332	2238.05
990.63	2243.02
990.927	2229.69
991.224	2231.95
991.521	2221.55
991.819	2199.86
992.116	2201.44
992.413	2185.17
992.71	2164.6
993.006	2155.79
993.303	2161.89
993.6	2172.51
993.897	2156.92
994.193	2107.66
994.49	2096.81
994.787	2067.88
995.083	2091.84
995.379	2073.99
995.676	2045.29
995.972	2075.57
996.268	2039.86
996.565	2049.13
996.861	1990.37
997.157	2022.01
997.453	2008
997.749	2000.99
998.044	1964.38
998.34	1960.99
998.636	1959.86
998.932	1934.1
999.227	1935.23
999.523	1936.59
999.818	1934.55
1000.114	1940.43
1000.409	1913.76
1000.704	1896.81
1001	1878.51
1001.295	1866.53
1001.59	1846.19
1001.885	1875.8
1002.18	1869.7
1002.475	1861.11
1002.77	1815.69
1003.065	1816.14
1003.359	1824.27
1003.654	1820.66
1003.949	1799.19
1004.243	1776.82
1004.538	1748.8
1004.832	1768
1005.127	1767.55
1005.421	1728.68
1005.715	1723.71
1006.009	1702.24
1006.304	1706.54
1006.598	1668.8
1006.892	1684.16
1007.186	1682.36
1007.48	1711.51
1007.773	1669.25
1008.067	1646.88
1008.361	1635.13
1008.655	1647.33
1008.948	1654.56
1009.242	1588.57
1009.535	1592.42
1009.829	1596.48
1010.122	1593.55
1010.415	1582.02
1010.708	1567.33
1011.001	1599.42
1011.295	1593.09
1011.588	1568.01
1011.881	1554
1012.173	1540.21
1012.466	1524.62
1012.759	1493.21
1013.052	1530.5
1013.344	1502.7
1013.637	1508.35
1013.93	1461.8
1014.222	1502.25
1014.514	1476.71
1014.807	1459.76
1015.099	1454.57
1015.391	1448.92
1015.683	1462.48
1015.976	1395.36
1016.268	1442.82
1016.56	1384.74
1016.851	1392.87
1017.143	1409.37
1017.435	1375.7
1017.727	1361.46
1018.018	1356.04
1018.31	1357.85
1018.602	1370.73
1018.893	1360.33
1019.185	1352.87
1019.476	1329.82
1019.767	1311.75
1020.058	1300.45
1020.35	1307.9
1020.641	1259.09
1020.932	1287.11
1021.223	1285.98
1021.514	1287.34
1021.804	1262.93
1022.095	1262.71
1022.386	1246.89
1022.677	1233.1
1022.967	1240.56
1023.258	1235.81
1023.548	1201.69
1023.839	1189.04
1024.129	1194.23
1024.419	1186.32
1024.709	1161.24
1025	1155.37
1025.29	1182.48
1025.58	1153.78
1025.87	1117.85
1026.16	1137.74
1026.449	1128.02
1026.739	1114.24
1027.029	1122.82
1027.319	1116.5
1027.608	1093.9
1027.898	1095.25
1028.187	1092.54
1028.477	1075.37
1028.766	1064.07
1029.055	1077.4
1029.344	1058.87
1029.634	1032.88
1029.923	1055.48
1030.212	1041.7
1030.501	1047.57
1030.79	1055.71
1031.078	1010.74
1031.367	1029.04
1031.656	1031.98
1031.945	1013.9
1032.233	1009.61
1032.522	1001.02
1032.81	946.33
1033.099	977.52
1033.387	977.52
1033.675	997.18
1033.963	966.67
1034.251	980.23
1034.54	948.14
1034.828	945.88
1035.116	940.91
1035.403	934.81
1035.691	938.87
1035.979	919.67
1036.267	908.59
1036.554	906.11
1036.842	910.85
1037.129	926.22
1037.417	897.74
1037.704	897.52
1037.992	877.86
1038.279	875.37
1038.566	865.88
1038.853	865.88
1039.14	865.88
