Data from hue_120_FLMS001491_00080.txt Node
Date: Tue Feb 07 16:59:58 GMT 2017
User: dcchb
Spectrometer: FLMS00149
Trigger mode: 0
Integration Time (sec): 2.000000E-2
Scans to average: 10
Electric dark correction enabled: true
Nonlinearity correction enabled: false
Boxcar width: 0
XAxis mode: Wavelengths
Number of Pixels in Spectrum: 2048
>>>>>Begin Spectral Data<<<<<
341.393	1.93
341.776	1.93
342.16	1.93
342.543	-71.51
342.927	-65.86
343.31	-57.95
343.693	-80.77
344.077	-54.79
344.46	-69.93
344.843	-35.35
345.226	-47.56
345.61	-24.28
345.993	-16.82
346.376	-19.31
346.759	6.45
347.142	3.97
347.525	35.61
347.908	58.43
348.291	87.13
348.674	107.02
349.057	108.15
349.44	127.36
349.823	138.2
350.206	188.37
350.588	189.95
350.971	229.95
351.354	225.21
351.737	225.88
352.119	231.31
352.502	257.97
352.884	271.53
353.267	281.02
353.65	281.7
354.032	299.33
354.414	304.3
354.797	293.23
355.179	320.12
355.562	339.55
355.944	326.67
356.326	331.42
356.709	348.14
357.091	333.23
357.473	347.24
357.855	333.23
358.238	334.13
358.62	325.32
359.002	322.6
359.384	339.55
359.766	371.42
360.148	342.49
360.53	354.47
360.912	323.51
361.294	342.72
361.676	312.44
362.057	334.81
362.439	328.03
362.821	326.67
363.203	321.7
363.584	309.27
363.966	324.19
364.348	332.32
364.729	321.02
365.111	315.6
365.493	320.8
365.874	326.45
366.256	294.36
366.637	307.92
367.019	300.91
367.4	313.11
367.781	312.89
368.163	305.2
368.544	318.31
368.925	321.02
369.306	321.47
369.688	316.28
370.069	317.41
370.45	312.44
370.831	346.11
371.212	323.51
371.593	325.99
371.974	345.2
372.355	310.85
372.736	317.18
373.117	328.25
373.498	283.96
373.879	328.93
374.26	321.02
374.641	328.71
375.021	311.31
375.402	329.84
375.783	316.73
376.163	325.99
376.544	323.96
376.925	330.29
377.305	330.97
377.686	324.64
378.066	341.14
378.447	331.42
378.827	322.83
379.208	339.1
379.588	321.25
379.968	345.88
380.349	341.81
380.729	361.25
381.109	338.88
381.489	326.22
381.87	354.24
382.25	329.61
382.63	340.91
383.01	351.76
383.39	346.78
383.77	334.36
384.15	343.39
384.53	334.81
384.91	350.85
385.29	345.88
385.67	356.73
386.049	357.86
386.429	359.89
386.809	349.5
387.189	358.08
387.568	355.6
387.948	369.61
388.328	346.78
388.707	382.04
389.087	376.84
389.466	371.87
389.846	367.35
390.225	369.61
390.605	381.81
390.984	385.43
391.363	387.69
391.743	372.09
392.122	376.39
392.501	390.4
392.881	387.69
393.26	380.91
393.639	389.95
394.018	384.98
394.397	380
394.776	392.43
395.155	387.46
395.534	390.85
395.913	378.65
396.292	379.55
396.671	406.44
397.05	415.26
397.429	392.43
397.808	408.03
398.186	409.83
398.565	411.42
398.944	416.39
399.323	410.96
399.701	445.77
400.08	432.43
400.458	417.74
400.837	397.86
401.215	418.42
401.594	426.33
401.972	417.74
402.351	423.62
402.729	414.58
403.107	453.22
403.486	452.32
403.864	456.61
404.242	416.16
404.62	435.14
404.999	456.39
405.377	435.82
405.755	464.97
406.133	457.29
406.511	463.39
406.889	441.25
407.267	457.29
407.645	470.85
408.023	462.49
408.401	462.71
408.779	462.49
409.156	466.56
409.534	486.44
409.912	464.75
410.29	471.53
410.667	503.84
411.045	494.13
411.422	503.39
411.8	499.32
412.178	510.4
412.555	511.75
412.933	524.41
413.31	513.79
413.687	521.92
414.065	527.12
414.442	527.12
414.819	508.14
415.197	523.28
415.574	528.02
415.951	516.5
416.328	523.05
416.705	527.12
417.082	544.97
417.46	547.91
417.837	555.82
418.214	532.54
418.591	542.49
418.967	547.68
419.344	580.45
419.721	573.45
420.098	581.81
420.475	582.26
420.852	577.97
421.228	587.91
421.605	577.51
421.982	581.13
422.358	605.76
422.735	600.11
423.111	624.97
423.488	578.87
423.864	601.69
424.241	616.38
424.617	616.38
424.994	614.35
425.37	640.56
425.746	612.54
426.123	628.59
426.499	634.01
426.875	638.75
427.251	638.75
427.627	640.11
428.003	669.26
428.379	666.55
428.756	688.47
429.132	666.32
429.507	700
429.883	678.75
430.259	709.26
430.635	693.67
431.011	707.91
431.387	721.46
431.763	728.47
432.138	724.85
432.514	729.6
432.89	726.44
433.265	752.2
433.641	732.09
434.016	756.04
434.392	760.56
434.767	751.97
435.143	765.76
435.518	808.02
435.894	784.51
436.269	810.73
436.644	812.08
437.02	809.6
437.395	809.37
437.77	797.85
438.145	815.7
438.52	850.27
438.895	851.18
439.271	854.12
439.646	865.19
440.021	888.69
440.395	876.26
440.77	874.23
441.145	876.71
441.52	901.12
441.895	883.49
442.27	932.76
442.645	911.06
443.019	906.77
443.394	934.57
443.769	891.86
444.143	919.42
444.518	919.2
444.892	904.06
445.267	938.18
445.641	963.27
446.016	950.38
446.39	959.88
446.764	964.85
447.139	969.59
447.513	979.99
447.887	961.46
448.262	994.45
448.636	1016.6
449.01	1016.15
449.384	1043.04
449.758	1029.7
450.132	1038.07
450.506	1029.25
450.88	1052.3
451.254	1043.04
451.628	1066.31
452.002	1074.22
452.376	1073.55
452.75	1097.05
453.123	1127.78
453.497	1096.37
453.871	1143.37
454.244	1117.61
454.618	1120.1
454.992	1167.33
455.365	1176.37
455.739	1217.95
456.112	1179.53
456.486	1212.3
456.859	1240.77
457.232	1261.11
457.606	1256.82
457.979	1285.07
458.352	1277.61
458.725	1306.53
459.099	1298.17
459.472	1333.43
459.845	1335.69
460.218	1338.17
460.591	1367.55
460.964	1403.03
461.337	1414.55
461.71	1448
462.083	1452.07
462.456	1488.68
462.829	1447.09
463.201	1478.51
463.574	1493.87
463.947	1539.3
464.32	1536.81
464.692	1571.84
465.065	1575.9
465.438	1626.07
465.81	1634.21
466.183	1643.47
466.555	1697.48
466.928	1745.17
467.3	1750.14
467.672	1774.77
468.045	1787.88
468.417	1816.35
468.789	1851.15
469.161	1859.97
469.534	1906.52
469.906	1939.96
470.278	1974.99
470.65	1994.65
471.022	2032.62
471.394	2084.37
471.766	2075.33
472.138	2156.91
472.51	2212.05
472.882	2245.72
473.253	2285.26
473.625	2350.12
473.997	2378.37
474.369	2406.17
474.74	2454.3
475.112	2509.21
475.484	2579.95
475.855	2654.97
476.227	2711.24
476.598	2788.98
476.97	2821.3
477.341	2886.15
477.713	2946.26
478.084	3039.82
478.455	3161.85
478.827	3161.17
479.198	3300.83
479.569	3334.28
479.94	3450.66
480.311	3537.66
480.682	3627.38
481.053	3723.87
481.424	3790.76
481.795	3924.32
482.166	4039.57
482.537	4112.79
482.908	4233.91
483.279	4283.63
483.65	4463.51
484.021	4597.07
484.391	4678.87
484.762	4788.48
485.133	4886.33
485.503	4969.04
485.874	5201.8
486.244	5292.42
486.615	5432.75
486.985	5546.87
487.356	5746.64
487.726	5817.6
488.097	5981.21
488.467	6070.93
488.837	6235.22
489.207	6402.44
489.578	6568.99
489.948	6652.61
490.318	6850.79
490.688	6948.87
491.058	7152.03
491.428	7210.33
491.798	7402.87
492.168	7599.7
492.538	7721.73
492.908	7877.89
493.278	8012.57
493.648	8128.27
494.017	8254.6
494.387	8377.53
494.757	8587.47
495.126	8736.85
495.496	8850.06
495.866	9004.41
496.235	9107.68
496.605	9272.88
496.974	9371.18
497.344	9486.88
497.713	9616.6
498.082	9746.09
498.452	9885.52
498.821	10032.18
499.19	10065.4
499.559	10180.88
499.928	10372.96
500.298	10441.21
500.667	10596.68
501.036	10611.37
501.405	10829.9
501.774	10805.04
502.143	10961.42
502.512	11110.57
502.88	11244.13
503.249	11231.02
503.618	11319.83
503.987	11372.71
504.356	11574.29
504.724	11613.16
505.093	11627.62
505.462	11736.32
505.83	11916.88
506.199	11934.5
506.567	12179.24
506.936	12100.37
507.304	12302.85
507.672	12380.59
508.041	12485.67
508.409	12516.63
508.777	12623.98
509.145	12741.71
509.514	12806.57
509.882	12887.92
510.25	12804.99
510.618	13029.84
510.986	12992.55
511.354	13153
511.722	13254.02
512.09	13379.44
512.458	13329.72
512.826	13418.53
513.193	13490.85
513.561	13478.87
513.929	13597.06
514.297	13711.86
514.664	13662.14
515.032	13790.95
515.4	13865.53
515.767	13894.23
516.135	13903.26
516.502	13851.51
516.869	14089.47
517.237	14092.19
517.604	13970.61
517.972	14148
518.339	14252.86
518.706	14299.86
519.073	14243.59
519.44	14354.55
519.808	14420.54
520.175	14362.69
520.542	14526.75
520.909	14616.24
521.276	14532.85
521.643	14641.1
522.009	14800.64
522.376	14763.58
522.743	14823.47
523.11	14858.95
523.477	14907.76
523.843	14979.39
524.21	15094.19
524.577	15196.56
524.943	15130.12
525.31	15246.28
525.676	15273.62
526.043	15301.65
526.409	15296.67
526.776	15444.92
527.142	15392.49
527.508	15393.62
527.874	15478.59
528.241	15451.7
528.607	15433.39
528.973	15517.91
529.339	15499.15
529.705	15608.76
530.071	15664.35
530.437	15613.05
530.803	15682.65
531.169	15688.75
531.535	15594.75
531.901	15602.88
532.267	15666.38
532.632	15705.48
532.998	15667.74
533.364	15745.02
533.73	15646.95
534.095	15745.48
534.461	15660.05
534.826	15846.04
535.192	15662.54
535.557	15757.23
535.923	15679.04
536.288	15644.01
536.653	15705.48
537.019	15604.24
537.384	15633.61
537.749	15638.59
538.114	15527.85
538.479	15519.27
538.845	15552.49
539.21	15451.47
539.575	15542.09
539.94	15547.97
540.305	15522.2
540.67	15521.07
541.034	15407.41
541.399	15518.82
541.764	15405.15
542.129	15455.54
542.494	15431.13
542.858	15305.71
543.223	15298.48
543.587	15307.3
543.952	15305.26
544.316	15253.06
544.681	15180.97
545.045	15179.61
545.41	15162.67
545.774	15166.28
546.138	15096.23
546.503	15086.28
546.867	15027.75
547.231	15092.16
547.595	15028.66
547.959	15082.67
548.324	15038.15
548.688	14933.29
549.052	14957.47
549.416	14888.1
549.779	14827.99
550.143	14812.62
550.507	14929.9
550.871	14872.05
551.235	14778.27
551.599	14845.39
551.962	14781.21
552.326	14800.87
552.689	14758.38
553.053	14693.07
553.417	14646.97
553.78	14792.28
554.143	14661.21
554.507	14693.98
554.87	14601.1
555.234	14753.19
555.597	14651.27
555.96	14605.17
556.323	14628.22
556.686	14712.96
557.05	14706.18
557.413	14676.8
557.776	14659.63
558.139	14647.2
558.502	14649.91
558.865	14635.45
559.228	14557.48
559.59	14664.6
559.953	14603.13
560.316	14724.71
560.679	14642.23
561.041	14691.27
561.404	14671.15
561.767	14795.67
562.129	14664.37
562.492	14798.38
562.854	14738.27
563.217	14638.61
563.579	14705.5
563.941	14823.24
564.304	14810.36
564.666	14834.31
565.028	14891.26
565.39	14826.63
565.753	14891.49
566.115	14945.5
566.477	14911.6
566.839	14916.12
567.201	15014.65
567.563	14921.99
567.925	15033.63
568.287	14984.14
568.648	15050.8
569.01	15144.59
569.372	15110.46
569.734	15061.2
570.095	15161.08
570.457	15095.1
570.819	15159.95
571.18	15084.93
571.542	15142.1
571.903	15206.05
572.265	15250.35
572.626	15248.54
572.987	15211.7
573.349	15346.16
573.71	15256
574.071	15259.39
574.432	15345.71
574.794	15378.03
575.155	15273.4
575.516	15248.54
575.877	15377.8
576.238	15383.45
576.599	15381.42
576.96	15461.64
577.32	15423.68
577.681	15442.88
578.042	15440.85
578.403	15382.32
578.763	15455.31
579.124	15479.27
579.485	15490.79
579.845	15480.85
580.206	15408.08
580.566	15573.73
580.927	15392.04
581.287	15456.44
581.648	15456.67
582.008	15467.07
582.368	15369.21
582.728	15516.56
583.089	15403.11
583.449	15496.22
583.809	15480.62
584.169	15495.99
584.529	15407.18
584.889	15528.98
585.249	15511.13
585.609	15348.88
585.969	15509.78
586.329	15406.05
586.688	15413.73
587.048	15355.2
587.408	15338.48
587.768	15364.47
588.127	15401.08
588.487	15257.35
588.846	15442.21
589.206	15228.65
589.565	15374.64
589.925	15354.3
590.284	15293.28
590.643	15375.77
591.003	15314.3
591.362	15314.07
591.721	15285.83
592.08	15340.97
592.44	15377.35
592.799	15302.32
593.158	15315.66
593.517	15202.44
593.876	15321.08
594.235	15274.98
594.593	15268.2
594.952	15238.6
595.311	15219.84
595.67	15359.72
596.029	15307.97
596.387	15338.25
596.746	15312.27
597.104	15230.24
597.463	15275.43
597.822	15196.79
598.18	15185.26
598.538	15304.36
598.897	15295.32
599.255	15103.46
599.613	15350.68
599.972	15180.29
600.33	15341.64
600.688	15176
601.046	15321.31
601.404	15272.49
601.762	15288.99
602.12	15384.13
602.478	15376.67
602.836	15279.05
603.194	15211.93
603.552	15235.66
603.91	15133.97
604.268	15291.93
604.625	15264.36
604.983	15359.72
605.341	15181.2
605.698	15284.92
606.056	15393.39
606.413	15271.14
606.771	15447.86
607.128	15404.92
607.485	15266.84
607.843	15270.01
608.2	15372.38
608.557	15511.36
608.914	15321.31
609.272	15456.44
609.629	15450.57
609.986	15540.51
610.343	15492.38
610.7	15575.76
611.057	15426.61
611.414	15577.57
611.771	15506.61
612.127	15544.58
612.484	15494.18
612.841	15566.05
613.198	15474.97
613.554	15531.24
613.911	15597.23
614.267	15573.95
614.624	15498.25
614.98	15519.95
615.337	15622.99
615.693	15580.51
616.05	15625.93
616.406	15752.93
616.762	15627.96
617.118	15674.29
617.475	15622.99
617.831	15635.87
618.187	15700.28
618.543	15814.4
618.899	15847.39
619.255	15767.17
619.611	15769.2
619.967	15879.03
620.323	15862.99
620.678	15812.37
621.034	15752.48
621.39	15784.57
621.746	15599.26
622.101	15902.99
622.457	15810.33
622.812	15803.55
623.168	15817.34
623.523	15836.55
623.879	15815.98
624.234	15732.37
624.589	15799.94
624.945	15813.95
625.3	15913.16
625.655	15886.94
626.01	15767.62
626.365	15740.05
626.72	15760.62
627.075	15798.13
627.43	15776.89
627.785	15711.35
628.14	15755.65
628.495	15863.44
628.85	15801.75
629.205	15682.2
629.559	15752.26
629.914	15727.62
630.269	15707.74
630.623	15612.37
630.978	15709.32
631.332	15653.95
631.687	15684.01
632.041	15606.5
632.396	15709.09
632.75	15602.2
633.104	15591.58
633.459	15567.85
633.813	15546.16
634.167	15606.04
634.521	15474.75
634.875	15634.74
635.229	15570.57
635.583	15476.78
635.937	15434.3
636.291	15439.04
636.645	15415.77
636.999	15388.88
637.352	15397.69
637.706	15387.29
638.06	15367.63
638.413	15401.08
638.767	15281.76
639.121	15286.96
639.474	15292.15
639.828	15278.6
640.181	15262.1
640.534	15260.74
640.888	15216
641.241	15181.87
641.594	15200.18
641.947	15197.47
642.301	15154.98
642.654	15232.27
643.007	15086.96
643.36	15137.13
643.713	15114.08
644.066	15138.26
644.419	14994.99
644.771	15008.32
645.124	14872.73
645.477	14912.73
645.83	14638.84
646.182	14673.87
646.535	14618.27
646.888	14658.95
647.24	14561.55
647.593	14755.9
647.945	14598.61
648.298	14536.02
648.65	14552.74
649.002	14406.3
649.355	14594.55
649.707	14562.91
650.059	14710.02
650.411	14840.41
650.763	14807.2
651.115	14884.48
651.467	14965.38
651.819	14980.75
652.171	14939.17
652.523	14984.59
652.875	14799.96
653.227	14749.12
653.578	14937.81
653.93	14943.01
654.282	14877.25
654.633	14836.57
654.985	14974.42
655.337	14902.56
655.688	14879.51
656.039	14922.9
656.391	14872.28
656.742	14857.82
657.094	14865.05
657.445	14928.77
657.796	14842.22
658.147	14853.07
658.498	14865.5
658.849	14905.05
659.2	14855.1
659.551	14854.43
659.902	14861.66
660.253	14916.12
660.604	14830.02
660.955	14873.18
661.306	14844.71
661.656	14827.53
662.007	14960.41
662.358	14969.68
662.708	14900.3
663.059	14919.51
663.409	14888.78
663.76	14930.81
664.11	14886.06
664.461	14867.98
664.811	14874.76
665.161	14924.93
665.511	14870.02
665.862	14922.9
666.212	14975.55
666.562	14909.11
666.912	14924.25
667.262	14878.61
667.612	14897.81
667.962	14999.96
668.312	14941.66
668.662	14974.42
669.011	14880.64
669.361	14869.57
669.711	14900.53
670.06	14901.2
670.41	14843.13
670.76	14805.39
671.109	14921.77
671.459	14877.7
671.808	14840.41
672.157	14822.34
672.507	14670.02
672.856	14806.97
673.205	14845.61
673.554	14781.89
673.904	14740.08
674.253	14776.91
674.602	14774.43
674.951	14605.17
675.3	14462.57
675.649	14720.42
675.998	14675.22
676.346	14723.58
676.695	14684.03
677.044	14607.43
677.393	14686.07
677.741	14633.64
678.09	14642.68
678.438	14576.24
678.787	14687.88
679.135	14645.84
679.484	14538.28
679.832	14587.77
680.181	14473.19
680.529	14494.66
680.877	14475.9
681.225	14461.89
681.573	14458.5
681.922	14316.13
682.27	14354.33
682.618	14409.92
682.966	14268.45
683.314	14377.38
683.661	14332.86
684.009	14296.47
684.357	14266.19
684.705	14280.43
685.053	14209.92
685.4	14187.55
685.748	14079.3
686.095	14137.61
686.443	14017.39
686.79	14023.71
687.138	14048.12
687.485	13924.96
687.832	13975.8
688.18	14030.72
688.527	13833.66
688.874	13898.97
689.221	13794.57
689.568	13695.81
689.915	13755.7
690.262	13642.03
690.609	13658.3
690.956	13633.21
691.303	13542.6
691.65	13517.06
691.997	13510.73
692.344	13455.14
692.69	13389.38
693.037	13351.64
693.383	13211.98
693.73	13357.06
694.077	13189.61
694.423	13232.77
694.769	13175.83
695.116	13146.22
695.462	13125.66
695.808	13039.56
696.155	13105.77
696.501	12980.12
696.847	12898.55
697.193	12864.87
697.539	12875.72
697.885	12745.78
698.231	12692.22
698.577	12703.07
698.923	12641.15
699.269	12651.77
699.614	12540.36
699.96	12514.83
700.306	12522.06
700.651	12388.05
700.997	12362.29
701.342	12372.01
701.688	12334.94
702.033	12250.65
702.379	12183.31
702.724	12183.76
703.069	12279.58
703.415	12132.46
703.76	12045.69
704.105	12003.88
704.45	11918.46
704.795	11956.42
705.14	11889.53
705.485	11883.66
705.83	11861.06
706.175	11768.41
706.52	11763.66
706.865	11751.91
707.209	11718.69
707.554	11657.9
707.899	11760.27
708.243	11560.95
708.588	11570.22
708.932	11522.54
709.277	11556.21
709.621	11489.09
709.966	11403.9
710.31	11440.96
710.654	11324.12
710.998	11431.01
711.342	11394.86
711.687	11308.76
712.031	11234.41
712.375	11207.74
712.719	11264.92
713.063	11183.11
713.407	11233.28
713.75	11200.74
714.094	11162.09
714.438	11079.38
714.782	11146.05
715.125	11110.8
715.469	11045.94
715.812	11023.11
716.156	10981.08
716.499	10947.64
716.843	10983.12
717.186	10879.16
717.53	10952.83
717.873	10992.83
718.216	10898.37
718.559	10890.69
718.902	10823.8
719.246	10821.54
719.589	10867.64
719.932	10803.01
720.275	10748.77
720.617	10801.88
720.96	10753.97
721.303	10820.18
721.646	10792.84
721.989	10684.37
722.331	10746.96
722.674	10753.06
723.016	10731.14
723.359	10658.38
723.701	10723.46
724.044	10593.52
724.386	10547.42
724.729	10714.65
725.071	10598.04
725.413	10636.46
725.755	10539.29
726.097	10575.89
726.439	10499.74
726.782	10528.21
727.124	10619.96
727.465	10504.26
727.807	10514.65
728.149	10462.9
728.491	10469.23
728.833	10569.34
729.175	10467.65
729.516	10484.37
729.858	10506.07
730.199	10450.02
730.541	10437.14
730.882	10412.06
731.224	10509.46
731.565	10354.43
731.906	10424.94
732.248	10394.2
732.589	10336.13
732.93	10381.78
733.271	10334.77
733.612	10396.69
733.953	10388.78
734.294	10276.24
734.635	10340.42
734.976	10344.26
735.317	10346.07
735.658	10310.14
735.999	10402.34
736.339	10362.34
736.68	10416.35
737.021	10368.89
737.361	10246.64
737.702	10421.55
738.042	10377.48
738.383	10355.56
738.723	10340.42
739.063	10362.34
739.404	10430.36
739.744	10397.59
740.084	10365.73
740.424	10365.73
740.764	10345.84
741.104	10429.68
741.444	10361.21
741.784	10377.48
742.124	10377.93
742.464	10464.26
742.804	10450.25
743.143	10495.67
743.483	10510.36
743.823	10437.37
744.162	10486.63
744.502	10599.17
744.841	10584.26
745.181	10699.73
745.52	10613.18
745.86	10675.55
746.199	10744.03
746.538	10758.04
746.877	10835.32
747.216	10870.12
747.556	10877.36
747.895	10969.33
748.234	10966.39
748.573	10978.6
748.911	11065.15
749.25	11192.15
749.589	11225.82
749.928	11296.55
750.267	11381.52
750.605	11454.52
750.944	11417.68
751.283	11442.76
751.621	11678.92
751.96	11633.95
752.298	11777.44
752.636	11874.39
752.975	11896.31
753.313	11986.7
753.651	12203.2
753.989	12272.12
754.327	12309.63
754.666	12431.89
755.004	12583.75
755.342	12692.45
755.679	12813.8
756.017	12960.24
756.355	13114.81
756.693	13153.45
757.031	13311.42
757.368	13493.11
757.706	13600.22
758.044	13618.75
758.381	13863.72
758.719	14021.68
759.056	14244.95
759.394	14302.35
759.731	14465.06
760.068	14589.35
760.405	14739.85
760.743	14846.29
761.08	15107.75
761.417	15274.53
761.754	15444.92
762.091	15585.25
762.428	15723.33
762.765	15781.41
763.102	16072.47
763.438	16142.08
763.775	16234.5
764.112	16417.1
764.449	16674.49
764.785	16753.58
765.122	16859.57
765.458	17105.21
765.795	17148.6
766.131	17296.17
766.467	17462.94
766.804	17609.83
767.14	17718.53
767.476	17855.93
767.812	17868.58
768.148	18148.58
768.485	18155.58
768.821	18236.94
769.157	18407.1
769.492	18582.92
769.828	18591.73
770.164	18755.57
770.5	18801.44
770.836	18959.4
771.171	18913.3
771.507	19167.76
771.842	19100.19
772.178	19255.89
772.513	19296.34
772.849	19372.27
773.184	19360.97
773.519	19492.5
773.855	19401.42
774.19	19590.8
774.525	19562.78
774.86	19793.73
775.195	19877.8
775.53	19813.17
775.865	19857.23
776.2	19829.66
776.535	19750.57
776.87	19769.78
777.205	19877.12
777.539	19857.23
777.874	20024.69
778.209	19905.82
778.543	19845.93
778.878	19920.73
779.212	20018.81
779.547	19958.92
779.881	20129.09
780.215	19961.64
780.55	20031.01
780.884	20058.81
781.218	20133.16
781.552	20118.69
781.886	20075.31
782.22	19958.47
782.554	20053.39
782.888	20028.53
783.222	19955.99
783.556	19957.34
783.889	19866.5
784.223	19782.43
784.557	19755.09
784.89	19908.3
785.224	19735.2
785.557	19727.29
785.891	19711.7
786.224	19712.15
786.558	19713.96
786.891	19538.6
787.224	19558.03
787.557	19576.34
787.891	19477.36
788.224	19645.49
788.557	19593.51
788.89	19548.99
789.223	19583.12
789.556	19445.72
789.888	19386.06
790.221	19348.54
790.554	19262.67
790.887	19219.28
791.219	19297.02
791.552	19193.75
791.884	19175.89
792.217	19093.64
792.549	19080.98
792.882	18961.66
793.214	18921.21
793.546	19015.67
793.879	18877.6
794.211	18823.59
794.543	18864.72
794.875	18833.76
795.207	18876.24
795.539	18732.97
795.871	18840.31
796.203	18626.76
796.535	18547.44
796.867	18664.95
797.198	18537.27
797.53	18561.45
797.862	18461.56
798.193	18519.41
798.525	18474.22
798.856	18410.26
799.188	18231.06
799.519	18210.72
799.85	18059.54
800.182	18181.8
800.513	18183.83
800.844	17982.25
801.175	18071.52
801.506	17928.24
801.837	17989.26
802.168	17910.62
802.499	17933.89
802.83	17828.13
803.161	17735.48
803.491	17721.7
803.822	17698.87
804.153	17649.38
804.483	17478.09
804.814	17471.76
805.145	17473.57
805.475	17455.26
805.805	17424.3
806.136	17342.27
806.466	17324.42
806.796	17290.52
807.126	17152.22
807.457	17262.05
807.787	17202.61
808.117	17089.85
808.447	16994.93
808.777	17088.72
809.107	17043.52
809.436	17003.52
809.766	16892.56
810.096	16855.5
810.426	16781.38
810.755	16928.27
811.085	16823.64
811.414	16822.06
811.744	16635.17
812.073	16675.62
812.403	16723.76
812.732	16578.45
813.061	16585
813.39	16416.19
813.719	16503.87
814.049	16520.82
814.378	16477.66
814.707	16380.71
815.036	16394.5
815.365	16330.55
815.693	16176.88
816.022	16158.8
816.351	16167.61
816.68	16120.83
817.008	16197.22
817.337	16070.21
817.665	15923.1
817.994	16051.68
818.322	16088.97
818.651	15959.93
818.979	15851.69
819.307	15942.98
819.636	15882.87
819.964	15794.29
820.292	15812.82
820.62	15850.33
820.948	15841.07
821.276	15837.45
821.604	15811.69
821.932	15898.69
822.259	15774.4
822.587	15727.85
822.915	15733.95
823.243	15788.41
823.57	15642.88
823.898	15791.35
824.225	15712.26
824.553	15646.5
824.88	15681.3
825.207	15772.37
825.535	15774.4
825.862	15745.48
826.189	15668.64
826.516	15889.43
826.843	15711.58
827.17	15781.41
827.497	15805.36
827.824	15733.05
828.151	15849.88
828.478	15782.09
828.805	15776.66
829.131	15797.9
829.458	15758.13
829.785	15662.77
830.111	15758.58
830.438	15861.86
830.764	15731.24
831.09	15796.77
831.417	15712.48
831.743	15790.45
832.069	15764.91
832.395	15623.67
832.722	15743.44
833.048	15699.15
833.374	15620.28
833.7	15644.24
834.026	15715.87
834.351	15708.41
834.677	15624.12
835.003	15703.44
835.329	15571.02
835.654	15666.38
835.98	15507.74
836.306	15664.8
836.631	15453.73
836.956	15633.16
837.282	15661.64
837.607	15550.68
837.932	15441.75
838.258	15454.41
838.583	15385.26
838.908	15363.79
839.233	15398.82
839.558	15333.74
839.883	15305.04
840.208	15279.95
840.533	15265.04
840.858	15104.59
841.182	15300.06
841.507	15204.25
841.832	15149.33
842.156	15138.94
842.481	15063.23
842.805	15007.87
843.13	15000.41
843.454	15037.7
843.778	14928.77
844.103	14891.71
844.427	14802.9
844.751	14811.72
845.075	14840.64
845.399	14752.51
845.723	14705.73
846.047	14679.29
846.371	14627.99
846.695	14617.6
847.019	14405.62
847.343	14437.71
847.666	14305.74
847.99	14298.28
848.313	14307.32
848.637	14183.48
848.96	14206.31
849.284	14150.94
849.607	14001.57
849.931	14011.51
850.254	13942.13
850.577	13877.05
850.9	13782.36
851.223	13759.54
851.546	13671.41
851.869	13673.89
852.192	13664.4
852.515	13567.45
852.838	13420.11
853.161	13430.28
853.483	13413.33
853.806	13402.71
854.129	13387.12
854.451	13228.71
854.774	13204.3
855.096	13190.97
855.419	13124.08
855.741	13082.95
856.063	13087.47
856.385	13024.42
856.708	13040.46
857.03	12951.65
857.352	12986.45
857.674	12833.01
857.996	12866.23
858.318	12715.72
858.64	12664.65
858.961	12732.9
859.283	12625.56
859.605	12607.25
859.926	12709.62
860.248	12554.83
860.57	12550.76
860.891	12572.23
861.212	12522.06
861.534	12404.09
861.855	12406.58
862.176	12400.25
862.498	12426.69
862.819	12319.13
863.14	12254.27
863.461	12196.64
863.782	12238
864.103	12235.96
864.424	12253.36
864.745	12267.83
865.065	12153.03
865.386	12079.36
865.707	12089.53
866.027	12153.03
866.348	12081.39
866.668	12114.16
866.989	12023.09
867.309	11934.05
867.63	12074.39
867.95	11948.74
868.27	11907.84
868.59	11913.26
868.91	11959.81
869.23	11868.06
869.55	11901.28
869.87	11937.67
870.19	11919.36
870.51	11824.45
870.83	11848.18
871.15	11778.12
871.469	11758.69
871.789	11795.52
872.109	11815.64
872.428	11695.19
872.748	11751
873.067	11711.46
873.386	11722.53
873.706	11714.4
874.025	11602.76
874.344	11578.13
874.663	11692.02
874.982	11542.2
875.301	11575.42
875.62	11525.47
875.939	11539.48
876.258	11535.64
876.577	11413.39
876.896	11447.51
877.214	11431.46
877.533	11403.22
877.852	11378.81
878.17	11323.9
878.489	11394.86
878.807	11332.03
879.125	11312.82
879.444	11236.67
879.762	11242.09
880.08	11272.37
880.398	11268.76
880.716	11266.27
881.034	11223.11
881.352	11135.88
881.67	11182.43
881.988	11113.51
882.306	11072.83
882.624	11050.91
882.941	10953.06
883.259	10905.6
883.577	10910.12
883.894	10969.56
884.212	10989.89
884.529	10921.65
884.846	10946.73
885.164	10852.27
885.481	10874.19
885.798	10777.47
886.115	10698.38
886.432	10787.64
886.75	10777.24
887.067	10774.31
887.383	10709.45
887.7	10701.54
888.017	10692.28
888.334	10688.21
888.651	10584.03
888.967	10581.77
889.284	10478.72
889.6	10502
889.917	10448.21
890.233	10482.56
890.55	10443.02
890.866	10422.23
891.182	10337.71
891.498	10300.65
891.815	10334.09
892.131	10271.27
892.447	10276.47
892.763	10128.45
893.079	10223.81
893.395	10169.58
893.71	10056.13
894.026	10031.05
894.342	10069.47
894.657	10000.54
894.973	9965.29
895.289	9973.65
895.604	9947.44
895.92	9865.86
896.235	9849.59
896.55	9850.94
896.865	9746.99
897.181	9788.12
897.496	9782.24
897.811	9676.93
898.126	9657.05
898.441	9636.48
898.756	9567.79
899.071	9517.62
899.386	9505.64
899.7	9467
900.015	9462.93
900.33	9389.48
900.644	9399.65
900.959	9359.66
901.273	9347
901.588	9237.4
901.902	9186.1
902.216	9220.22
902.531	9142.71
902.845	9160.11
903.159	9103.39
903.473	9047.8
903.787	9012.77
904.101	8998.76
904.415	8953.56
904.729	8951.3
905.042	8803.51
905.356	8850.29
905.67	8822.72
905.984	8871.98
906.297	8735.04
906.611	8687.36
906.924	8725.77
907.237	8644.87
907.551	8635.38
907.864	8618.43
908.177	8541.37
908.491	8599.68
908.804	8526.91
909.117	8412.79
909.43	8392.9
909.743	8359.46
910.056	8325.11
910.368	8272.9
910.681	8241.27
910.994	8207.59
911.307	8196.75
911.619	8143.19
911.932	8219.12
912.244	8095.51
912.557	8098.22
912.869	8025.9
913.181	7994.95
913.494	7987.04
913.806	7950.88
914.118	7937.77
914.43	7884.67
914.742	7819.81
915.054	7796.08
915.366	7786.59
915.678	7762.86
915.99	7678.34
916.302	7662.98
916.613	7681.51
916.925	7623.43
917.236	7579.36
917.548	7568.97
917.859	7560.61
918.171	7461.4
918.482	7480.61
918.794	7468.18
919.105	7438.58
919.416	7357.45
919.727	7309.54
920.038	7315.87
920.349	7260.95
920.66	7266.83
920.971	7287.85
921.282	7205.59
921.593	7185.47
921.903	7119.26
922.214	7135.76
922.525	7056.21
922.835	7119.26
923.146	6999.94
923.456	7003.78
923.767	6941.64
924.077	6898.93
924.387	6938.25
924.697	6832.94
925.008	6786.39
925.318	6836.33
925.628	6766.28
925.938	6844.92
926.248	6735.09
926.558	6667.97
926.867	6655.55
927.177	6646.05
927.487	6596.79
927.796	6579.84
928.106	6572.38
928.416	6535.1
928.725	6534.64
929.034	6497.81
929.344	6447.42
929.653	6451.03
929.962	6367.19
930.271	6360.19
930.581	6323.58
930.89	6354.54
931.199	6333.07
931.508	6264.6
931.817	6227.76
932.125	6259.17
932.434	6208.55
932.743	6137.14
933.051	6110.25
933.36	6121.77
933.669	6100.76
933.977	6090.81
934.286	6050.36
934.594	6062.11
934.902	5922.23
935.21	5938.28
935.519	5939.41
935.827	5920.88
936.135	5873.87
936.443	5833.65
936.751	5821.89
937.059	5839.07
937.367	5811.05
937.674	5812.86
937.982	5768.11
938.29	5718.17
938.597	5734.44
938.905	5669.36
939.213	5664.61
939.52	5577.16
939.827	5604.27
940.135	5516.37
940.442	5552.75
940.749	5541.68
941.056	5515.46
941.363	5503.94
941.67	5418.29
941.977	5456.71
942.284	5413.54
942.591	5367.22
942.898	5391.85
943.205	5364.96
943.511	5304.85
943.818	5266.88
944.125	5246.54
944.431	5214
944.738	5250.61
945.044	5211.06
945.35	5167.67
945.657	5140.1
945.963	5161.8
946.269	5089.26
946.575	5096.49
946.881	5057.17
947.187	5058.53
947.493	5030.28
947.799	5004.74
948.105	4971.3
948.41	4948.25
948.716	4946.44
949.022	4921.58
949.327	4930.17
949.633	4891.52
949.938	4829.6
950.244	4830.73
950.549	4825.99
950.854	4796.84
951.16	4752.09
951.465	4754.8
951.77	4722.49
952.075	4710.74
952.38	4682.26
952.685	4699.66
952.99	4632.55
953.294	4670.96
953.599	4581.48
953.904	4554.58
954.209	4534.02
954.513	4546.45
954.818	4568.14
955.122	4540.35
955.426	4531.99
955.731	4489.95
956.035	4462.83
956.339	4421.03
956.643	4408.37
956.948	4370.18
957.252	4354.36
957.556	4373.57
957.86	4344.87
958.163	4372.67
958.467	4297.64
958.771	4290.41
959.075	4276.4
959.378	4231.2
959.682	4238.66
959.985	4228.72
960.289	4186.46
960.592	4170.19
960.896	4139.23
961.199	4134.48
961.502	4126.57
961.805	4088.61
962.108	4084.99
962.411	4085.9
962.714	4062.17
963.017	4012.45
963.32	4032.34
963.623	4042.51
963.926	4002.06
964.228	3963.41
964.531	3952.57
964.833	3953.24
965.136	3919.12
965.438	3899.46
965.741	3926.8
966.043	3895.62
966.345	3852.46
966.648	3822.17
966.95	3848.16
967.252	3836.18
967.554	3779.46
967.856	3742.4
968.158	3756.64
968.46	3722.52
968.761	3734.04
969.063	3686.81
969.365	3698.33
969.666	3630.54
969.968	3612.91
970.269	3635.51
970.571	3628.05
970.872	3639.13
971.174	3581.05
971.475	3563.88
971.776	3558.45
972.077	3515.29
972.378	3471
972.679	3539.02
972.98	3499.24
973.281	3485.91
973.582	3439.13
973.883	3437.78
974.183	3447.04
974.484	3416.99
974.785	3370.43
975.085	3397.1
975.386	3374.28
975.686	3359.36
975.986	3335.86
976.287	3312.13
976.587	3301.96
976.887	3291.79
977.187	3305.58
977.487	3246.6
977.787	3255.86
978.087	3241.17
978.387	3197.11
978.687	3222.42
978.987	3199.82
979.286	3185.13
979.586	3167.73
979.885	3155.75
980.185	3161.63
980.484	3120.05
980.784	3106.49
981.083	3108.29
981.382	3082.98
981.682	3081.85
981.981	3073.72
982.28	3027.17
982.579	3059.26
982.878	3039.37
983.177	3013.38
983.475	2953.5
983.774	2976.55
984.073	2936.32
984.372	2959.82
984.67	2952.14
984.969	2925.47
985.267	2932.03
985.566	2887.06
985.864	2890.22
986.162	2868.75
986.461	2875.76
986.759	2818.13
987.057	2797.12
987.355	2801.41
987.653	2807.74
987.951	2795.53
988.249	2780.39
988.547	2770.9
988.844	2785.36
989.142	2698.81
989.44	2759.83
989.737	2706.27
990.035	2678.47
990.332	2696.55
990.63	2633.96
990.927	2666.27
991.224	2647.29
991.521	2676.67
991.819	2619.49
992.116	2623.33
992.413	2597.12
992.71	2579.95
993.006	2589.44
993.303	2563
993.6	2568.42
993.897	2546.27
994.193	2513.06
994.49	2490.23
994.787	2503.34
995.083	2485.71
995.379	2475.32
995.676	2471.25
995.972	2424.24
996.268	2465.6
996.565	2423.11
996.861	2424.47
997.157	2410.01
997.453	2430.35
997.749	2385.15
998.044	2368.2
998.34	2331.14
998.636	2388.76
998.932	2304.25
999.227	2313.06
999.523	2305.6
999.818	2309.9
1000.114	2279.16
1000.409	2268.32
1000.704	2270.12
1001	2246.4
1001.295	2235.1
1001.59	2224.02
1001.885	2228.32
1002.18	2206.17
1002.475	2207.53
1002.77	2164.36
1003.065	2129.56
1003.359	2134.99
1003.654	2153.74
1003.949	2109.9
1004.243	2119.85
1004.538	2122.78
1004.832	2120.52
1005.127	2109.9
1005.421	2063.12
1005.715	2041.2
1006.009	2050.24
1006.304	2063.58
1006.598	2033.07
1006.892	2044.59
1007.186	1978.38
1007.48	1994.42
1007.773	1991.71
1008.067	1956.23
1008.361	1963.47
1008.655	1942.67
1008.948	1932.96
1009.242	1926.63
1009.535	1948.32
1009.829	1928.89
1010.122	1892.73
1010.415	1881.43
1010.708	1858.38
1011.001	1854.32
1011.295	1876.46
1011.588	1841.89
1011.881	1808.44
1012.173	1816.8
1012.466	1773.19
1012.759	1811.15
1013.052	1792.62
1013.344	1763.47
1013.637	1753.53
1013.93	1747.2
1014.222	1756.01
1014.514	1746.97
1014.807	1733.19
1015.099	1717.37
1015.391	1706.97
1015.683	1674.43
1015.976	1697.03
1016.268	1671.95
1016.56	1653.87
1016.851	1610.93
1017.143	1654.32
1017.435	1638.5
1017.727	1628.11
1018.018	1613.87
1018.31	1616.58
1018.602	1587.88
1018.893	1558.5
1019.185	1554.89
1019.476	1560.99
1019.767	1553.76
1020.058	1516.7
1020.35	1549.24
1020.641	1541.1
1020.932	1503.14
1021.223	1504.72
1021.514	1498.62
1021.804	1466.08
1022.095	1441.9
1022.386	1464.5
1022.677	1449.35
1022.967	1425.4
1023.258	1417.72
1023.548	1421.56
1023.839	1390.37
1024.129	1399.41
1024.419	1408.68
1024.709	1375.68
1025	1386.31
1025.29	1350.83
1025.58	1351.28
1025.87	1338.17
1026.16	1344.5
1026.449	1341.33
1026.739	1314.44
1027.029	1317.61
1027.319	1298.17
1027.608	1294.78
1027.898	1290.49
1028.187	1276.48
1028.477	1273.77
1028.766	1261.79
1029.055	1281.45
1029.344	1249.59
1029.634	1219.76
1029.923	1251.85
1030.212	1241
1030.501	1201.23
1030.79	1218.85
1031.078	1205.29
1031.367	1177.5
1031.656	1172.07
1031.945	1161.23
1032.233	1178.18
1032.522	1184.28
1032.81	1139.08
1033.099	1142.92
1033.387	1139.31
1033.675	1139.76
1033.963	1117.61
1034.251	1128.69
1034.54	1118.74
1034.828	1125.3
1035.116	1071.96
1035.403	1086.2
1035.691	1067.9
1035.979	1076.26
1036.267	1061.12
1036.554	1071.74
1036.842	1039.65
1037.129	1033.32
1037.417	1031.96
1037.704	1019.99
1037.992	1027.22
1038.279	1028.57
1038.566	997.84
1038.853	997.84
1039.14	997.84
