Data from hue_00_FLMS001491_92.txt Node
Date: Mon Feb 06 15:30:41 GMT 2017
User: dcchb
Spectrometer: FLMS00149
Trigger mode: 0
Integration Time (sec): 2.000000E-2
Scans to average: 10
Electric dark correction enabled: true
Nonlinearity correction enabled: false
Boxcar width: 0
XAxis mode: Wavelengths
Number of Pixels in Spectrum: 2048
>>>>>Begin Spectral Data<<<<<
341.393	-20.17
341.776	-20.17
342.16	-20.17
342.543	-61.52
342.927	-75.53
343.31	-74.18
343.693	-60.85
344.077	-46.83
344.46	-74.86
344.843	-46.83
345.226	-46.61
345.61	-54.07
345.993	1.98
346.376	12.6
346.759	-10.45
347.142	44.91
347.525	36.55
347.908	54.63
348.291	79.04
348.674	81.3
349.057	103.67
349.44	124.69
349.823	132.37
350.206	149.09
350.588	189.77
350.971	191.8
351.354	216.66
351.737	242.2
352.119	245.13
352.502	239.26
352.884	251.46
353.267	266.6
353.65	293.04
354.032	303.66
354.414	289.2
354.797	328.97
355.179	308.86
355.562	313.61
355.944	301.86
356.326	329.43
356.709	340.5
357.091	328.52
357.473	319.26
357.855	334.85
358.238	332.14
358.62	334.17
359.002	345.7
359.384	333.72
359.766	317.9
360.148	322.19
360.53	313.16
360.912	338.01
361.294	335.53
361.676	316.09
362.057	326.71
362.439	340.95
362.821	316.77
363.203	311.57
363.584	323.78
363.966	312.7
364.348	324
364.729	310.67
365.111	307.05
365.493	319.03
365.874	318.81
366.256	312.48
366.637	303.66
367.019	314.06
367.4	300.05
367.781	296.21
368.163	326.26
368.544	306.38
368.925	288.52
369.306	307.96
369.688	296.21
370.069	322.42
370.45	310.44
370.831	289.65
371.212	299.37
371.593	310.22
371.974	299.6
372.355	326.71
372.736	321.07
373.117	326.26
373.498	299.82
373.879	308.18
374.26	308.64
374.641	315.87
375.021	304.12
375.402	314.29
375.783	333.27
376.163	297.56
376.544	310.9
376.925	320.84
377.305	329.88
377.686	312.93
378.066	321.07
378.447	328.97
378.827	315.19
379.208	314.29
379.588	291.01
379.968	323.32
380.349	321.74
380.729	310.22
381.109	313.61
381.489	335.75
381.87	322.42
382.25	314.74
382.63	327.62
383.01	322.87
383.39	335.3
383.77	332.82
384.15	324.23
384.53	327.84
384.91	320.16
385.29	308.41
385.67	324.68
386.049	348.18
386.429	321.07
386.809	349.76
387.189	345.7
387.568	327.17
387.948	336.21
388.328	343.44
388.707	346.38
389.087	342.76
389.466	340.95
389.846	327.17
390.225	351.57
390.605	344.12
390.984	339.37
391.363	357.45
391.743	333.27
392.122	342.31
392.501	335.3
392.881	371.23
393.26	363.32
393.639	328.97
394.018	361.06
394.397	360.61
394.776	350.67
395.155	355.41
395.534	368.07
395.913	354.96
396.292	373.27
396.671	389.54
397.05	352.25
397.429	386.6
397.808	348.63
398.186	343.66
398.565	372.14
398.944	359.71
399.323	376.88
399.701	355.19
400.08	388.63
400.458	382.53
400.837	385.47
401.215	369.2
401.594	392.48
401.972	384.11
402.351	374.85
402.729	371.01
403.107	373.27
403.486	396.54
403.864	387.5
404.242	386.6
404.62	389.76
404.999	412.36
405.377	371.01
405.755	392.93
406.133	406.49
406.511	410.78
406.889	408.07
407.267	410.55
407.645	394.28
408.023	429.54
408.401	416.2
408.779	411.91
409.156	441.51
409.534	420.27
409.912	416.2
410.29	427.05
410.667	417.79
411.045	442.64
411.422	434.73
411.8	428.41
412.178	427.73
412.555	448.07
412.933	446.49
413.31	459.14
413.687	445.81
414.065	442.42
414.442	455.07
414.819	460.04
415.197	452.14
415.574	461.85
415.951	473.83
416.328	461.17
416.705	466.15
417.082	480.38
417.46	472.02
417.837	468.63
418.214	461.63
418.591	502.08
418.967	488.74
419.344	482.42
419.721	467.28
420.098	488.74
420.475	498.01
420.852	501.85
421.228	504.34
421.605	502.3
421.982	502.98
422.358	500.27
422.735	501.63
423.111	518.57
423.488	525.35
423.864	504.34
424.241	548.4
424.617	532.36
424.994	523.09
425.37	544.34
425.746	525.58
426.123	570.55
426.499	566.93
426.875	549.31
427.251	546.6
427.627	567.61
428.003	549.08
428.379	570.32
428.756	575.07
429.132	572.81
429.507	581.4
429.883	573.71
430.259	579.14
430.635	588.85
431.011	628.85
431.387	610.32
431.763	607.61
432.138	619.14
432.514	620.49
432.89	634.28
433.265	627.05
433.641	627.27
434.016	626.37
434.392	639.93
434.767	657.55
435.143	652.36
435.518	644.45
435.894	651.45
436.269	666.82
436.644	674.5
437.02	669.53
437.395	653.26
437.77	698.91
438.145	670.66
438.52	695.52
438.895	702.98
439.271	680.6
439.646	704.56
440.021	708.4
440.395	721.51
440.77	714.73
441.145	733.03
441.52	754.5
441.895	742.97
442.27	741.84
442.645	723.77
443.019	735.29
443.394	755.4
443.769	734.84
444.143	725.57
444.518	779.13
444.892	757.21
445.267	744.78
445.641	772.8
446.016	768.28
446.39	779.36
446.764	786.59
447.139	773.71
447.513	795.4
447.887	792.69
448.262	772.8
448.636	805.57
449.01	820.94
449.384	826.81
449.758	820.71
450.132	813.71
450.506	822.75
450.88	808.06
451.254	855.06
451.628	810.77
452.002	832.69
452.376	869.3
452.75	860.71
453.123	829.98
453.497	875.17
453.871	865.01
454.244	880.6
454.618	872.91
454.992	906.81
455.365	897.55
455.739	900.48
456.112	911.33
456.486	953.59
456.859	937.09
457.232	953.36
457.606	959.69
457.979	960.6
458.352	972.12
458.725	981.61
459.099	983.42
459.472	1015.74
459.845	1003.53
460.218	1019.8
460.591	1013.93
460.964	1005.34
461.337	1055.73
461.71	1062.51
462.083	1032.01
462.456	1080.59
462.829	1087.37
463.201	1067.71
463.574	1079.46
463.947	1102.29
464.32	1138.9
464.692	1133.02
465.065	1130.31
465.438	1147.03
465.81	1155.39
466.183	1170.99
466.555	1210.99
466.928	1181.16
467.3	1194.71
467.672	1210.99
468.045	1229.97
468.417	1234.94
468.789	1285.33
469.161	1277.2
469.534	1298.67
469.906	1307.71
470.278	1331.89
470.65	1323.75
471.022	1365.33
471.394	1422.28
471.766	1387.7
472.138	1395.61
472.51	1443.3
472.882	1474.48
473.253	1473.35
473.625	1501.37
473.997	1506.12
474.369	1517.64
474.74	1529.62
475.112	1590.41
475.484	1602.39
475.855	1637.87
476.227	1620.69
476.598	1688.03
476.97	1711.76
477.341	1728.94
477.713	1772.55
478.084	1780.91
478.455	1808.26
478.827	1844.19
479.198	1878.54
479.569	1918.54
479.94	1965.77
480.311	1953.34
480.682	2005.09
481.053	2047.8
481.424	2090.28
481.795	2091.87
482.166	2134.58
482.537	2125.54
482.908	2224.74
483.279	2246.89
483.65	2249.15
484.021	2297.51
484.391	2355.59
484.762	2358.98
485.133	2398.3
485.503	2437.62
485.874	2512.87
486.244	2507
486.615	2559.65
486.985	2603.04
487.356	2648.46
487.726	2699.53
488.097	2721.23
488.467	2721.91
488.837	2788.8
489.207	2829.93
489.578	2869.92
489.948	2916.03
490.318	2908.79
490.688	2922.8
491.058	2970.26
491.428	3045.51
491.798	3059.07
492.168	3147.43
492.538	3168
492.908	3176.36
493.278	3262.23
493.648	3250.71
494.017	3308.11
494.387	3321.21
494.757	3366.18
495.126	3369.12
495.496	3409.12
495.866	3384.94
496.235	3470.36
496.605	3484.37
496.974	3544.03
497.344	3582
497.713	3586.06
498.082	3614.99
498.452	3627.19
498.821	3670.36
499.19	3660.86
499.559	3697.25
499.928	3747.42
500.298	3763.46
500.667	3801.88
501.036	3754.65
501.405	3811.82
501.774	3847.07
502.143	3859.96
502.512	3902.44
502.88	3949.9
503.249	3921.2
503.618	3949.9
503.987	3944.47
504.356	4000.29
504.724	3995.09
505.093	4009.78
505.462	4040.06
505.83	4059.5
506.199	4137.24
506.567	4144.92
506.936	4140.17
507.304	4162.77
507.672	4186.05
508.041	4239.61
508.409	4226.73
508.777	4198.93
509.145	4313.95
509.514	4317.57
509.882	4330.23
510.25	4299.49
510.618	4325.48
510.986	4426.72
511.354	4389.21
511.722	4445.48
512.09	4411.58
512.458	4435.99
512.826	4472.59
513.193	4469.2
513.561	4499.26
513.929	4559.15
514.297	4550.78
514.664	4596.88
515.032	4594.85
515.4	4598.01
515.767	4592.82
516.135	4698.13
516.502	4628.3
516.869	4668.52
517.237	4705.58
517.604	4717.11
517.972	4731.8
518.339	4812.92
518.706	4766.15
519.073	4796.43
519.44	4818.57
519.808	4835.3
520.175	4854.28
520.542	4899.93
520.909	4868.06
521.276	4892.7
521.643	4882.98
522.009	4946.03
522.376	4982.64
522.743	4980.6
523.11	5027.61
523.477	5062.18
523.843	5104.44
524.21	5158
524.577	5162.75
524.943	5163.42
525.31	5177.89
525.676	5225.79
526.043	5246.36
526.409	5322.06
526.776	5355.51
527.142	5361.16
527.508	5400.25
527.874	5434.38
528.241	5418.11
528.607	5420.82
528.973	5508.27
529.339	5424.43
529.705	5548.5
530.071	5543.53
530.437	5579.01
530.803	5610.64
531.169	5660.59
531.535	5647.25
531.901	5684.31
532.267	5698.1
532.632	5729.74
532.998	5728.83
533.364	5760.24
533.73	5815.61
534.095	5829.17
534.461	5791.43
534.826	5888.6
535.192	5867.81
535.557	5922.95
535.923	5986.9
536.288	5973.12
536.653	5962.5
537.019	6026.23
537.384	6040.01
537.749	6026.68
538.114	6045.43
538.479	6080.69
538.845	6139.67
539.21	6144.41
539.575	6124.98
539.94	6109.16
540.305	6182.38
540.67	6174.92
541.034	6270.29
541.399	6283.85
541.764	6308.93
542.129	6342.83
542.494	6328.82
542.858	6380.57
543.223	6404.52
543.587	6440.45
543.952	6524.74
544.316	6510.96
544.681	6456.95
545.045	6503.28
545.41	6516.83
545.774	6552.09
546.138	6577.17
546.503	6624.85
546.867	6616.72
547.231	6652.42
547.595	6723.38
547.959	6735.81
548.324	6765.87
548.688	6790.05
549.052	6757.96
549.416	6815.81
549.779	6828.92
550.143	6851.51
550.507	6921.57
550.871	6972.19
551.235	6889.93
551.599	6955.69
551.962	6933.55
552.326	6947.33
552.689	7025.97
553.053	6923.83
553.417	7021.23
553.78	7070.27
554.143	7063.94
554.507	7171.28
554.87	7116.59
555.234	7199.98
555.597	7162.24
555.96	7256.02
556.323	7206.08
556.686	7274.55
557.05	7237.27
557.413	7324.72
557.776	7342.12
558.139	7374.21
558.502	7430.71
558.865	7380.99
559.228	7421.67
559.59	7436.36
559.953	7447.21
560.316	7525.17
560.679	7571.04
561.041	7570.59
561.404	7637.48
561.767	7630.03
562.129	7682.91
562.492	7653.98
562.854	7717.48
563.217	7657.14
563.579	7698.72
563.941	7748.21
564.304	7854.43
564.666	7778.95
565.028	7878.38
565.39	7888.78
565.753	7899.62
566.115	7907.98
566.477	7952.95
566.839	7976.68
567.201	8084.25
567.563	8017.13
567.925	8026.17
568.287	8094.19
568.648	8154.31
569.01	8166.96
569.372	8222.33
569.734	8175.32
570.095	8257.13
570.457	8293.28
570.819	8339.39
571.18	8307.97
571.542	8383
571.903	8425.03
572.265	8483.11
572.626	8491.7
572.987	8537.57
573.349	8600.85
573.71	8618.93
574.071	8648.98
574.432	8750
574.794	8766.04
575.155	8785.25
575.516	8844.91
575.877	8921.06
576.238	8987.73
576.599	9086.03
576.96	9062.98
577.32	9105.01
577.681	9263.65
578.042	9291.22
578.403	9460.94
578.763	9464.55
579.124	9413.71
579.485	9602.63
579.845	9717.88
580.206	9833.58
580.566	9891.89
580.927	9945.44
581.287	10126.91
581.648	10180.24
582.008	10370.97
582.368	10370.29
582.728	10569.84
583.089	10657.06
583.449	10790.17
583.809	10897.74
584.169	11111.06
584.529	11238.74
584.889	11429.25
585.249	11623.37
585.609	11683.25
585.969	11928.67
586.329	12072.17
586.688	12305.38
587.048	12389.22
587.408	12548.54
587.768	12847.74
588.127	13036.89
588.487	13185.59
588.846	13458.35
589.206	13595.52
589.565	13878.45
589.925	14106.01
590.284	14286.8
590.643	14510.75
591.003	14850.17
591.362	15068.93
591.721	15263.95
592.08	15545.98
592.44	15789.13
592.799	15998.17
593.158	16233.41
593.517	16453.97
593.876	16778.26
594.235	16957.24
594.593	17304.57
594.952	17508.64
595.311	17763.09
595.67	18062.75
596.029	18387.71
596.387	18608.95
596.746	18975.26
597.104	19141.14
597.463	19394.69
597.822	19852.08
598.18	19895.69
598.538	20153.99
598.897	20587.65
599.255	20630.14
599.613	21235.32
599.972	21395.31
600.33	21666.94
600.688	21827.39
601.046	22173.82
601.404	22464.44
601.762	22716.63
602.12	22971.32
602.478	23277.98
602.836	23423.96
603.194	23559.55
603.552	23855.36
603.91	24166.54
604.268	24258.06
604.625	24505.97
604.983	24862.11
605.341	24995.22
605.698	25396.79
606.056	25736.89
606.413	25828.42
606.771	26071.8
607.128	26266.82
607.485	26352.47
607.843	26740.48
608.2	27127.82
608.557	27178.44
608.914	27263.18
609.272	27628.82
609.629	27782.49
609.986	28180.22
610.343	28129.83
610.7	28590.83
611.057	28765.97
611.414	28808.9
611.771	29032.4
612.127	29220.19
612.484	29314.2
612.841	29620.86
613.198	29701.76
613.554	29827.86
613.911	30142.2
614.267	30257
614.624	30379.94
614.98	30490.67
615.337	30835.52
615.693	30973.37
616.05	31082.97
616.406	31319.12
616.762	31353.92
617.118	31511.21
617.475	31625.55
617.831	31768.6
618.187	31890.86
618.543	31958.2
618.899	32264.86
619.255	32438.19
619.611	32501.24
619.967	32721.34
620.323	32899.42
620.678	32736.26
621.034	32885.63
621.39	33076.36
621.746	32994.1
622.101	33627.76
622.457	33261.67
622.812	33484.26
623.168	33540.3
623.523	33626.18
623.879	33723.12
624.234	33579.63
624.589	33834.08
624.945	33933.74
625.3	33979.16
625.655	34047.64
626.01	34229.55
626.365	34272.49
626.72	34170.34
627.075	34273.39
627.43	34251.47
627.785	34349.77
628.14	34535.31
628.495	34487.17
628.85	34567.4
629.205	34524.46
629.559	34823.66
629.914	34747.96
630.269	34731.69
630.623	34712.48
630.978	34702.99
631.332	34942.98
631.687	34938.46
632.041	34845.58
632.396	34973.04
632.75	34836.09
633.104	34957.67
633.459	34796.09
633.813	34939.82
634.167	34923.32
634.521	34995.86
634.875	35100.94
635.229	34939.36
635.583	34896.2
635.937	34930.78
636.291	34914.05
636.645	34964.67
636.999	34940.95
637.352	35094.39
637.706	34890.1
638.06	35011.23
638.413	34962.19
638.767	34937.1
639.121	35021.62
639.474	34878.57
639.828	34819.59
640.181	34912.25
640.534	34879.25
640.888	34705.02
641.241	34755.87
641.594	34827.28
641.947	34910.21
642.301	34901.17
642.654	34861.17
643.007	34953.83
643.36	34904.56
643.713	34868.41
644.066	34875.41
644.419	34829.08
644.771	34495.53
645.124	34272.04
645.477	34266.16
645.83	34010.57
646.182	34004.7
646.535	33786.63
646.888	33849
647.24	33657.36
647.593	33796.12
647.945	33841.31
648.298	33734.88
648.65	33593.41
649.002	33571.94
649.355	33710.24
649.707	33636.57
650.059	33698.72
650.411	34124.24
650.763	34136.67
651.115	34503.22
651.467	34309.55
651.819	34463.44
652.171	34316.78
652.523	34278.36
652.875	34280.17
653.227	34153.85
653.578	34451.02
653.93	34402.88
654.282	34162.66
654.633	34095.09
654.985	34313.84
655.337	34109.78
655.688	34294.18
656.039	34388.87
656.391	34085.15
656.742	34163.11
657.094	34106.39
657.445	34339.61
657.796	34280.4
658.147	34121.53
658.498	34052.16
658.849	34187.97
659.2	33968.32
659.551	34019.84
659.902	34244.69
660.253	34094.41
660.604	34207.63
660.955	33969.45
661.306	34137.8
661.656	34114.07
662.007	34122.66
662.358	33979.39
662.708	34062.78
663.059	33947.07
663.409	33869.11
663.76	34105.71
664.11	34103.23
664.461	34013.96
664.811	34118.37
665.161	34100.74
665.511	34017.81
665.862	33885.83
666.212	33994.53
666.562	34001.54
666.912	34033.85
667.262	34026.39
667.612	33830.69
667.962	33934.42
668.312	33968.99
668.662	33995.89
669.011	33871.14
669.361	33849.45
669.711	33890.13
670.06	33816.23
670.41	33809.45
670.76	33750.69
671.109	33802.44
671.459	33884.25
671.808	33686.52
672.157	33751.6
672.507	33594.99
672.856	33663.47
673.205	33753.86
673.554	33982.1
673.904	33771.71
674.253	33826.4
674.602	33688.32
674.951	33192.97
675.3	33110.94
675.649	33572.85
675.998	33693.52
676.346	33620.08
676.695	33693.97
677.044	33500.31
677.393	33578.72
677.741	33701.43
678.09	33438.84
678.438	33437.93
678.787	33664.37
679.135	33579.85
679.484	33371.27
679.832	33378.27
680.181	33278.16
680.529	33344.15
680.877	33258.73
681.225	33171.73
681.573	33273.42
681.922	33118.39
682.27	33055.35
682.618	33055.57
682.966	32966.31
683.314	32946.2
683.661	32835.01
684.009	32761.79
684.357	32668.46
684.705	32753.21
685.053	32786.2
685.4	32712.08
685.748	32476.38
686.095	32513.21
686.443	32478.19
686.79	32333.1
687.138	32418.3
687.485	32418.98
687.832	32348.25
688.18	32293.33
688.527	32104.18
688.874	32120.45
689.221	32075.71
689.568	32021.47
689.915	31860.12
690.262	32050.63
690.609	31820.35
690.956	31715.95
691.303	31696.74
691.65	31425.78
691.997	31547.36
692.344	31275.51
692.69	31358.22
693.037	31315.05
693.383	31141.05
693.73	31175.17
694.077	30883.88
694.423	30992.12
694.769	30852.92
695.116	30800.04
695.462	30832.81
695.808	30763.65
696.155	30788.51
696.501	30489.54
696.847	30673.26
697.193	30265.36
697.539	30393.27
697.885	30209.09
698.231	30193.05
698.577	30140.62
698.923	30156.44
699.269	29845.49
699.614	29835.09
699.96	29831.93
700.306	29746.73
700.651	29641.65
700.997	29533.4
701.342	29441.88
701.688	29486.17
702.033	29439.85
702.379	29378.61
702.724	29334.54
703.069	29205.73
703.415	29083.7
703.76	29115.34
704.105	29011.84
704.45	28930.71
704.795	28881.22
705.14	28820.88
705.485	28661.79
705.83	28570.94
706.175	28671.28
706.52	28506.99
706.865	28420.44
707.209	28335.47
707.554	28362.59
707.899	28467.22
708.243	28250.95
708.588	28158.98
708.932	27915.37
709.277	28016.83
709.621	27940.45
709.966	27858.19
710.31	27880.11
710.654	27633.12
710.998	27650.97
711.342	27593.34
711.687	27525.55
712.031	27435.83
712.375	27223.18
712.719	27349.96
713.063	27257.98
713.407	27384.76
713.75	27173.01
714.094	27217.53
714.438	27052.79
714.782	27055.96
715.125	27026.8
715.469	27039.46
715.812	26925.79
716.156	26636.31
716.499	26745.91
716.843	26728.28
717.186	26670.2
717.53	26819.8
717.873	26803.53
718.216	26603.99
718.559	26524.22
718.902	26449.19
719.246	26542.52
719.589	26364.45
719.932	26313.83
720.275	26162.19
720.617	26213.72
720.96	26215.07
721.303	26134.62
721.646	26225.92
721.989	25943.44
722.331	26071.57
722.674	26061.63
723.016	26104.79
723.359	26006.49
723.701	25936.89
724.044	25764.01
724.386	25674.3
724.729	25717.69
725.071	25715.2
725.413	25650.12
725.755	25737.35
726.097	25463.23
726.439	25404.47
726.782	25418.03
727.124	25596.33
727.465	25434.08
727.807	25426.85
728.149	25335.55
728.491	25331.48
728.833	25348.43
729.175	25070.02
729.516	25110.7
729.858	25079.28
730.199	25131.26
730.541	25144.59
730.882	25019.4
731.224	25196.57
731.565	24812.4
731.906	24907.76
732.248	25050.13
732.589	24815.56
732.93	24789.12
733.271	24791.38
733.612	24813.53
733.953	24732.17
734.294	24636.81
734.635	24572.63
734.976	24552.29
735.317	24487.66
735.658	24484.72
735.999	24538.96
736.339	24564.95
736.68	24503.93
737.021	24414.89
737.361	24297.84
737.702	24398.62
738.042	24319.76
738.383	24282.92
738.723	24413.54
739.063	24251.06
739.404	24266.42
739.744	24233.88
740.084	24128.12
740.424	24136.94
740.764	23946.66
741.104	24154.11
741.444	23967.67
741.784	23971.29
742.124	23925.19
742.464	23873.67
742.804	23873.21
743.143	23697.17
743.483	23797.06
743.823	23687
744.162	23688.13
744.502	23697.17
744.841	23630.06
745.181	23645.42
745.52	23623.05
745.86	23668.93
746.199	23639.1
746.538	23501.25
746.877	23608.59
747.216	23494.24
747.556	23473.22
747.895	23415.15
748.234	23320.23
748.573	23261.48
748.911	23350.97
749.25	23253.34
749.589	23201.82
749.928	23160.01
750.267	23219.67
750.605	23165.21
750.944	23075.27
751.283	22955.72
751.621	23064.2
751.96	22900.13
752.298	22794.37
752.636	22968.15
752.975	22741.49
753.313	22675.05
753.651	22793.92
753.989	22653.59
754.327	22529.75
754.666	22533.81
755.004	22609.97
755.342	22518.22
755.679	22467.6
756.017	22370.2
756.355	22430.09
756.693	22329.3
757.031	22233.94
757.368	22233.71
757.706	22157.78
758.044	22041.4
758.381	22121.17
758.719	22067.61
759.056	22010.44
759.394	21978.35
759.731	21958.24
760.068	21771.8
760.405	21774.74
760.743	21718.69
761.08	21759.15
761.417	21536.78
761.754	21510.56
762.091	21470.79
762.428	21396.67
762.765	21296.78
763.102	21321.64
763.438	21268.31
763.775	21154.19
764.112	21157.81
764.449	21158.94
764.785	20981.76
765.122	20884.14
765.458	20795.78
765.795	20817.93
766.131	20888.66
766.467	20657.25
766.804	20622.23
767.14	20517.37
767.476	20614.99
767.812	20429.01
768.148	20395.34
768.485	20303.14
768.821	20240.99
769.157	20171.84
769.492	20135.91
769.828	20131.39
770.164	19961.45
770.5	19867.9
770.836	19899.08
771.171	19850.04
771.507	19732.08
771.842	19583.61
772.178	19622.7
772.513	19456.38
772.849	19500.67
773.184	19386.33
773.519	19375.71
773.855	19252.09
774.19	19157.86
774.525	19183.85
774.86	19120.57
775.195	18958.77
775.53	18969.39
775.865	18923.74
776.2	18742.95
776.535	18646.01
776.87	18705.89
777.205	18546.12
777.539	18518.55
777.874	18516.52
778.209	18255.73
778.543	18382.06
778.878	18209.41
779.212	18196.98
779.547	18200.59
779.881	18110.2
780.215	17984.33
780.55	17989.53
780.884	17890.77
781.218	17784.79
781.552	17788.18
781.886	17746.14
782.22	17577.33
782.554	17535.08
782.888	17406.27
783.222	17357.45
783.556	17270.22
783.889	17192.03
784.223	17178.25
784.557	17087.18
784.89	17161.98
785.224	17089.66
785.557	16944.36
785.891	16926.5
786.224	16881.53
786.558	16853.74
786.891	16603.12
787.224	16599.51
787.557	16600.41
787.891	16655.32
788.224	16620.3
788.557	16526.29
788.89	16418.27
789.223	16422.11
789.556	16282
789.888	16249.91
790.221	16084.04
790.554	16050.37
790.887	16087.66
791.219	15962.91
791.552	15969.02
791.884	15885.63
792.217	15786.42
792.549	15757.72
792.882	15694.9
793.214	15570.16
793.546	15695.58
793.879	15471.4
794.211	15514.79
794.543	15453.55
794.875	15403.61
795.207	15449.71
795.539	15363.16
795.871	15351.86
796.203	15187.11
796.535	15124.29
796.867	15100.34
797.198	14970.62
797.53	15019.21
797.862	14909.61
798.193	14893.11
798.525	14815.83
798.856	14927.91
799.188	14761.59
799.519	14695.38
799.85	14646.11
800.182	14665.32
800.513	14653.34
800.844	14459.45
801.175	14543.52
801.506	14482.5
801.837	14421.03
802.168	14347.59
802.499	14327.25
802.83	14234.15
803.161	14200.02
803.491	14180.81
803.822	14173.36
804.153	14139.91
804.483	14080.93
804.814	13941.05
805.145	13961.61
805.475	14020.14
805.805	13912.35
806.136	13767.04
806.466	13854.49
806.796	13888.62
807.126	13675.29
807.457	13692.24
807.787	13638
808.117	13569.3
808.447	13606.59
808.777	13608.63
809.107	13555.29
809.436	13431.68
809.766	13419.03
810.096	13398.69
810.426	13385.58
810.755	13410.21
811.085	13282.08
811.414	13289.09
811.744	13222.65
812.073	13145.36
812.403	13166.38
812.732	13060.62
813.061	13113.5
813.39	13078.7
813.719	13022.65
814.049	13037.11
814.378	13024.69
814.707	12965.03
815.036	12929.1
815.365	12869.44
815.693	12737.91
816.022	12742.66
816.351	12730
816.68	12643.23
817.008	12660.63
817.337	12592.83
817.665	12536.56
817.994	12545.83
818.322	12615.21
818.651	12496.56
818.979	12406.85
819.307	12409.79
819.636	12408.43
819.964	12335.21
820.292	12374.53
820.62	12357.58
820.948	12367.08
821.276	12358.94
821.604	12289.11
821.932	12403.91
822.259	12352.61
822.587	12282.78
822.915	12208.66
823.243	12265.16
823.57	12280.98
823.898	12307.64
824.225	12284.59
824.553	12261.54
824.88	12283.91
825.207	12234.65
825.535	12263.8
825.862	12280.98
826.189	12249.79
826.516	12311.26
826.843	12297.47
827.17	12280.98
827.497	12300.19
827.824	12321.2
828.151	12293.63
828.478	12199.17
828.805	12376.34
829.131	12257.93
829.458	12261.32
829.785	12157.82
830.111	12210.7
830.438	12300.86
830.764	12257.7
831.09	12310.13
831.417	12188.1
831.743	12280.3
832.069	12273.75
832.395	12131.83
832.722	12176.8
833.048	12140.42
833.374	12134.09
833.7	12109.46
834.026	12142.22
834.351	12117.14
834.677	12147.19
835.003	12138.61
835.329	12144.71
835.654	12045.05
835.98	12002.34
836.306	11973.41
836.631	12021.1
836.956	12085.28
837.282	12091.15
837.607	11951.95
837.932	11943.58
838.258	11972.96
838.583	11842.57
838.908	11856.81
839.233	11890.93
839.558	11825.85
839.883	11772.29
840.208	11738.84
840.533	11815.68
840.858	11794.89
841.182	11751.95
841.507	11725.96
841.832	11614.33
842.156	11676.92
842.481	11676.47
842.805	11595.12
843.13	11556.02
843.454	11538.62
843.778	11504.73
844.103	11510.38
844.427	11486.42
844.751	11502.47
845.075	11383.37
845.399	11427.21
845.723	11305.86
846.047	11367.78
846.371	11222.47
846.695	11188.35
847.019	11095.24
847.343	11101.8
847.666	10992.87
847.99	10952.42
848.313	11028.81
848.637	10902.93
848.96	10878.08
849.284	10914.46
849.607	10880.34
849.931	10847.79
850.254	10715.82
850.577	10626.1
850.9	10622.94
851.223	10640.12
851.546	10521.47
851.869	10415.49
852.192	10570.06
852.515	10448.48
852.838	10360.8
853.161	10408.03
853.483	10355.83
853.806	10260.01
854.129	10304.31
854.451	10230.18
854.774	10182.5
855.096	10164.2
855.419	10086.23
855.741	10096.4
856.063	9995.39
856.385	9979.34
856.708	9967.59
857.03	9924.65
857.352	9991.32
857.674	9854.37
857.996	9819.12
858.318	9851.21
858.64	9844.43
858.961	9786.35
859.283	9776.86
859.605	9695.28
859.926	9773.7
860.248	9616.64
860.57	9704.55
860.891	9628.62
861.212	9589.07
861.534	9612.35
861.855	9547.94
862.176	9539.13
862.498	9521.73
862.819	9575.96
863.14	9427.27
863.461	9453.03
863.782	9416.19
864.103	9509.98
864.424	9390.21
864.745	9389.3
865.065	9338.68
865.386	9328.06
865.707	9333.03
866.027	9382.97
866.348	9323.77
866.668	9318.57
866.989	9308.17
867.309	9249.64
867.63	9249.19
867.95	9252.58
868.27	9211.45
868.59	9233.6
868.91	9179.14
869.23	9174.17
869.55	9100.04
869.87	9192.47
870.19	9119.93
870.51	9158.12
870.83	9088.29
871.15	9052.36
871.469	9031.12
871.789	9136.2
872.109	9116.54
872.428	8946.37
872.748	9066.15
873.067	9004
873.386	8990.67
873.706	8940.73
874.025	8930.56
874.344	8915.87
874.663	8948.18
874.982	8935.3
875.301	8925.13
875.62	8846.49
875.939	8819.37
876.258	8864.57
876.577	8816.66
876.896	8805.81
877.214	8782.54
877.533	8796.32
877.852	8766.94
878.17	8794.06
878.489	8771.24
878.807	8807.85
879.125	8702.54
879.444	8644.46
879.762	8677.68
880.08	8616.21
880.398	8622.99
880.716	8640.39
881.034	8642.2
881.352	8587.06
881.67	8597.01
881.988	8605.14
882.306	8589.32
882.624	8468.87
882.941	8486.73
883.259	8480.17
883.577	8444.92
883.894	8452.15
884.212	8428.42
884.529	8415.54
884.846	8378.48
885.164	8349.33
885.481	8329.89
885.798	8394.07
886.115	8290.12
886.432	8300.06
886.75	8270.91
887.067	8221.2
887.383	8204.25
887.7	8215.55
888.017	8131.03
888.334	8168.54
888.651	8198.15
888.967	8110.92
889.284	8079.73
889.6	8024.37
889.917	7999.73
890.233	8032.05
890.55	8008.77
890.866	8026.17
891.182	7910.02
891.498	7953.63
891.815	7956.8
892.131	7942.33
892.447	7905.5
892.763	7836.35
893.079	7846.97
893.395	7752.51
893.71	7822.79
894.026	7757.71
894.342	7790.47
894.657	7685.39
894.973	7720.19
895.289	7676.58
895.604	7696.24
895.92	7593.64
896.235	7596.81
896.55	7559.74
896.865	7564.49
897.181	7523.59
897.496	7487.88
897.811	7494.66
898.126	7486.3
898.441	7410.82
898.756	7387.55
899.071	7367.66
899.386	7337.83
899.7	7309.36
900.015	7321.33
900.33	7259.64
900.644	7262.58
900.959	7249.24
901.273	7185.74
901.588	7145.07
901.902	7125.18
902.216	7060.55
902.531	7040.21
902.845	7043.83
903.159	7019.65
903.473	7005.41
903.787	6937.84
904.101	6946.2
904.415	6870.27
904.729	6928.8
905.042	6882.7
905.356	6837.96
905.67	6830.05
905.984	6771.97
906.297	6771.97
906.611	6718.86
906.924	6691.97
907.237	6732.87
907.551	6660.79
907.864	6712.76
908.177	6648.58
908.491	6670.95
908.804	6582.6
909.117	6560.67
909.43	6534.01
909.743	6453.56
910.056	6461.47
910.368	6462.15
910.681	6371.08
910.994	6407.23
911.307	6335.14
911.619	6354.13
911.932	6283.39
912.244	6267.58
912.557	6305.54
912.869	6226.67
913.181	6195.94
913.494	6237.07
913.806	6136.28
914.118	6173.57
914.43	6133.79
914.742	6061.25
915.054	6029.84
915.366	6047.02
915.678	6010.63
915.99	5986.45
916.302	5946.91
916.613	5874.82
916.925	5955.72
917.236	5903.97
917.548	5883.86
917.859	5851.99
918.171	5801.82
918.482	5776.74
918.794	5766.12
919.105	5768.61
919.416	5690.42
919.727	5698.55
920.038	5697.65
920.349	5673.24
920.66	5578.55
920.971	5562.51
921.282	5590.53
921.593	5544.2
921.903	5569.06
922.214	5540.59
922.525	5478.67
922.835	5426.24
923.146	5470.76
923.456	5444.09
923.767	5363.42
924.077	5363.42
924.387	5338.56
924.697	5355.51
925.008	5340.82
925.318	5278.9
925.628	5287.94
925.938	5246.59
926.248	5211.11
926.558	5172.46
926.867	5184.89
927.177	5171.78
927.487	5136.76
927.796	5115.74
928.106	5114.84
928.416	5090.43
928.725	5070.77
929.034	5063.54
929.344	5045.69
929.653	4996.87
929.962	4936.99
930.271	4948.29
930.581	4969.3
930.89	4891.34
931.199	4870.55
931.508	4858.35
931.817	4868.06
932.125	4849.99
932.434	4819.03
932.743	4767.95
933.051	4795.75
933.36	4796.88
933.669	4714.62
933.977	4687.28
934.286	4707.16
934.594	4660.61
934.902	4651.57
935.21	4600.27
935.519	4644.12
935.827	4613.83
936.135	4522.31
936.443	4522.08
936.751	4527.28
937.059	4472.82
937.367	4493.84
937.674	4460.84
937.982	4445.02
938.29	4418.58
938.597	4395.53
938.905	4378.81
939.213	4373.16
939.52	4358.02
939.827	4331.58
940.135	4294.97
940.442	4298.14
940.749	4305.37
941.056	4252.26
941.363	4212.49
941.67	4244.8
941.977	4250.45
942.284	4159.61
942.591	4180.85
942.898	4150.12
943.205	4178.36
943.511	4104.92
943.818	4170.91
944.125	4077.8
944.431	4078.03
944.738	4042.1
945.044	4051.14
945.35	4033.96
945.657	3998.26
945.963	3972.95
946.269	3946.05
946.575	3967.07
946.881	3930.24
947.187	3948.09
947.493	3912.61
947.799	3874.42
948.105	3889.33
948.41	3814.08
948.716	3888.2
949.022	3806.85
949.327	3810.69
949.633	3796
949.938	3751.94
950.244	3754.87
950.549	3764.36
950.854	3701.32
951.16	3687.3
951.465	3710.13
951.77	3669
952.075	3678.26
952.38	3646.85
952.685	3622.9
952.99	3577.02
953.294	3583.58
953.599	3613.63
953.904	3596.46
954.209	3540.42
954.513	3549
954.818	3566.4
955.122	3487.76
955.426	3467.65
955.731	3460.42
956.035	3451.83
956.339	3457.48
956.643	3464.94
956.948	3403.02
957.252	3442.56
957.556	3407.76
957.86	3372.28
958.163	3373.87
958.467	3352.4
958.771	3350.36
959.075	3323.7
959.378	3264.04
959.682	3265.85
959.985	3241.89
960.289	3311.72
960.592	3243.7
960.896	3219.52
961.199	3233.76
961.502	3201.89
961.805	3182.01
962.108	3157.83
962.411	3158.96
962.714	3163.48
963.017	3156.7
963.32	3159.18
963.623	3109.47
963.926	3084.61
964.228	3107.88
964.531	3091.84
964.833	3080.09
965.136	3053.65
965.438	3060.43
965.741	3049.35
966.043	3020.2
966.345	2993.76
966.648	3015.01
966.95	2965.97
967.252	2963.03
967.554	2937.95
967.856	2979.53
968.158	2952.86
968.46	2904.27
968.761	2891.17
969.063	2889.81
969.365	2870.83
969.666	2911.28
969.968	2847.55
970.269	2829.47
970.571	2841.68
970.872	2806.88
971.174	2766.88
971.475	2754.22
971.776	2767.33
972.077	2792.41
972.378	2752.41
972.679	2756.48
972.98	2784.28
973.281	2696.37
973.582	2706.76
973.883	2683.26
974.183	2669.93
974.484	2699.08
974.785	2664.05
975.085	2653.66
975.386	2676.26
975.686	2652.76
975.986	2608.24
976.287	2603.04
976.587	2596.71
976.887	2575.47
977.187	2574.79
977.487	2551.74
977.787	2561.91
978.087	2547.9
978.387	2521.23
978.687	2548.8
978.987	2495.25
979.286	2472.65
979.586	2474.45
979.885	2466.77
980.185	2475.36
980.484	2457.96
980.784	2434.91
981.083	2437.85
981.382	2450.73
981.682	2417.51
981.981	2426.32
982.28	2343.84
982.579	2360.79
982.878	2378.19
983.177	2386.77
983.475	2353.1
983.774	2338.64
984.073	2297.06
984.372	2305.42
984.67	2292.99
984.969	2340.9
985.267	2311.75
985.566	2298.87
985.864	2266.32
986.162	2262.71
986.461	2233.56
986.759	2256.16
987.057	2226.55
987.355	2195.82
987.653	2205.08
987.951	2198.76
988.249	2198.98
988.547	2175.93
988.844	2166.44
989.142	2152.88
989.44	2167.34
989.737	2109.72
990.035	2127.8
990.332	2122.6
990.63	2128.02
990.927	2117.18
991.224	2116.95
991.521	2088.93
991.819	2059.1
992.116	2082.6
992.413	2063.17
992.71	2041.7
993.006	2018.2
993.303	2038.53
993.6	2049.16
993.897	2021.81
994.193	1996.28
994.49	1982.94
994.787	2021.59
995.083	1994.24
995.379	1973.9
995.676	1989.5
995.972	1959.67
996.268	1971.64
996.565	1953.56
996.861	1943.85
997.157	1888.48
997.453	1890.74
997.749	1912.89
998.044	1868.14
998.34	1902.04
998.636	1865.21
998.932	1824.53
999.227	1843.74
999.523	1848.26
999.818	1836.96
1000.114	1817.07
1000.409	1802.83
1000.704	1798.09
1001	1776.39
1001.295	1745.21
1001.59	1774.59
1001.885	1787.92
1002.18	1763.51
1002.475	1743.85
1002.77	1731.42
1003.065	1714.02
1003.359	1728.26
1003.654	1725.55
1003.949	1704.76
1004.243	1696.85
1004.538	1681.71
1004.832	1660.46
1005.127	1657.98
1005.421	1696.4
1005.715	1659.11
1006.009	1682.84
1006.304	1647.13
1006.598	1609.84
1006.892	1596.06
1007.186	1601.26
1007.48	1589.05
1007.773	1580.24
1008.067	1564.2
1008.361	1559.45
1008.655	1576.63
1008.948	1550.19
1009.242	1541.15
1009.535	1537.76
1009.829	1487.14
1010.122	1551.54
1010.415	1512.9
1010.708	1522.39
1011.001	1486.46
1011.295	1502.73
1011.588	1486.01
1011.881	1470.41
1012.173	1495.05
1012.466	1462.96
1012.759	1454.82
1013.052	1428.61
1013.344	1425.44
1013.637	1390.87
1013.93	1443.52
1014.222	1411.88
1014.514	1424.09
1014.807	1424.76
1015.099	1396.06
1015.391	1365.78
1015.683	1397.19
1015.976	1377.53
1016.268	1371.88
1016.56	1372.56
1016.851	1346.35
1017.143	1305.22
1017.435	1323.3
1017.727	1333.92
1018.018	1309.51
1018.31	1289.63
1018.602	1298.89
1018.893	1292.11
1019.185	1277.88
1019.476	1279.01
1019.767	1275.84
1020.058	1239.46
1020.35	1249.63
1020.641	1238.78
1020.932	1231.78
1021.223	1230.42
1021.514	1247.37
1021.804	1201.72
1022.095	1208.5
1022.386	1185
1022.677	1181.16
1022.967	1169.4
1023.258	1156.07
1023.548	1169.86
1023.839	1142.51
1024.129	1131.89
1024.419	1136.41
1024.709	1127.82
1025	1118.33
1025.29	1116.07
1025.58	1118.56
1025.87	1111.78
1026.16	1109.52
1026.449	1101.84
1026.739	1093.25
1027.029	1075.62
1027.319	1084.21
1027.608	1054.15
1027.898	1071.55
1028.187	1062.74
1028.477	1071.33
1028.766	1048.05
1029.055	1035.17
1029.344	1017.09
1029.634	1031.78
1029.923	1023.19
1030.212	1006.7
1030.501	1009.86
1030.79	972.12
1031.078	974.61
1031.367	999.24
1031.656	978.9
1031.945	939.35
1032.233	955.62
1032.522	991.78
1032.81	947.72
1033.099	936.42
1033.387	954.49
1033.675	954.49
1033.963	921.28
1034.251	937.32
1034.54	907.26
1034.828	914.27
1035.116	903.87
1035.403	902.97
1035.691	907.04
1035.979	889.41
1036.267	883.76
1036.554	852.8
1036.842	879.24
1037.129	879.02
1037.417	851.9
1037.704	878.79
1037.992	864.55
1038.279	827.49
1038.566	856.19
1038.853	856.19
1039.14	856.19
