Data from hue_180_FLMS001491_00024.txt Node
Date: Tue Feb 07 16:46:45 GMT 2017
User: dcchb
Spectrometer: FLMS00149
Trigger mode: 0
Integration Time (sec): 2.000000E-2
Scans to average: 10
Electric dark correction enabled: true
Nonlinearity correction enabled: false
Boxcar width: 0
XAxis mode: Wavelengths
Number of Pixels in Spectrum: 2048
>>>>>Begin Spectral Data<<<<<
341.393	-30.18
341.776	-30.18
342.16	-30.18
342.543	-62.27
342.927	-55.94
343.31	-64.31
343.693	-74.48
344.077	-56.17
344.46	-39.22
344.843	-68.83
345.226	-47.36
345.61	-24.53
345.993	-27.47
346.376	-7.13
346.759	9.59
347.142	20.21
347.525	43.94
347.908	77.16
348.291	87.78
348.674	79.19
349.057	91.62
349.44	108.8
349.823	132.07
350.206	157.16
350.588	182.92
350.971	203.71
351.354	202.13
351.737	217.49
352.119	238.51
352.502	257.27
352.884	294.78
353.267	262.24
353.65	320.09
354.032	289.36
354.414	283.48
354.797	283.26
355.179	303.82
355.562	311.5
355.944	316.7
356.326	332.75
356.709	298.85
357.091	328
357.473	323.48
357.855	320.09
358.238	346.53
358.62	332.97
359.002	346.08
359.384	314.67
359.766	329.13
360.148	311.5
360.53	323.93
360.912	337.04
361.294	352.86
361.676	332.29
362.057	302.24
362.439	338.4
362.821	316.7
363.203	310.15
363.584	346.98
363.966	311.73
364.348	325.29
364.729	306.76
365.111	307.66
365.493	296.81
365.874	320.09
366.256	319.86
366.637	315.8
367.019	321.22
367.4	302.01
367.781	308.34
368.163	304.27
368.544	308.34
368.925	319.64
369.306	291.16
369.688	306.53
370.069	311.96
370.45	291.39
370.831	312.63
371.212	309.24
371.593	314.67
371.974	297.27
372.355	308.11
372.736	298.4
373.117	298.62
373.498	298.62
373.879	315.34
374.26	317.38
374.641	314.44
375.021	299.98
375.402	309.7
375.783	325.51
376.163	312.41
376.544	311.05
376.925	323.48
377.305	314.44
377.686	311.28
378.066	294.1
378.447	315.8
378.827	317.83
379.208	320.09
379.588	347.43
379.968	347.21
380.349	330.71
380.729	331.84
381.109	323.93
381.489	330.26
381.87	332.52
382.25	332.75
382.63	334.55
383.01	346.08
383.39	323.93
383.77	316.25
384.15	343.59
384.53	330.49
384.91	334.78
385.29	323.25
385.67	343.59
386.049	335.01
386.429	334.78
386.809	348.79
387.189	353.54
387.568	342.69
387.948	349.69
388.328	344.27
388.707	353.08
389.087	330.03
389.466	349.92
389.846	346.53
390.225	329.13
390.605	346.76
390.984	362.58
391.363	340.65
391.743	387.43
392.122	344.5
392.501	380.65
392.881	370.71
393.26	351.05
393.639	375
394.018	365.51
394.397	364.38
394.776	376.13
395.155	385.17
395.534	367.77
395.913	373.87
396.292	379.52
396.671	388.34
397.05	386.76
397.429	370.71
397.808	377.49
398.186	391.05
398.565	385.85
398.944	384.5
399.323	406.42
399.701	389.69
400.08	389.02
400.458	387.66
400.837	391.95
401.215	392.63
401.594	394.21
401.972	429.47
402.351	405.51
402.729	400.54
403.107	387.89
403.486	420.88
403.864	421.78
404.242	420.2
404.62	416.81
404.999	418.62
405.377	432.63
405.755	432.63
406.133	455.45
406.511	454.32
406.889	465.17
407.267	463.36
407.645	479.86
408.023	462.46
408.401	473.53
408.779	454.32
409.156	483.02
409.534	461.78
409.912	481.89
410.29	497.49
410.667	492.74
411.045	507.43
411.422	520.99
411.8	534.55
412.178	511.05
412.555	525.73
412.933	535
413.31	537.26
413.687	548.79
414.065	547.66
414.442	556.47
414.819	584.26
415.197	567.09
415.574	586.3
415.951	598.5
416.328	607.31
416.705	599.41
417.082	603.02
417.46	623.36
417.837	637.6
418.214	638.5
418.591	616.35
418.967	645.51
419.344	664.94
419.721	623.59
420.098	676.24
420.475	681.89
420.852	680.31
421.228	679.18
421.605	717.59
421.982	734.32
422.358	713.07
422.735	726.86
423.111	746.29
423.488	774.54
423.864	795.33
424.241	778.38
424.617	786.29
424.994	807.54
425.37	799.85
425.746	814.09
426.123	838.49
426.499	826.29
426.875	846.63
427.251	882.79
427.627	870.13
428.003	888.89
428.379	884.82
428.756	924.82
429.132	925.72
429.507	930.24
429.883	925.05
430.259	922.11
430.635	939.96
431.011	923.46
431.387	996.23
431.763	989.68
432.138	1007.08
432.514	1045.27
432.89	1013.18
433.265	1027.64
433.641	1036.91
434.016	1069.45
434.392	1091.6
434.767	1141.76
435.143	1101.31
435.518	1148.77
435.894	1150.13
436.269	1174.31
436.644	1228.54
437.02	1212.5
437.395	1220.86
437.77	1222.67
438.145	1250.69
438.52	1268.99
438.895	1305.38
439.271	1310.35
439.646	1340.85
440.021	1381.08
440.395	1362.55
440.77	1375.43
441.145	1379.72
441.52	1427.86
441.895	1419.72
442.27	1449.1
442.645	1454.98
443.019	1457.01
443.394	1474.86
443.769	1482.55
444.143	1501.08
444.518	1530.91
444.892	1531.81
445.267	1547.4
445.641	1569.55
446.016	1580.85
446.39	1575.2
446.764	1582.88
447.139	1622.88
447.513	1613.39
447.887	1618.36
448.262	1638.47
448.636	1682.31
449.01	1662.88
449.384	1661.3
449.758	1709.43
450.132	1721.41
450.506	1721.64
450.88	1715.53
451.254	1770.9
451.628	1805.93
452.002	1783.78
452.376	1827.4
452.75	1834.4
453.123	1858.36
453.497	1878.92
453.871	1885.25
454.244	1942.19
454.618	1949.88
454.992	1994.62
455.365	1961.86
455.739	2008.63
456.112	2014.51
456.486	2059.25
456.859	2093.15
457.232	2113.94
457.606	2109.87
457.979	2120.04
458.352	2160.04
458.725	2214.28
459.099	2213.37
459.472	2232.81
459.845	2289.76
460.218	2282.3
460.591	2335.18
460.964	2356.87
461.337	2432.35
461.71	2450.43
462.083	2478.23
462.456	2488.17
462.829	2485.23
463.201	2487.94
463.574	2567.71
463.947	2572.01
464.32	2651.1
464.692	2701.04
465.065	2699.91
465.438	2729.74
465.81	2789.4
466.183	2792.79
466.555	2879.8
466.928	2919.12
467.3	2902.62
467.672	2919.12
468.045	3052.45
468.417	3035.05
468.789	3119.11
469.161	3127.7
469.534	3201.14
469.906	3257.64
470.278	3262.39
470.65	3350.97
471.022	3357.98
471.394	3467.13
471.766	3503.06
472.138	3519.78
472.51	3639.1
472.882	3705.99
473.253	3752.99
473.625	3808.59
473.997	3863.5
474.369	3907.34
474.74	3974.46
475.112	4028.24
475.484	4115.47
475.855	4178.75
476.227	4246.09
476.598	4352.3
476.97	4376.93
477.341	4473.65
477.713	4616.02
478.084	4624.16
478.455	4745.51
478.827	4774.66
479.198	4969.69
479.569	4967.43
479.94	5167.42
480.311	5187.08
480.682	5323.8
481.053	5437.92
481.424	5512.95
481.795	5583.45
482.166	5724.69
482.537	5766.73
482.908	5885.37
483.279	5975.53
483.65	6116.1
484.021	6276.32
484.391	6396.99
484.762	6402.42
485.133	6517.89
485.503	6576.2
485.874	6744.33
486.244	6821.39
486.615	6992.01
486.985	7069.52
487.356	7208.04
487.726	7270.19
488.097	7399.45
488.467	7477.19
488.837	7643.74
489.207	7681.25
489.578	7866.33
489.948	7914.02
490.318	8071.3
490.688	8140
491.058	8223.84
491.428	8350.84
491.798	8447.11
492.168	8631.96
492.538	8695.92
492.908	8814.33
493.278	8900.2
493.648	8942.69
494.017	9007.77
494.387	9078.28
494.757	9252.51
495.126	9284.83
495.496	9320.98
495.866	9397.82
496.235	9441.88
496.605	9616.57
496.974	9606.17
497.344	9724.59
497.713	9766.4
498.082	9836
498.452	9876.22
498.821	9978.14
499.19	9954.19
499.559	10059.5
499.928	10099.72
500.298	10162.32
500.667	10271.47
501.036	10271.02
501.405	10337.45
501.774	10394.63
502.143	10439.82
502.512	10453.84
502.88	10542.65
503.249	10523.44
503.618	10627.39
503.987	10621.29
504.356	10665.13
504.724	10779.25
505.093	10748.52
505.462	10710.78
505.83	10848.63
506.199	10886.59
506.567	10977.44
506.936	10955.29
507.304	11013.14
507.672	11058.34
508.041	11056.76
508.409	11124.33
508.777	11270.99
509.145	11247.94
509.514	11203.42
509.882	11215.17
510.25	11269.41
510.618	11402.74
510.986	11351.66
511.354	11355.96
511.722	11463.53
512.09	11455.39
512.458	11426.24
512.826	11543.98
513.193	11500.36
513.561	11548.95
513.929	11479.57
514.297	11659.45
514.664	11633.47
515.032	11705.78
515.4	11729.28
515.767	11738.32
516.135	11781.03
516.502	11673.69
516.869	11784.2
517.237	11734.25
517.604	11755.5
517.972	11791.88
518.339	11833.01
518.706	11826
519.073	11801.14
519.44	11844.76
519.808	11864.19
520.175	11859.67
520.542	11899
520.909	11977.41
521.276	11941.03
521.643	11955.04
522.009	11908.94
522.376	12019.9
522.743	12012.21
523.11	12001.14
523.477	12031.87
523.843	12082.27
524.21	12142.15
524.577	12093.57
524.943	12124.98
525.31	12208.59
525.676	12151.87
526.043	12189.38
526.409	12150.74
526.776	12187.58
527.142	12200
527.508	12261.25
527.874	12231.19
528.241	12215.37
528.607	12198.87
528.973	12189.61
529.339	12103.51
529.705	12169.04
530.071	12236.61
530.437	12266.89
530.803	12203.62
531.169	12193.45
531.535	12042.72
531.901	12105.77
532.267	12049.27
532.632	12113.23
532.998	12040.01
533.364	12068.26
533.73	11971.54
534.095	11989.84
534.461	11999.11
534.826	11985.55
535.192	11963.17
535.557	11911.2
535.923	11869.62
536.288	11862.16
536.653	11837.75
537.019	11705.78
537.384	11708.72
537.749	11720.69
538.114	11652.45
538.479	11545.56
538.845	11566.8
539.21	11500.81
539.575	11505.11
539.94	11424.88
540.305	11459.01
540.67	11318.45
541.034	11297.88
541.399	11323.87
541.764	11245.9
542.129	11223.08
542.494	11234.38
542.858	11131.33
543.223	11095.63
543.587	11090.43
543.952	11005.91
544.316	10976.99
544.681	10871.68
545.045	10884.78
545.41	10890.66
545.774	10887.72
546.138	10774.73
546.503	10756.65
546.867	10749.65
547.231	10671
547.595	10710.78
547.959	10620.16
548.324	10510.11
548.688	10518.47
549.052	10424.91
549.416	10436.21
549.779	10394.4
550.143	10325.7
550.507	10417.68
550.871	10295.87
551.235	10290.22
551.599	10239.38
551.962	10152.6
552.326	10122.77
552.689	10146.05
553.053	10113.96
553.417	9973.4
553.78	10080.29
554.143	10007.97
554.507	9903.12
554.87	10026.05
555.234	10001.64
555.597	9975.43
555.96	9844.36
556.323	9833.29
556.686	9865.6
557.05	9743.8
557.413	9807.75
557.776	9734.08
558.139	9783.8
558.502	9712.61
558.865	9669.68
559.228	9725.04
559.59	9647.75
559.953	9657.47
560.316	9710.58
560.679	9655.44
561.041	9616.57
561.404	9679.39
561.767	9629.68
562.129	9593.97
562.492	9589
562.854	9555.78
563.217	9557.14
563.579	9599.17
563.941	9581.99
564.304	9651.37
564.666	9596.91
565.028	9554.65
565.39	9636
565.753	9643.01
566.115	9530.24
566.477	9600.75
566.839	9572.28
567.201	9586.06
567.563	9614.76
567.925	9584.71
568.287	9544.03
568.648	9623.12
569.01	9633.74
569.372	9603.69
569.734	9518.27
570.095	9580.64
570.457	9546.29
570.819	9534.31
571.18	9522.56
571.542	9619.73
571.903	9575.21
572.265	9627.42
572.626	9639.85
572.987	9579.96
573.349	9645.27
573.71	9531.83
574.071	9630.35
574.432	9588.32
574.794	9654.99
575.155	9582.67
575.516	9608.21
575.877	9583.12
576.238	9539.06
576.599	9650.01
576.96	9543.35
577.32	9559.4
577.681	9602.78
578.042	9593.07
578.403	9606.85
578.763	9582.22
579.124	9555.55
579.485	9527.08
579.845	9577.25
580.206	9556.23
580.566	9485.5
580.927	9567.76
581.287	9543.35
581.648	9525.95
582.008	9581.77
582.368	9522.79
582.728	9500.41
583.089	9536.57
583.449	9461.77
583.809	9476.23
584.169	9491.83
584.529	9501.32
584.889	9536.35
585.249	9484.82
585.609	9462.9
585.969	9486.18
586.329	9339.29
586.688	9414.99
587.048	9416.12
587.408	9448.44
587.768	9454.99
588.127	9372.06
588.487	9358.27
588.846	9401.66
589.206	9321.89
589.565	9362.56
589.925	9414.31
590.284	9317.37
590.643	9304.26
591.003	9348.33
591.362	9326.18
591.721	9252.28
592.08	9320.31
592.44	9281.66
592.799	9321.21
593.158	9242.79
593.517	9332.96
593.876	9224.49
594.235	9250.25
594.593	9203.25
594.952	9241.66
595.311	9196.24
595.67	9203.92
596.029	9244.15
596.387	9277.6
596.746	9306.29
597.104	9224.04
597.463	9184.04
597.822	9227.2
598.18	9179.74
598.538	9125.51
598.897	9179.29
599.255	9160.54
599.613	9253.87
599.972	9239.86
600.33	9190.82
600.688	9132.51
601.046	9122.12
601.404	9207.99
601.762	9103.81
602.12	9151.95
602.478	9162.57
602.836	9187.88
603.194	9159.63
603.552	9108.11
603.91	9195.34
604.268	9127.77
604.625	9148.33
604.983	9095
605.341	9090.71
605.698	9135.9
606.056	9127.32
606.413	9131.61
606.771	9137.26
607.128	9099.07
607.485	9032.86
607.843	9125.06
608.2	9079.41
608.557	9219.74
608.914	9128.45
609.272	9150.82
609.629	9157.82
609.986	9156.69
610.343	9173.64
610.7	9208.67
611.057	9210.03
611.414	9168.67
611.771	9165.06
612.127	9217.48
612.484	9160.31
612.841	9164.38
613.198	9179.29
613.554	9226.52
613.911	9235.11
614.267	9137.03
614.624	9163.93
614.98	9208.44
615.337	9325.05
615.693	9304.49
616.05	9235.56
616.406	9255.45
616.762	9227.43
617.118	9265.62
617.475	9195.11
617.831	9286.18
618.187	9238.73
618.543	9278.05
618.899	9262.91
619.255	9312.62
619.611	9274.88
619.967	9325.05
620.323	9313.75
620.678	9259.52
621.034	9241.44
621.39	9288.44
621.746	9222.46
622.101	9380.19
622.457	9296.58
622.812	9275.11
623.168	9369.12
623.523	9299.52
623.879	9347.42
624.234	9202.79
624.589	9292.06
624.945	9295.22
625.3	9326.86
625.655	9302.68
626.01	9265.84
626.365	9333.19
626.72	9264.04
627.075	9299.74
627.43	9285.96
627.785	9277.14
628.14	9254.09
628.495	9255.22
628.85	9223.13
629.205	9205.05
629.559	9311.27
629.914	9238.05
630.269	9218.61
630.623	9232.85
630.978	9168.67
631.332	9149.69
631.687	9183.36
632.041	9155.34
632.396	9133.42
632.75	9179.97
633.104	9133.87
633.459	9189.91
633.813	9102.01
634.167	9101.1
634.521	9126.64
634.875	9174.32
635.229	9127.54
635.583	9080.76
635.937	9048.67
636.291	9059.97
636.645	8996.92
636.999	8970.26
637.352	9036.47
637.706	9010.26
638.06	8994.44
638.413	8972.52
638.767	9013.2
639.121	8983.37
639.474	8896.14
639.828	8929.13
640.181	8907.21
640.534	8917.83
640.888	8942.69
641.241	8879.19
641.594	8902.01
641.947	8899.3
642.301	8848
642.654	8891.39
643.007	8902.92
643.36	8919.19
643.713	8843.93
644.066	8855.46
644.419	8862.24
644.771	8850.49
645.124	8703.37
645.477	8742.02
645.83	8566.2
646.182	8602.81
646.535	8606.43
646.888	8616.82
647.24	8570.95
647.593	8623.37
647.945	8556.71
648.298	8575.92
648.65	8524.39
649.002	8528.91
649.355	8527.11
649.707	8590.83
650.059	8609.36
650.411	8709.02
650.763	8680.77
651.115	8819.3
651.467	8754.44
651.819	8721
652.171	8760.32
652.523	8730.72
652.875	8667.44
653.227	8674.45
653.578	8753.09
653.93	8711.73
654.282	8741.79
654.633	8709.25
654.985	8800.77
655.337	8731.17
655.688	8724.62
656.039	8775.69
656.391	8720.1
656.742	8770.49
657.094	8775.69
657.445	8790.6
657.796	8819.98
658.147	8686.42
658.498	8810.04
658.849	8788.12
659.2	8746.99
659.551	8846.65
659.902	8786.31
660.253	8819.3
660.604	8874.44
660.955	8721.9
661.306	8882.13
661.656	8787.89
662.007	8843.48
662.358	8815.01
662.708	8863.37
663.059	8791.73
663.409	8780.66
663.76	8835.57
664.11	8840.54
664.461	8852.3
664.811	8864.27
665.161	8866.53
665.511	8850.94
665.862	8817.04
666.212	8826.31
666.562	8810.71
666.912	8833.99
667.262	8835.35
667.612	8898.62
667.962	8873.31
668.312	8838.28
668.662	8888.45
669.011	8863.82
669.361	8855.46
669.711	8855.69
670.06	8944.04
670.41	8797.38
670.76	8830.6
671.109	8831.28
671.459	8808.45
671.808	8856.59
672.157	8881.67
672.507	8798.96
672.856	8777.72
673.205	8899.98
673.554	8814.33
673.904	8787.89
674.253	8871.5
674.602	8793.09
674.951	8667.22
675.3	8565.75
675.649	8788.34
675.998	8736.14
676.346	8753.77
676.695	8745.86
677.044	8699.31
677.393	8726.2
677.741	8716.71
678.09	8653.88
678.438	8702.69
678.787	8649.81
679.135	8680.1
679.484	8586.09
679.832	8623.6
680.181	8579.99
680.529	8634
680.877	8544.51
681.225	8504.96
681.573	8581.57
681.922	8532.98
682.27	8476.03
682.618	8482.36
682.966	8408.92
683.314	8507.45
683.661	8383.61
684.009	8397.39
684.357	8397.84
684.705	8385.42
685.053	8448.01
685.4	8332.99
685.748	8281.01
686.095	8325.98
686.443	8265.87
686.79	8212.54
687.138	8275.81
687.485	8278.98
687.832	8279.66
688.18	8212.99
688.527	8233.33
688.874	8134.35
689.221	8142.48
689.568	8150.85
689.915	8065.65
690.262	8101.13
690.609	8071.75
690.956	8030.62
691.303	7986.78
691.65	7927.12
691.997	7963.28
692.344	7871.3
692.69	7898.87
693.037	7830.85
693.383	7805.32
693.73	7770.52
694.077	7777.97
694.423	7760.8
694.769	7713.57
695.116	7694.13
695.462	7662.27
695.808	7665.21
696.155	7634.47
696.501	7568.26
696.847	7604.64
697.193	7583.63
697.539	7497.98
697.885	7395.16
698.231	7447.81
698.577	7422.73
698.923	7416.18
699.269	7325.78
699.614	7380.02
699.96	7282.62
700.306	7276.74
700.651	7290.98
700.997	7239.91
701.342	7188.84
701.688	7190.64
702.033	7115.39
702.379	7135.96
702.724	7109.97
703.069	7161.72
703.415	7075.39
703.76	7003.98
704.105	7064.55
704.45	7047.82
704.795	6985.68
705.14	6941.39
705.485	6898.9
705.83	6880.82
706.175	6833.82
706.52	6837.89
706.865	6795.17
707.209	6776.42
707.554	6792.69
707.899	6806.7
708.243	6773.03
708.588	6700.04
708.932	6696.42
709.277	6687.61
709.621	6676.53
709.966	6637.89
710.31	6639.92
710.654	6536.42
710.998	6604.44
711.342	6556.76
711.687	6571.45
712.031	6536.65
712.375	6501.62
712.719	6559.93
713.063	6497.56
713.407	6504.11
713.75	6512.7
714.094	6442.19
714.438	6447.39
714.782	6410.55
715.125	6432.25
715.469	6389.54
715.812	6365.58
716.156	6354.96
716.499	6381.17
716.843	6385.24
717.186	6353.6
717.53	6362.42
717.873	6327.16
718.216	6339.14
718.559	6271.8
718.902	6299.82
719.246	6292.36
719.589	6295.75
719.932	6272.25
720.275	6219.6
720.617	6236.32
720.96	6219.14
721.303	6215.53
721.646	6232.25
721.989	6200.61
722.331	6201.29
722.674	6225.25
723.016	6226.6
723.359	6192.03
723.701	6208.07
724.044	6179.82
724.386	6141.41
724.729	6184.12
725.071	6164.91
725.413	6191.12
725.755	6189.09
726.097	6128.75
726.439	6182.54
726.782	6140.95
727.124	6168.75
727.465	6131.69
727.807	6149.77
728.149	6135.98
728.491	6090.79
728.833	6137.11
729.175	6123.55
729.516	6094.63
729.858	6140.05
730.199	6097.11
730.541	6117.9
730.882	6093.05
731.224	6124.91
731.565	6117.9
731.906	6115.87
732.248	6122.2
732.589	6105.48
732.93	6118.13
733.271	6084.23
733.612	6092.82
733.953	6052.14
734.294	6107.96
734.635	6144.12
734.976	6152.25
735.317	6119.71
735.658	6123.78
735.999	6131.46
736.339	6157
736.68	6175.76
737.021	6145.93
737.361	6137.79
737.702	6258.92
738.042	6145.93
738.383	6152.48
738.723	6186.15
739.063	6189.54
739.404	6254.4
739.744	6183.67
740.084	6144.57
740.424	6282.65
740.764	6228.41
741.104	6288.97
741.444	6234.74
741.784	6257.56
742.124	6319.03
742.464	6320.84
742.804	6377.56
743.143	6325.13
743.483	6382.53
743.823	6334.85
744.162	6435.86
744.502	6474.73
744.841	6474.96
745.181	6514.05
745.52	6512.7
745.86	6590.21
746.199	6634.27
746.538	6611.45
746.877	6691.45
747.216	6719.47
747.556	6786.36
747.895	6834.72
748.234	6795.63
748.573	6820.71
748.911	6937.54
749.25	7051.21
749.589	7019.12
749.928	7161.49
750.267	7228.84
750.605	7266.35
750.944	7335.95
751.283	7359
751.621	7474.48
751.96	7507.02
752.298	7655.72
752.636	7747.01
752.975	7797.18
753.313	7942.26
753.651	8049.38
753.989	8130.05
754.327	8194.01
754.666	8362.36
755.004	8504.96
755.342	8563.72
755.679	8728.91
756.017	8845.74
756.355	8997.83
756.693	9164.6
757.031	9309.46
757.368	9324.6
757.706	9472.17
758.044	9619.05
758.381	9854.98
758.719	9966.62
759.056	10165.26
759.394	10272.82
759.731	10383.55
760.068	10571.35
760.405	10697.44
760.743	10914.84
761.08	11063.99
761.417	11147.38
761.754	11395.28
762.091	11549.63
762.428	11603.41
762.765	11812.44
763.102	12035.26
763.438	12154.13
763.775	12346.89
764.112	12504.85
764.449	12696.49
764.785	12783.72
765.122	12959.76
765.458	13057.16
765.795	13248.56
766.131	13496.47
766.467	13593.41
766.804	13706.41
767.14	13809
767.476	14060.75
767.812	14090.58
768.148	14300.29
768.485	14421.19
768.821	14601.75
769.157	14690.11
769.492	14806.04
769.828	14956.32
770.164	14962.64
770.5	15163.09
770.836	15377.32
771.171	15350.66
771.507	15465.68
771.842	15509.07
772.178	15723.53
772.513	15778.22
772.849	15853.02
773.184	15909.29
773.519	16024.54
773.855	16138.43
774.19	16164.42
774.525	16292.55
774.86	16333
775.195	16419.33
775.53	16471.76
775.865	16462.04
776.2	16487.12
776.535	16537.52
776.87	16623.39
777.205	16638.76
777.539	16633.11
777.874	16792.65
778.209	16756.27
778.543	16749.49
778.878	16795.59
779.212	16860.22
779.547	16910.16
779.881	17055.02
780.215	16944.51
780.55	17041.68
780.884	17052.08
781.218	17130.5
781.552	17074.45
781.886	17031.29
782.22	16974.57
782.554	17029.48
782.888	16970.95
783.222	17044.62
783.556	17044.4
783.889	16960.56
784.223	17010.5
784.557	17010.27
784.89	17113.77
785.224	17032.87
785.557	16972.53
785.891	16985.87
786.224	16957.39
786.558	17012.31
786.891	16831.75
787.224	16922.37
787.557	16845.76
787.891	16912.87
788.224	16798.3
788.557	16921.69
788.89	16888.24
789.223	16867.68
789.556	16829.26
789.888	16812.31
790.221	16780.22
790.554	16654.8
790.887	16672.43
791.219	16609.61
791.552	16631.53
791.884	16570.96
792.217	16501.59
792.549	16635.59
792.882	16458.42
793.214	16421.14
793.546	16425.66
793.879	16391.76
794.211	16347.92
794.543	16458.42
794.875	16327.35
795.207	16429.5
795.539	16330.06
795.871	16387.69
796.203	16232.44
796.535	16242.38
796.867	16208.49
797.198	16108.38
797.53	16160.13
797.862	16047.36
798.193	16141.14
798.525	15950.41
798.856	16075.16
799.188	15935.95
799.519	15877.42
799.85	15759.01
800.182	15816.86
800.513	15797.42
800.844	15719.91
801.175	15802.62
801.506	15697.54
801.837	15685.56
802.168	15670.65
802.499	15652.57
802.83	15556.98
803.161	15597.88
803.491	15511.78
803.822	15533.48
804.153	15477.66
804.483	15427.94
804.814	15302.07
805.145	15362.86
805.475	15333.93
805.805	15183.65
806.136	15159.93
806.466	15260.49
806.796	15164.9
807.126	15086.26
807.457	15047.39
807.787	15082.87
808.117	14986.82
808.447	14983.66
808.777	14948.18
809.107	14911.57
809.436	14842.87
809.766	14892.36
810.096	14887.84
810.426	14820.73
810.755	14801.52
811.085	14836.09
811.414	14808.07
811.744	14637.91
812.073	14653.05
812.403	14655.76
812.732	14647.62
813.061	14522.43
813.39	14511.13
813.719	14399.72
814.049	14590.45
814.378	14460.51
814.707	14434.97
815.036	14422.32
815.365	14440.17
815.693	14206.5
816.022	14249.44
816.351	14208.09
816.68	14136.68
817.008	14212.15
817.337	14073.85
817.665	14142.33
817.994	14121.54
818.322	14078.37
818.651	14060.52
818.979	14047.41
819.307	14110.24
819.636	13988.66
819.964	13993.4
820.292	14030.24
820.62	14019.39
820.948	13918.38
821.276	13982.1
821.604	14009.9
821.932	14047.87
822.259	13970.13
822.587	13976.45
822.915	13872.28
823.243	14004.7
823.57	13917.93
823.898	13938.72
824.225	13832.5
824.553	13958.38
824.88	13935.1
825.207	14036.79
825.535	14023.46
825.862	13995.89
826.189	13918.15
826.516	14016.91
826.843	13971.93
827.17	13975.78
827.497	13972.39
827.824	14045.61
828.151	14008.09
828.478	13985.27
828.805	13944.82
829.131	13984.82
829.458	13939.62
829.785	13891.94
830.111	14001.54
830.438	13979.39
830.764	13965.38
831.09	14066.4
831.417	13958.83
831.743	13936
832.069	14032.95
832.395	13872.05
832.722	13907.76
833.048	13840.64
833.374	13901.2
833.7	13855.55
834.026	13937.59
834.351	13876.8
834.677	13883.58
835.003	13877.02
835.329	13820.75
835.654	13907.98
835.98	13751.38
836.306	13785.5
836.631	13717.93
836.956	13810.13
837.282	13810.13
837.607	13613.98
837.932	13713.64
838.258	13648.55
838.583	13667.08
838.908	13536.69
839.233	13618.5
839.558	13576.92
839.883	13510.7
840.208	13526.97
840.533	13625.05
840.858	13512.51
841.182	13520.2
841.507	13441.78
841.832	13406.53
842.156	13417.83
842.481	13306.64
842.805	13352.74
843.13	13284.95
843.454	13317.94
843.778	13264.83
844.103	13295.34
844.427	13188.9
844.751	13191.39
845.075	13127.44
845.399	13107.1
845.723	13075.01
846.047	13038.85
846.371	12938.97
846.695	12978.29
847.019	12786.66
847.343	12847.67
847.666	12704.4
847.99	12730.39
848.313	12682.48
848.637	12575.14
848.96	12614.91
849.284	12599.09
849.607	12429.38
849.931	12438.87
850.254	12409.49
850.577	12304.63
850.9	12258.31
851.223	12230.51
851.546	12197.29
851.869	12070.74
852.192	12075.26
852.515	11998.2
852.838	11928.82
853.161	11964.3
853.483	11896.96
853.806	11870.3
854.129	11916.4
854.451	11837.75
854.774	11719.79
855.096	11699.68
855.419	11707.81
855.741	11595.05
856.063	11531.1
856.385	11552.79
856.708	11521.15
857.03	11465.11
857.352	11478.67
857.674	11403.87
857.996	11433.02
858.318	11348.73
858.64	11359.35
858.961	11312.12
859.283	11283.87
859.605	11219.69
859.926	11251.55
860.248	11149.64
860.57	11145.34
860.891	11093.59
861.212	11052.69
861.534	11061.73
861.855	11003.43
862.176	10972.01
862.498	11032.58
862.819	11046.36
863.14	10972.69
863.461	10987.61
863.782	10936.31
864.103	10953.26
864.424	10811.79
864.745	10887.5
865.065	10814.5
865.386	10757.33
865.707	10758.23
866.027	10748.74
866.348	10830.1
866.668	10788.29
866.989	10723.66
867.309	10669.42
867.63	10674.17
867.95	10713.04
868.27	10609.09
868.59	10659.48
868.91	10556.66
869.23	10539.03
869.55	10631.23
869.87	10594.85
870.19	10492.48
870.51	10571.12
870.83	10546.71
871.15	10514.85
871.469	10469.2
871.789	10540.61
872.109	10467.85
872.428	10402.09
872.748	10400.05
873.067	10462.65
873.386	10401.86
873.706	10397.11
874.025	10426.49
874.344	10286.38
874.663	10324.8
874.982	10294.07
875.301	10312.14
875.62	10235.31
875.939	10184.92
876.258	10224.69
876.577	10223.11
876.896	10241.19
877.214	10172.26
877.533	10182.2
877.852	10189.66
878.17	10102.88
878.489	10051.36
878.807	10134.97
879.125	10105.82
879.444	10061.3
879.762	10041.19
880.08	9999.38
880.398	9960.97
880.716	10003.9
881.034	10012.26
881.352	9909.89
881.67	9913.28
881.988	9916.9
882.306	9838.26
882.624	9834.19
882.941	9828.54
883.259	9814.08
883.577	9731.59
883.894	9787.41
884.212	9737.92
884.529	9727.75
884.846	9705.83
885.164	9748.54
885.481	9581.32
885.798	9700.86
886.115	9596.23
886.432	9526.4
886.75	9588.55
887.067	9571.82
887.383	9594.65
887.7	9626.06
888.017	9504.93
888.334	9496.57
888.651	9444.37
888.967	9484.82
889.284	9368.44
889.6	9408.44
889.917	9355.33
890.233	9393.75
890.55	9258.39
890.866	9266.97
891.182	9285.28
891.498	9246.86
891.815	9171.38
892.131	9113.53
892.447	9135
892.763	9067.66
893.079	9057.26
893.395	8972.97
893.71	8998.28
894.026	9035.57
894.342	8942.91
894.657	8896.36
894.973	8879.19
895.289	8862.46
895.604	8855.23
895.92	8791.28
896.235	8717.16
896.55	8786.76
896.865	8743.82
897.181	8669.93
897.496	8713.77
897.811	8628.12
898.126	8641.45
898.441	8545.86
898.756	8532.76
899.071	8520.33
899.386	8502.47
899.7	8449.59
900.015	8381.35
900.33	8282.82
900.644	8374.12
900.959	8326.89
901.273	8332.08
901.588	8249.83
901.902	8172.77
902.216	8157.4
902.531	8133.44
902.845	8149.49
903.159	8089.38
903.473	8061.81
903.787	8071.07
904.101	7932.55
904.415	7931.64
904.729	7973
905.042	7920.57
905.356	7905.43
905.67	7831.53
905.984	7839.21
906.297	7808.93
906.611	7700.46
906.924	7748.6
907.237	7671.99
907.551	7703.17
907.864	7671.76
908.177	7629.95
908.491	7622.27
908.804	7570.75
909.117	7504.08
909.43	7457.08
909.743	7439.45
910.056	7432.67
910.368	7387.02
910.681	7348.15
910.994	7374.14
911.307	7309.51
911.619	7250.76
911.932	7284.43
912.244	7243.98
912.557	7202.4
912.869	7135.5
913.181	7133.92
913.494	7072.23
913.806	7071.1
914.118	7080.82
914.43	6996.75
914.742	6947.94
915.054	6939.8
915.366	6946.13
915.678	6867.71
915.99	6837.89
916.302	6800.37
916.613	6784.1
916.925	6825.46
917.236	6787.94
917.548	6713.82
917.859	6744.78
918.171	6689.64
918.482	6661.62
918.794	6644.9
919.105	6615.29
919.416	6539.81
919.727	6546.37
920.038	6570.32
920.349	6495.97
920.66	6451.45
920.971	6436.99
921.282	6431.34
921.593	6361.97
921.903	6326.94
922.214	6345.92
922.525	6343.43
922.835	6287.84
923.146	6244.91
923.456	6266.37
923.767	6211.01
924.077	6185.25
924.387	6171.69
924.697	6130.56
925.008	6126.04
925.318	6086.27
925.628	6078.36
925.938	6017.57
926.248	5919.04
926.558	6016.44
926.867	5985.03
927.177	5923.33
927.487	5903.9
927.796	5918.81
928.106	5867.74
928.416	5842.88
928.725	5807.4
929.034	5790.91
929.344	5728.08
929.653	5767.18
929.962	5757.24
930.271	5656.45
930.581	5722.21
930.89	5698.71
931.199	5653.74
931.508	5604.7
931.817	5563.57
932.125	5573.96
932.434	5580.97
932.743	5517.92
933.051	5461.88
933.36	5425.72
933.669	5456.9
933.977	5397.47
934.286	5375.55
934.594	5402.44
934.902	5338.04
935.21	5315.89
935.519	5293.52
935.827	5297.36
936.135	5237.25
936.443	5198.83
936.751	5207.19
937.059	5215.78
937.367	5175.56
937.674	5214.88
937.982	5095.78
938.29	5153.64
938.597	5137.82
938.905	5059.85
939.213	5073.86
939.52	5035.22
939.827	5027.54
940.135	4958.61
940.442	4999.06
940.749	4919.74
941.056	4910.03
941.363	4917.94
941.67	4828.45
941.977	4801.1
942.284	4863.02
942.591	4830.93
942.898	4774.89
943.205	4781.89
943.511	4768.79
943.818	4783.25
944.125	4679.75
944.431	4698.96
944.738	4673.87
945.044	4645.4
945.35	4668.45
945.657	4595.23
945.963	4590.71
946.269	4557.95
946.575	4556.82
946.881	4500.09
947.187	4559.3
947.493	4516.59
947.799	4512.97
948.105	4498.96
948.41	4441.34
948.716	4447.21
949.022	4389.59
949.327	4413.09
949.633	4341.91
949.938	4359.76
950.244	4354.79
950.549	4329.93
950.854	4290.83
951.16	4279.76
951.465	4279.08
951.77	4261
952.075	4206.99
952.38	4194.56
952.685	4216.26
952.99	4173.55
953.294	4165.19
953.599	4137.39
953.904	4113.21
954.209	4084.29
954.513	4069.14
954.818	4005.87
955.122	4083.61
955.426	4080.44
955.731	4019.65
956.035	3994.57
956.339	3977.17
956.643	3959.99
956.948	3958.64
957.252	3918.19
957.556	3906.44
957.86	3899.43
958.163	3882.03
958.467	3864.63
958.771	3821.24
959.075	3828.02
959.378	3823.95
959.682	3809.49
959.985	3783.28
960.289	3764.52
960.592	3736.05
960.896	3726.33
961.199	3724.07
961.502	3694.92
961.805	3687.23
962.108	3638.2
962.411	3647.01
962.714	3612.43
963.017	3619.89
963.32	3617.4
963.623	3610.4
963.926	3590.96
964.228	3554.36
964.531	3570.4
964.833	3543.28
965.136	3501.02
965.438	3498.54
965.741	3468.48
966.043	3462.38
966.345	3474.58
966.648	3442.49
966.95	3382.16
967.252	3391.65
967.554	3386.45
967.856	3358.65
968.158	3347.13
968.46	3348.26
968.761	3359.33
969.063	3316.4
969.365	3299
969.666	3293.57
969.968	3286.34
970.269	3258.32
970.571	3281.59
970.872	3237.08
971.174	3216.74
971.475	3203.18
971.776	3155.95
972.077	3167.25
972.378	3128.15
972.679	3186.46
972.98	3146.91
973.281	3142.62
973.582	3126.34
973.883	3074.37
974.183	3091.77
974.484	3088.61
974.785	3058.55
975.085	3029.17
975.386	3050.41
975.686	3000.47
975.986	2988.72
976.287	3006.12
976.587	2951.89
976.887	2966.57
977.187	2964.09
977.487	2966.57
977.787	2922.73
978.087	2937.42
978.387	2911.66
978.687	2909.85
978.987	2833.24
979.286	2875.96
979.586	2861.72
979.885	2829.63
980.185	2835.96
980.484	2833.02
980.784	2804.09
981.083	2790.53
981.382	2793.02
981.682	2746.69
981.981	2738.56
982.28	2738.56
982.579	2717.77
982.878	2701.72
983.177	2698.78
983.475	2717.09
983.774	2644.32
984.073	2686.58
984.372	2620.37
984.67	2629.86
984.969	2632.8
985.267	2621.05
985.566	2579.01
985.864	2559.35
986.162	2569.07
986.461	2547.15
986.759	2569.97
987.057	2541.5
987.355	2521.16
987.653	2555.06
987.951	2519.81
988.249	2492.46
988.547	2487.04
988.844	2438
989.142	2482.52
989.44	2453.37
989.737	2440.94
990.035	2409.53
990.332	2449.07
990.63	2432.8
990.927	2381.28
991.224	2357.33
991.521	2378.57
991.819	2360.26
992.116	2356.65
992.413	2330.43
992.71	2366.82
993.006	2314.16
993.303	2323.65
993.6	2306.25
993.897	2300.6
994.193	2281.39
994.49	2291.34
994.787	2288.85
995.083	2244.56
995.379	2217.22
995.676	2247.95
995.972	2199.36
996.268	2212.92
996.565	2191.68
996.861	2160.49
997.157	2173.83
997.453	2163.21
997.749	2161.62
998.044	2125.92
998.34	2127.05
998.636	2100.38
998.932	2129.31
999.227	2104
999.523	2081.63
999.818	2068.97
1000.114	2050.89
1000.409	2039.59
1000.704	2044.79
1001	2056.77
1001.295	2014.28
1001.59	1959.37
1001.885	2020.61
1002.18	2009.99
1002.475	2007.5
1002.77	1991.01
1003.065	1960.27
1003.359	1957.34
1003.654	1940.84
1003.949	1926.6
1004.243	1882.54
1004.538	1875.98
1004.832	1886.38
1005.127	1897.9
1005.421	1891.57
1005.715	1861.52
1006.009	1838.24
1006.304	1834.63
1006.598	1832.82
1006.892	1836.66
1007.186	1812.03
1007.48	1776.55
1007.773	1764.35
1008.067	1769.77
1008.361	1777.91
1008.655	1755.53
1008.948	1766.38
1009.242	1738.81
1009.535	1734.06
1009.829	1732.26
1010.122	1686.61
1010.415	1720.73
1010.708	1683.67
1011.001	1700.85
1011.295	1669.43
1011.588	1643.67
1011.881	1661.07
1012.173	1671.69
1012.466	1639.15
1012.759	1619.72
1013.052	1602.77
1013.344	1599.6
1013.637	1599.83
1013.93	1581.53
1014.222	1566.39
1014.514	1567.97
1014.807	1580.4
1015.099	1532.71
1015.391	1563.9
1015.683	1545.82
1015.976	1543.11
1016.268	1508.76
1016.56	1519.15
1016.851	1498.82
1017.143	1499.27
1017.435	1458.14
1017.727	1477.12
1018.018	1442.32
1018.31	1457.01
1018.602	1430.34
1018.893	1389.67
1019.185	1437.35
1019.476	1410.23
1019.767	1377.69
1020.058	1390.12
1020.35	1388.76
1020.641	1391.25
1020.932	1361.42
1021.223	1354.64
1021.514	1351.48
1021.804	1353.96
1022.095	1320.74
1022.386	1327.3
1022.677	1318.26
1022.967	1297.47
1023.258	1292.49
1023.548	1315.09
1023.839	1280.29
1024.129	1284.36
1024.419	1273.06
1024.709	1272.83
1025	1232.61
1025.29	1247.98
1025.58	1243
1025.87	1233.96
1026.16	1244.81
1026.449	1220.86
1026.739	1202.33
1027.029	1196.23
1027.319	1181.54
1027.608	1179.28
1027.898	1162.33
1028.187	1146.28
1028.477	1149.22
1028.766	1144.93
1029.055	1153.74
1029.344	1144.48
1029.634	1121.2
1029.923	1127.98
1030.212	1131.14
1030.501	1109.45
1030.79	1074.65
1031.078	1105.15
1031.367	1089.79
1031.656	1086.17
1031.945	1064.25
1032.233	1044.82
1032.522	1057.92
1032.81	1052.05
1033.099	1024.48
1033.387	1020.64
1033.675	1059.28
1033.963	1051.6
1034.251	1003.24
1034.54	1032.16
1034.828	1005.27
1035.116	1011.6
1035.403	975.44
1035.691	998.04
1035.979	989.9
1036.267	969.79
1036.554	976.34
1036.842	966.18
1037.129	965.72
1037.417	962.79
1037.704	933.86
1037.992	943.35
1038.279	912.17
1038.566	895.89
1038.853	895.89
1039.14	895.89
