Data from hue_250_FLMS001491_00046.txt Node
Date: Tue Feb 07 16:01:02 GMT 2017
User: dcchb
Spectrometer: FLMS00149
Trigger mode: 0
Integration Time (sec): 2.000000E-2
Scans to average: 10
Electric dark correction enabled: true
Nonlinearity correction enabled: false
Boxcar width: 0
XAxis mode: Wavelengths
Number of Pixels in Spectrum: 2048
>>>>>Begin Spectral Data<<<<<
341.393	-20.37
341.776	-20.37
342.16	-20.37
342.543	-62.17
342.927	-63.98
343.31	-61.27
343.693	-84.55
344.077	-69.86
344.46	-59.01
344.843	-53.81
345.226	-45.45
345.61	-10.65
345.993	-6.36
346.376	5.62
346.759	16.24
347.142	38.39
347.525	42.23
347.908	63.02
348.291	53.08
348.674	73.42
349.057	98.95
349.44	103.02
349.823	151.38
350.206	156.58
350.588	183.24
350.971	200.87
351.354	205.39
351.737	239.51
352.119	240.19
352.502	219.63
352.884	252.17
353.267	260.76
353.65	272.51
354.032	303.69
354.414	295.56
354.797	296.46
355.179	303.47
355.562	308.66
355.944	303.69
356.326	323.81
356.709	298.04
357.091	310.92
357.473	328.78
357.855	332.84
358.238	311.15
358.62	330.58
359.002	333.3
359.384	331.94
359.766	342.56
360.148	340.98
360.53	333.07
360.912	334.65
361.294	324.93
361.676	322.45
362.057	319.06
362.439	317.7
362.821	321.77
363.203	314.09
363.584	321.09
363.966	316.35
364.348	318.16
364.729	312.73
365.111	324.71
365.493	320.42
365.874	310.02
366.256	291.94
366.637	293.52
367.019	298.72
367.4	306.86
367.781	304.6
368.163	309.34
368.544	314.09
368.925	298.04
369.306	317.93
369.688	322
370.069	302.11
370.45	309.79
370.831	287.42
371.212	323.81
371.593	320.87
371.974	307.08
372.355	300.53
372.736	314.09
373.117	314.77
373.498	299.85
373.879	314.09
374.26	303.69
374.641	299.85
375.021	299.85
375.402	315.9
375.783	301.43
376.163	326.52
376.544	317.93
376.925	305.05
377.305	308.44
377.686	321.32
378.066	324.71
378.447	312.28
378.827	336.23
379.208	318.83
379.588	326.74
379.968	323.81
380.349	322.45
380.729	311.6
381.109	338.04
381.489	331.26
381.87	335.1
382.25	333.52
382.63	320.19
383.01	328.55
383.39	355.44
383.77	331.71
384.15	357.25
384.53	340.75
384.91	345.95
385.29	348.89
385.67	330.36
386.049	345.95
386.429	364.03
386.809	360.87
387.189	351.15
387.568	348.89
387.948	352.05
388.328	345.05
388.707	355.22
389.087	366.29
389.466	363.13
389.846	354.54
390.225	347.08
390.605	339.85
390.984	360.41
391.363	360.41
391.743	375.33
392.122	368.55
392.501	373.07
392.881	379.4
393.26	354.99
393.639	369.45
394.018	371.04
394.397	362.45
394.776	379.85
395.155	370.36
395.534	374.88
395.913	364.03
396.292	378.04
396.671	382.11
397.05	408.55
397.429	398.38
397.808	391.83
398.186	415.1
398.565	391.6
398.944	403.8
399.323	394.99
399.701	407.42
400.08	397.02
400.458	400.41
400.837	403.58
401.215	402.22
401.594	420.75
401.972	429.79
402.351	434.08
402.729	418.72
403.107	409
403.486	435.89
403.864	425.5
404.242	446.51
404.62	422.11
404.999	419.4
405.377	444.03
405.755	435.21
406.133	455.78
406.511	451.26
406.889	460.07
407.267	453.97
407.645	470.69
408.023	472.73
408.401	479.51
408.779	469.56
409.156	476.57
409.534	489.22
409.912	482.22
410.29	511.6
410.667	508.66
411.045	510.92
411.422	538.71
411.8	507.98
412.178	510.69
412.555	548.66
412.933	549.34
413.31	573.74
413.687	556.12
414.065	577.13
414.442	567.41
414.819	583.91
415.197	587.98
415.574	561.31
415.951	583.01
416.328	611.03
416.705	614.42
417.082	598.6
417.46	632.95
417.837	609.45
418.214	619.16
418.591	618.49
418.967	616.45
419.344	633.4
419.721	651.25
420.098	647.86
420.475	677.69
420.852	682.89
421.228	682.67
421.605	690.35
421.982	697.13
422.358	701.2
422.735	733.06
423.111	736
423.488	732.61
423.864	755.43
424.241	750.23
424.617	779.61
424.994	797.01
425.37	768.54
425.746	784.81
426.123	794.98
426.499	813.74
426.875	815.77
427.251	845.37
427.627	841.31
428.003	835.88
428.379	840.85
428.756	865.94
429.132	882.21
429.507	865.03
429.883	904.35
430.259	908.2
430.635	915.65
431.011	904.58
431.387	972.15
431.763	942.55
432.138	972.83
432.514	974.64
432.89	995.2
433.265	1009.66
433.641	1004.92
434.016	1020.28
434.392	1032.04
434.767	1071.13
435.143	1068.64
435.518	1088.53
435.894	1104.12
436.269	1117.91
436.644	1134.86
437.02	1133.73
437.395	1160.85
437.77	1168.98
438.145	1186.83
438.52	1211.92
438.895	1213.5
439.271	1226.38
439.646	1263.44
440.021	1253.05
440.395	1278.13
440.77	1296.89
441.145	1290.11
441.52	1287.4
441.895	1335.98
442.27	1327.62
442.645	1333.5
443.019	1361.07
443.394	1364
443.769	1371.24
444.143	1369.43
444.518	1399.71
444.892	1406.71
445.267	1423.44
445.641	1425.47
446.016	1457.79
446.39	1462.31
446.764	1467.5
447.139	1459.59
447.513	1449.65
447.887	1454.4
448.262	1464.11
448.636	1513.38
449.01	1532.13
449.384	1519.48
449.758	1539.59
450.132	1590.21
450.506	1557.44
450.88	1588.18
451.254	1560.83
451.628	1578.46
452.002	1619.14
452.376	1622.3
452.75	1631.12
453.123	1630.44
453.497	1674.28
453.871	1692.13
454.244	1702.07
454.618	1712.92
454.992	1737.33
455.365	1760.83
455.739	1803.31
456.112	1798.79
456.486	1796.53
456.859	1813.26
457.232	1868.4
457.606	1866.82
457.979	1876.08
458.352	1900.26
458.725	1927.15
459.099	1938.23
459.472	1972.35
459.845	1993.37
460.218	2017.32
460.591	2028.39
460.964	2029.07
461.337	2060.93
461.71	2089.86
462.083	2118.33
462.456	2139.8
462.829	2157.43
463.201	2197.88
463.574	2173.93
463.947	2203.3
464.32	2260.25
464.692	2286.92
465.065	2287.37
465.438	2307.26
465.81	2314.26
466.183	2371.89
466.555	2376.18
466.928	2424.09
467.3	2394.71
467.672	2443.98
468.045	2533.92
468.417	2491.21
468.789	2530.98
469.161	2546.35
469.534	2589.96
469.906	2646.23
470.278	2666.79
470.65	2691.2
471.022	2705.21
471.394	2775.49
471.766	2780.24
472.138	2820.01
472.51	2872.21
472.882	2900.23
473.253	2914.25
473.625	2993.79
473.997	3018.88
474.369	3025.43
474.74	3061.36
475.112	3123.05
475.484	3187.91
475.855	3202.6
476.227	3231.53
476.598	3309.49
476.97	3354.23
477.341	3380
477.713	3444.63
478.084	3424.97
478.455	3506.09
478.827	3573.66
479.198	3630.84
479.569	3632.64
479.94	3730.04
480.311	3811.85
480.682	3833.54
481.053	3902.02
481.424	3983.37
481.795	3974.1
482.166	4025.85
482.537	4051.39
482.908	4144.72
483.279	4195.79
483.65	4244.61
484.021	4332.74
484.391	4355.56
484.762	4400.76
485.133	4399.63
485.503	4502.68
485.874	4572.51
486.244	4625.16
486.615	4682.33
486.985	4678.94
487.356	4766.17
487.726	4781.31
488.097	4920.52
488.467	4875.55
488.837	5031.93
489.207	5058.14
489.578	5086.17
489.948	5184.92
490.318	5209.33
490.688	5181.53
491.058	5311.24
491.428	5351.24
491.798	5366.38
492.168	5480.05
492.538	5459.94
492.908	5563.44
493.278	5571.8
493.648	5638.92
494.017	5733.15
494.387	5711.91
494.757	5769.09
495.126	5798.46
495.496	5831.68
495.866	5851.57
496.235	5894.73
496.605	5941.96
496.974	5959.82
497.344	6036.2
497.713	6063.09
498.082	6073.71
498.452	6149.19
498.821	6124.1
499.19	6136.08
499.559	6191
499.928	6219.92
500.298	6301.5
500.667	6288.39
501.036	6296.76
501.405	6355.06
501.774	6307.6
502.143	6333.14
502.512	6412.91
502.88	6436.86
503.249	6492.23
503.618	6507.82
503.987	6517.54
504.356	6526.35
504.724	6577.43
505.093	6572.68
505.462	6594.6
505.83	6629.4
506.199	6711.21
506.567	6780.81
506.936	6734.26
507.304	6789.4
507.672	6785.56
508.041	6831.88
508.409	6823.75
508.777	6841.6
509.145	6879.34
509.514	6909.85
509.882	6938.32
510.25	6962.27
510.618	6994.14
510.986	6997.75
511.354	7009.5
511.722	7105.32
512.09	7136.73
512.458	7070.29
512.826	7119.78
513.193	7108.49
513.561	7188.94
513.929	7256.73
514.297	7295.37
514.664	7268.03
515.032	7267.13
515.4	7271.64
515.767	7319.33
516.135	7311.87
516.502	7316.39
516.869	7320.91
517.237	7367.46
517.604	7392.09
517.972	7413.11
518.339	7373.11
518.706	7480.23
519.073	7425.99
519.44	7478.42
519.808	7507.57
520.175	7527.68
520.542	7596.38
520.909	7596.16
521.276	7582.82
521.643	7651.52
522.009	7654.46
522.376	7668.7
522.743	7713.22
523.11	7758.41
523.477	7746.89
523.843	7757.73
524.21	7848.35
524.577	7865.98
524.943	7884.28
525.31	7889.48
525.676	7964.28
526.043	7954.56
526.409	7947.56
526.776	8007.9
527.142	7965.19
527.508	8033.66
527.874	8059.19
528.241	8056.26
528.607	8068.46
528.973	8132.64
529.339	8115.92
529.705	8186.42
530.071	8136.71
530.437	8156.14
530.803	8212.41
531.169	8228.91
531.535	8204.05
531.901	8179.42
532.267	8243.82
532.632	8227.78
532.998	8231.17
533.364	8228
533.73	8226.87
534.095	8293.76
534.461	8336.25
534.826	8311.39
535.192	8266.2
535.557	8329.47
535.923	8287.89
536.288	8318.62
536.653	8274.56
537.019	8321.79
537.384	8326.08
537.749	8323.37
538.114	8355.91
538.479	8293.09
538.845	8362.92
539.21	8318.85
539.575	8351.84
539.94	8339.64
540.305	8358.17
540.67	8364.27
541.034	8323.14
541.399	8405.63
541.764	8282.24
542.129	8323.59
542.494	8328.11
542.858	8371.73
543.223	8314.33
543.587	8341.45
543.952	8284.95
544.316	8294.44
544.681	8290.6
545.045	8277.72
545.41	8279.75
545.774	8308.91
546.138	8315.91
546.503	8284.95
546.867	8287.44
547.231	8318.85
547.595	8375.34
547.959	8338.06
548.324	8353.65
548.688	8313.2
549.052	8359.75
549.416	8392.97
549.779	8330.83
550.143	8308
550.507	8297.38
550.871	8336.93
551.235	8358.85
551.599	8415.34
551.962	8341.45
552.326	8318.4
552.689	8352.52
553.053	8311.17
553.417	8292.86
553.78	8405.85
554.143	8341.22
554.507	8342.58
554.87	8332.18
555.234	8439.3
555.597	8323.37
555.96	8361.33
556.323	8419.19
556.686	8394.1
557.05	8443.14
557.413	8392.52
557.776	8477.94
558.139	8451.95
558.502	8509.8
558.865	8487.21
559.228	8561.33
559.59	8521.78
559.953	8510.48
560.316	8597.49
560.679	8571.5
561.041	8627.54
561.404	8575.79
561.767	8633.87
562.129	8671.16
562.492	8751.83
562.854	8684.49
563.217	8656.02
563.579	8709.12
563.941	8800.87
564.304	8790.48
564.666	8781.44
565.028	8825.05
565.39	8912.73
565.753	8913.86
566.115	8884.94
566.477	8905.27
566.839	9005.61
567.201	8985.05
567.563	8978.04
567.925	9046.29
568.287	9017.59
568.648	9006.74
569.01	9089
569.372	9121.09
569.734	9027.53
570.095	9196.79
570.457	9204.48
570.819	9201.09
571.18	9204.93
571.542	9206.74
571.903	9280.41
572.265	9298.03
572.626	9296.45
572.987	9303
573.349	9416
573.71	9367.41
574.071	9392.49
574.432	9436.33
574.794	9482.66
575.155	9459.84
575.516	9474.07
575.877	9470.91
576.238	9476.78
576.599	9569.21
576.96	9541.64
577.32	9545.03
577.681	9643.56
578.042	9617.12
578.403	9634.29
578.763	9639.94
579.124	9637.68
579.485	9747.96
579.845	9758.59
580.206	9698.25
580.566	9664.58
580.927	9767.4
581.287	9804.91
581.648	9776.89
582.008	9869.99
582.368	9859.15
582.728	9876.77
583.089	9860.96
583.449	9885.14
583.809	9840.62
584.169	9863.44
584.529	9872.48
584.889	9989.99
585.249	9879.03
585.609	9916.32
585.969	9955.42
586.329	9889.2
586.688	9991.57
587.048	9948.41
587.408	9980.95
587.768	9992.25
588.127	9999.26
588.487	10001.29
588.846	10074.06
589.206	10041.74
589.565	10046.04
589.925	10043.1
590.284	9991.57
590.643	10053.49
591.003	10146.15
591.362	10193.83
591.721	10171
592.08	10123.32
592.44	10166.48
592.799	10178.01
593.158	10119.25
593.517	10135.3
593.876	10233.6
594.235	10170.78
594.593	10187.5
594.952	10204.22
595.311	10179.59
595.67	10271.57
596.029	10230.44
596.387	10213.94
596.746	10306.14
597.104	10210.32
597.463	10267.27
597.822	10252.13
598.18	10236.54
598.538	10249.42
598.897	10316.54
599.255	10244.9
599.613	10324.22
599.972	10243.09
600.33	10327.61
600.688	10242.19
601.046	10326.93
601.404	10333.71
601.762	10345.01
602.12	10429.08
602.478	10371.9
602.836	10463.88
603.194	10394.05
603.552	10400.15
603.91	10363.99
604.268	10376.65
604.625	10338.01
604.983	10479.47
605.341	10341.85
605.698	10409.87
606.056	10432.24
606.413	10357.44
606.771	10498.9
607.128	10494.84
607.485	10419.81
607.843	10361.51
608.2	10511.79
608.557	10527.83
608.914	10438.34
609.272	10518.79
609.629	10517.89
609.986	10514.5
610.343	10560.37
610.7	10562.41
611.057	10541.39
611.414	10603.76
611.771	10564.67
612.127	10585.23
612.484	10606.92
612.841	10603.76
613.198	10609.86
613.554	10601.27
613.911	10685.57
614.267	10628.17
614.624	10629.3
614.98	10612.8
615.337	10730.54
615.693	10655.06
616.05	10648.96
616.406	10719.24
616.762	10669.97
617.118	10677.43
617.475	10761.27
617.831	10683.31
618.187	10694.83
618.543	10751.1
618.899	10749.29
619.255	10740.03
619.611	10768.5
619.967	10860.25
620.323	10757.2
620.678	10831.55
621.034	10748.39
621.39	10767.82
621.746	10774.38
622.101	10867.71
622.457	10769.86
622.812	10790.2
623.168	10848.27
623.523	10825.45
623.879	10801.04
624.234	10773.47
624.589	10810.08
624.945	10734.15
625.3	10737.77
625.655	10775.06
626.01	10831.55
626.365	10813.02
626.72	10846.24
627.075	10796.52
627.43	10761.04
627.785	10707.71
628.14	10804.21
628.495	10726.24
628.85	10761.04
629.205	10731.67
629.559	10766.47
629.914	10635.17
630.269	10747.94
630.623	10757.65
630.978	10689.86
631.332	10712.01
631.687	10729.63
632.041	10727.15
632.396	10704.32
632.75	10596.76
633.104	10624.33
633.459	10557.21
633.813	10551.78
634.167	10590.65
634.521	10567.15
634.875	10623.65
635.229	10591.33
635.583	10573.48
635.937	10580.48
636.291	10559.24
636.645	10505.46
636.999	10496.19
637.352	10470.66
637.706	10460.94
638.06	10519.02
638.413	10466.36
638.767	10490.54
639.121	10504.78
639.474	10384.33
639.828	10358.34
640.181	10335.07
640.534	10361.28
640.888	10364.22
641.241	10273.83
641.594	10323.54
641.947	10351.11
642.301	10302.07
642.654	10363.99
643.007	10391.34
643.36	10312.92
643.713	10244.45
644.066	10328.74
644.419	10219.14
644.771	10151.34
645.124	10112.7
645.477	10081.74
645.83	9975.53
646.182	10048.3
646.535	9914.51
646.888	9986.83
647.24	9847.62
647.593	9968.75
647.945	9916.77
648.298	9863.22
648.65	9826.61
649.002	9880.16
649.355	9882.42
649.707	9930.56
650.059	9924.91
650.411	10087.62
650.763	10117.22
651.115	10165.13
651.467	10163.09
651.819	10200.16
652.171	10127.84
652.523	10085.13
652.875	10111.8
653.227	10041.74
653.578	10244.67
653.93	10050.55
654.282	10087.39
654.633	10058.01
654.985	10153.38
655.337	10067.5
655.688	10069.76
656.039	10038.8
656.391	9997.22
656.742	10032.25
657.094	10013.49
657.445	10104.56
657.796	10032.25
658.147	10044
658.498	10039.93
658.849	10089.42
659.2	10069.76
659.551	10033.38
659.902	10079.48
660.253	9992.7
660.604	10058.69
660.955	10058.24
661.306	10049.43
661.656	10077.22
662.007	10095.53
662.358	10031.35
662.708	10037
663.059	10108.63
663.409	9978.47
663.76	10072.25
664.11	10016.21
664.461	10080.61
664.811	10064.79
665.161	10055.07
665.511	10083.77
665.862	10057.79
666.212	10142.08
666.562	10074.51
666.912	9995.64
667.262	10054.62
667.612	10025.47
667.962	10009.88
668.312	10009.2
668.662	10101.4
669.011	9988.64
669.361	9998.8
669.711	9966.49
670.06	9954.51
670.41	9937.79
670.76	9974.85
671.109	10025.02
671.459	9995.19
671.808	10028.41
672.157	9986.6
672.507	9937.11
672.856	9961.29
673.205	9904.8
673.554	9939.82
673.904	9919.94
674.253	9951.12
674.602	9911.35
674.951	9785.7
675.3	9751.81
675.649	9936.21
675.998	9869.77
676.346	9854.63
676.695	9950.9
677.044	9813.95
677.393	9904.12
677.741	9866.15
678.09	9800.39
678.438	9846.27
678.787	9783.67
679.135	9815.76
679.484	9754.97
679.832	9724.46
680.181	9746.83
680.529	9804.69
680.877	9714.07
681.225	9641.3
681.573	9750.9
681.922	9635.65
682.27	9643.11
682.618	9608.31
682.966	9653.5
683.314	9538.7
683.661	9634.07
684.009	9565.14
684.357	9575.99
684.705	9486.05
685.053	9498.71
685.4	9520.85
685.748	9470.01
686.095	9462.77
686.443	9451.25
686.79	9405.83
687.138	9373.28
687.485	9429.33
687.832	9378.93
688.18	9412.15
688.527	9347.52
688.874	9323.34
689.221	9283.8
689.568	9268.65
689.915	9206.51
690.262	9208.54
690.609	9147.98
690.956	9205.61
691.303	9159.96
691.65	9085.16
691.997	9082.44
692.344	9035.44
692.69	9033.86
693.037	9075.89
693.383	8932.39
693.73	8975.78
694.077	8905.5
694.423	8922.22
694.769	8873.41
695.116	8796.35
695.462	8805.39
695.808	8810.59
696.155	8814.2
696.501	8683.59
696.847	8760.87
697.193	8663.47
697.539	8686.97
697.885	8615.11
698.231	8613.08
698.577	8603.14
698.923	8555.45
699.269	8554.32
699.614	8479.07
699.96	8436.59
700.306	8445.63
700.651	8376.93
700.997	8370.37
701.342	8423.03
701.688	8346.42
702.033	8234.56
702.379	8288.34
702.724	8228.68
703.069	8263.48
703.415	8247.89
703.76	8152.75
704.105	8130.15
704.45	8070.72
704.795	8121.11
705.14	8103.49
705.485	8002.25
705.83	8039.76
706.175	7994.11
706.52	7925.64
706.865	7931.97
707.209	7957.5
707.554	7933.32
707.899	7874.34
708.243	7882.7
708.588	7817.85
708.932	7853.78
709.277	7833.66
709.621	7863.95
709.966	7735.36
710.31	7789.37
710.654	7711.86
710.998	7722.48
711.342	7710.96
711.687	7771.52
712.031	7665.76
712.375	7622.82
712.719	7611.07
713.063	7585.99
713.407	7568.13
713.75	7584.41
714.094	7571.07
714.438	7551.19
714.782	7570.39
715.125	7420.79
715.469	7542.15
715.812	7475.26
716.156	7475.71
716.499	7423.73
716.843	7472.09
717.186	7460.11
717.53	7428.03
717.873	7433
718.216	7416.95
718.559	7372.66
718.902	7330.17
719.246	7296.5
719.589	7319.78
719.932	7262.61
720.275	7323.62
720.617	7297.18
720.96	7267.58
721.303	7274.81
721.646	7275.71
721.989	7171.53
722.331	7315.49
722.674	7273.23
723.016	7181.25
723.359	7212.66
723.701	7247.01
724.044	7230.06
724.386	7167.24
724.729	7190.52
725.071	7169.73
725.413	7150.74
725.755	7208.6
726.097	7113.68
726.439	7122.72
726.782	7169.27
727.124	7181.25
727.465	7173.34
727.807	7121.14
728.149	7118.88
728.491	7110.29
728.833	7106.68
729.175	7081.14
729.516	7082.05
729.858	7048.37
730.199	7108.26
730.541	7085.66
730.882	6991.2
731.224	7023.97
731.565	7001.82
731.906	7052.67
732.248	7033.91
732.589	7054.93
732.93	7046.34
733.271	7036.62
733.612	7051.54
733.953	7033.46
734.294	7018.54
734.635	7003.4
734.976	6978.32
735.317	6984.87
735.658	7026.68
735.999	6978.55
736.339	6989.17
736.68	7030.52
737.021	6932.9
737.361	6973.35
737.702	7051.54
738.042	7014.48
738.383	7011.09
738.723	6971.77
739.063	7013.35
739.404	6988.71
739.744	7024.42
740.084	6978.09
740.424	6990.97
740.764	7043.85
741.104	7075.72
741.444	6989.84
741.784	6991.88
742.124	7077.07
742.464	7072.78
742.804	7033.23
743.143	7078.88
743.483	7064.87
743.823	7007.92
744.162	7146.68
744.502	7121.14
744.841	7094.02
745.181	7176.51
745.52	7174.25
745.86	7192.33
746.199	7247.01
746.538	7211.31
746.877	7236.62
747.216	7314.81
747.556	7268.93
747.895	7372.89
748.234	7359.33
748.573	7338.99
748.911	7417.4
749.25	7360.23
749.589	7474.58
749.928	7499.66
750.267	7581.47
750.605	7649.94
750.944	7657.85
751.283	7679.77
751.621	7731.29
751.96	7799.77
752.298	7797.96
752.636	7875.47
752.975	7924.51
753.313	8030.72
753.651	8096.48
753.989	8113.2
754.327	8201.34
754.666	8181
755.004	8246.31
755.342	8367.89
755.679	8395.91
756.017	8472.07
756.355	8597.94
756.693	8670.93
757.031	8829.12
757.368	8787.99
757.706	8991.15
758.044	9062.78
758.381	9146.85
758.719	9188.2
759.056	9380.97
759.394	9430.68
759.731	9455.32
760.068	9566.27
760.405	9672.94
760.743	9726.72
761.08	9851.46
761.417	9903.67
761.754	10008.52
762.091	10105.02
762.428	10204.68
762.765	10304.11
763.102	10455.52
763.438	10485.8
763.775	10563.76
764.112	10673.82
764.449	10841.27
764.785	10927.37
765.122	11016.86
765.458	11017.08
765.795	11144.09
766.131	11203.74
766.467	11292.33
766.804	11464.08
767.14	11384.98
767.476	11604.64
767.812	11546.79
768.148	11588.14
768.485	11657.52
768.821	11731.41
769.157	11833.56
769.492	11936.38
769.828	12005.53
770.164	12024.51
770.5	12055.02
770.836	12155.58
771.171	12187.45
771.507	12267.22
771.842	12205.07
772.178	12278.29
772.513	12353.09
772.849	12402.36
773.184	12342.92
773.519	12477.61
773.855	12461.11
774.19	12458.4
774.525	12560.55
774.86	12662.69
775.195	12575.01
775.53	12582.47
775.865	12601.67
776.2	12605.06
776.535	12561.9
776.87	12640.54
777.205	12609.58
777.539	12685.51
777.874	12666.53
778.209	12586.31
778.543	12689.58
778.878	12605.06
779.212	12732.52
779.547	12663.59
779.881	12774.33
780.215	12630.83
780.55	12733.2
780.884	12657.49
781.218	12689.81
781.552	12666.08
781.886	12676.47
782.22	12631.5
782.554	12638.28
782.888	12554.44
783.222	12575.46
783.556	12538.63
783.889	12516.93
784.223	12394.67
784.557	12557.83
784.89	12676.93
785.224	12543.14
785.557	12465.41
785.891	12390.61
786.224	12450.72
786.558	12535.01
786.891	12411.62
787.224	12394.9
787.557	12301.57
787.891	12286.2
788.224	12337.95
788.557	12332.98
788.89	12360.1
789.223	12308.8
789.556	12287.11
789.888	12228.12
790.221	12239.65
790.554	12245.98
790.887	12110.16
791.219	12089.6
791.552	12085.98
791.884	12080.33
792.217	12123.95
792.549	12031.97
792.882	11937.51
793.214	11938.41
793.546	11980.45
793.879	11935.93
794.211	11775.26
794.543	11883.73
794.875	11873.33
795.207	11919.43
795.539	11797.18
795.871	11828.14
796.203	11727.8
796.535	11744.52
796.867	11741.36
797.198	11624.07
797.53	11644.41
797.862	11589.72
798.193	11621.36
798.525	11500.69
798.856	11536.39
799.188	11486.22
799.519	11460.01
799.85	11420.46
800.182	11401.71
800.513	11432.21
800.844	11320.8
801.175	11378.43
801.506	11361.48
801.837	11321.26
802.168	11302.05
802.499	11234.93
802.83	11241.48
803.161	11173.92
803.491	11133.24
803.822	11139.34
804.153	11069.51
804.483	11033.58
804.814	11056.18
805.145	10972.56
805.475	10970.53
805.805	10928.95
806.136	10922.62
806.466	10925.79
806.796	10829.52
807.126	10774.6
807.457	10814.15
807.787	10831.1
808.117	10749.29
808.447	10675.17
808.777	10777.77
809.107	10754.49
809.436	10716.98
809.766	10681.27
810.096	10649.41
810.426	10680.14
810.755	10613.48
811.085	10586.36
811.414	10616.19
811.744	10502.97
812.073	10473.37
812.403	10515.63
812.732	10451
813.061	10446.48
813.39	10408.96
813.719	10352.69
814.049	10420.04
814.378	10423.88
814.707	10388.4
815.036	10284.67
815.365	10227.5
815.693	10196.09
816.022	10259.14
816.351	10151.34
816.68	10115.19
817.008	10232.25
817.337	10084.9
817.665	10057.33
817.994	10103.66
818.322	10115.19
818.651	10031.12
818.979	10022.99
819.307	10065.7
819.636	10037
819.964	9983.89
820.292	10007.17
820.62	10001.97
820.948	9980.5
821.276	10003.55
821.604	9937.79
821.932	9940.5
822.259	10024.34
822.587	9972.36
822.915	9901.41
823.243	9922.65
823.57	9950.67
823.898	9962.65
824.225	9915.87
824.553	9916.1
824.88	9966.72
825.207	10007.17
825.535	9935.53
825.862	9911.12
826.189	9935.3
826.516	9960.16
826.843	10044.91
827.17	10017.56
827.497	10065.47
827.824	9988.18
828.151	10063.21
828.478	10023.66
828.805	10003.78
829.131	9960.16
829.458	9981.18
829.785	9932.14
830.111	9936.66
830.438	9984.79
830.764	9964.91
831.09	9980.95
831.417	9918.81
831.743	9969.65
832.069	9957.22
832.395	9923.78
832.722	9943.21
833.048	9902.99
833.374	9851.46
833.7	9894.17
834.026	9899.37
834.351	9933.27
834.677	9891.69
835.003	9891.46
835.329	9837.45
835.654	9834.06
835.98	9795.65
836.306	9827.06
836.631	9741.64
836.956	9803.78
837.282	9785.48
837.607	9756.55
837.932	9772.6
838.258	9752.03
838.583	9708.64
838.908	9651.02
839.233	9721.98
839.558	9724.91
839.883	9692.6
840.208	9690.11
840.533	9641.75
840.858	9607.63
841.182	9596.56
841.507	9606.05
841.832	9552.49
842.156	9548.42
842.481	9535.09
842.805	9500.51
843.13	9460.97
843.454	9479.95
843.778	9449.89
844.103	9399.05
844.427	9393.17
844.751	9408.09
845.075	9461.87
845.399	9336.22
845.723	9326.28
846.047	9364.25
846.371	9214.42
846.695	9260.75
847.019	9196.57
847.343	9122.22
847.666	9077.25
847.99	9021.2
848.313	9053.74
848.637	8982.79
848.96	8968.32
849.284	8932.84
849.607	8841.32
849.931	8848.1
850.254	8852.85
850.577	8785.28
850.9	8700.31
851.223	8719.29
851.546	8708.9
851.869	8600.65
852.192	8697.14
852.515	8565.62
852.838	8612.63
853.161	8548.9
853.483	8528.79
853.806	8468.45
854.129	8444.5
854.451	8483.36
854.774	8423.25
855.096	8378.96
855.419	8379.19
855.741	8303.03
856.063	8275.46
856.385	8241.34
856.708	8250.15
857.03	8223.94
857.352	8199.53
857.674	8143.94
857.996	8168.8
858.318	8067.78
858.64	8094.67
858.961	8063.71
859.283	8052.19
859.605	7983.49
859.926	8103.94
860.248	8041.79
860.57	7941.68
860.891	7976.71
861.212	7879.99
861.534	7886.09
861.855	7882.7
862.176	7870.95
862.498	7869.37
862.819	7848.8
863.14	7829.82
863.461	7792.76
863.782	7825.75
864.103	7835.7
864.424	7743.27
864.745	7812.2
865.065	7711.86
865.386	7742.37
865.707	7729.03
866.027	7733.78
866.348	7792.99
866.668	7728.58
866.989	7683.39
867.309	7643.61
867.63	7652.88
867.95	7630.28
868.27	7597.51
868.59	7669.37
868.91	7637.74
869.23	7624.63
869.55	7540.56
869.87	7631.41
870.19	7612.88
870.51	7610.39
870.83	7581.24
871.15	7526.55
871.469	7598.64
871.789	7521.58
872.109	7510.73
872.428	7491.3
872.748	7447.01
873.067	7504.18
873.386	7506.22
873.706	7463.73
874.025	7466.67
874.344	7434.58
874.663	7432.32
874.982	7436.84
875.301	7406.78
875.62	7360
875.939	7365.43
876.258	7347.12
876.577	7318.65
876.896	7343.06
877.214	7319.55
877.533	7316.16
877.852	7277.97
878.17	7311.42
878.489	7240.01
878.807	7256.28
879.125	7271.19
879.444	7238.43
879.762	7232.32
880.08	7243.85
880.398	7177.18
880.716	7231.87
881.034	7174.02
881.352	7191.87
881.67	7113.23
881.988	7155.04
882.306	7149.39
882.624	7113.01
882.941	7075.49
883.259	7036.62
883.577	6983.06
883.894	6954.59
884.212	7032.1
884.529	7022.39
884.846	6993.69
885.164	6962.95
885.481	6914.37
885.798	6918.21
886.115	6856.29
886.432	6909.39
886.75	6841.37
887.067	6887.7
887.383	6856.51
887.7	6811.54
888.017	6820.36
888.334	6802.28
888.651	6779.23
888.967	6762.28
889.284	6699
889.6	6745.33
889.917	6716.18
890.233	6706.46
890.55	6640.93
890.866	6639.12
891.182	6661.49
891.498	6610.42
891.815	6642.73
892.131	6567.03
892.447	6568.84
892.763	6525
893.079	6531.33
893.395	6534.94
893.71	6492.91
894.026	6508.5
894.342	6453.59
894.657	6464.89
894.973	6360.48
895.289	6436.86
895.604	6373.82
895.92	6305.12
896.235	6339.01
896.55	6303.99
896.865	6316.19
897.181	6304.66
897.496	6263.76
897.811	6216.98
898.126	6222.41
898.441	6189.87
898.756	6203.2
899.071	6149.41
899.386	6137.21
899.7	6089.98
900.015	6056.76
900.33	6001.62
900.644	6021.06
900.959	6003.2
901.273	5999.36
901.588	5959.59
901.902	5916.43
902.216	5979.48
902.531	5884.79
902.845	5906.03
903.159	5849.99
903.473	5796.66
903.787	5803.43
904.101	5782.87
904.415	5752.59
904.729	5770.89
905.042	5688.86
905.356	5678.24
905.67	5684.57
905.984	5715.3
906.297	5648.41
906.611	5594.63
906.924	5631.01
907.237	5581.29
907.551	5592.37
907.864	5596.43
908.177	5529.77
908.491	5520.73
908.804	5484.12
909.117	5438.47
909.43	5471.69
909.743	5463.33
910.056	5416.55
910.368	5384.24
910.681	5349.89
910.994	5361.86
911.307	5337.46
911.619	5261.3
911.932	5224.24
912.244	5257.91
912.557	5235.99
912.869	5181.08
913.181	5174.98
913.494	5221.53
913.806	5138.14
914.118	5144.92
914.43	5118.93
914.742	5086.62
915.054	5034.87
915.366	5010.69
915.678	5037.81
915.99	4984.7
916.302	4982.67
916.613	4959.84
916.925	4941.08
917.236	4884.14
917.548	4867.64
917.859	4930.92
918.171	4891.37
918.482	4817.02
918.794	4793.29
919.105	4817.47
919.416	4785.38
919.727	4809.56
920.038	4796.46
920.349	4759.17
920.66	4756
920.971	4695.22
921.282	4674.65
921.593	4647.53
921.903	4608.44
922.214	4648.21
922.525	4609.57
922.835	4596.46
923.146	4563.02
923.456	4562.79
923.767	4567.31
924.077	4564.82
924.387	4494.32
924.697	4480.08
925.008	4470.81
925.318	4445.96
925.628	4430.36
925.938	4428.56
926.248	4377.26
926.558	4373.64
926.867	4393.75
927.177	4355.56
927.487	4315.11
927.796	4280.09
928.106	4258.84
928.416	4299.97
928.725	4266.53
929.034	4198.51
929.344	4244.83
929.653	4216.58
929.962	4190.82
930.271	4135.23
930.581	4151.5
930.89	4128.22
931.199	4092.75
931.508	4102.46
931.817	4136.36
932.125	4128.68
932.434	4046.87
932.743	4040.77
933.051	4003.03
933.36	4039.41
933.669	3979.98
933.977	3985.86
934.286	3980.66
934.594	3987.89
934.902	3974.56
935.21	3875.35
935.519	3918.06
935.827	3922.35
936.135	3865.18
936.443	3891.62
936.751	3846.2
937.059	3845.97
937.367	3805.07
937.674	3788.57
937.982	3801.45
938.29	3747.9
938.597	3751.74
938.905	3701.8
939.213	3730.95
939.52	3706.77
939.827	3710.61
940.135	3637.16
940.442	3657.95
940.749	3611.63
941.056	3677.16
941.363	3596.49
941.67	3652.76
941.977	3560.56
942.284	3523.27
942.591	3537.28
942.898	3536.83
943.205	3530.05
943.511	3494.34
943.818	3492.99
944.125	3510.16
944.431	3466.77
944.738	3410.73
945.044	3421.12
945.35	3390.39
945.657	3406.66
945.963	3385.87
946.269	3392.2
946.575	3366.44
946.881	3337.51
947.187	3335.03
947.493	3298.42
947.799	3306.33
948.105	3296.61
948.41	3242.82
948.716	3267.68
949.022	3258.64
949.327	3238.08
949.633	3170.74
949.938	3198.98
950.244	3208.93
950.549	3184.52
950.854	3167.8
951.16	3142.94
951.465	3135.71
951.77	3141.58
952.075	3133.9
952.38	3108.14
952.685	3118.99
952.99	3051.19
953.294	3075.15
953.599	3071.08
953.904	3047.35
954.209	3001.7
954.513	3035.82
954.818	3011.87
955.122	2986.56
955.426	2984.53
955.731	2971.65
956.035	2956.5
956.339	2970.97
956.643	2949.5
956.948	2926.67
957.252	2913.57
957.556	2916.96
957.86	2860.46
958.163	2893.91
958.467	2874.47
958.771	2851.87
959.075	2847.81
959.378	2811.2
959.682	2812.55
959.985	2832.44
960.289	2791.31
960.592	2778.43
960.896	2796.51
961.199	2761.48
961.502	2740.46
961.805	2752.22
962.108	2705.21
962.411	2715.38
962.714	2720.58
963.017	2716.74
963.32	2665.66
963.623	2663.86
963.926	2650.75
964.228	2646.68
964.531	2612.56
964.833	2615.27
965.136	2598.77
965.438	2619.56
965.741	2577.08
966.043	2613.69
966.345	2559
966.648	2567.14
966.95	2552.67
967.252	2522.62
967.554	2508.61
967.856	2531.43
968.158	2511.09
968.46	2509.74
968.761	2500.47
969.063	2458.44
969.365	2470.87
969.666	2469.74
969.968	2428.38
970.269	2448.04
970.571	2433.81
970.872	2415.28
971.174	2376.18
971.475	2398.33
971.776	2382.73
972.077	2386.58
972.378	2360.81
972.679	2356.07
972.98	2333.47
973.281	2359.23
973.582	2320.36
973.883	2339.12
974.183	2321.49
974.484	2299.57
974.785	2297.09
975.085	2267.71
975.386	2289.86
975.686	2260.03
975.986	2261.16
976.287	2255.73
976.587	2244.21
976.887	2199.46
977.187	2221.16
977.487	2180.25
977.787	2169.86
978.087	2180.93
978.387	2199.24
978.687	2166.24
978.987	2157.2
979.286	2140.03
979.586	2158.79
979.885	2105.45
980.185	2110.65
980.484	2088.28
980.784	2124.89
981.083	2087.15
981.382	2097.09
981.682	2088.96
981.981	2063.42
982.28	2044.66
982.579	2048.51
982.878	2007.83
983.177	2057.77
983.475	2059.35
983.774	2001.95
984.073	2020.94
984.372	2020.03
984.67	2004.89
984.969	1962.86
985.267	1981.39
985.566	2004.21
985.864	1946.14
986.162	1941.39
986.461	1946.81
986.759	1931.67
987.057	1902.75
987.355	1934.38
987.653	1956.53
987.951	1876.76
988.249	1909.75
988.547	1886.25
988.844	1900.94
989.142	1880.37
989.44	1828.62
989.737	1834.95
990.035	1831.79
990.332	1833.14
990.63	1846.48
990.927	1827.72
991.224	1810.77
991.521	1806.7
991.819	1782.75
992.116	1825.69
992.413	1774.39
992.71	1754.28
993.006	1775.74
993.303	1781.62
993.6	1754.28
993.897	1747.04
994.193	1717.89
994.49	1731.23
994.787	1722.19
995.083	1723.99
995.379	1727.61
995.676	1707.5
995.972	1688.74
996.268	1680.83
996.565	1660.72
996.861	1667.72
997.157	1684.22
997.453	1650.1
997.749	1607.84
998.044	1655.52
998.34	1609.65
998.636	1624.34
998.932	1646.26
999.227	1589.53
999.523	1593.38
999.818	1580.95
1000.114	1572.81
1000.409	1527.84
1000.704	1560.61
1001	1552.02
1001.295	1549.76
1001.59	1543.66
1001.885	1503.66
1002.18	1492.59
1002.475	1505.02
1002.77	1494.85
1003.065	1487.62
1003.359	1476.77
1003.654	1516.09
1003.949	1451.46
1004.243	1470.44
1004.538	1422.53
1004.832	1463.21
1005.127	1445.13
1005.421	1438.8
1005.715	1424.34
1006.009	1438.8
1006.304	1454.62
1006.598	1379.82
1006.892	1425.92
1007.186	1424.57
1007.48	1408.75
1007.773	1385.47
1008.067	1386.83
1008.361	1369.43
1008.655	1352.48
1008.948	1361.97
1009.242	1338.02
1009.535	1333.72
1009.829	1335.3
1010.122	1320.16
1010.415	1322.87
1010.708	1322.87
1011.001	1298.02
1011.295	1308.41
1011.588	1300.28
1011.881	1297.11
1012.173	1271.8
1012.466	1284.01
1012.759	1246.94
1013.052	1264.8
1013.344	1240.84
1013.637	1248.53
1013.93	1242.42
1014.222	1234.52
1014.514	1227.74
1014.807	1202.2
1015.099	1210.34
1015.391	1196.78
1015.683	1200.17
1015.976	1178.02
1016.268	1182.77
1016.56	1170.79
1016.851	1165.59
1017.143	1199.26
1017.435	1124.91
1017.727	1151.13
1018.018	1136.67
1018.31	1149.32
1018.602	1124.01
1018.893	1124.01
1019.185	1133.05
1019.476	1103.45
1019.767	1098.02
1020.058	1111.13
1020.35	1071.36
1020.641	1100.06
1020.932	1098.7
1021.223	1068.42
1021.514	1070
1021.804	1054.63
1022.095	1024.8
1022.386	1027.97
1022.677	1057.12
1022.967	1026.84
1023.258	1022.09
1023.548	1040.62
1023.839	1012.15
1024.129	1024.13
1024.419	999.04
1024.709	999.72
1025	978.93
1025.29	991.58
1025.58	985.26
1025.87	971.92
1026.16	945.71
1026.449	970.57
1026.739	954.07
1027.029	953.39
1027.319	948.42
1027.608	970.12
1027.898	929.44
1028.187	925.82
1028.477	936.22
1028.766	904.81
1029.055	928.08
1029.344	915.43
1029.634	906.16
1029.923	897.8
1030.212	878.82
1030.501	885.15
1030.79	901.19
1031.078	910.91
1031.367	876.78
1031.656	853.51
1031.945	873.62
1032.233	842.21
1032.522	848.09
1032.81	849.44
1033.099	844.02
1033.387	834.75
1033.675	835.2
1033.963	824.13
1034.251	845.6
1034.54	817.58
1034.828	789.56
1035.116	811.02
1035.403	803.11
1035.691	818.93
1035.979	797.24
1036.267	777.8
1036.554	796.79
1036.842	795.66
1037.129	762.66
1037.417	789.1
1037.704	773.06
1037.992	764.47
1038.279	764.02
1038.566	789.33
1038.853	789.33
1039.14	789.33
