Data from hue_10_FLMS001491_55.txt Node
Date: Mon Feb 06 15:32:09 GMT 2017
User: dcchb
Spectrometer: FLMS00149
Trigger mode: 0
Integration Time (sec): 2.000000E-2
Scans to average: 10
Electric dark correction enabled: true
Nonlinearity correction enabled: false
Boxcar width: 0
XAxis mode: Wavelengths
Number of Pixels in Spectrum: 2048
>>>>>Begin Spectral Data<<<<<
341.393	0.92
341.776	0.92
342.16	0.92
342.543	-55.13
342.927	-57.84
343.31	-64.84
343.693	-84.73
344.077	-64.39
344.46	-61.91
344.843	-53.09
345.226	-60.32
345.61	-10.16
345.993	-22.81
346.376	2.05
346.759	11.54
347.142	4.53
347.525	56.51
347.908	61.26
348.291	84.31
348.674	94.7
349.057	107.36
349.44	115.04
349.823	146.45
350.206	161.14
350.588	195.94
350.971	223.06
351.354	225.09
351.737	231.65
352.119	254.02
352.502	261.25
352.884	271.65
353.267	291.76
353.65	296.28
354.032	294.7
354.414	306.22
354.797	305.77
355.179	316.62
355.562	319.55
355.944	343.96
356.326	317.52
356.709	334.47
357.091	338.99
357.473	335.6
357.855	348.71
358.238	333.56
358.62	337.41
359.002	337.86
359.384	321.81
359.766	339.44
360.148	344.64
360.53	305.09
360.912	316.16
361.294	331.76
361.676	334.02
362.057	321.81
362.439	318.42
362.821	317.97
363.203	304.86
363.584	311.42
363.966	310.51
364.348	320.01
364.729	303.06
365.111	320.68
365.493	320.23
365.874	299.44
366.256	322.27
366.637	298.09
367.019	317.97
367.4	311.19
367.781	295.83
368.163	323.17
368.544	314.36
368.925	311.64
369.306	321.81
369.688	326.79
370.069	312.1
370.45	319.55
370.831	311.87
371.212	290.18
371.593	324.07
371.974	326.79
372.355	305.54
372.736	307.35
373.117	304.64
373.498	326.79
373.879	311.42
374.26	299.44
374.641	294.7
375.021	298.09
375.402	305.32
375.783	309.16
376.163	321.59
376.544	320.91
376.925	313.9
377.305	326.56
377.686	306.67
378.066	333.56
378.447	332.43
378.827	334.24
379.208	318.88
379.588	348.48
379.968	333.34
380.349	340.12
380.729	327.92
381.109	341.47
381.489	335.6
381.87	315.71
382.25	340.57
382.63	345.32
383.01	335.15
383.39	347.12
383.77	333.34
384.15	343.28
384.53	331.53
384.91	359.33
385.29	334.02
385.67	348.25
386.049	362.04
386.429	353.9
386.809	360.46
387.189	346.9
387.568	357.52
387.948	355.26
388.328	333.79
388.707	358.2
389.087	336.73
389.466	369.5
389.846	353.23
390.225	362.26
390.605	347.8
390.984	365.65
391.363	345.09
391.743	344.86
392.122	358.87
392.501	372.21
392.881	364.75
393.26	357.52
393.639	382.38
394.018	370.4
394.397	372.66
394.776	363.17
395.155	354.58
395.534	368.82
395.913	381.7
396.292	379.21
396.671	374.02
397.05	388.25
397.429	355.03
397.808	360.91
398.186	372.66
398.565	379.67
398.944	373.11
399.323	376.05
399.701	365.43
400.08	392.77
400.458	387.12
400.837	396.61
401.215	386.67
401.594	397.52
401.972	390.06
402.351	394.58
402.729	390.06
403.107	385.54
403.486	400.23
403.864	391.87
404.242	391.19
404.62	399.55
404.999	379.67
405.377	401.36
405.755	385.54
406.133	411.53
406.511	411.3
406.889	419.89
407.267	413.34
407.645	404.98
408.023	405.88
408.401	405.43
408.779	440.23
409.156	439.1
409.534	430.74
409.912	425.54
410.29	443.39
410.667	431.19
411.045	450.17
411.422	435.93
411.8	420.34
412.178	435.48
412.555	456.5
412.933	442.49
413.31	447.69
413.687	444.3
414.065	451.75
414.442	465.99
414.819	473
415.197	465.31
415.574	453.11
415.951	463.96
416.328	437.29
416.705	458.31
417.082	475.71
417.46	470.51
417.837	444.97
418.214	482.71
418.591	491.75
418.967	469.83
419.344	479.55
419.721	488.59
420.098	481.58
420.475	470.06
420.852	504.41
421.228	488.81
421.605	495.14
421.982	501.02
422.358	521.13
422.735	489.94
423.111	499.89
423.488	502.37
423.864	506.67
424.241	536.27
424.617	523.62
424.994	515.25
425.37	529.49
425.746	508.93
426.123	536.5
426.499	528.81
426.875	538.53
427.251	543.5
427.627	570.17
428.003	543.5
428.379	551.19
428.756	568.36
429.132	557.97
429.507	560.68
429.883	552.32
430.259	563.62
430.635	573.11
431.011	565.42
431.387	569.94
431.763	588.02
432.138	574.24
432.514	596.16
432.89	593.22
433.265	616.72
433.641	619.88
434.016	627.79
434.392	620.34
434.767	642.26
435.143	622.82
435.518	621.01
435.894	636.83
436.269	660.56
436.644	629.83
437.02	659.66
437.395	654.69
437.77	656.49
438.145	662.6
438.52	669.83
438.895	656.27
439.271	670.05
439.646	675.48
440.021	666.89
440.395	692.88
440.77	688.58
441.145	689.26
441.52	716.61
441.895	711.41
442.27	701.01
442.645	695.82
443.019	725.87
443.394	713.89
443.769	726.32
444.143	720.67
444.518	722.71
444.892	728.58
445.267	715.02
445.641	738.3
446.016	715.7
446.39	710.5
446.764	734.46
447.139	724.51
447.513	754.34
447.887	751.63
448.262	749.82
448.636	743.05
449.01	743.27
449.384	783.27
449.758	778.3
450.132	793.21
450.506	787.56
450.88	797.06
451.254	793.44
451.628	787.79
452.002	797.28
452.376	818.98
452.75	807.68
453.123	808.81
453.497	836.15
453.871	823.95
454.244	822.14
454.618	837.28
454.992	860.56
455.365	842.48
455.739	877.96
456.112	863.95
456.486	872.53
456.859	875.7
457.232	892.19
457.606	884.74
457.979	927.67
458.352	903.04
458.725	902.14
459.099	934.23
459.472	948.69
459.845	950.95
460.218	939.2
460.591	964.96
460.964	965.19
461.337	980.33
461.71	988.69
462.083	1028.01
462.456	1007.9
462.829	1023.72
463.201	1050.16
463.574	1043.38
463.947	1022.59
464.32	1067.1
464.692	1059.87
465.065	1070.95
465.438	1088.8
465.81	1097.61
466.183	1103.94
466.555	1123.83
466.928	1122.24
467.3	1134.9
467.672	1135.58
468.045	1160.44
468.417	1162.7
468.789	1154.56
469.161	1198.63
469.534	1225.52
469.906	1231.62
470.278	1252.18
470.65	1262.58
471.022	1284.05
471.394	1319.08
471.766	1307.55
472.138	1301.67
472.51	1369.92
472.882	1367.21
473.253	1384.61
473.625	1442.01
473.997	1429.58
474.369	1420.77
474.74	1468.9
475.112	1467.55
475.484	1504.16
475.855	1526.08
476.227	1538.05
476.598	1615.79
476.97	1588.45
477.341	1629.35
477.713	1674.32
478.084	1680.42
478.455	1703.47
478.827	1756.58
479.198	1758.84
479.569	1782.34
479.94	1836.8
480.311	1841.1
480.682	1899.63
481.053	1927.87
481.424	1980.98
481.795	2020.75
482.166	2007.87
482.537	2058.94
482.908	2102.56
483.279	2100.07
483.65	2143.69
484.021	2216
484.391	2253.29
484.762	2260.97
485.133	2273.63
485.503	2313.85
485.874	2352.04
486.244	2397.69
486.615	2444.02
486.985	2479.27
487.356	2550.91
487.726	2584.35
488.097	2623.22
488.467	2656.44
488.837	2700.96
489.207	2694.63
489.578	2755.2
489.948	2782.09
490.318	2821.41
490.688	2853.27
491.058	2922.2
491.428	2961.52
491.798	2988.86
492.168	3058.69
492.538	3075.87
492.908	3056.2
493.278	3118.58
493.648	3159.93
494.017	3191.79
494.387	3222.53
494.757	3278.8
495.126	3280.83
495.496	3327.16
495.866	3303.43
496.235	3369.42
496.605	3391.56
496.974	3406.25
497.344	3444.22
497.713	3471.56
498.082	3556.53
498.452	3557.43
498.821	3625.46
499.19	3598.79
499.559	3603.31
499.928	3627.72
500.298	3675.62
500.667	3672.91
501.036	3698.22
501.405	3739.12
501.774	3767.82
502.143	3753.81
502.512	3850.08
502.88	3829.74
503.249	3865.9
503.618	3826.81
503.987	3806.47
504.356	3916.07
504.724	3948.38
505.093	3942.96
505.462	3987.71
505.83	3955.84
506.199	4010.76
506.567	4050.08
506.936	4057.76
507.304	4097.08
507.672	4093.47
508.041	4120.36
508.409	4138.44
508.777	4146.57
509.145	4235.16
509.514	4243.07
509.882	4219.79
510.25	4215.72
510.618	4264.31
510.986	4279
511.354	4282.16
511.722	4301.37
512.09	4327.13
512.458	4326
512.826	4368.94
513.193	4429.95
513.561	4369.62
513.929	4430.63
514.297	4433.12
514.664	4478.31
515.032	4465.43
515.4	4528.03
515.767	4514.92
516.135	4605.09
516.502	4531.87
516.869	4573.91
517.237	4563.28
517.604	4558.99
517.972	4618.42
518.339	4635.15
518.706	4693.9
519.073	4625.2
519.44	4703.85
519.808	4742.26
520.175	4712.21
520.542	4826.33
520.909	4776.84
521.276	4815.25
521.643	4809.38
522.009	4851.41
522.376	4846.21
522.743	4890.28
523.11	4959.66
523.477	4932.09
523.843	4991.75
524.21	5000.79
524.577	5038.07
524.943	5052.54
525.31	5054.34
525.676	5102.93
526.043	5153.78
526.409	5163.49
526.776	5212.98
527.142	5262.02
527.508	5272.42
527.874	5287.78
528.241	5291.63
528.607	5310.83
528.973	5325.52
529.339	5364.17
529.705	5391.96
530.071	5417.5
530.437	5481.9
530.803	5485.75
531.169	5495.91
531.535	5518.74
531.901	5506.31
532.267	5572.52
532.632	5561
532.998	5631.5
533.364	5695.23
533.73	5640.54
534.095	5714.89
534.461	5696.59
534.826	5777.04
535.192	5775.68
535.557	5859.52
535.923	5822.69
536.288	5845.74
536.653	5930.48
537.019	5852.06
537.384	5870.59
537.749	5917.6
538.114	5970.03
538.479	5964.15
538.845	5926.64
539.21	5976.35
539.575	5999.4
539.94	6026.07
540.305	6064.94
540.67	6080.31
541.034	6092.28
541.399	6153.98
541.764	6150.59
542.129	6180.64
542.494	6227.87
542.858	6276.23
543.223	6249.79
543.587	6337.02
543.952	6306.51
544.316	6322.79
544.681	6331.83
545.045	6400.07
545.41	6360.75
545.774	6396.23
546.138	6447.98
546.503	6469.67
546.867	6481.43
547.231	6595.32
547.595	6538.83
547.959	6530.24
548.324	6602.55
548.688	6621.99
549.052	6629.9
549.416	6642.33
549.779	6629.9
550.143	6649.33
550.507	6671.03
550.871	6804.13
551.235	6693.4
551.599	6776.33
551.962	6766.16
552.326	6867.18
552.689	6887.06
553.053	6839.83
553.417	6832.15
553.78	7012.71
554.143	6909.44
554.507	7007.97
554.87	7014.52
555.234	7061.3
555.597	6988.08
555.96	7031.02
556.323	7044.57
556.686	7073.5
557.05	7178.13
557.413	7077.12
557.776	7132.03
558.139	7195.08
558.502	7222.42
558.865	7228.3
559.228	7248.19
559.59	7285.92
559.953	7330.22
560.316	7398.24
560.679	7378.58
561.041	7418.35
561.404	7428.52
561.767	7500.61
562.129	7456.32
562.492	7486.14
562.854	7490.21
563.217	7553.94
563.579	7570.21
563.941	7614.73
564.304	7637.55
564.666	7727.04
565.028	7680.26
565.39	7738.79
565.753	7712.81
566.115	7642.75
566.477	7834.38
566.839	7800.26
567.201	7799.13
567.563	7827.6
567.925	7904.44
568.287	7943.53
568.648	7966.58
569.01	8027.6
569.372	8112.12
569.734	7979.24
570.095	8110.31
570.457	8120.03
570.819	8125.22
571.18	8158.67
571.542	8224.2
571.903	8239.35
572.265	8320.93
572.626	8329.06
572.987	8415.39
573.349	8377.87
573.71	8472.56
574.071	8473.24
574.432	8535.83
574.794	8632.56
575.155	8684.76
575.516	8722.72
575.877	8740.12
576.238	8783.06
576.599	8861.7
576.96	8919.1
577.32	8952.32
577.681	9102.83
578.042	9120.9
578.403	9077.74
578.763	9266.89
579.124	9331.52
579.485	9471.4
579.845	9583.49
580.206	9577.39
580.566	9719.31
580.927	9790.94
581.287	9980.54
581.648	9985.74
582.008	10163.59
582.368	10230.71
582.728	10362.45
583.089	10528.32
583.449	10602.67
583.809	10778.26
584.169	10949.78
584.529	11050.12
584.889	11302.09
585.249	11349.32
585.609	11491.24
585.969	11756.09
586.329	11854.17
586.688	12032.92
587.048	12275.62
587.408	12475.39
587.768	12644.65
588.127	12888.94
588.487	13019.33
588.846	13274.92
589.206	13432.2
589.565	13666.1
589.925	13951.29
590.284	14129.36
590.643	14386.53
591.003	14634.43
591.362	14861.77
591.721	15039.84
592.08	15384.02
592.44	15606.16
592.799	15917.11
593.158	16099.25
593.517	16306.25
593.876	16593.48
594.235	16833.24
594.593	17150.75
594.952	17391.2
595.311	17725.2
595.67	18005.87
596.029	18345.97
596.387	18577.15
596.746	18905.73
597.104	19098.95
597.463	19366.06
597.822	19633.85
598.18	19813.28
598.538	20141.18
598.897	20518.8
599.255	20537.78
599.613	21139.8
599.972	21361.71
600.33	21562.16
600.688	21700.01
601.046	22146.32
601.404	22401.46
601.762	22573.43
602.12	23025.17
602.478	23194.43
602.836	23436.91
603.194	23573.63
603.552	24006.84
603.91	24102.88
604.268	24401.41
604.625	24600.27
604.983	24956.42
605.341	24995.97
605.698	25466.69
606.056	25724.08
606.413	25929.95
606.771	26168.59
607.128	26393.22
607.485	26570.61
607.843	26800.44
608.2	27246.3
608.557	27395.45
608.914	27449.46
609.272	27643.36
609.629	28048.09
609.986	28269.55
610.343	28245.15
610.7	28701.18
611.057	28858.92
611.414	28949.76
611.771	29167.16
612.127	29477.21
612.484	29585
612.841	29844.65
613.198	29917.87
613.554	30090.3
613.911	30501.81
614.267	30499.1
614.624	30738.41
614.98	30847.11
615.337	31123.26
615.693	31238.74
616.05	31336.14
616.406	31669.01
616.762	31608
617.118	31781.33
617.475	31840.76
617.831	32206.17
618.187	32315.1
618.543	32302.22
618.899	32677.35
619.255	32756.89
619.611	32864.46
619.967	32988.3
620.323	33172.02
620.678	33122.99
621.034	33069.65
621.39	33234.17
621.746	33289.76
622.101	33827.15
622.457	33598.45
622.812	33730.88
623.168	33980.82
623.523	34013.36
623.879	34179.68
624.234	33916.86
624.589	34250.64
624.945	34375.83
625.3	34413.8
625.655	34515.26
626.01	34605.88
626.365	34614.47
626.72	34632.78
627.075	34746.67
627.43	34881.13
627.785	34825.99
628.14	34869.61
628.495	34901.47
628.85	34995.03
629.205	34878.65
629.559	35209.71
629.914	35028.02
630.269	35247.22
630.623	35035.25
630.978	35056.04
631.332	35350.27
631.687	35440.21
632.041	35267.79
632.396	35386.88
632.75	35308.24
633.104	35279.09
633.459	35232.08
633.813	35268.47
634.167	35327.67
634.521	35406.77
634.875	35590.94
635.229	35491.74
635.583	35252.42
635.937	35318.63
636.291	35420.78
636.645	35381
636.999	35418.07
637.352	35531.51
637.706	35327.22
638.06	35462.13
638.413	35207
638.767	35323.15
639.121	35338.97
639.474	35277.05
639.828	35438.18
640.181	35333.55
640.534	35475.92
640.888	35300.55
641.241	35220.78
641.594	35319.09
641.947	35374
642.301	35407.9
642.654	35145.3
643.007	35336.26
643.36	35313.89
643.713	35149.82
644.066	35377.39
644.419	35231.63
644.771	34933.56
645.124	34628.03
645.477	34557.98
645.83	34349.85
646.182	34388.94
646.535	34168.83
646.888	34305.55
647.24	34185.1
647.593	34265.33
647.945	34235.27
648.298	34061.27
648.65	34057.88
649.002	33976.52
649.355	34183.75
649.707	34068.72
650.059	34260.58
650.411	34649.95
650.763	34630.52
651.115	35075.02
651.467	34825.99
651.819	34953.9
652.171	34826.44
652.523	34794.58
652.875	34833.67
653.227	34724.07
653.578	34900.79
653.93	34874.35
654.282	34749.61
654.633	34690.85
654.985	34753.22
655.337	34749.38
655.688	34653.11
656.039	34823.73
656.391	34503.29
656.742	34614.25
657.094	34534.02
657.445	34742.38
657.796	34660.8
658.147	34523.4
658.498	34542.61
658.849	34589.61
659.2	34528.82
659.551	34469.16
659.902	34739.21
660.253	34582.61
660.604	34680.01
660.955	34356.62
661.306	34555.26
661.656	34499.22
662.007	34604.75
662.358	34403.18
662.708	34491.08
663.059	34404.99
663.409	34384.19
663.76	34543.51
664.11	34516.62
664.461	34487.02
664.811	34460.35
665.161	34445.89
665.511	34354.14
665.862	34607.01
666.212	34444.98
666.562	34442.95
666.912	34496.06
667.262	34402.73
667.612	34431.88
667.962	34462.16
668.312	34395.49
668.662	34555.49
669.011	34510.29
669.361	34427.81
669.711	34414.7
670.06	34317.76
670.41	34258.77
670.76	34254.25
671.109	34411.54
671.459	34372.22
671.808	34220.36
672.157	34300.58
672.507	34025.56
672.856	34117.08
673.205	34170.64
673.554	34177.65
673.904	34012
674.253	34301.94
674.602	34153.69
674.951	33640.26
675.3	33488.85
675.649	34116.41
675.998	34123.18
676.346	34009.97
676.695	34238.66
677.044	33833.25
677.393	33893.36
677.741	34043.64
678.09	34000.25
678.438	33745.34
678.787	33973.81
679.135	33994.37
679.484	33623.76
679.832	33756.87
680.181	33593.03
680.529	33707.6
680.877	33547.15
681.225	33520.94
681.573	33856.75
681.922	33493.37
682.27	33446.14
682.618	33526.82
682.966	33343.54
683.314	33401.62
683.661	33358.23
684.009	33281.17
684.357	33256.99
684.705	33108.3
685.053	33091.35
685.4	33165.24
685.748	33012.03
686.095	33096.55
686.443	32881.86
686.79	32910.56
687.138	32889.77
687.485	32799.38
687.832	32686.39
688.18	32717.8
688.527	32580.17
688.874	32646.84
689.221	32493.85
689.568	32477.58
689.915	32356.23
690.262	32364.59
690.609	32270.8
690.956	32070.58
691.303	32129.11
691.65	31906.29
691.997	31987.2
692.344	31746.3
692.69	31814.09
693.037	31735.9
693.383	31513.08
693.73	31631.72
694.077	31451.16
694.423	31383.14
694.769	31328.91
695.116	31176.6
695.462	31273.99
695.808	31041.46
696.155	31156.03
696.501	30976.37
696.847	30903.61
697.193	30758.75
697.539	30815.7
697.885	30606.89
698.231	30387.46
698.577	30475.37
698.923	30403.51
699.269	30278.09
699.614	30159.22
699.96	30108.38
700.306	30119.67
700.651	30090.75
700.997	29967.36
701.342	29953.12
701.688	29846.69
702.033	29767.37
702.379	29768.95
702.724	29536.41
703.069	29650.31
703.415	29252.35
703.76	29380.48
704.105	29354.72
704.45	29208.51
704.795	29231.11
705.14	28979.59
705.485	28988.63
705.83	28814.17
706.175	28869.09
706.52	28861.4
706.865	28756.09
707.209	28807.84
707.554	28521.98
707.899	28614.4
708.243	28483.78
708.588	28498.93
708.932	28365.82
709.277	28319.04
709.621	28289.89
709.966	28096
710.31	28222.55
710.654	27863.01
710.998	27986.4
711.342	27936.23
711.687	27865.27
712.031	27797.48
712.375	27740.3
712.719	27740.08
713.063	27698.72
713.407	27728.55
713.75	27662.56
714.094	27557.26
714.438	27427.09
714.782	27575.33
715.125	27317.04
715.469	27503.92
715.812	27210.37
716.156	27171.05
716.499	27113.65
716.843	27185.29
717.186	27037.95
717.53	27115.01
717.873	27123.82
718.216	26981.45
718.559	26836.37
718.902	26703.94
719.246	26630.05
719.589	26673.89
719.932	26587.79
720.275	26570.84
720.617	26575.13
720.96	26541.92
721.303	26502.82
721.646	26379.21
721.989	26292.43
722.331	26279.78
722.674	26274.13
723.016	26171.76
723.359	26265.54
723.701	26231.41
724.044	26083.4
724.386	25902.16
724.729	26136.73
725.071	25990.52
725.413	25939.9
725.755	26017.64
726.097	25819
726.439	25745.55
726.782	25759.34
727.124	25671.2
727.465	25728.83
727.807	25626.68
728.149	25744.42
728.491	25465.11
728.833	25541.49
729.175	25486.8
729.516	25497.87
729.858	25419.01
730.199	25412.23
730.541	25329.29
730.882	25279.35
731.224	25370.19
731.565	25188.96
731.906	25225.79
732.248	25196.19
732.589	25172.69
732.93	24945.8
733.271	24972.01
733.612	25135.17
733.953	25093.82
734.294	25038.9
734.635	24864.67
734.976	24927.49
735.317	24894.27
735.658	24839.36
735.999	24852.69
736.339	24788.97
736.68	24786.48
737.021	24700.38
737.361	24739.02
737.702	24706.48
738.042	24678.46
738.383	24574.51
738.723	24617.9
739.063	24553.04
739.404	24571.12
739.744	24536.09
740.084	24321.41
740.424	24368.64
740.764	24497.68
741.104	24409.99
741.444	24214.52
741.784	24246.83
742.124	24239.83
742.464	24223.78
742.804	24191.24
743.143	24228.3
743.483	24090.68
743.823	24007.29
744.162	24011.81
744.502	24045.71
744.841	23932.04
745.181	24010
745.52	23944.7
745.86	24005.03
746.199	23895.21
746.538	23756.23
746.877	23866.51
747.216	23934.07
747.556	23722.78
747.895	23770.91
748.234	23633.07
748.573	23624.93
748.911	23633.07
749.25	23602.78
749.589	23391.04
749.928	23560.98
750.267	23486.18
750.605	23396.01
750.944	23393.75
751.283	23320.3
751.621	23322.11
751.96	23198.95
752.298	23129.35
752.636	23281.89
752.975	23114.43
753.313	23011.84
753.651	23124.6
753.989	23053.19
754.327	22938.17
754.666	22846.65
755.004	23003.48
755.342	22887.1
755.679	22943.37
756.017	22710.38
756.355	22881.45
756.693	22717.83
757.031	22766.87
757.368	22705.41
757.706	22687.55
758.044	22519.42
758.381	22727.78
758.719	22477.39
759.056	22508.35
759.394	22501.34
759.731	22285.08
760.068	22136.61
760.405	22252.76
760.743	22126.66
761.08	22161.01
761.417	21956.05
761.754	21929.16
762.091	21875.82
762.428	21912.88
762.765	21749.27
763.102	21789.95
763.438	21646.45
763.775	21545.21
764.112	21615.94
764.449	21533.23
764.785	21433.57
765.122	21337.98
765.458	21295.73
765.795	21158.78
766.131	21143.19
766.467	21113.13
766.804	20933.93
767.14	20954.49
767.476	20920.59
767.812	20837.21
768.148	20839.24
768.485	20681.73
768.821	20541.39
769.157	20601.28
769.492	20558.34
769.828	20460.04
770.164	20267.28
770.5	20302.08
770.836	20319.48
771.171	20174.85
771.507	20204.91
771.842	19976.44
772.178	20016.89
772.513	19883.56
772.849	19905.48
773.184	19777.8
773.519	19757.01
773.855	19734.86
774.19	19609.89
774.525	19538.03
774.86	19548.2
775.195	19547.3
775.53	19395.44
775.865	19300.75
776.2	19080.19
776.535	18984.83
776.87	18912.29
777.205	18977.37
777.539	18897.82
777.874	18852.63
778.209	18675
778.543	18580.32
778.878	18585.06
779.212	18554.78
779.547	18403.15
779.881	18469.81
780.215	18397.95
780.55	18430.49
780.884	18127.22
781.218	18105.3
781.552	18189.82
781.886	18099.43
782.22	18042.7
782.554	17960.22
782.888	17764.97
783.222	17709.38
783.556	17678.19
783.889	17617.63
784.223	17466.67
784.557	17535.82
784.89	17437.3
785.224	17392.33
785.557	17253.57
785.891	17228.04
786.224	17237.75
786.558	17183.07
786.891	17043.41
787.224	16929.96
787.557	16917.31
787.891	16847.48
788.224	16846.35
788.557	16922.96
788.89	16789.63
789.223	16678.9
789.556	16681.61
789.888	16487.94
790.221	16490.65
790.554	16395.06
790.887	16372.24
791.219	16384.89
791.552	16200.94
791.884	16162.08
792.217	16162.08
792.549	16169.53
792.882	15866.26
793.214	15901.74
793.546	15939.71
793.879	15811.8
794.211	15772.71
794.543	15859.26
794.875	15804.12
795.207	15756.44
795.539	15665.82
795.871	15556.22
796.203	15568.64
796.535	15418.82
796.867	15445.26
797.198	15277.8
797.53	15382.66
797.862	15159.62
798.193	15284.36
798.525	15215.21
798.856	15200.97
799.188	15029.9
799.519	15018.6
799.85	14958.72
800.182	14970.47
800.513	14856.8
800.844	14782.45
801.175	14887.76
801.506	14794.2
801.837	14658.39
802.168	14758.72
802.499	14622.23
802.83	14532.74
803.161	14495
803.491	14510.82
803.822	14509.46
804.153	14449.35
804.483	14250.49
804.814	14220.88
805.145	14230.83
805.475	14189.02
805.805	14154.22
806.136	14180.43
806.466	14093.43
806.796	14111.06
807.126	13980.89
807.457	13929.14
807.787	13866.09
808.117	13786.54
808.447	13796.04
808.777	13842.81
809.107	13751.97
809.436	13827.9
809.766	13730.73
810.096	13620.22
810.426	13629.03
810.755	13619.99
811.085	13525.53
811.414	13640.56
811.744	13438.08
812.073	13416.16
812.403	13360.57
812.732	13393.79
813.061	13427.91
813.39	13261.13
813.719	13272.89
814.049	13322.6
814.378	13246.67
814.707	13233.56
815.036	13134.81
815.365	13147.01
815.693	12982.72
816.022	13082.16
816.351	12948.37
816.68	12914.48
817.008	12945.44
817.337	12720.13
817.665	12850.52
817.994	12829.28
818.322	12824.54
818.651	12757.19
818.979	12735.5
819.307	12748.38
819.636	12676.74
819.964	12702.28
820.292	12686.91
820.62	12641.26
820.948	12538.44
821.276	12611.43
821.604	12513.81
821.932	12638.55
822.259	12603.98
822.587	12572.79
822.915	12500.7
823.243	12567.37
823.57	12547.03
823.898	12526.92
824.225	12528.5
824.553	12561.72
824.88	12524.43
825.207	12619.12
825.535	12487.6
825.862	12566.46
826.189	12520.81
826.516	12556.07
826.843	12595.16
827.17	12505.9
827.497	12523.3
827.824	12549.29
828.151	12544.32
828.478	12502.96
828.805	12550.87
829.131	12547.48
829.458	12429.52
829.785	12466.13
830.111	12432.46
830.438	12548.16
830.764	12442.4
831.09	12520.59
831.417	12429.29
831.743	12496.86
832.069	12495.05
832.395	12456.18
832.722	12478.1
833.048	12380.48
833.374	12370.76
833.7	12397.88
834.026	12293.93
834.351	12372.34
834.677	12335.06
835.003	12354.04
835.329	12287.37
835.654	12298.67
835.98	12262.29
836.306	12199.69
836.631	12250.99
836.956	12313.81
837.282	12262.29
837.607	12231.56
837.932	12119.92
838.258	12130.09
838.583	12113.82
838.908	12068.85
839.233	12117.21
839.558	12025.91
839.883	12083.76
840.208	11971.22
840.533	11999.47
840.858	11972.58
841.182	11949.98
841.507	11976.65
841.832	11894.16
842.156	11855.3
842.481	11860.72
842.805	11879.48
843.13	11787.5
843.454	11809.65
843.778	11747.5
844.103	11730.55
844.427	11660.27
844.751	11718.8
845.075	11679.93
845.399	11578.01
845.723	11507.51
846.047	11589.54
846.371	11477.68
846.695	11492.59
847.019	11359.04
847.343	11293.05
847.666	11301.86
847.99	11153.39
848.313	11211.7
848.637	11159.49
848.96	11107.52
849.284	11103
849.607	11037.46
849.931	11008.54
850.254	10940.52
850.577	10872.72
850.9	10815.32
851.223	10804.93
851.546	10847.19
851.869	10663.69
852.192	10689.22
852.515	10607.87
852.838	10565.61
853.161	10597.02
853.483	10459.17
853.806	10525.16
854.129	10439.29
854.451	10452.62
854.774	10401.32
855.096	10306.41
855.419	10354.77
855.741	10352.06
856.063	10214.43
856.385	10223.47
856.708	10149.58
857.03	10176.7
857.352	10133.08
857.674	10166.07
857.996	10033.2
858.318	10045.17
858.64	10002.46
858.961	10010.15
859.283	9953.42
859.605	9884.05
859.926	9885.18
860.248	9896.93
860.57	9861.68
860.891	9880.43
861.212	9797.5
861.534	9820.32
861.855	9760.44
862.176	9829.59
862.498	9711.85
862.819	9784.84
863.14	9714.11
863.461	9656.71
863.782	9587.78
864.103	9646.77
864.424	9596.37
864.745	9642.25
865.065	9597.95
865.386	9541.91
865.707	9557.05
866.027	9504.17
866.348	9524.96
866.668	9466.21
866.989	9456.94
867.309	9332.42
867.63	9392.76
867.95	9387.79
868.27	9330.62
868.59	9378.3
868.91	9380.11
869.23	9329.71
869.55	9316.61
869.87	9361.8
870.19	9271.63
870.51	9295.36
870.83	9330.16
871.15	9214.46
871.469	9205.65
871.789	9207
872.109	9202.71
872.428	9137.85
872.748	9290.17
873.067	9208.81
873.386	9229.15
873.706	9135.37
874.025	9174.46
874.344	9103.28
874.663	9143.28
874.982	9020.57
875.301	9060.34
875.62	9003.85
875.939	8992.55
876.258	9008.82
876.577	8983.73
876.896	8986.9
877.214	8990.06
877.533	8936.05
877.852	8959.55
878.17	8988.7
878.489	8921.36
878.807	8966.56
879.125	8892.21
879.444	8919.78
879.762	8830.74
880.08	8849.5
880.398	8807.69
880.716	8885.2
881.034	8808.6
881.352	8813.34
881.67	8763.17
881.988	8746.9
882.306	8745.32
882.624	8747.35
882.941	8671.2
883.259	8596.17
883.577	8670.52
883.894	8619.9
884.212	8606.34
884.529	8543.97
884.846	8517.76
885.164	8540.13
885.481	8550.3
885.798	8492.9
886.115	8527.7
886.432	8467.59
886.75	8397.08
887.067	8478.89
887.383	8438.44
887.7	8423.3
888.017	8394.37
888.334	8359.57
888.651	8357.08
888.967	8322.51
889.284	8296.75
889.6	8193.47
889.917	8240.7
890.233	8225.56
890.55	8171.78
890.866	8122.74
891.182	8059.92
891.498	8118.44
891.815	8106.24
892.131	8092.91
892.447	8131.55
892.763	7991.89
893.079	8003.87
893.395	7949.86
893.71	7963.87
894.026	7975.17
894.342	7919.35
894.657	7894.72
894.973	7862.63
895.289	7833.48
895.604	7810.88
895.92	7795.29
896.235	7774.05
896.55	7745.12
896.865	7703.54
897.181	7652.24
897.496	7699.02
897.811	7630.32
898.126	7562.75
898.441	7544
898.756	7553.26
899.071	7519.59
899.386	7463.55
899.7	7460.83
900.015	7400.27
900.33	7388.97
900.644	7365.47
900.959	7425.81
901.273	7362.98
901.588	7324.79
901.902	7260.61
902.216	7243.44
902.531	7193.5
902.845	7176.55
903.159	7159.6
903.473	7108.08
903.787	7119.6
904.101	7062.43
904.415	7054.97
904.729	7079.38
905.042	7010.68
905.356	6988.98
905.67	6947.18
905.984	6923.67
906.297	6892.26
906.611	6861.3
906.924	6821.3
907.237	6883.67
907.551	6828.99
907.864	6781.76
908.177	6764.58
908.491	6726.39
908.804	6725.71
909.117	6746.96
909.43	6614.53
909.743	6588.09
910.056	6662.89
910.368	6542.44
910.681	6557.36
910.994	6557.36
911.307	6517.81
911.619	6505.83
911.932	6466.28
912.244	6409.56
912.557	6398.94
912.869	6392.61
913.181	6357.59
913.494	6345.84
913.806	6340.64
914.118	6293.86
914.43	6266.06
914.742	6266.97
915.054	6163.02
915.366	6145.62
915.678	6139.29
915.99	6115.33
916.302	6039.63
916.613	6071.27
916.925	6042.12
917.236	6054.09
917.548	5947.2
917.859	5990.37
918.171	5936.13
918.482	5896.13
918.794	5873.31
919.105	5950.59
919.416	5843.02
919.727	5831.05
920.038	5817.49
920.349	5820.43
920.66	5723.93
920.971	5761.44
921.282	5720.54
921.593	5686.87
921.903	5661.79
922.214	5627.44
922.525	5634.67
922.835	5597.16
923.146	5571.85
923.456	5548.34
923.767	5514.67
924.077	5510.15
924.387	5444.84
924.697	5447.1
925.008	5458.63
925.318	5394.45
925.628	5397.16
925.938	5356.03
926.248	5372.98
926.558	5298.41
926.867	5272.64
927.177	5256.15
927.487	5234.9
927.796	5158.52
928.106	5208.24
928.416	5174.34
928.725	5175.92
929.034	5126.43
929.344	5159.65
929.653	5118.75
929.962	5043.72
930.271	5011.18
930.581	5026.32
930.89	4995.14
931.199	4999.43
931.508	4973.44
931.817	4978.64
932.125	4920.11
932.434	4958.98
932.743	4922.14
933.051	4828.81
933.36	4874.46
933.669	4804.86
933.977	4788.14
934.286	4758.31
934.594	4750.62
934.902	4697.97
935.21	4684.41
935.519	4736.16
935.827	4701.13
936.135	4635.37
936.443	4640.34
936.751	4606.67
937.059	4602.83
937.367	4591.53
937.674	4506.56
937.982	4580.91
938.29	4491.87
938.597	4494.36
938.905	4464.08
939.213	4476.05
939.52	4434.47
939.827	4401.48
940.135	4431.31
940.442	4398.99
940.749	4377.98
941.056	4398.32
941.363	4365.78
941.67	4327.13
941.977	4290.07
942.284	4250.98
942.591	4269.51
942.898	4241.26
943.205	4228.38
943.511	4217.98
943.818	4194.48
944.125	4178.66
944.431	4144.54
944.738	4163.07
945.044	4127.36
945.35	4139.34
945.657	4055.05
945.963	4062.51
946.269	4064.54
946.575	4038.78
946.881	3997.88
947.187	4026.12
947.493	3963.53
947.799	3960.81
948.105	3960.14
948.41	3928.5
948.716	3909.06
949.022	3893.02
949.327	3912.23
949.633	3918.78
949.938	3845.56
950.244	3847.82
950.549	3804.21
950.854	3758.79
951.16	3831.78
951.465	3763.08
951.77	3780.25
952.075	3730.54
952.38	3710.88
952.685	3692.12
952.99	3676.3
953.294	3724.89
953.599	3662.52
953.904	3686.92
954.209	3625.23
954.513	3599.24
954.818	3600.15
955.122	3561.5
955.426	3560.6
955.731	3504.55
956.035	3497.1
956.339	3521.73
956.643	3544.55
956.948	3498.23
957.252	3482.41
957.556	3454.16
957.86	3439.02
958.163	3433.82
958.467	3422.75
958.771	3427.49
959.075	3420.49
959.378	3343.88
959.682	3344.33
959.985	3365.12
960.289	3375.29
960.592	3319.25
960.896	3324.67
961.199	3286.48
961.502	3250.78
961.805	3227.73
962.108	3237.9
962.411	3248.29
962.714	3213.94
963.017	3213.71
963.32	3185.92
963.623	3188.63
963.926	3196.09
964.228	3137.33
964.531	3103.89
964.833	3122.64
965.136	3090.55
965.438	3093.27
965.741	3051.69
966.043	3059.37
966.345	3054.17
966.648	3052.14
966.95	3035.87
967.252	3012.82
967.554	2982.53
967.856	3000.16
968.158	2959.94
968.46	2954.96
968.761	2950.9
969.063	2944.12
969.365	2900.73
969.666	2915.19
969.968	2868.41
970.269	2886.04
970.571	2889.66
970.872	2835.19
971.174	2855.98
971.475	2827.06
971.776	2850.56
972.077	2832.93
972.378	2775.76
972.679	2776.66
972.98	2774.18
973.281	2779.83
973.582	2760.39
973.883	2764.69
974.183	2776.66
974.484	2751.81
974.785	2749.09
975.085	2708.87
975.386	2689.89
975.686	2688.08
975.986	2673.62
976.287	2618.48
976.587	2672.94
976.887	2627.29
977.187	2599.72
977.487	2620.96
977.787	2589.78
978.087	2609.21
978.387	2582.77
978.687	2578.25
978.987	2548.65
979.286	2536.9
979.586	2543.45
979.885	2532.15
980.185	2527.63
980.484	2510.46
980.784	2511.36
981.083	2451.7
981.382	2445.6
981.682	2460.74
981.981	2461.64
982.28	2429.55
982.579	2406.5
982.878	2406.05
983.177	2427.97
983.475	2424.81
983.774	2394.98
984.073	2369.9
984.372	2390.69
984.67	2356.34
984.969	2330.8
985.267	2381.87
985.566	2344.59
985.864	2317.69
986.162	2334.64
986.461	2286.51
986.759	2282.44
987.057	2238.83
987.355	2273.17
987.653	2250.58
987.951	2238.15
988.249	2261.88
988.547	2223.46
988.844	2220.52
989.142	2190.92
989.44	2198.6
989.737	2183.01
990.035	2175.32
990.332	2174.87
990.63	2131.48
990.927	2123.35
991.224	2106.63
991.521	2153.63
991.819	2140.52
992.116	2109.56
992.413	2110.47
992.71	2092.61
993.006	2086.29
993.303	2102.33
993.6	2064.37
993.897	2062.78
994.193	2056.46
994.49	2053.29
994.787	2020.07
995.083	2037.25
995.379	2002.9
995.676	2015.1
995.972	1978.95
996.268	1990.7
996.565	1940.3
996.861	1954.76
997.157	1936.01
997.453	1931.94
997.749	1937.82
998.044	1911.6
998.34	1900.76
998.636	1882
998.932	1861.21
999.227	1880.42
999.523	1876.12
999.818	1874.99
1000.114	1857.59
1000.409	1857.37
1000.704	1858.95
1001	1835.9
1001.295	1799.29
1001.59	1816.01
1001.885	1825.5
1002.18	1809.01
1002.475	1789.57
1002.77	1735.79
1003.065	1738.27
1003.359	1766.75
1003.654	1755.22
1003.949	1703.92
1004.243	1703.02
1004.538	1728.56
1004.832	1716.81
1005.127	1723.81
1005.421	1709.35
1005.715	1685.62
1006.009	1667.54
1006.304	1656.02
1006.598	1658.73
1006.892	1659.18
1007.186	1620.31
1007.48	1632.29
1007.773	1603.14
1008.067	1637.71
1008.361	1578.96
1008.655	1612.18
1008.948	1616.69
1009.242	1595.9
1009.535	1573.31
1009.829	1556.13
1010.122	1554.55
1010.415	1531.95
1010.708	1495.34
1011.001	1526.08
1011.295	1534.44
1011.588	1503.93
1011.881	1513.19
1012.173	1471.39
1012.466	1486.08
1012.759	1477.72
1013.052	1483.36
1013.344	1452.18
1013.637	1454.67
1013.93	1450.82
1014.222	1395.91
1014.514	1430.94
1014.807	1402.69
1015.099	1420.77
1015.391	1407.43
1015.683	1410.6
1015.976	1372.41
1016.268	1413.99
1016.56	1368.57
1016.851	1354.1
1017.143	1354.1
1017.435	1359.3
1017.727	1347.32
1018.018	1324.95
1018.31	1300.77
1018.602	1333.76
1018.893	1312.52
1019.185	1298.96
1019.476	1284.05
1019.767	1310.49
1020.058	1267.1
1020.35	1269.81
1020.641	1255.57
1020.932	1262.81
1021.223	1242.47
1021.514	1203.82
1021.804	1187.1
1022.095	1208.12
1022.386	1214.67
1022.677	1220.77
1022.967	1238.63
1023.258	1199.98
1023.548	1189.59
1023.839	1159.31
1024.129	1184.84
1024.419	1161.11
1024.709	1157.5
1025	1166.76
1025.29	1146.65
1025.58	1102.58
1025.87	1131.96
1026.16	1115.01
1026.449	1101.91
1026.739	1107.78
1027.029	1124.96
1027.319	1115.01
1027.608	1077.95
1027.898	1073.43
1028.187	1068.91
1028.477	1060.55
1028.766	1073.21
1029.055	1049.93
1029.344	1080.66
1029.634	1041.79
1029.923	1063.26
1030.212	1054.45
1030.501	1027.33
1030.79	1015.81
1031.078	1022.13
1031.367	986.43
1031.656	1026.65
1031.945	983.94
1032.233	974.68
1032.522	986.88
1032.81	988.46
1033.099	947.33
1033.387	968.35
1033.675	977.84
1033.963	956.6
1034.251	944.85
1034.54	941.23
1034.828	934.68
1035.116	931.06
1035.403	903.72
1035.691	943.27
1035.979	916.15
1036.267	897.62
1036.554	904.17
1036.842	892.42
1037.129	896.94
1037.417	859.2
1037.704	875.02
1037.992	854.91
1038.279	857.39
1038.566	868.92
1038.853	868.92
1039.14	868.92
