Data from hue_120_FLMS001491_00037.txt Node
Date: Tue Feb 07 16:59:17 GMT 2017
User: dcchb
Spectrometer: FLMS00149
Trigger mode: 0
Integration Time (sec): 2.000000E-2
Scans to average: 10
Electric dark correction enabled: true
Nonlinearity correction enabled: false
Boxcar width: 0
XAxis mode: Wavelengths
Number of Pixels in Spectrum: 2048
>>>>>Begin Spectral Data<<<<<
341.393	-9.77
341.776	-9.77
342.16	-9.77
342.543	-76.66
342.927	-66.27
343.31	-74.4
343.693	-78.47
344.077	-74.86
344.46	-72.82
344.843	-50.22
345.226	-47.74
345.61	-6.38
345.993	-26.5
346.376	7.85
346.759	19.83
347.142	35.87
347.525	51.24
347.908	56.21
348.291	84.69
348.674	73.84
349.057	101.86
349.44	125.82
349.823	145.25
350.206	156.1
350.588	177.11
350.971	208.98
351.354	209.43
351.737	226.15
352.119	279.48
352.502	251.46
352.884	276.55
353.267	269.77
353.65	285.36
354.032	296.66
354.414	305.47
354.797	302.53
355.179	302.53
355.562	311.57
355.944	317
356.326	305.92
356.709	319.26
357.091	329.65
357.473	333.27
357.855	346.38
358.238	353.15
358.62	325.58
359.002	337.56
359.384	327.39
359.766	332.36
360.148	339.37
360.53	331.46
360.912	338.24
361.294	345.25
361.676	332.14
362.057	320.61
362.439	332.59
362.821	332.82
363.203	336.43
363.584	316.09
363.966	316.77
364.348	319.26
364.729	319.94
365.111	308.41
365.493	325.13
365.874	296.43
366.256	322.87
366.637	317.45
367.019	307.51
367.4	313.61
367.781	303.44
368.163	318.81
368.544	331.91
368.925	312.03
369.306	308.86
369.688	318.81
370.069	314.51
370.45	331.01
370.831	311.57
371.212	314.51
371.593	309.77
371.974	333.49
372.355	321.29
372.736	343.66
373.117	338.01
373.498	342.53
373.879	331.91
374.26	324.68
374.641	313.38
375.021	298.01
375.402	321.74
375.783	307.28
376.163	351.35
376.544	347.73
376.925	342.53
377.305	318.81
377.686	346.83
378.066	347.28
378.447	347.05
378.827	331.01
379.208	340.95
379.588	311.12
379.968	340.05
380.349	339.37
380.729	321.52
381.109	344.12
381.489	337.34
381.87	319.26
382.25	329.65
382.63	348.41
383.01	344.34
383.39	343.66
383.77	339.82
384.15	354.74
384.53	376.66
384.91	351.57
385.29	343.21
385.67	354.06
386.049	357.67
386.429	369.2
386.809	361.52
387.189	359.03
387.568	354.96
387.948	358.35
388.328	365.81
388.707	360.16
389.087	365.36
389.466	364.45
389.846	360.16
390.225	366.71
390.605	345.02
390.984	371.91
391.363	386.83
391.743	391.12
392.122	374.85
392.501	389.76
392.881	391.12
393.26	375.3
393.639	385.92
394.018	387.5
394.397	391.8
394.776	368.75
395.155	404.45
395.534	395.64
395.913	376.88
396.292	397
396.671	378.92
397.05	417.11
397.429	406.26
397.808	397.45
398.186	392.48
398.565	396.54
398.944	418.69
399.323	413.72
399.701	404
400.08	412.36
400.458	418.01
400.837	429.31
401.215	418.69
401.594	421.85
401.972	435.64
402.351	439.93
402.729	422.53
403.107	429.54
403.486	404
403.864	419.82
404.242	425.02
404.62	446.49
404.999	439.03
405.377	456.2
405.755	428.41
406.133	447.16
406.511	448.29
406.889	462.3
407.267	440.84
407.645	439.93
408.023	472.25
408.401	461.63
408.779	450.1
409.156	486.03
409.534	477.45
409.912	481.29
410.29	479.25
410.667	459.37
411.045	463.66
411.422	484.45
411.8	456.88
412.178	504.56
412.555	499.14
412.933	501.85
413.31	491.68
413.687	499.14
414.065	498.24
414.442	514.51
414.819	532.36
415.197	529.87
415.574	509.08
415.951	525.58
416.328	522.19
416.705	540.27
417.082	502.53
417.46	528.29
417.837	525.81
418.214	533.94
418.591	547.05
418.967	533.04
419.344	541.62
419.721	553.6
420.098	556.77
420.475	558.57
420.852	576.65
421.228	579.82
421.605	568.97
421.982	579.14
422.358	583.66
422.735	585.24
423.111	579.82
423.488	613.49
423.864	606.71
424.241	596.31
424.617	591.79
424.994	597.22
425.37	627.5
425.746	621.4
426.123	623.43
426.499	607.84
426.875	630.44
427.251	642.41
427.627	638.8
428.003	650.77
428.379	634.5
428.756	668.85
429.132	684.45
429.507	666.37
429.883	658.68
430.259	676.08
430.635	711.34
431.011	686.25
431.387	686.93
431.763	705.69
432.138	715.4
432.514	707.72
432.89	740.04
433.265	726.03
433.641	717.44
434.016	752.01
434.392	738.68
434.767	765.12
435.143	745.91
435.518	738.23
435.894	759.7
436.269	814.61
436.644	813.93
437.02	782.75
437.395	804.89
437.77	821.62
438.145	842.41
438.52	802.18
438.895	833.37
439.271	822.75
439.646	836.31
440.021	848.73
440.395	849.19
440.77	854.38
441.145	877.89
441.52	885.8
441.895	869.07
442.27	876.3
442.645	880.6
443.019	911.56
443.394	893.93
443.769	893.71
444.143	899.13
444.518	908.62
444.892	929.64
445.267	926.25
445.641	908.85
446.016	950.2
446.39	943.42
446.764	940.71
447.139	947.94
447.513	978.9
447.887	967.6
448.262	959.24
448.636	960.37
449.01	980.48
449.384	997.88
449.758	987.71
450.132	1017.32
450.506	997.88
450.88	1046.7
451.254	1032.46
451.628	1040.59
452.002	1041.95
452.376	1055.28
452.75	1068.84
453.123	1083.3
453.497	1110.65
453.871	1101.84
454.244	1123.08
454.618	1134.15
454.992	1147.48
455.365	1143.64
455.739	1152.46
456.112	1169.18
456.486	1165.34
456.859	1188.39
457.232	1212.57
457.606	1225.22
457.979	1237.43
458.352	1257.76
458.725	1276.07
459.099	1258.67
459.472	1297.54
459.845	1306.12
460.218	1312
460.591	1360.36
460.964	1336.86
461.337	1362.62
461.71	1359.91
462.083	1407.59
462.456	1433.35
462.829	1448.27
463.201	1443.75
463.574	1449.4
463.947	1477.42
464.32	1519.68
464.692	1568.49
465.065	1523.07
465.438	1565.78
465.81	1615.27
466.183	1636.96
466.555	1641.26
466.928	1688.03
467.3	1697.3
467.672	1696.85
468.045	1749.5
468.417	1748.82
468.789	1770.52
469.161	1786.79
469.534	1864.98
469.906	1869.5
470.278	1897.75
470.65	1918.99
471.022	1966.9
471.394	2007.35
471.766	2047.35
472.138	2084.86
472.51	2133.45
472.882	2187.46
473.253	2226.55
473.625	2247.79
473.997	2307.23
474.369	2324.63
474.74	2374.34
475.112	2399.2
475.484	2477.62
475.855	2576.82
476.227	2610.72
476.598	2690.27
476.97	2741.34
477.341	2815.24
477.713	2876.48
478.084	2896.36
478.455	3038.96
478.827	3074.21
479.198	3212.97
479.569	3256.81
479.94	3318.5
480.311	3398.05
480.682	3543.58
481.053	3607.76
481.424	3688.43
481.795	3789.45
482.166	3897.92
482.537	4050.68
482.908	4089.1
483.279	4167.07
483.65	4310.79
484.021	4423.56
484.391	4567.73
484.762	4672.36
485.133	4796.43
485.503	4851.34
485.874	4983.54
486.244	5118.68
486.615	5275.06
486.985	5395.96
487.356	5535.17
487.726	5623.98
488.097	5806.34
488.467	5855.61
488.837	6137.18
489.207	6250.4
489.578	6415.59
489.948	6531.52
490.318	6659.43
490.688	6761.35
491.058	6930.61
491.428	7098.06
491.798	7196.14
492.168	7425.06
492.538	7448.79
492.908	7673.64
493.278	7806.52
493.648	7871.83
494.017	8028.66
494.387	8200.63
494.757	8354.98
495.126	8482.43
495.496	8548.87
495.866	8697.79
496.235	8860.95
496.605	9000.61
496.974	9064.11
497.344	9236.76
497.713	9361.28
498.082	9468.17
498.452	9662.74
498.821	9735.51
499.19	9837.2
499.559	9909.29
499.928	10061.37
500.298	10144.08
500.667	10303.63
501.036	10347.69
501.405	10427.92
501.774	10524.19
502.143	10724.18
502.512	10775.48
502.88	10914.23
503.249	10939.09
503.618	11054.12
503.987	11078.07
504.356	11205.07
504.724	11238.97
505.093	11378.18
505.462	11416.59
505.83	11582.69
506.199	11663.14
506.567	11803.02
506.936	11770.71
507.304	11904.72
507.672	12026.29
508.041	12128.21
508.409	12196.91
508.777	12311.94
509.145	12394.65
509.514	12413.85
509.882	12542.21
510.25	12555.32
510.618	12526.85
510.986	12566.17
511.354	12706.95
511.722	12836.22
512.09	12902.2
512.458	12866.5
512.826	13000.96
513.193	12977
513.561	13146.49
513.929	13181.97
514.297	13287.73
514.664	13367.95
515.032	13377.44
515.4	13464.9
515.767	13446.14
516.135	13520.27
516.502	13440.49
516.869	13612.92
517.237	13553.94
517.604	13619.7
517.972	13681.84
518.339	13775.85
518.706	13776.98
519.073	13817.21
519.44	13869.86
519.808	13896.53
520.175	13947.15
520.542	13975.4
520.909	14058.78
521.276	14126.13
521.643	14183.98
522.009	14221.49
522.376	14255.39
522.743	14257.42
523.11	14381.03
523.477	14458.55
523.843	14516.85
524.21	14558.43
524.577	14670.07
524.943	14615.83
525.31	14601.59
525.676	14795.03
526.043	14696.05
526.409	14810.63
526.776	14864.41
527.142	14823.06
527.508	14955.26
527.874	14964.52
528.241	14914.81
528.607	14932.43
528.973	15012.66
529.339	14985.99
529.705	15004.75
530.071	15125.65
530.437	15110.73
530.803	15141.69
531.169	15062.82
531.535	15090.17
531.901	15098.53
532.267	15124.52
532.632	15115.7
532.998	15105.31
533.364	15043.16
533.73	15138.53
534.095	15094.24
534.461	15126.78
534.826	15220.33
535.192	15073.67
535.557	15215.59
535.923	15145.31
536.288	15101.24
536.653	15060.34
537.019	14999.78
537.384	14965.88
537.749	14967.01
538.114	14982.83
538.479	14943.05
538.845	14953.9
539.21	14860.34
539.575	14825.32
539.94	14817.18
540.305	14891.3
540.67	14834.36
541.034	14932.66
541.399	14819.21
541.764	14851.53
542.129	14786
542.494	14756.84
542.858	14644.3
543.223	14643.17
543.587	14717.3
543.952	14579.22
544.316	14602.72
544.681	14588.49
545.045	14546.23
545.41	14766.11
545.774	14483.63
546.138	14455.61
546.503	14437.08
546.867	14365.44
547.231	14476.17
547.595	14494.48
547.959	14408.6
548.324	14304.65
548.688	14319.79
549.052	14321.37
549.416	14242.28
549.779	14289.06
550.143	14241.38
550.507	14181.49
550.871	14169.97
551.235	14135.84
551.599	14197.54
551.962	14200.93
552.326	14102.17
552.689	14101.95
553.053	14043.19
553.417	14040.25
553.78	14106.92
554.143	14026.24
554.507	14032.79
554.87	13962.06
555.234	14080.03
555.597	13949.63
555.96	13917.77
556.323	13996.86
556.686	13942.63
557.05	14012.91
557.413	13942.4
557.776	13891.78
558.139	13945.57
558.502	13982.85
558.865	13921.84
559.228	13917.77
559.59	13943.08
559.953	13935.4
560.316	13976.07
560.679	13944.89
561.041	14027.82
561.404	14044.55
561.767	14005.22
562.129	13933.59
562.492	14065.11
562.854	14042.51
563.217	13928.39
563.579	14092.91
563.941	14084.77
564.304	13991.67
564.666	14100.36
565.028	14168.61
565.39	14030.76
565.753	14178.1
566.115	14138.55
566.477	14204.77
566.839	14123.41
567.201	14324.09
567.563	14214.49
567.925	14325.22
568.287	14242.05
568.648	14115.96
569.01	14318.66
569.372	14298.32
569.734	14226.01
570.095	14303.75
570.457	14322.73
570.819	14419.45
571.18	14406.8
571.542	14378.77
571.903	14493.12
572.265	14443.18
572.626	14503.97
572.987	14480.47
573.349	14487.7
573.71	14508.71
574.071	14545.55
574.432	14539
574.794	14582.84
575.155	14561.82
575.516	14442.95
575.877	14548.26
576.238	14568.6
576.599	14642.04
576.96	14532.44
577.32	14630.07
577.681	14661.7
578.042	14613.57
578.403	14593.23
578.763	14547.13
579.124	14608.15
579.485	14656.51
579.845	14699.44
580.206	14646.34
580.566	14600.46
580.927	14667.35
581.287	14607.92
581.648	14655.38
582.008	14705.32
582.368	14579.9
582.728	14650.18
583.089	14590.52
583.449	14691.99
583.809	14641.82
584.169	14682.72
584.529	14592.1
584.889	14720.23
585.249	14624.42
585.609	14602.95
585.969	14656.28
586.329	14523.4
586.688	14629.62
587.048	14534.02
587.408	14545.32
587.768	14582.84
588.127	14513.46
588.487	14492.44
588.846	14580.58
589.206	14528.15
589.565	14431.2
589.925	14510.07
590.284	14394.82
590.643	14440.24
591.003	14477.98
591.362	14510.52
591.721	14459.68
592.08	14487.47
592.44	14435.04
592.799	14486.79
593.158	14426.46
593.517	14461.71
593.876	14407.7
594.235	14391.88
594.593	14400.24
594.952	14367.48
595.311	14305.56
595.67	14394.14
596.029	14426.23
596.387	14383.07
596.746	14438.21
597.104	14325.44
597.463	14310.53
597.822	14415.16
598.18	14364.54
598.538	14332
598.897	14369.96
599.255	14322.96
599.613	14505.55
599.972	14383.52
600.33	14436.4
600.688	14260.59
601.046	14394.37
601.404	14346.46
601.762	14429.62
602.12	14484.53
602.478	14393.92
602.836	14345.1
603.194	14305.78
603.552	14400.02
603.91	14349.62
604.268	14353.01
604.625	14419.45
604.983	14452.22
605.341	14361.15
605.698	14405.67
606.056	14475.95
606.413	14424.87
606.771	14445.89
607.128	14419.68
607.485	14320.24
607.843	14389.85
608.2	14482.95
608.557	14442.73
608.914	14421.49
609.272	14529.5
609.629	14409.28
609.986	14528.83
610.343	14449.96
610.7	14615.38
611.057	14610.63
611.414	14514.36
611.771	14584.64
612.127	14575.38
612.484	14616.73
612.841	14647.92
613.198	14549.84
613.554	14628.26
613.911	14703.74
614.267	14766.79
614.624	14651.54
614.98	14720.01
615.337	14752.55
615.693	14704.87
616.05	14719.33
616.406	14764.98
616.762	14717.97
617.118	14739.22
617.475	14732.89
617.831	14774.24
618.187	14765.88
618.543	14778.99
618.899	14796.16
619.255	14751.65
619.611	14766.33
619.967	14841.81
620.323	14860.12
620.678	14883.85
621.034	14834.81
621.39	14773.79
621.746	14702.83
622.101	14962.04
622.457	14793.23
622.812	14801.59
623.168	14906.22
623.523	14827.35
623.879	14822.6
624.234	14815.83
624.589	14844.98
624.945	14774.47
625.3	14945.77
625.655	14852.89
626.01	14870.29
626.365	14862.15
626.72	14838.88
627.075	14816.28
627.43	14770.85
627.785	14787.58
628.14	14825.54
628.495	14815.6
628.85	14837.52
629.205	14730.18
629.559	14804.07
629.914	14734.92
630.269	14687.69
630.623	14724.53
630.978	14726.79
631.332	14720.46
631.687	14791.42
632.041	14714.36
632.396	14718.43
632.75	14683.85
633.104	14620.12
633.459	14606.11
633.813	14603.18
634.167	14520.01
634.521	14621.25
634.875	14582.16
635.229	14593.23
635.583	14544.19
635.937	14499
636.291	14504.19
636.645	14487.7
636.999	14467.13
637.352	14514.82
637.706	14373.58
638.06	14450.86
638.413	14414.25
638.767	14400.69
639.121	14399.56
639.474	14335.61
639.828	14386.46
640.181	14296.52
640.534	14350.98
640.888	14267.59
641.241	14267.59
641.594	14247.7
641.947	14271.21
642.301	14212.45
642.654	14260.36
643.007	14298.55
643.36	14272.56
643.713	14238.44
644.066	14214.03
644.419	14212.23
644.771	14105.34
645.124	13952.57
645.477	13942.18
645.83	13857.88
646.182	13820.15
646.535	13819.02
646.888	13737.89
647.24	13736.76
647.593	13840.94
647.945	13682.52
648.298	13649.98
648.65	13614.27
649.002	13649.98
649.355	13755.97
649.707	13764.78
650.059	13815.85
650.411	13878.67
650.763	13992.34
651.115	14044.55
651.467	14038.44
651.819	14084.77
652.171	14056.98
652.523	13917.77
652.875	14005
653.227	13914.61
653.578	13976.98
653.93	14001.16
654.282	13880.71
654.633	13847.26
654.985	13953.47
655.337	13885.23
655.688	13980.59
656.039	14040.48
656.391	13943.98
656.742	13970.88
657.094	13928.62
657.445	13950.99
657.796	14027.82
658.147	13999.12
658.498	13911.89
658.849	14029.63
659.2	14040.7
659.551	14007.71
659.902	13997.77
660.253	13938.79
660.604	13972.91
660.955	13927.49
661.306	13973.14
661.656	14005.45
662.007	13932.46
662.358	13998.9
662.708	13956.19
663.059	13982.63
663.409	13903.98
663.76	14023.08
664.11	13991.67
664.461	14033.02
664.811	13944.89
665.161	14034.83
665.511	13935.62
665.862	14005.68
666.212	14033.47
666.562	14005.68
666.912	13939.69
667.262	13974.49
667.612	13979.69
667.962	14132.45
668.312	13973.59
668.662	14112.11
669.011	13996.64
669.361	13986.69
669.711	14031.89
670.06	13997.99
670.41	13958.67
670.76	13959.12
671.109	13945.11
671.459	13986.24
671.808	13930.65
672.157	13982.85
672.507	13839.81
672.856	13908.73
673.205	13925.91
673.554	13945.79
673.904	13855.17
674.253	13998.9
674.602	13926.58
674.951	13723.88
675.3	13609.98
675.649	13788.06
675.998	13747.6
676.346	13779.24
676.695	13772.24
677.044	13701.96
677.393	13770.88
677.741	13773.37
678.09	13728.62
678.438	13672.58
678.787	13625.57
679.135	13753.48
679.484	13566.37
679.832	13616.31
680.181	13586.25
680.529	13616.76
680.877	13592.58
681.225	13494.73
681.573	13655.18
681.922	13491.57
682.27	13427.39
682.618	13466.26
682.966	13402.53
683.314	13376.31
683.661	13418.35
684.009	13314.4
684.357	13358.91
684.705	13299.25
685.053	13327.95
685.4	13243.44
685.748	13197.56
686.095	13152.14
686.443	13181.74
686.79	13169.09
687.138	13199.37
687.485	13142.65
687.832	13087.28
688.18	13096.1
688.527	13030.11
688.874	12965.03
689.221	12920.96
689.568	12897.23
689.915	12863.11
690.262	12844.58
690.609	12799.83
690.956	12756.44
691.303	12748.31
691.65	12661.98
691.997	12664.02
692.344	12607.97
692.69	12531.37
693.037	12577.69
693.383	12463.57
693.73	12468.54
694.077	12427.64
694.423	12396.23
694.769	12286.17
695.116	12335.44
695.462	12276.91
695.808	12202.11
696.155	12298.15
696.501	12091.38
696.847	12193.07
697.193	11973.19
697.539	12114.88
697.885	11973.19
698.231	11919.18
698.577	11872.85
698.923	11781.1
699.269	11856.13
699.614	11752.4
699.96	11723.03
700.306	11648.22
700.651	11652.74
700.997	11574.78
701.342	11598.96
701.688	11560.54
702.033	11562.8
702.379	11454.11
702.724	11387.89
703.069	11496.82
703.415	11233.77
703.76	11315.35
704.105	11345.63
704.45	11233.77
704.795	11196.71
705.14	11198.97
705.485	11158.97
705.83	11060.44
706.175	11145.41
706.52	11055.7
706.865	11019.31
707.209	10955.14
707.554	10952.42
707.899	10919.2
708.243	10839.88
708.588	10810.73
708.932	10851.41
709.277	10778.64
709.621	10805.99
709.966	10718.76
710.31	10706.33
710.654	10714.01
710.998	10687.57
711.342	10682.15
711.687	10659.55
712.031	10514.7
712.375	10483.74
712.719	10502.72
713.063	10515.83
713.407	10529.84
713.75	10476.96
714.094	10442.61
714.438	10439.67
714.782	10426.56
715.125	10401.03
715.469	10382.95
715.812	10356.96
716.156	10348.15
716.499	10283.29
716.843	10343.63
717.186	10261.82
717.53	10269.5
717.873	10267.47
718.216	10277.64
718.559	10196.96
718.902	10193.57
719.246	10121.26
719.589	10104.99
719.932	10114.71
720.275	10126.46
720.617	10121.26
720.96	10122.84
721.303	10111.54
721.646	10125.1
721.989	10033.13
722.331	10050.75
722.674	10037.87
723.016	10068.38
723.359	9996.29
723.701	10013.01
724.044	9929.63
724.386	9903.41
724.729	9992.22
725.071	9919.68
725.413	9931.89
725.755	9909.06
726.097	9935.05
726.439	9859.12
726.782	9897.76
727.124	9925.11
727.465	9858.22
727.807	9759.23
728.149	9901.83
728.491	9830.87
728.833	9852.11
729.175	9796.3
729.516	9825.22
729.858	9803.08
730.199	9811.44
730.541	9807.37
730.882	9786.35
731.224	9804.21
731.565	9793.36
731.906	9744.77
732.248	9709.74
732.589	9714.26
732.93	9727.37
733.271	9748.61
733.612	9755.39
733.953	9796.52
734.294	9750.87
734.635	9686.69
734.976	9748.16
735.317	9657.09
735.658	9689.63
735.999	9669.29
736.339	9731.21
736.68	9730.76
737.021	9705.9
737.361	9762.4
737.702	9762.4
738.042	9762.85
738.383	9711.1
738.723	9711.55
739.063	9724.21
739.404	9805.11
739.744	9794.26
740.084	9712.46
740.424	9856.41
740.764	9770.31
741.104	9870.64
741.444	9758.11
741.784	9801.04
742.124	9867.48
742.464	9874.71
742.804	9810.31
743.143	9857.76
743.483	9886.69
743.823	9862.96
744.162	9937.54
744.502	9933.92
744.841	9986.8
745.181	10020.25
745.52	10015.27
745.86	10162.39
746.199	10083.29
746.538	10093.24
746.877	10103.41
747.216	10283.29
747.556	10252.56
747.895	10316.96
748.234	10414.81
748.573	10428.82
748.911	10457.07
749.25	10586.56
749.589	10536.39
749.928	10595.15
750.267	10749.04
750.605	10755.82
750.944	10864.29
751.283	10841.24
751.621	10995.81
751.96	11109.26
752.298	11123.94
752.636	11239.2
752.975	11247.33
753.313	11355.58
753.651	11544.95
753.989	11524.16
754.327	11726.19
754.666	11719.41
755.004	11941.32
755.342	12041.66
755.679	12130.02
756.017	12192.39
756.355	12467.64
756.693	12459.05
757.031	12690.46
757.368	12734.52
757.706	13038.7
758.044	12967.29
758.381	13255.19
758.719	13315.07
759.056	13511.23
759.394	13695.18
759.731	13730.66
760.068	13918.67
760.405	14124.32
760.743	14199.34
761.08	14340.81
761.417	14559.56
761.754	14736.51
762.091	14879.33
762.428	14995.48
762.765	15126.55
763.102	15354.57
763.438	15474.79
763.775	15590.04
764.112	15834.78
764.449	16026.87
764.785	16102.12
765.122	16088.11
765.458	16345.73
765.795	16500.07
766.131	16593.41
766.467	16770.12
766.804	16860.07
767.14	17019.16
767.476	17146.61
767.812	17231.13
768.148	17425.7
768.485	17492.59
768.821	17596.09
769.157	17610.78
769.492	17865.24
769.828	17951.11
770.164	17978.45
770.5	18086.7
770.836	18225.9
771.171	18295.06
771.507	18346.13
771.842	18344.77
772.178	18474.71
772.513	18512
772.849	18588.38
773.184	18690.98
773.519	18822.73
773.855	18834.93
774.19	18884.87
774.525	18961.48
774.86	19021.14
775.195	19057.75
775.53	19020.46
775.865	19153.79
776.2	19182.72
776.535	19167.8
776.87	19224.75
777.205	19150.17
777.539	19248.25
777.874	19361.92
778.209	19269.27
778.543	19240.12
778.878	19269.72
779.212	19321.24
779.547	19311.53
779.881	19439.66
780.215	19326.22
780.55	19494.57
780.884	19349.04
781.218	19342.71
781.552	19437.85
781.886	19385.87
782.22	19417.06
782.554	19371.64
782.888	19252.77
783.222	19225.65
783.556	19218.42
783.889	19294.58
784.223	19178.87
784.557	19121.47
784.89	19183.39
785.224	19118.99
785.557	19155.6
785.891	19177.52
786.224	19092.1
786.558	19160.8
786.891	18972.78
787.224	18961.48
787.557	18985.43
787.891	18876.96
788.224	18981.14
788.557	18981.59
788.89	18995.15
789.223	18894.81
789.556	18833.35
789.888	18799.45
790.221	18736.63
790.554	18745.67
790.887	18644.2
791.219	18652.11
791.552	18699.11
791.884	18549.51
792.217	18488.27
792.549	18599.23
792.882	18444.66
793.214	18385.67
793.546	18518.78
793.879	18352.46
794.211	18253.7
794.543	18258.67
794.875	18258.67
795.207	18265.45
795.539	18210.54
795.871	18253.47
796.203	18133.25
796.535	18064.33
796.867	18020.49
797.198	17895.74
797.53	17996.53
797.862	17836.54
798.193	17819.14
798.525	17683.32
798.856	17796.76
799.188	17563.78
799.519	17665.92
799.85	17562.19
800.182	17498.92
800.513	17672.47
800.844	17299.6
801.175	17517.9
801.506	17487.62
801.837	17453.5
802.168	17355.87
802.499	17403.1
802.83	17245.14
803.161	17254.18
803.491	17229.32
803.822	17296.21
804.153	17066.61
804.483	17099.61
804.814	16934.87
805.145	16957.01
805.475	16935.54
805.805	16929.44
806.136	16886.51
806.466	16900.97
806.796	16829.33
807.126	16733.74
807.457	16747.07
807.787	16675.66
808.117	16604.93
808.447	16557.47
808.777	16599.06
809.107	16507.53
809.436	16426.63
809.766	16496.46
810.096	16356.8
810.426	16304.37
810.755	16406.74
811.085	16410.13
811.414	16397.03
811.744	16232.06
812.073	16116.13
812.403	16240.87
812.732	16023.7
813.061	16086.98
813.39	15920.2
813.719	15946.64
814.049	15995
814.378	15906.64
814.707	15905.97
815.036	15940.54
815.365	15800.43
815.693	15807.89
816.022	15661
816.351	15723.37
816.68	15628.46
817.008	15691.96
817.337	15540.78
817.665	15510.04
817.994	15492.42
818.322	15527.44
818.651	15508.01
818.979	15419.2
819.307	15444.96
819.636	15529.03
819.964	15376.04
820.292	15385.75
820.62	15386.21
820.948	15337.39
821.276	15364.96
821.604	15329.94
821.932	15388.69
822.259	15348.24
822.587	15341.69
822.915	15298.3
823.243	15385.3
823.57	15324.29
823.898	15409.03
824.225	15242.03
824.553	15301.91
824.88	15307.79
825.207	15370.84
825.535	15317.51
825.862	15331.97
826.189	15267.11
826.516	15415.13
826.843	15424.17
827.17	15338.3
827.497	15342.14
827.824	15379.2
828.151	15372.65
828.478	15349.37
828.805	15344.62
829.131	15386.66
829.458	15444.74
829.785	15288.36
830.111	15221.92
830.438	15407.67
830.764	15356.83
831.09	15363.38
831.417	15328.58
831.743	15423.72
832.069	15343.49
832.395	15263.5
832.722	15374.91
833.048	15197.74
833.374	15248.81
833.7	15100.34
834.026	15245.87
834.351	15199.54
834.677	15289.03
835.003	15213.1
835.329	15237.73
835.654	15200.22
835.98	15073.9
836.306	15141.92
836.631	15079.1
836.956	15133.1
837.282	15174.69
837.607	15007.23
837.932	14954.58
838.258	15068.25
838.583	15023.05
838.908	14897.86
839.233	14890.17
839.558	14918.2
839.883	14886.11
840.208	14726.79
840.533	14794.13
840.858	14776.96
841.182	14696.51
841.507	14746.45
841.832	14682.04
842.156	14594.81
842.481	14715.04
842.805	14601.14
843.13	14588.71
843.454	14528.15
843.778	14537.64
844.103	14448.6
844.427	14464.2
844.751	14482.05
845.075	14362.28
845.399	14301.04
845.723	14284.09
846.047	14229.17
846.371	14249.29
846.695	14155.73
847.019	14064.88
847.343	13954.38
847.666	13967.03
847.99	13915.51
848.313	13892.69
848.637	13788.06
848.96	13755.29
849.284	13814.04
849.607	13611.79
849.931	13666.7
850.254	13558.46
850.577	13419.7
850.9	13362.3
851.223	13373.83
851.546	13257
851.869	13220.16
852.192	13342.19
852.515	13143.33
852.838	13094.06
853.161	13160.28
853.483	13061.29
853.806	13038.47
854.129	12970
854.451	12979.49
854.774	12835.31
855.096	12822.66
855.419	12754.86
855.741	12709.89
856.063	12682.1
856.385	12616.33
856.708	12580.63
857.03	12568.43
857.352	12611.59
857.674	12554.87
857.996	12499.05
858.318	12415.89
858.64	12458.15
858.961	12350.35
859.283	12398.94
859.605	12255.44
859.926	12255.21
860.248	12210.7
860.57	12182.67
860.891	12177.02
861.212	12055.9
861.534	12077.59
861.855	12043.02
862.176	12031.04
862.498	12020.19
862.819	12039.85
863.14	11983.13
863.461	11933.64
863.782	11988.1
864.103	11934.09
864.424	11890.7
864.745	11913.98
865.065	11857.71
865.386	11756.7
865.707	11766.64
866.027	11830.37
866.348	11814.77
866.668	11699.97
866.989	11712.18
867.309	11626.3
867.63	11717.38
867.95	11652.29
868.27	11549.47
868.59	11597.38
868.91	11604.61
869.23	11589.92
869.55	11586.76
869.87	11652.29
870.19	11503.6
870.51	11473.09
870.83	11585.63
871.15	11451.85
871.469	11475.12
871.789	11493.65
872.109	11473.77
872.428	11367.78
872.748	11433.54
873.067	11373.2
873.386	11304.51
873.706	11371.85
874.025	11254.79
874.344	11167.33
874.663	11267.9
874.982	11172.53
875.301	11246.43
875.62	11147.22
875.939	11217.28
876.258	11210.95
876.577	11201
876.896	11090.73
877.214	11069.26
877.533	11096.6
877.852	11024.29
878.17	11042.82
878.489	11072.65
878.807	11065.42
879.125	11003.95
879.444	10987.23
879.762	10984.29
880.08	10956.04
880.398	10935.93
880.716	10948.81
881.034	10849.15
881.352	10923.5
881.67	10826.1
881.988	10874.01
882.306	10762.37
882.624	10839.66
882.941	10791.3
883.259	10654.13
883.577	10721.24
883.894	10606.44
884.212	10644.18
884.529	10630.85
884.846	10643.96
885.164	10539.33
885.481	10547.69
885.798	10585.65
886.115	10509.27
886.432	10482.61
886.75	10466.11
887.067	10411.2
887.383	10459.33
887.7	10487.8
888.017	10335.94
888.334	10325.1
888.651	10275.83
888.967	10325.77
889.284	10281.26
889.6	10164.87
889.917	10094.37
890.233	10171.43
890.55	10125.1
890.866	10052.79
891.182	10086.68
891.498	10071.77
891.815	10007.14
892.131	9988.61
892.447	9983.18
892.763	9897.76
893.079	9888.95
893.395	9890.08
893.71	9790.42
894.026	9736.86
894.342	9762.4
894.657	9769.4
894.973	9599.69
895.289	9689.41
895.604	9685.79
895.92	9535.06
896.235	9592.23
896.55	9463.2
896.865	9553.36
897.181	9464.33
897.496	9539.35
897.811	9378.91
898.126	9418
898.441	9363.54
898.756	9297.55
899.071	9231.11
899.386	9243.32
899.7	9175.52
900.015	9105.24
900.33	9051.23
900.644	9071.34
900.959	9058.24
901.273	9041.97
901.588	8921.74
901.902	8918.58
902.216	8953.38
902.531	8904.34
902.845	8952.25
903.159	8848.75
903.473	8818.69
903.787	8839.03
904.101	8761.97
904.415	8748.19
904.729	8683.33
905.042	8641.52
905.356	8657.12
905.67	8630
905.984	8540.74
906.297	8551.36
906.611	8461.42
906.924	8508.19
907.237	8475.88
907.551	8397.01
907.864	8365.15
908.177	8372.15
908.491	8344.81
908.804	8228.65
909.117	8175.77
909.43	8208.54
909.743	8076.12
910.056	8163.34
910.368	8086.06
910.681	8017.81
910.994	8043.8
911.307	7988.21
911.619	7936.46
911.932	7940.53
912.244	7894.43
912.557	7875.67
912.869	7768.55
913.181	7806.07
913.494	7747.31
913.806	7722
914.118	7702.11
914.43	7629.57
914.742	7640.87
915.054	7620.08
915.366	7566.3
915.678	7531.27
915.99	7499.86
916.302	7458.73
916.613	7410.82
916.925	7448.79
917.236	7359.07
917.548	7314.33
917.859	7310.49
918.171	7244.5
918.482	7214.9
918.794	7294.21
919.105	7221.45
919.416	7162.24
919.727	7157.72
920.038	7110.72
920.349	7123.15
920.66	6977.61
920.971	7097.84
921.282	7072.3
921.593	6946.65
921.903	6908.69
922.214	6935.13
922.525	6856.26
922.835	6814.91
923.146	6822.14
923.456	6798.86
923.767	6787.79
924.077	6727.9
924.387	6653.78
924.697	6627.34
925.008	6683.16
925.318	6641.35
925.628	6605.65
925.938	6603.84
926.248	6542.14
926.558	6487.68
926.867	6495.37
927.177	6458.08
927.487	6482.94
927.796	6387.12
928.106	6380.34
928.416	6328.36
928.725	6299.89
929.034	6280.46
929.344	6316.84
929.653	6253.79
929.962	6170.4
930.271	6218.31
930.581	6194.81
930.89	6145.77
931.199	6107.13
931.508	6100.8
931.817	6072.33
932.125	6064.42
932.434	6051.08
932.743	5993.46
933.051	5976.74
933.36	5891.09
933.669	5873.01
933.977	5838.66
934.286	5902.61
934.594	5898.55
934.902	5798.44
935.21	5810.19
935.519	5782.62
935.827	5785.33
936.135	5708.72
936.443	5725.22
936.751	5685.67
937.059	5697.65
937.367	5585.33
937.674	5637.31
937.982	5593.69
938.29	5549.4
938.597	5585.33
938.905	5515.28
939.213	5480.25
939.52	5469.18
939.827	5436.86
940.135	5427.37
940.442	5385.11
940.749	5403.64
941.056	5394.15
941.363	5323.19
941.67	5296.75
941.977	5278.45
942.284	5292.46
942.591	5210.88
942.898	5239.58
943.205	5210.88
943.511	5195.74
943.818	5181.73
944.125	5139.7
944.431	5079.36
944.738	5134.05
945.044	5092.24
945.35	5052.24
945.657	5016.31
945.963	4991.22
946.269	4988.51
946.575	4973.37
946.881	4880.49
947.187	4893.6
947.493	4880.72
947.799	4876.65
948.105	4896.76
948.41	4833.71
948.716	4838.46
949.022	4784.22
949.327	4755.3
949.633	4738.58
949.938	4768.18
950.244	4746.94
950.549	4673.49
950.854	4683.66
951.16	4628.52
951.465	4618.13
951.77	4629.65
952.075	4566.38
952.38	4587.39
952.685	4547.62
952.99	4494.06
953.294	4526.15
953.599	4466.04
953.904	4430.34
954.209	4474.18
954.513	4408.42
954.818	4443.89
955.122	4368.42
955.426	4396.21
955.731	4366.61
956.035	4340.17
956.339	4328.64
956.643	4304.46
956.948	4298.14
957.252	4307.85
957.556	4246.84
957.86	4192.15
958.163	4197.35
958.467	4194.64
958.771	4203.22
959.075	4191.7
959.378	4094.3
959.682	4115.77
959.985	4073.51
960.289	4063.11
960.592	4041.65
960.896	4075.09
961.199	4050.46
961.502	4034.41
961.805	3990.57
962.108	3975.66
962.411	3961.2
962.714	3946.96
963.017	3924.81
963.32	3903.12
963.623	3863.57
963.926	3874.42
964.228	3881.42
964.531	3866.96
964.833	3832.61
965.136	3790.13
965.438	3853.4
965.741	3762.1
966.043	3762.78
966.345	3725.95
966.648	3740.41
966.95	3771.37
967.252	3681.43
967.554	3684.37
967.856	3669.23
968.158	3616.35
968.46	3626.29
968.761	3617.48
969.063	3565.73
969.365	3611.15
969.666	3572.28
969.968	3532.96
970.269	3573.63
970.571	3490.47
970.872	3502
971.174	3483.69
971.475	3478.72
971.776	3468.1
972.077	3428.78
972.378	3412.51
972.679	3387.88
972.98	3407.99
973.281	3407.09
973.582	3373.19
973.883	3377.03
974.183	3323.02
974.484	3337.48
974.785	3324.83
975.085	3305.62
975.386	3328.22
975.686	3279.63
975.986	3275.34
976.287	3249.8
976.587	3229.69
976.887	3223.14
977.187	3231.27
977.487	3186.3
977.787	3166.19
978.087	3182.91
978.387	3169.8
978.687	3116.7
978.987	3134.78
979.286	3109.01
979.586	3072.63
979.885	3044.61
980.185	3067.89
980.484	3066.53
980.784	3019.75
981.083	2994.89
981.382	2991.05
981.682	2955.8
981.981	2977.94
982.28	2986.76
982.579	2939.75
982.878	2916.48
983.177	2926.42
983.475	2923.71
983.774	2869.25
984.073	2906.31
984.372	2864.73
984.67	2856.59
984.969	2855.46
985.267	2825.63
985.566	2820.21
985.864	2803.49
986.162	2762.81
986.461	2785.86
986.759	2782.02
987.057	2751.51
987.355	2741.34
987.653	2743.83
987.951	2712.87
988.249	2731.62
988.547	2709.48
988.844	2669.25
989.142	2664.28
989.44	2643.26
989.737	2630.83
990.035	2629.48
990.332	2601.01
990.63	2599.2
990.927	2593.77
991.224	2574.11
991.521	2585.19
991.819	2568.92
992.116	2541.8
992.413	2539.31
992.71	2515.81
993.006	2501.35
993.303	2521.01
993.6	2482.82
993.897	2464.96
994.193	2475.81
994.49	2458.64
994.787	2412.08
995.083	2426.77
995.379	2435.59
995.676	2452.53
995.972	2398.98
996.268	2360.33
996.565	2399.65
996.861	2371.41
997.157	2354.91
997.453	2323.27
997.749	2322.59
998.044	2311.52
998.34	2294.35
998.636	2297.74
998.932	2258.42
999.227	2261.13
999.523	2243.95
999.818	2270.62
1000.114	2205.76
1000.409	2189.72
1000.704	2207.12
1001	2168.47
1001.295	2162.82
1001.59	2150.85
1001.885	2168.25
1002.18	2163.95
1002.475	2159.43
1002.77	2095.26
1003.065	2068.82
1003.359	2107.23
1003.654	2110.85
1003.949	2063.39
1004.243	2092.32
1004.538	2025.88
1004.832	2069.27
1005.127	2064.3
1005.421	2039.21
1005.715	2037.4
1006.009	2022.26
1006.304	2008.7
1006.598	1961.93
1006.892	1966.67
1007.186	1940.68
1007.48	1946.11
1007.773	1935.71
1008.067	1900.01
1008.361	1937.97
1008.655	1893.23
1008.948	1866.34
1009.242	1864.3
1009.535	1879.67
1009.829	1827.69
1010.122	1848.03
1010.415	1837.41
1010.708	1836.05
1011.001	1803.06
1011.295	1780.91
1011.588	1790.86
1011.881	1754.47
1012.173	1769.84
1012.466	1772.33
1012.759	1738.65
1013.052	1725.32
1013.344	1706.34
1013.637	1720.58
1013.93	1730.29
1014.222	1705.66
1014.514	1690.07
1014.807	1697.75
1015.099	1669.28
1015.391	1671.31
1015.683	1676.51
1015.976	1669.28
1016.268	1636.96
1016.56	1631.77
1016.851	1586.34
1017.143	1605.78
1017.435	1596.29
1017.727	1597.42
1018.018	1574.82
1018.31	1533.46
1018.602	1560.58
1018.893	1534.14
1019.185	1530.07
1019.476	1533.01
1019.767	1505.21
1020.058	1508.83
1020.35	1478.1
1020.641	1489.62
1020.932	1467.48
1021.223	1468.15
1021.514	1424.09
1021.804	1417.31
1022.095	1472.67
1022.386	1427.48
1022.677	1410.75
1022.967	1415.27
1023.258	1423.18
1023.548	1383.64
1023.839	1360.36
1024.129	1354.94
1024.419	1360.81
1024.709	1347.93
1025	1342.28
1025.29	1363.75
1025.58	1311.1
1025.87	1312.68
1026.16	1322.62
1026.449	1274.71
1026.739	1269.97
1027.029	1265.9
1027.319	1279.91
1027.608	1246.69
1027.898	1261.61
1028.187	1257.99
1028.477	1256.18
1028.766	1250.98
1029.055	1234.71
1029.344	1217.31
1029.634	1209.86
1029.923	1227.71
1030.212	1192.23
1030.501	1195.62
1030.79	1164.66
1031.078	1168.27
1031.367	1163.98
1031.656	1135.73
1031.945	1153.36
1032.233	1156.07
1032.522	1111.1
1032.81	1110.42
1033.099	1106.36
1033.387	1079.24
1033.675	1130.76
1033.963	1099.58
1034.251	1103.19
1034.54	1076.07
1034.828	1063.64
1035.116	1059.8
1035.403	1039.46
1035.691	1045.57
1035.979	1050.99
1036.267	1032.68
1036.554	1036.75
1036.842	1025
1037.129	1021.39
1037.417	1001.27
1037.704	1009.86
1037.992	997.66
1038.279	997.21
1038.566	967.15
1038.853	967.15
1039.14	967.15
