Data from hue_180_FLMS001491_00042.txt Node
Date: Tue Feb 07 16:47:02 GMT 2017
User: dcchb
Spectrometer: FLMS00149
Trigger mode: 0
Integration Time (sec): 2.000000E-2
Scans to average: 10
Electric dark correction enabled: true
Nonlinearity correction enabled: false
Boxcar width: 0
XAxis mode: Wavelengths
Number of Pixels in Spectrum: 2048
>>>>>Begin Spectral Data<<<<<
341.393	-5.25
341.776	-5.25
342.16	-5.25
342.543	-53.16
342.927	-75.53
343.31	-56.33
343.693	-73.27
344.077	-75.99
344.46	-77.12
344.843	-42.99
345.226	-44.35
345.61	-47.96
345.993	-18.14
346.376	5.14
346.759	11.24
347.142	19.6
347.525	45.59
347.908	68.19
348.291	80.17
348.674	91.01
349.057	115.19
349.44	148.19
349.823	139.6
350.206	163.33
350.588	201.75
350.971	207.85
351.354	230.45
351.737	238.36
352.119	243.78
352.502	268.86
352.884	287.39
353.267	303.21
353.65	293.27
354.032	287.62
354.414	328.07
354.797	303.44
355.179	324
355.562	316.55
355.944	326.04
356.326	328.52
356.709	324
357.091	339.14
357.473	346.15
357.855	329.2
358.238	352.25
358.62	346.38
359.002	331.46
359.384	348.86
359.766	341.86
360.148	338.47
360.53	341.4
360.912	343.89
361.294	354.96
361.676	308.86
362.057	330.78
362.439	328.3
362.821	344.79
363.203	325.58
363.584	343.66
363.966	342.31
364.348	342.53
364.729	338.47
365.111	326.49
365.493	328.07
365.874	322.65
366.256	307.51
366.637	306.38
367.019	312.48
367.4	308.18
367.781	313.83
368.163	309.99
368.544	295.3
368.925	320.16
369.306	316.09
369.688	324.23
370.069	302.31
370.45	317.22
370.831	307.28
371.212	307.51
371.593	324.23
371.974	304.12
372.355	330.56
372.736	325.13
373.117	336.88
373.498	333.49
373.879	338.01
374.26	313.61
374.641	323.1
375.021	318.13
375.402	326.94
375.783	308.41
376.163	345.92
376.544	293.95
376.925	325.58
377.305	345.7
377.686	328.3
378.066	354.28
378.447	325.58
378.827	314.29
379.208	310.67
379.588	329.2
379.968	340.05
380.349	351.57
380.729	326.26
381.109	324.91
381.489	320.16
381.87	349.09
382.25	360.84
382.63	348.18
383.01	348.86
383.39	360.61
383.77	349.99
384.15	335.53
384.53	326.49
384.91	355.19
385.29	352.93
385.67	332.36
386.049	333.95
386.429	347.28
386.809	376.2
387.189	348.86
387.568	349.54
387.948	365.13
388.328	376.43
388.707	355.87
389.087	364.45
389.466	368.97
389.846	357.67
390.225	360.84
390.605	352.7
390.984	371.91
391.363	369.43
391.743	362.65
392.122	386.37
392.501	383.89
392.881	398.8
393.26	376.2
393.639	378.92
394.018	377.79
394.397	381.85
394.776	365.36
395.155	394.96
395.534	401.29
395.913	388.63
396.292	393.38
396.671	369.2
397.05	399.48
397.429	411.46
397.808	403.32
398.186	406.26
398.565	377.79
398.944	396.32
399.323	401.06
399.701	418.01
400.08	421.18
400.458	402.19
400.837	416.66
401.215	404.9
401.594	405.13
401.972	418.46
402.351	425.92
402.729	409.2
403.107	443.32
403.486	461.85
403.864	434.73
404.242	412.81
404.62	459.82
404.999	425.7
405.377	454.17
405.755	465.47
406.133	448.97
406.511	446.49
406.889	473.83
407.267	466.6
407.645	467.95
408.023	486.71
408.401	487.16
408.779	487.84
409.156	500.27
409.534	487.16
409.912	502.76
410.29	517.44
410.667	538.01
411.045	521.06
411.422	521.06
411.8	512.25
412.178	526.26
412.555	547.5
412.933	547.5
413.31	549.99
413.687	554.73
414.065	574.17
414.442	570.55
414.819	593.83
415.197	616.2
415.574	601.96
415.951	605.8
416.328	598.12
416.705	610.32
417.082	603.32
417.46	619.59
417.837	653.03
418.214	645.8
418.591	668.85
418.967	669.08
419.344	654.62
419.721	667.95
420.098	682.41
420.475	680.38
420.852	724.22
421.228	714.05
421.605	728.29
421.982	726.7
422.358	726.25
422.735	768.06
423.111	762.64
423.488	768.74
423.864	816.42
424.241	782.07
424.617	802.18
424.994	814.61
425.37	846.25
425.746	814.61
426.123	845.35
426.499	843.31
426.875	857.32
427.251	892.35
427.627	904.1
428.003	899.35
428.379	900.94
428.756	904.78
429.132	938.45
429.507	943.65
429.883	948.62
430.259	959.69
430.635	977.54
431.011	968.51
431.387	993.14
431.763	1018.67
432.138	1027.71
432.514	1026.81
432.89	1022.74
433.265	1057.54
433.641	1090.08
434.016	1094.38
434.392	1137.54
434.767	1149.52
435.143	1145
435.518	1152
435.894	1156.75
436.269	1192.68
436.644	1250.98
437.02	1254.83
437.395	1258.44
437.77	1283.3
438.145	1280.36
438.52	1327.37
438.895	1329.17
439.271	1310.64
439.646	1366.69
440.021	1393.35
440.395	1395.16
440.77	1408.04
441.145	1437.19
441.52	1455.27
441.895	1461.15
442.27	1470.41
442.645	1457.53
443.019	1489.4
443.394	1508.6
443.769	1530.3
444.143	1505.89
444.518	1547.7
444.892	1563.74
445.267	1577.3
445.641	1588.38
446.016	1580.24
446.39	1628.6
446.764	1633.12
447.139	1628.15
447.513	1638.77
447.887	1661.37
448.262	1688.49
448.636	1679.9
449.01	1709.5
449.384	1709.28
449.758	1732.78
450.132	1770.97
450.506	1775.94
450.88	1765.32
451.254	1776.39
451.628	1816.17
452.002	1855.26
452.376	1863.17
452.75	1877.63
453.123	1861.59
453.497	1905.88
453.871	1938.42
454.244	1962.15
454.618	1993.79
454.992	2014.81
455.365	2015.71
455.739	2063.84
456.112	2082.37
456.486	2107.23
456.859	2134.58
457.232	2163.73
457.606	2121.92
457.979	2180.68
458.352	2206.89
458.725	2264.97
459.099	2250.73
459.472	2287.79
459.845	2309.49
460.218	2333.89
460.591	2366.89
460.964	2403.95
461.337	2420.67
461.71	2483.27
462.083	2513.55
462.456	2518.52
462.829	2570.5
463.201	2581.57
463.574	2616.15
463.947	2682.81
464.32	2703.83
464.692	2725.97
465.065	2769.81
465.438	2775.01
465.81	2826.31
466.183	2914.22
466.555	2910.38
466.928	2974.1
467.3	2953.54
467.672	3041.67
468.045	3097.04
468.417	3102.69
468.789	3115.34
469.161	3202.12
469.534	3260.42
469.906	3307.2
470.278	3373.64
470.65	3369.12
471.022	3483.69
471.394	3558.04
471.766	3560.08
472.138	3627.19
472.51	3697.7
472.882	3792.39
473.253	3772.73
473.625	3844.14
473.997	3998.93
474.369	3961.65
474.74	4001.42
475.112	4106.05
475.484	4165.71
475.855	4247.29
476.227	4326.16
476.598	4438.7
476.97	4471.69
477.341	4625.58
477.713	4671.91
478.084	4663.1
478.455	4927.05
478.827	4944.22
479.198	5062.64
479.569	5091.79
479.94	5206.36
480.311	5244.33
480.682	5392.34
481.053	5486.8
481.424	5660.81
481.795	5735.39
482.166	5857.42
482.537	5874.59
482.908	6085.21
483.279	6082.04
483.65	6237.75
484.021	6360
484.391	6475.25
484.762	6505.08
485.133	6597.96
485.503	6700.11
485.874	6814.68
486.244	6889.93
486.615	7088.12
486.985	7165.18
487.356	7308.68
487.726	7460.31
488.097	7564.94
488.467	7579.86
488.837	7716.35
489.207	7876.12
489.578	7922.67
489.948	8006.96
490.318	8174.64
490.688	8233.85
491.058	8421.42
491.428	8491.47
491.798	8625.03
492.168	8740.96
492.538	8768.98
492.908	8837.9
493.278	8965.81
493.648	8947.28
494.017	9149.53
494.387	9241.28
494.757	9318.79
495.126	9466.14
495.496	9417.32
495.866	9488.28
496.235	9567.38
496.605	9635.85
496.974	9777.09
497.344	9807.37
497.713	9903.64
498.082	9912
498.452	10111.99
498.821	10075.84
499.19	10053.46
499.559	10222.05
499.928	10235.83
500.298	10297.98
500.667	10364.87
501.036	10331.88
501.405	10440.57
501.774	10503.4
502.143	10558.54
502.512	10558.99
502.88	10672.66
503.249	10663.39
503.618	10677.85
503.987	10749.49
504.356	10745.42
504.724	10894.35
505.093	10889.15
505.462	10865.19
505.83	10992.42
506.199	11021.8
506.567	11070.39
506.936	11107.45
507.304	11236.71
507.672	11212.08
508.041	11253.43
508.409	11298.18
508.777	11365.97
509.145	11363.03
509.514	11402.36
509.882	11481.9
510.25	11453.88
510.618	11454.11
510.986	11406.88
511.354	11551.73
511.722	11566.65
512.09	11666.53
512.458	11586.76
512.826	11643.48
513.193	11719.41
513.561	11745.62
513.929	11864.49
514.297	11864.72
514.664	11814.77
515.032	11859.29
515.4	11931.61
515.767	11884.15
516.135	11960.31
516.502	11784.04
516.869	12057.25
517.237	12092.96
517.604	11973.64
517.972	11992.62
518.339	12132.51
518.706	12023.36
519.073	12092.28
519.44	12130.47
519.808	12171.83
520.175	12100.19
520.542	12252.5
520.909	12162.79
521.276	12167.76
521.643	12223.58
522.009	12243.69
522.376	12258.83
522.743	12271.71
523.11	12320.75
523.477	12377.92
523.843	12497.02
524.21	12416.57
524.577	12419.73
524.943	12423.57
525.31	12446.4
525.676	12466.28
526.043	12495.89
526.409	12461.76
526.776	12519.84
527.142	12573.85
527.508	12546.28
527.874	12596.45
528.241	12584.7
528.607	12629.67
528.973	12589.89
529.339	12508.32
529.705	12602.55
530.071	12600.29
530.437	12596
530.803	12511.93
531.169	12516.9
531.535	12470.8
531.901	12443.23
532.267	12360.3
532.632	12481.2
532.998	12428.77
533.364	12445.72
533.73	12372.05
534.095	12381.54
534.461	12331.82
534.826	12357.36
535.192	12333.4
535.557	12344.03
535.923	12284.14
536.288	12237.36
536.653	12247.98
537.019	12037.37
537.384	12165.95
537.749	12076.01
538.114	12033.98
538.479	11997.37
538.845	11999.85
539.21	11906.75
539.575	11873.53
539.94	11894.77
540.305	11847.09
540.67	11786.75
541.034	11824.27
541.399	11698.62
541.764	11680.31
542.129	11641.45
542.494	11574.78
542.858	11586.76
543.223	11517.61
543.587	11523.71
543.952	11454.11
544.316	11412.3
544.681	11353.54
545.045	11373.66
545.41	11347.44
545.774	11271.29
546.138	11181.34
546.503	11167.56
546.867	11069.26
547.231	11092.76
547.595	11022.03
547.959	10964.85
548.324	10862.48
548.688	10924.85
549.052	10854.8
549.416	10815.25
549.779	10820.22
550.143	10751.07
550.507	10735.03
550.871	10693
551.235	10582.72
551.599	10584.07
551.962	10582.94
552.326	10532.55
552.689	10559.89
553.053	10390.63
553.417	10361.93
553.78	10497.75
554.143	10359.67
554.507	10326.45
554.87	10344.98
555.234	10436.73
555.597	10214.82
555.96	10240.13
556.323	10178.88
556.686	10206.68
557.05	10166.23
557.413	10146.34
557.776	10106.57
558.139	10081.71
558.502	10055.05
558.865	10083.52
559.228	10053.24
559.59	9992.9
559.953	10051.88
560.316	10151.99
560.679	9977.31
561.041	10107.47
561.404	10021.15
561.767	10073.58
562.129	9999
562.492	9971.88
562.854	9944.54
563.217	9892.79
563.579	9900.7
563.941	9963.07
564.304	9983.64
564.666	9923.75
565.028	9909.97
565.39	9928.72
565.753	9889.18
566.115	9860.93
566.477	9905.22
566.839	9919.68
567.201	9922.85
567.563	9862.51
567.925	9968.04
568.287	9947.48
568.648	9913.13
569.01	9962.62
569.372	10002.62
569.734	9951.77
570.095	9920.59
570.457	9965.33
570.819	9860.25
571.18	9879.01
571.542	9922.17
571.903	9887.59
572.265	9972.56
572.626	9946.35
572.987	9881.94
573.349	9910.42
573.71	10029.74
574.071	9973.69
574.432	10014.14
574.794	10030.19
575.155	9976.63
575.516	9938.89
575.877	9988.38
576.238	9975.95
576.599	9978.44
576.96	9985.67
577.32	9964.88
577.681	9943.86
578.042	9983.86
578.403	9959.23
578.763	9999
579.124	9965.78
579.485	9975.05
579.845	9932.56
580.206	9897.08
580.566	9942.05
580.927	9946.57
581.287	9947.93
581.648	9881.94
582.008	9870.42
582.368	9862.51
582.728	9939.12
583.089	9888.72
583.449	9865.22
583.809	9842.17
584.169	9898.21
584.529	9761.72
584.889	9891.21
585.249	9775.28
585.609	9816.41
585.969	9877.2
586.329	9770.76
586.688	9778.67
587.048	9769.63
587.408	9760.14
587.768	9728.95
588.127	9779.12
588.487	9695.96
588.846	9734.83
589.206	9715.62
589.565	9693.25
589.925	9745.9
590.284	9746.58
590.643	9693.47
591.003	9676.75
591.362	9748.84
591.721	9656.41
592.08	9754.26
592.44	9663.42
592.799	9668.62
593.158	9667.03
593.517	9685.11
593.876	9670.65
594.235	9624.55
594.593	9646.92
594.952	9611.44
595.311	9623.42
595.67	9667.94
596.029	9677.88
596.387	9639.46
596.746	9635.4
597.104	9564.66
597.463	9558.56
597.822	9606.7
598.18	9524.89
598.538	9504.55
598.897	9573.93
599.255	9452.35
599.613	9566.25
599.972	9524.44
600.33	9513.37
600.688	9549.97
601.046	9574.83
601.404	9570.77
601.762	9586.36
602.12	9572.57
602.478	9542.07
602.836	9522.86
603.194	9497.77
603.552	9565.57
603.91	9447.83
604.268	9489.64
604.625	9483.99
604.983	9539.35
605.341	9475.85
605.698	9550.65
606.056	9511.11
606.413	9481.95
606.771	9490.99
607.128	9496.42
607.485	9453.93
607.843	9493.71
608.2	9516.53
608.557	9514.72
608.914	9542.52
609.272	9595.62
609.629	9518.56
609.986	9565.34
610.343	9572.35
610.7	9621.61
611.057	9598.11
611.414	9578.45
611.771	9584.32
612.127	9545.91
612.484	9583.19
612.841	9580.93
613.198	9615.28
613.554	9589.07
613.911	9661.38
614.267	9640.14
614.624	9627.26
614.98	9603.53
615.337	9667.49
615.693	9678.33
616.05	9674.94
616.406	9615.28
616.762	9663.87
617.118	9644.89
617.475	9720.59
617.831	9650.54
618.187	9749.97
618.543	9684.21
618.899	9745
619.255	9731.89
619.611	9742.74
619.967	9688.95
620.323	9736.41
620.678	9754.94
621.034	9762.62
621.39	9655.28
621.746	9658.45
622.101	9766.92
622.457	9693.47
622.812	9695.06
623.168	9765.34
623.523	9701.84
623.879	9715.85
624.234	9681.72
624.589	9688.73
624.945	9730.99
625.3	9654.38
625.655	9687.15
626.01	9665.9
626.365	9650.09
626.72	9676.53
627.075	9702.74
627.43	9670.42
627.785	9661.16
628.14	9675.17
628.495	9718.11
628.85	9723.08
629.205	9697.09
629.559	9697.09
629.914	9637.88
630.269	9710.65
630.623	9648.5
630.978	9603.98
631.332	9620.71
631.687	9662.97
632.041	9625
632.396	9628.16
632.75	9553.82
633.104	9565.57
633.459	9546.59
633.813	9553.59
634.167	9522.18
634.521	9445.34
634.875	9540.71
635.229	9508.39
635.583	9405.35
635.937	9440.15
636.291	9463.42
636.645	9489.86
636.999	9470.65
637.352	9453.93
637.706	9363.99
638.06	9403.54
638.413	9411
638.767	9376.42
639.121	9393.59
639.474	9316.31
639.828	9369.41
640.181	9334.16
640.534	9400.6
640.888	9338.23
641.241	9300.26
641.594	9336.87
641.947	9301.85
642.301	9306.37
642.654	9398.34
643.007	9312.92
643.36	9340.04
643.713	9240.15
644.066	9265.46
644.419	9207.39
644.771	9260.04
645.124	9121.96
645.477	9060.72
645.83	8993.38
646.182	9030.67
646.535	8938.24
646.888	8942.08
647.24	8963.1
647.593	9011.01
647.945	8945.92
648.298	8903.89
648.65	8905.02
649.002	8939.37
649.355	8925.36
649.707	8870.9
650.059	9022.31
650.411	9046.03
650.763	9123.09
651.115	9159.7
651.467	9118.35
651.819	9156.31
652.171	9151.12
652.523	9148.63
652.875	9096.43
653.227	9114.96
653.578	9172.58
653.93	9163.54
654.282	9093.04
654.633	9134.84
654.985	9165.58
655.337	9167.61
655.688	9161.06
656.039	9194.28
656.391	9126.71
656.742	9161.06
657.094	9154.73
657.445	9187.27
657.796	9245.58
658.147	9215.52
658.498	9132.81
658.849	9145.01
659.2	9179.82
659.551	9168.74
659.902	9181.62
660.253	9166.71
660.604	9183.2
660.955	9100.27
661.306	9232.7
661.656	9160.15
662.007	9227.05
662.358	9222.98
662.708	9212.58
663.059	9190.21
663.409	9094.39
663.76	9260.94
664.11	9175.97
664.461	9321.73
664.811	9309.3
665.161	9311.79
665.511	9201.51
665.862	9297.1
666.212	9278.12
666.562	9306.14
666.912	9281.06
667.262	9217.55
667.612	9270.21
667.962	9264.33
668.312	9256.2
668.662	9226.82
669.011	9261.17
669.361	9268.4
669.711	9226.14
670.06	9208.06
670.41	9190.66
670.76	9203.54
671.109	9208.51
671.459	9166.71
671.808	9199.02
672.157	9210.1
672.507	9145.01
672.856	9217.55
673.205	9239.47
673.554	9136.88
673.904	9194.5
674.253	9189.08
674.602	9135.75
674.951	9055.07
675.3	9020.95
675.649	9121.51
675.998	9130.78
676.346	9128.29
676.695	9101.63
677.044	9064.11
677.393	9077.9
677.741	9094.17
678.09	9044.23
678.438	9065.47
678.787	9066.37
679.135	9030.21
679.484	8956.09
679.832	8968.97
680.181	8991.8
680.529	8972.36
680.877	8957.9
681.225	8906.38
681.573	8944.79
681.922	8918.35
682.27	8850.11
682.618	8891.24
682.966	8867.05
683.314	8846.94
683.661	8837.9
684.009	8789.99
684.357	8755.87
684.705	8776.44
685.053	8728.08
685.4	8751.13
685.748	8735.53
686.095	8657.12
686.443	8667.06
686.79	8603.11
687.138	8670.45
687.485	8598.36
687.832	8565.59
688.18	8574.63
688.527	8577.57
688.874	8463.9
689.221	8548.42
689.568	8431.59
689.915	8452.38
690.262	8441.08
690.609	8364.7
690.956	8356.79
691.303	8419.61
691.65	8331.25
691.997	8289.22
692.344	8222.55
692.69	8265.49
693.037	8224.13
693.383	8178.49
693.73	8164.25
694.077	8134.42
694.423	8162.89
694.769	8047.42
695.116	8086.96
695.462	8022.33
695.808	7997.93
696.155	8011.48
696.501	7859.62
696.847	7876.35
697.193	7879.51
697.539	7938.94
697.885	7856.23
698.231	7770.59
698.577	7810.13
698.923	7759.97
699.269	7698.72
699.614	7657.37
699.96	7650.82
700.306	7590.03
700.651	7577.6
700.997	7609.01
701.342	7535.11
701.688	7552.51
702.033	7511.38
702.379	7456.7
702.724	7475.45
703.069	7475
703.415	7351.39
703.76	7403.59
704.105	7333.99
704.45	7338.96
704.795	7255.8
705.14	7226.65
705.485	7179.19
705.83	7225.06
706.175	7196.14
706.52	7108.91
706.865	7145.52
707.209	7108.46
707.554	7136.71
707.899	7118.63
708.243	7021
708.588	7077.5
708.932	6999.31
709.277	6985.75
709.621	6992.75
709.966	7008.8
710.31	6974
710.654	6844.74
710.998	6922.7
711.342	6862.14
711.687	6863.94
712.031	6833.44
712.375	6848.13
712.719	6845.19
713.063	6838.41
713.407	6806.54
713.75	6711.86
714.094	6766.55
714.438	6712.08
714.782	6782.59
715.125	6746.21
715.469	6659.43
715.812	6694.68
716.156	6639.32
716.499	6698.98
716.843	6695.81
717.186	6632.31
717.53	6620.79
717.873	6671.41
718.216	6612.43
718.559	6582.6
718.902	6540.11
719.246	6550.51
719.589	6574.91
719.932	6509.15
720.275	6593.89
720.617	6571.07
720.96	6567
721.303	6533.11
721.646	6555.25
721.989	6499.66
722.331	6532.88
722.674	6522.26
723.016	6537.85
723.359	6503.5
723.701	6498.98
724.044	6462.37
724.386	6429.83
724.729	6447.46
725.071	6474.35
725.413	6470.73
725.755	6452.2
726.097	6449.27
726.439	6439.32
726.782	6357.29
727.124	6399.78
727.465	6426.67
727.807	6406.1
728.149	6387.8
728.491	6362.26
728.833	6409.94
729.175	6365.88
729.516	6396.16
729.858	6353.45
730.199	6396.16
730.541	6399.55
730.882	6381.7
731.224	6398.19
731.565	6378.53
731.906	6335.14
732.248	6352.32
732.589	6397.74
732.93	6375.14
733.271	6372.43
733.612	6364.3
733.953	6442.94
734.294	6329.72
734.635	6426.22
734.976	6397.97
735.317	6385.31
735.658	6428.48
735.999	6431.19
736.339	6404.52
736.68	6448.36
737.021	6412.88
737.361	6456.72
737.702	6468.47
738.042	6488.59
738.383	6470.06
738.723	6468.7
739.063	6448.36
739.404	6444.52
739.744	6471.41
740.084	6487.23
740.424	6536.49
740.764	6536.04
741.104	6552.54
741.444	6564.29
741.784	6508.47
742.124	6583.73
742.464	6610.17
742.804	6646.55
743.143	6656.04
743.483	6674.8
743.823	6605.19
744.162	6644.74
744.502	6712.76
744.841	6717.73
745.181	6743.04
745.52	6814.45
745.86	6824.4
746.199	6864.17
746.538	6879.31
746.877	6974.45
747.216	7023.94
747.556	7039.31
747.895	7133.99
748.234	7116.14
748.573	7148
748.911	7219.87
749.25	7331.28
749.589	7344.84
749.928	7426.41
750.267	7478.39
750.605	7587.54
750.944	7576.69
751.283	7760.87
751.621	7735.79
751.96	7865.05
752.298	7989.34
752.636	8023.46
752.975	8195.43
753.313	8298.93
753.651	8344.13
753.989	8435.2
754.327	8517.69
754.666	8634.07
755.004	8821.41
755.342	8879.71
755.679	9010.78
756.017	9158.35
756.355	9294.16
756.693	9362.86
757.031	9471.56
757.368	9665.23
757.706	9790.65
758.044	9948.16
758.381	10144.08
758.719	10231.09
759.056	10386.56
759.394	10599.44
759.731	10664.75
760.068	10908.36
760.405	11018.86
760.743	11146.77
761.08	11381.11
761.417	11535.69
761.754	11698.62
762.091	11928.44
762.428	11979.97
762.765	12076.46
763.102	12445.94
763.438	12524.59
763.775	12598.93
764.112	12897.23
764.449	13058.13
764.785	13215.42
765.122	13301.06
765.458	13435.75
765.795	13647.72
766.131	13838.45
766.467	13916.87
766.804	14113.7
767.14	14126.8
767.476	14346.91
767.812	14536.06
768.148	14743.28
768.485	14803.17
768.821	14909.16
769.157	15071.19
769.492	15204.97
769.828	15229.37
770.164	15345.08
770.5	15481.57
770.836	15672.75
771.171	15742.81
771.507	15791.39
771.842	15815.8
772.178	15953.42
772.513	16076.58
772.849	16257.37
773.184	16253.3
773.519	16331.27
773.855	16377.59
774.19	16439.74
774.525	16579.85
774.86	16623.91
775.195	16608.09
775.53	16719.5
775.865	16854.42
776.2	16875.66
776.535	16831.82
776.87	16938.71
777.205	16997.69
777.539	17050.79
777.874	17135.76
778.209	17022.77
778.543	17124.92
778.878	17139.15
779.212	17191.58
779.547	17132.15
779.881	17231.58
780.215	17311.58
780.55	17359.26
780.884	17296.44
781.218	17322.88
781.552	17428.41
781.886	17362.65
782.22	17322.43
782.554	17316.78
782.888	17202.66
783.222	17319.26
783.556	17287.62
783.889	17180.73
784.223	17119.72
784.557	17294.86
784.89	17326.72
785.224	17178.7
785.557	17164.46
785.891	17298.02
786.224	17265.7
786.558	17262.09
786.891	17151.58
787.224	17157.68
787.557	17198.81
787.891	17113.39
788.224	17122.88
788.557	17213.05
788.89	17258.7
789.223	17224.12
789.556	17122.66
789.888	17134.41
790.221	17090.12
790.554	16926.5
790.887	16985.49
791.219	16917.69
791.552	16816
791.884	16964.02
792.217	16863.68
792.549	16853.06
792.882	16816.45
793.214	16712.5
793.546	16708.43
793.879	16741.2
794.211	16597.93
794.543	16635.44
794.875	16643.57
795.207	16687.64
795.539	16587.08
795.871	16603.57
796.203	16525.84
796.535	16468.21
796.867	16409.46
797.198	16468.21
797.53	16405.61
797.862	16348.44
798.193	16338.72
798.525	16214.88
798.856	16185.51
799.188	16092.85
799.519	16105.06
799.85	16015.34
800.182	16123.59
800.513	16039.52
800.844	15953.87
801.175	16062.12
801.506	16037.71
801.837	15908
802.168	15833.65
802.499	15748.46
802.83	15806.53
803.161	15796.82
803.491	15773.99
803.822	15700.32
804.153	15690.15
804.483	15459.2
804.814	15570.38
805.145	15552.98
805.475	15517.05
805.805	15491.97
806.136	15536.03
806.466	15544.39
806.796	15433.66
807.126	15356.6
807.457	15304.85
807.787	15324.29
808.117	15220.79
808.447	15132.2
808.777	15271.86
809.107	15243.61
809.436	15103.05
809.766	15111.41
810.096	15046.1
810.426	14988.25
810.755	15018.98
811.085	15062.6
811.414	14940.57
811.744	14870.29
812.073	14860.34
812.403	14965.2
812.732	14822.6
813.061	14807.46
813.39	14680.46
813.719	14705.77
814.049	14743.51
814.378	14663.06
814.707	14639.11
815.036	14661.7
815.365	14535.38
815.693	14427.59
816.022	14498.09
816.351	14501.48
816.68	14407.93
817.008	14568.6
817.337	14285.67
817.665	14319.57
817.994	14314.37
818.322	14232.56
818.651	14268.27
818.979	14268.95
819.307	14287.7
819.636	14237.99
819.964	14229.4
820.292	14234.15
820.62	14214.71
820.948	14153.92
821.276	14266.46
821.604	14187.37
821.932	14174.71
822.259	14168.16
822.587	14204.09
822.915	14178.1
823.243	14202.51
823.57	14085.9
823.898	14224.43
824.225	14108.05
824.553	14148.5
824.88	14128.16
825.207	14153.47
825.535	14139.01
825.862	14210.87
826.189	14076.64
826.516	14207.03
826.843	14183.07
827.17	14186.46
827.497	14205.45
827.824	14147.14
828.151	14217.42
828.478	14179.68
828.805	14161.61
829.131	14165.9
829.458	14157.09
829.785	14107.14
830.111	14220.36
830.438	14241.83
830.764	14200.02
831.09	14208.16
831.417	14170.42
831.743	14226.69
832.069	14183.07
832.395	14077.54
832.722	14147.82
833.048	14136.52
833.374	14141.94
833.7	14009.29
834.026	14045.45
834.351	14056.52
834.677	14094.71
835.003	14137.65
835.329	14041.83
835.654	14083.64
835.98	13981.04
836.306	13940.82
836.631	13945.34
836.956	14057.65
837.282	14040.93
837.607	13959.58
837.932	13867.38
838.258	13936.75
838.583	13931.33
838.908	13841.39
839.233	13858.34
839.558	13757.1
839.883	13815.4
840.208	13693.14
840.533	13698.34
840.858	13758
841.182	13713.71
841.507	13724.78
841.832	13650.21
842.156	13586.48
842.481	13609.3
842.805	13578.12
843.13	13521.17
843.454	13546.93
843.778	13424.22
844.103	13394.62
844.427	13383.77
844.751	13379.25
845.075	13373.15
845.399	13325.47
845.723	13280.27
846.047	13259.48
846.371	13130.22
846.695	13142.87
847.019	13076.44
847.343	13008.19
847.666	12885.03
847.99	12868.76
848.313	12853.16
848.637	12798.48
848.96	12784.92
849.284	12755.99
849.607	12612.27
849.931	12604.13
850.254	12582.44
850.577	12490.01
850.9	12365.95
851.223	12391.93
851.546	12370.69
851.869	12214.09
852.192	12303.12
852.515	12165.5
852.838	12147.87
853.161	12120.98
853.483	12068.33
853.806	12019.51
854.129	11991.94
854.451	11975.22
854.774	11926.18
855.096	11871.5
855.419	11898.39
855.741	11821.78
856.063	11739.07
856.385	11757.37
856.708	11654.33
857.03	11685.51
857.352	11589.24
857.674	11630.6
857.996	11574.78
858.318	11509.47
858.64	11518.74
858.961	11488.45
859.283	11457.5
859.605	11431.06
859.926	11425.86
860.248	11389.93
860.57	11389.02
860.891	11281.91
861.212	11244.62
861.534	11239.42
861.855	11216.6
862.176	11184.96
862.498	11225.41
862.819	11203.26
863.14	11135.92
863.461	11102.02
863.782	11124.85
864.103	11080.56
864.424	11035.13
864.745	11048.01
865.065	11047.34
865.386	10977.51
865.707	10910.62
866.027	10992.65
866.348	10983.61
866.668	10864.74
866.989	10811.18
867.309	10804.86
867.63	10858.87
867.95	10864.52
868.27	10760.11
868.59	10815.93
868.91	10827
869.23	10749.94
869.55	10704.29
869.87	10755.59
870.19	10706.78
870.51	10742.71
870.83	10754.24
871.15	10631.75
871.469	10629.72
871.789	10680.34
872.109	10666.1
872.428	10623.62
872.748	10676.27
873.067	10583.17
873.386	10556.73
873.706	10562.6
874.025	10436.05
874.344	10463.17
874.663	10596.28
874.982	10482.83
875.301	10435.38
875.62	10435.38
875.939	10400.57
876.258	10383.17
876.577	10325.1
876.896	10379.33
877.214	10396.28
877.533	10353.57
877.852	10373.46
878.17	10338.65
878.489	10268.15
878.807	10277.87
879.125	10251.88
879.444	10211.88
879.762	10186.79
880.08	10249.39
880.398	10130.75
880.716	10129.62
881.034	10121.49
881.352	10166.46
881.67	10118.32
881.988	10178.43
882.306	10025.22
882.624	10028.61
882.941	9930.98
883.259	9887.37
883.577	9938.67
883.894	9953.58
884.212	9875.39
884.529	9921.94
884.846	9823.87
885.164	9848.5
885.481	9762.85
885.798	9866.58
886.115	9735.73
886.432	9779.8
886.75	9767.6
887.067	9745.9
887.383	9644.66
887.7	9705.23
888.017	9618.22
888.334	9663.42
888.651	9598.79
888.967	9594.27
889.284	9542.52
889.6	9494.61
889.917	9444.89
890.233	9426.59
890.55	9431.56
890.866	9440.6
891.182	9383.43
891.498	9321.28
891.815	9264.33
892.131	9257.78
892.447	9243.99
892.763	9262.75
893.079	9153.38
893.395	9189.98
893.71	9170.78
894.026	9153.38
894.342	9139.59
894.657	9086.26
894.973	9033.6
895.289	8976.2
895.604	9041.74
895.92	8960.61
896.235	8882.2
896.55	8935.98
896.865	8862.76
897.181	8816.21
897.496	8826.6
897.811	8800.39
898.126	8781.41
898.441	8780.28
898.756	8685.82
899.071	8622.99
899.386	8637
899.7	8581.64
900.015	8517.23
900.33	8487.18
900.644	8414.86
900.959	8492.83
901.273	8414.41
901.588	8387.07
901.902	8396.56
902.216	8325.37
902.531	8264.81
902.845	8320.4
903.159	8296.67
903.473	8197.69
903.787	8150.01
904.101	8088.77
904.415	8168.77
904.729	8126.74
905.042	8081.99
905.356	8020.3
905.67	7954.76
905.984	7933.52
906.297	7983.46
906.611	7913.63
906.924	7849.23
907.237	7861.21
907.551	7870.47
907.864	7848.78
908.177	7737.59
908.491	7719.29
908.804	7706.86
909.117	7663.92
909.43	7542.12
909.743	7521.78
910.056	7545.73
910.368	7500.99
910.681	7503.48
910.994	7481.33
911.307	7408.11
911.619	7386.64
911.932	7409.47
912.244	7286.31
912.557	7286.31
912.869	7238.85
913.181	7249.24
913.494	7232.75
913.806	7183.71
914.118	7148.91
914.43	7105.97
914.742	7087.67
915.054	7077.95
915.366	7025.52
915.678	7108.01
915.99	6968.8
916.302	6957.95
916.613	6935.13
916.925	6850.16
917.236	6875.69
917.548	6866.43
917.859	6850.61
918.171	6771.06
918.482	6812.65
918.794	6764.96
919.105	6753.44
919.416	6647.9
919.727	6671.18
920.038	6651.52
920.349	6598.41
920.66	6578.3
920.971	6565.19
921.282	6512.09
921.593	6487.23
921.903	6487.91
922.214	6381.7
922.525	6430.06
922.835	6393.22
923.146	6345.31
923.456	6353.9
923.767	6365.2
924.077	6282.72
924.387	6307.12
924.697	6207.69
925.008	6209.27
925.318	6196.84
925.628	6184.87
925.938	6139.44
926.248	6082.27
926.558	6055.6
926.867	6052.44
927.177	6026.23
927.487	5989.16
927.796	5969.96
928.106	5920.69
928.416	5889.73
928.725	5876.4
929.034	5865.33
929.344	5948.04
929.653	5820.58
929.962	5771.77
930.271	5767.25
930.581	5760.24
930.89	5750.98
931.199	5687.7
931.508	5677.31
931.817	5667.82
932.125	5585.33
932.434	5642.96
932.743	5559.35
933.051	5595.5
933.36	5561.83
933.669	5588.27
933.977	5537.88
934.286	5518.44
934.594	5476.64
934.902	5482.06
935.21	5426.24
935.519	5390.99
935.827	5390.31
936.135	5298.79
936.443	5306.7
936.751	5249.97
937.059	5336.3
937.367	5276.87
937.674	5251.78
937.982	5242.29
938.29	5223.53
938.597	5235.51
938.905	5139.02
939.213	5115.74
939.52	5101.28
939.827	5142.63
940.135	5084.78
940.442	5108.51
940.749	5054.05
941.056	5071.9
941.363	5011.34
941.67	4983.09
941.977	4957.1
942.284	4912.13
942.591	4920.94
942.898	4873.94
943.205	4895.86
943.511	4869.19
943.818	4845.47
944.125	4828.74
944.431	4774.06
944.738	4775.41
945.044	4760.04
945.35	4697.67
945.657	4709.2
945.963	4659.48
946.269	4657.9
946.575	4634.4
946.881	4589.43
947.187	4606.83
947.493	4596.88
947.799	4567.73
948.105	4540.39
948.41	4522.31
948.716	4525.93
949.022	4515.31
949.327	4518.02
949.633	4419.71
949.938	4434.63
950.244	4400.05
950.549	4406.16
950.854	4408.19
951.16	4371.58
951.465	4359.6
951.77	4302.66
952.075	4280.96
952.38	4297.01
952.685	4292.03
952.99	4214.52
953.294	4217.01
953.599	4210
953.904	4181.53
954.209	4165.26
954.513	4137.69
954.818	4108.31
955.122	4134.07
955.426	4115.32
955.731	4086.84
956.035	4046.16
956.339	4064.92
956.643	4043
956.948	4014.3
957.252	4018.82
957.556	3969.33
957.86	3972.27
958.163	3920.29
958.467	3889.33
958.771	3945.38
959.075	3868.99
959.378	3846.85
959.682	3899.95
959.985	3843.46
960.289	3817.02
960.592	3793.74
960.896	3810.24
961.199	3772.05
961.502	3800.52
961.805	3794.19
962.108	3746.96
962.411	3721.2
962.714	3706.29
963.017	3629.9
963.32	3652.28
963.623	3618.61
963.926	3683.46
964.228	3606.18
964.531	3599.4
964.833	3571.83
965.136	3603.46
965.438	3567.53
965.741	3551.26
966.043	3523.47
966.345	3513.75
966.648	3537.25
966.95	3490.47
967.252	3462.9
967.554	3455.9
967.856	3431.94
968.158	3424.03
968.46	3411.61
968.761	3395.79
969.063	3376.35
969.365	3384.49
969.666	3389.68
969.968	3313.53
970.269	3306.07
970.571	3327.99
970.872	3287.09
971.174	3298.61
971.475	3264.94
971.776	3235.56
972.077	3221.33
972.378	3220.88
972.679	3192.63
972.98	3222.91
973.281	3197.15
973.582	3155.57
973.883	3136.81
974.183	3145.62
974.484	3112.4
974.785	3111.73
975.085	3128
975.386	3112.18
975.686	3062.69
975.986	3071.05
976.287	3064.95
976.587	3005.97
976.887	2997.15
977.187	2988.11
977.487	2977.27
977.787	2964.16
978.087	2987.66
978.387	2946.31
978.687	2958.96
978.987	2902.24
979.286	2925.52
979.586	2886.42
979.885	2900.88
980.185	2879.87
980.484	2843.03
980.784	2846.87
981.083	2815.01
981.382	2808.68
981.682	2810.27
981.981	2780.21
982.28	2781.57
982.579	2767.33
982.878	2765.29
983.177	2748.57
983.475	2745.41
983.774	2737.5
984.073	2717.84
984.372	2707.22
984.67	2665.18
984.969	2651.4
985.267	2664.51
985.566	2678.29
985.864	2578.86
986.162	2640.1
986.461	2628.12
986.759	2600.1
987.057	2545.87
987.355	2564.62
987.653	2567.79
987.951	2550.38
988.249	2558.07
988.547	2577.5
988.844	2549.93
989.142	2504.74
989.44	2544.06
989.737	2462.7
990.035	2462.48
990.332	2466.09
990.63	2444.62
990.927	2448.01
991.224	2427.9
991.521	2435.13
991.819	2419.54
992.116	2407.11
992.413	2360.79
992.71	2372.31
993.006	2356.04
993.303	2391.29
993.6	2354.01
993.897	2350.39
994.193	2329.6
994.49	2322.14
994.787	2311.52
995.083	2308.81
995.379	2262.93
995.676	2255.7
995.972	2271.97
996.268	2245.76
996.565	2213.44
996.861	2207.12
997.157	2203.28
997.453	2166.67
997.749	2209.83
998.044	2178.87
998.34	2187.46
998.636	2138.64
998.932	2110.85
999.227	2142.49
999.523	2125.09
999.818	2132.54
1000.114	2103.17
1000.409	2126.22
1000.704	2067.01
1001	2054.35
1001.295	2056.39
1001.59	2051.87
1001.885	2024.75
1002.18	2030.4
1002.475	2025.88
1002.77	1996.28
1003.065	1972.55
1003.359	2002.83
1003.654	1985.88
1003.949	1954.47
1004.243	1958.31
1004.538	1939.78
1004.832	1924.86
1005.127	1944.53
1005.421	1907.46
1005.715	1895.26
1006.009	1873.79
1006.304	1863.4
1006.598	1861.14
1006.892	1864.53
1007.186	1846.22
1007.48	1872.44
1007.773	1824.75
1008.067	1846.45
1008.361	1786.34
1008.655	1808.03
1008.948	1793.57
1009.242	1786.56
1009.535	1760.8
1009.829	1765.77
1010.122	1736.4
1010.415	1743.17
1010.708	1722.16
1011.001	1727.81
1011.295	1730.75
1011.588	1709.96
1011.881	1677.41
1012.173	1662.5
1012.466	1673.35
1012.759	1660.69
1013.052	1610.97
1013.344	1641.26
1013.637	1636.51
1013.93	1630.18
1014.222	1637.87
1014.514	1602.84
1014.807	1604.2
1015.099	1559.68
1015.391	1601.71
1015.683	1576.17
1015.976	1548.6
1016.268	1561.71
1016.56	1544.76
1016.851	1508.6
1017.143	1524.65
1017.435	1503.63
1017.727	1525.55
1018.018	1473.35
1018.31	1468.61
1018.602	1464.76
1018.893	1481.94
1019.185	1442.17
1019.476	1437.19
1019.767	1436.74
1020.058	1424.31
1020.35	1418.44
1020.641	1422.05
1020.932	1405.33
1021.223	1399.45
1021.514	1401.94
1021.804	1371.88
1022.095	1350.87
1022.386	1382.73
1022.677	1321.72
1022.967	1335.73
1023.258	1335.28
1023.548	1325.11
1023.839	1316.07
1024.129	1331.66
1024.419	1322.62
1024.709	1300.02
1025	1260.25
1025.29	1283.07
1025.58	1251.21
1025.87	1258.67
1026.16	1268.16
1026.449	1256.18
1026.739	1228.61
1027.029	1212.34
1027.319	1177.31
1027.608	1208.95
1027.898	1205.11
1028.187	1193.58
1028.477	1196.07
1028.766	1156.75
1029.055	1161.49
1029.344	1163.53
1029.634	1150.2
1029.923	1126.92
1030.212	1149.97
1030.501	1096.86
1030.79	1125.11
1031.078	1092.57
1031.367	1099.58
1031.656	1095.73
1031.945	1108.16
1032.233	1088.5
1032.522	1075.17
1032.81	1110.42
1033.099	1072.23
1033.387	1083.08
1033.675	1071.33
1033.963	1045.57
1034.251	1035.4
1034.54	1042.63
1034.828	1043.76
1035.116	1037.2
1035.403	1004.21
1035.691	1039.92
1035.979	1010.76
1036.267	985.45
1036.554	983.42
1036.842	1000.14
1037.129	973.03
1037.417	965.34
1037.704	968.96
1037.992	949.07
1038.279	943.42
1038.566	970.54
1038.853	970.54
1039.14	970.54
