Data from hue_190_FLMS001491_00015.txt Node
Date: Tue Feb 07 16:44:55 GMT 2017
User: dcchb
Spectrometer: FLMS00149
Trigger mode: 0
Integration Time (sec): 2.000000E-2
Scans to average: 10
Electric dark correction enabled: true
Nonlinearity correction enabled: false
Boxcar width: 0
XAxis mode: Wavelengths
Number of Pixels in Spectrum: 2048
>>>>>Begin Spectral Data<<<<<
341.393	-13.98
341.776	-13.98
342.16	-13.98
342.543	-62.34
342.927	-60.31
343.31	-73.64
343.693	-78.39
344.077	-58.73
344.46	-72.74
344.843	-45.17
345.226	-37.26
345.61	-26.19
345.993	-35.45
346.376	0.48
346.759	17.43
347.142	33.47
347.525	23.98
347.908	69.4
348.291	78.9
348.674	99.91
349.057	103.98
349.44	155.5
349.823	113.02
350.206	170.42
350.588	204.32
350.971	180.81
351.354	227.14
351.737	255.16
352.119	244.32
352.502	254.71
352.884	250.87
353.267	274.15
353.65	312.56
354.032	310.08
354.414	302.62
354.797	302.17
355.179	327.48
355.562	322.51
355.944	332.22
356.326	346.69
356.709	317.08
357.091	348.95
357.473	351.43
357.855	345.56
358.238	345.33
358.62	338.1
359.002	348.04
359.384	314.14
359.766	339.23
360.148	355.95
360.53	330.64
360.912	318.66
361.294	330.19
361.676	317.31
362.057	333.13
362.439	333.13
362.821	355.73
363.203	327.25
363.584	321.15
363.966	319.12
364.348	331.54
364.729	321.6
365.111	327.25
365.493	320.02
365.874	320.25
366.256	320.02
366.637	318.66
367.019	322.51
367.4	320.25
367.781	316.86
368.163	298.1
368.544	321.6
368.925	308.04
369.306	311.21
369.688	291.09
370.069	294.48
370.45	315.5
370.831	335.16
371.212	342.17
371.593	313.24
371.974	335.61
372.355	316.4
372.736	312.11
373.117	336.74
373.498	326.8
373.879	332
374.26	310.98
374.641	315.5
375.021	311.88
375.402	323.18
375.783	309.85
376.163	339
376.544	312.79
376.925	320.02
377.305	335.61
377.686	320.47
378.066	333.8
378.447	311.88
378.827	326.57
379.208	330.64
379.588	349.17
379.968	329.51
380.349	332.67
380.729	334.48
381.109	333.35
381.489	326.57
381.87	348.04
382.25	349.85
382.63	353.92
383.01	337.19
383.39	347.36
383.77	334.93
384.15	353.24
384.53	329.06
384.91	323.18
385.29	327.48
385.67	351.43
386.049	346.23
386.429	338.78
386.809	351.43
387.189	385.78
387.568	355.73
387.948	353.24
388.328	360.02
388.707	352.34
389.087	365.89
389.466	353.24
389.846	360.92
390.225	374.71
390.605	379
390.984	364.54
391.363	374.26
391.743	383.52
392.122	367.93
392.501	389.4
392.881	392.56
393.26	354.37
393.639	366.57
394.018	400.7
394.397	388.72
394.776	401.37
395.155	388.72
395.534	398.89
395.913	368.15
396.292	380.58
396.671	394.14
397.05	404.31
397.429	403.18
397.808	406.35
398.186	400.02
398.565	403.41
398.944	417.19
399.323	402.28
399.701	408.15
400.08	411.32
400.458	429.17
400.837	410.19
401.215	414.48
401.594	412.67
401.972	426.91
402.351	432.11
402.729	418.55
403.107	449.73
403.486	431.88
403.864	413.8
404.242	412.45
404.62	458.32
404.999	448.15
405.377	438.89
405.755	461.03
406.133	450.64
406.511	441.82
406.889	450.41
407.267	480.02
407.645	468.72
408.023	479.79
408.401	471.88
408.779	504.2
409.156	496.96
409.534	510.75
409.912	503.29
410.29	504.87
410.667	521.14
411.045	543.29
411.422	536.29
411.8	563.86
412.178	543.97
412.555	578.32
412.933	563.4
413.31	576.74
413.687	587.36
414.065	602.05
414.442	620.8
414.819	606.34
415.197	626.68
415.574	630.52
415.951	646.11
416.328	631.88
416.705	668.94
417.082	660.12
417.46	665.32
417.837	682.04
418.214	687.47
418.591	712.55
418.967	701.93
419.344	712.1
419.721	708.03
420.098	736.51
420.475	749.16
420.852	748.03
421.228	749.39
421.605	771.76
421.982	766.56
422.358	796.17
422.735	786.67
423.111	807.24
423.488	831.42
423.864	857.63
424.241	878.2
424.617	860.34
424.994	888.59
425.37	874.58
425.746	889.95
426.123	922.04
426.499	920
426.875	950.29
427.251	961.81
427.627	997.74
428.003	991.19
428.379	997.29
428.756	1017.4
429.132	1004.97
429.507	1050.62
429.883	1060.34
430.259	1063.96
430.635	1085.88
431.011	1073.9
431.387	1093.33
431.763	1105.54
432.138	1121.81
432.514	1165.2
432.89	1142.6
433.265	1203.84
433.641	1205.87
434.016	1222.82
434.392	1273.22
434.767	1288.36
435.143	1270.28
435.518	1282.71
435.894	1336.04
436.269	1366.09
436.644	1388.24
437.02	1365.19
437.395	1397.73
437.77	1439.99
438.145	1476.15
438.52	1450.16
438.895	1515.92
439.271	1500.1
439.646	1576.94
440.021	1594.79
440.395	1596.82
440.77	1608.12
441.145	1610.38
441.52	1634.56
441.895	1679.08
442.27	1686.54
442.645	1676.59
443.019	1758.85
443.394	1750.04
443.769	1781.68
444.143	1750.26
444.518	1832.75
444.892	1804.95
445.267	1841.11
445.641	1867.1
446.016	1844.27
446.39	1887.21
446.764	1913.65
447.139	1894.22
447.513	1903.26
447.887	1918.4
448.262	1929.24
448.636	1949.36
449.01	1990.03
449.384	1989.35
449.758	1998.39
450.132	2042.46
450.506	2063.48
450.88	2071.84
451.254	2063.48
451.628	2100.09
452.002	2129.46
452.376	2135.11
452.75	2195.68
453.123	2197.26
453.497	2209.69
453.871	2236.35
454.244	2266.18
454.618	2292.4
454.992	2351.15
455.365	2339.18
455.739	2391.15
456.112	2424.15
456.486	2402.9
456.859	2444.71
457.232	2524.03
457.606	2495.33
457.979	2562.9
458.352	2628.21
458.725	2625.04
459.099	2656
459.472	2694.87
459.845	2664.82
460.218	2722.89
460.591	2737.36
460.964	2776.23
461.337	2821.65
461.71	2893.06
462.083	2944.58
462.456	2973.28
462.829	2992.49
463.201	2989.33
463.574	3055.09
463.947	3051.93
464.32	3142.77
464.692	3141.19
465.065	3149.55
465.438	3247.85
465.81	3303.67
466.183	3337.12
466.555	3423.89
466.928	3390.22
467.3	3427.28
467.672	3469.99
468.045	3557.45
468.417	3588.18
468.789	3616.66
469.161	3667.5
469.534	3743.43
469.906	3794.96
470.278	3867.72
470.65	3882.19
471.022	3968.29
471.394	4007.15
471.766	4086.7
472.138	4070.66
472.51	4224.78
472.882	4243.76
473.253	4311.33
473.625	4389.74
473.997	4482.4
474.369	4439.23
474.74	4553.35
475.112	4608.04
475.484	4674.03
475.855	4810.75
476.227	4850.52
476.598	4976.17
476.97	5013
477.341	5119.67
477.713	5205.99
478.084	5269.72
478.455	5399.66
478.827	5423.16
479.198	5584.74
479.569	5629.03
479.94	5780.44
480.311	5791.74
480.682	5962.58
481.053	6071.51
481.424	6169.13
481.795	6225.85
482.166	6341.1
482.537	6417.03
482.908	6570.25
483.279	6598.72
483.65	6765.73
484.021	6871.94
484.391	6920.3
484.762	6981.77
485.133	7093.4
485.503	7169.33
485.874	7322.1
486.244	7436.67
486.615	7542.65
486.985	7651.13
487.356	7819.03
487.726	7846.38
488.097	7995.07
488.467	8035.98
488.837	8197.33
489.207	8302.63
489.578	8446.36
489.948	8434.83
490.318	8616.52
490.688	8627.37
491.058	8731.55
491.428	8890.19
491.798	8939.23
492.168	9110.98
492.538	9182.84
492.908	9244.08
493.278	9314.13
493.648	9345.32
494.017	9474.13
494.387	9538.99
494.757	9578.53
495.126	9714.58
495.496	9714.58
495.866	9793.67
496.235	9923.38
496.605	9937.39
496.974	9960.67
497.344	10028.01
497.713	10057.16
498.082	10164.96
498.452	10231.4
498.821	10324.05
499.19	10318.18
499.559	10395.91
499.928	10466.65
500.298	10509.81
500.667	10582.57
501.036	10505.74
501.405	10659.41
501.774	10637.71
502.143	10679.97
502.512	10685.62
502.88	10782.57
503.249	10840.42
503.618	10802.23
503.987	10856.69
504.356	10926.29
504.724	10992.73
505.093	10955.45
505.462	10992.96
505.83	10962.9
506.199	11078.61
506.567	11180.75
506.936	11159.73
507.304	11230.47
507.672	11216
508.041	11226.63
508.409	11346.62
508.777	11347.07
509.145	11428.65
509.514	11364.25
509.882	11396.34
510.25	11409.67
510.618	11492.61
510.986	11425.94
511.354	11517.92
511.722	11591.59
512.09	11595.2
512.458	11616.45
512.826	11678.59
513.193	11682.66
513.561	11712.94
513.929	11737.12
514.297	11894.18
514.664	11864.8
515.032	11800.17
515.4	11871.81
515.767	11822.54
516.135	11930.11
516.502	11710
516.869	11917.46
517.237	11876.33
517.604	11897.12
517.972	11964.46
518.339	11932.37
518.706	11867.29
519.073	11867.96
519.44	11947.51
519.808	11973.5
520.175	11898.7
520.542	12009.2
520.909	11975.08
521.276	11883.78
521.643	12029.32
522.009	12035.19
522.376	12095.08
522.743	12070.67
523.11	12164.91
523.477	12196.09
523.843	12188.41
524.21	12233.6
524.577	12199.48
524.943	12280.84
525.31	12170.56
525.676	12256.88
526.043	12249.2
526.409	12160.16
526.776	12250.1
527.142	12284.68
527.508	12244
527.874	12222.98
528.241	12269.99
528.607	12236.77
528.973	12237.22
529.339	12178.24
529.705	12189.76
530.071	12199.48
530.437	12206.49
530.803	12176.21
531.169	12204
531.535	12095.76
531.901	12121.97
532.267	12050.78
532.632	12048.75
532.998	12045.59
533.364	11955.19
533.73	12054.85
534.095	12023.21
534.461	11974.85
534.826	11965.36
535.192	11920.84
535.557	11850.79
535.923	11843.78
536.288	11845.82
536.653	11761.07
537.019	11645.15
537.384	11654.41
537.749	11637.69
538.114	11616.22
538.479	11518.6
538.845	11474.53
539.21	11442.89
539.575	11372.84
539.94	11330.35
540.305	11369.22
540.67	11284.7
541.034	11231.82
541.399	11187.3
541.764	11178.72
542.129	11105.5
542.494	11037.25
542.858	11024.82
543.223	11011.94
543.587	10970.81
543.952	10882
544.316	10847.65
544.681	10814.89
545.045	10726.3
545.41	10807.65
545.774	10708
546.138	10574.21
546.503	10656.7
546.867	10533.08
547.231	10546.87
547.595	10487.21
547.959	10401.11
548.324	10372.64
548.688	10250.15
549.052	10300.32
549.416	10235.01
549.779	10175.81
550.143	10211.51
550.507	10173.77
550.871	10172.64
551.235	9996.15
551.599	10036.83
551.962	10025.08
552.326	9908.24
552.689	9881.35
553.053	9818.75
553.417	9808.36
553.78	9860.33
554.143	9723.39
554.507	9654.46
554.87	9667.12
555.234	9783.95
555.597	9578.53
555.96	9535.14
556.323	9535.82
556.686	9457.18
557.05	9466.9
557.413	9463.06
557.776	9457.18
558.139	9473
558.502	9410.63
558.865	9355.26
559.228	9353.23
559.59	9377.41
559.953	9294.47
560.316	9417.41
560.679	9362.04
561.041	9345.55
561.404	9311.87
561.767	9278.65
562.129	9275.72
562.492	9319.78
562.854	9259.67
563.217	9321.82
563.579	9273.91
563.941	9249.5
564.304	9238.2
564.666	9244.3
565.028	9159.56
565.39	9276.17
565.753	9286.11
566.115	9242.5
566.477	9209.28
566.839	9217.19
567.201	9190.3
567.563	9214.02
567.925	9168.83
568.287	9217.41
568.648	9177.64
569.01	9217.41
569.372	9227.13
569.734	9212.22
570.095	9217.19
570.457	9248.82
570.819	9240.01
571.18	9138.77
571.542	9283.63
571.903	9258.77
572.265	9255.38
572.626	9268.26
572.987	9254.02
573.349	9213.35
573.71	9227.58
574.071	9256.06
574.432	9236.4
574.794	9298.54
575.155	9270.52
575.516	9270.07
575.877	9244.53
576.238	9202.05
576.599	9217.19
576.96	9259.67
577.32	9231.65
577.681	9235.72
578.042	9211.76
578.403	9172.67
578.763	9237.53
579.124	9303.51
579.485	9192.55
579.845	9229.84
580.206	9211.99
580.566	9242.27
580.927	9195.94
581.287	9214.7
581.648	9222.38
582.008	9189.17
582.368	9204.76
582.728	9206.57
583.089	9203.4
583.449	9129.96
583.809	9115.49
584.169	9148.04
584.529	9145.55
584.889	9143.97
585.249	9110.52
585.609	9068.72
585.969	9127.92
586.329	9112.33
586.688	9100.35
587.048	9124.76
587.408	9042.5
587.768	9076.85
588.127	9030.98
588.487	8982.39
588.846	9037.53
589.206	8989.62
589.565	9005.89
589.925	9091.77
590.284	8975.61
590.643	8920.92
591.003	9075.27
591.362	9075.27
591.721	8966.8
592.08	9000.24
592.44	8974.03
592.799	8983.75
593.158	8909.17
593.517	8956.18
593.876	8886.8
594.235	8958.44
594.593	8922.28
594.952	8967.02
595.311	8884.54
595.67	8852.22
596.029	8909.85
596.387	8902.85
596.746	8924.54
597.104	8865.56
597.463	8846.35
597.822	8920.47
598.18	8854.94
598.538	8847.25
598.897	8865.56
599.255	8831.66
599.613	8955.5
599.972	8907.36
600.33	8869.85
600.688	8786.01
601.046	8864.2
601.404	8898.1
601.762	8832.56
602.12	8890.64
602.478	8909.17
602.836	8830.3
603.194	8822.17
603.552	8832.79
603.91	8861.49
604.268	8879.12
604.625	8791.21
604.983	8870.76
605.341	8737.43
605.698	8801.6
606.056	8837.08
606.413	8823.3
606.771	8908.04
607.128	8848.84
607.485	8849.29
607.843	8791.44
608.2	8854.26
608.557	8834.15
608.914	8848.38
609.272	8905.33
609.629	8899.68
609.986	8920.7
610.343	8839.34
610.7	8916.4
611.057	8869.63
611.414	8889.74
611.771	8902.85
612.127	8934.93
612.484	8904.65
612.841	8971.77
613.198	8893.58
613.554	8948.04
613.911	8909.4
614.267	8896.97
614.624	8953.24
614.98	8887.48
615.337	8934.71
615.693	8943.07
616.05	8920.92
616.406	8986.23
616.762	8909.17
617.118	8962.05
617.475	8934.93
617.831	8984.65
618.187	8916.86
618.543	8964.76
618.899	9058.32
619.255	8999.79
619.611	9010.41
619.967	8983.52
620.323	8960.24
620.678	8993.01
621.034	8971.32
621.39	8953.92
621.746	8901.04
622.101	9063.07
622.457	9026.46
622.812	9015.16
623.168	8997.08
623.523	9012.9
623.879	9047.47
624.234	8970.64
624.589	9005.44
624.945	9003.18
625.3	8979
625.655	9008.15
626.01	8974.71
626.365	9035.27
626.72	8970.64
627.075	9000.7
627.43	8984.65
627.785	8992.56
628.14	8977.65
628.495	8965.44
628.85	8967.02
629.205	8926.35
629.559	8949.17
629.914	8891.55
630.269	8908.04
630.623	8954.6
630.978	8886.12
631.332	8977.42
631.687	8919.79
632.041	8915.27
632.396	8939.68
632.75	8811.55
633.104	8895.84
633.459	8891.09
633.813	8829.17
634.167	8877.76
634.521	8862.17
634.875	8845.22
635.229	8800.7
635.583	8777.42
635.937	8825.11
636.291	8749.4
636.645	8739.01
636.999	8725
637.352	8728.84
637.706	8692.23
638.06	8786.46
638.413	8775.39
638.767	8669.63
639.121	8680.7
639.474	8614.94
639.828	8687.03
640.181	8681.61
640.534	8667.6
640.888	8640.71
641.241	8545.11
641.594	8640.71
641.947	8607.71
642.301	8591.44
642.654	8568.16
643.007	8552.8
643.36	8582.63
643.713	8560.03
644.066	8593.47
644.419	8549.41
644.771	8484.1
645.124	8434.83
645.477	8407.72
645.83	8341.05
646.182	8300.83
646.535	8306.25
646.888	8368.17
647.24	8343.76
647.593	8292.01
647.945	8338.79
648.298	8296.99
648.65	8300.15
649.002	8312.13
649.355	8307.83
649.707	8318.45
650.059	8329.53
650.411	8427.15
650.763	8438.9
651.115	8540.14
651.467	8482.07
651.819	8469.41
652.171	8482.74
652.523	8469.41
652.875	8427.83
653.227	8443.87
653.578	8450.65
653.93	8501.73
654.282	8471.9
654.633	8370.88
654.985	8424.67
655.337	8473.25
655.688	8515.06
656.039	8527.49
656.391	8470.31
656.742	8416.53
657.094	8436.87
657.445	8553.7
657.796	8476.42
658.147	8486.13
658.498	8500.37
658.849	8478
659.2	8463.76
659.551	8441.16
659.902	8484.32
660.253	8465.79
660.604	8518.22
660.955	8429.19
661.306	8512.57
661.656	8453.37
662.007	8501.5
662.358	8545.11
662.708	8493.14
663.059	8545.79
663.409	8479.81
663.76	8551.44
664.11	8512.12
664.461	8514.15
664.811	8545.57
665.161	8546.47
665.511	8549.18
665.862	8474.83
666.212	8535.85
666.562	8538.79
666.912	8475.06
667.262	8479.35
667.612	8484.78
667.962	8514.83
668.312	8499.92
668.662	8496.53
669.011	8484.55
669.361	8518.9
669.711	8540.37
670.06	8504.66
670.41	8492.01
670.76	8525.45
671.109	8535.62
671.459	8516.87
671.808	8441.16
672.157	8419.69
672.507	8454.04
672.856	8505.12
673.205	8497.21
673.554	8465.57
673.904	8415.4
674.253	8446.81
674.602	8438.45
674.951	8365.01
675.3	8299.7
675.649	8494.27
675.998	8372.92
676.346	8423.76
676.695	8418.79
677.044	8362.75
677.393	8358.23
677.741	8417.66
678.09	8395.06
678.438	8351
678.787	8312.35
679.135	8346.93
679.484	8232.81
679.832	8307.38
680.181	8259.7
680.529	8303.31
680.877	8217.89
681.225	8280.26
681.573	8268.06
681.922	8206.59
682.27	8229.42
682.618	8170.89
682.966	8143.32
683.314	8177.67
683.661	8177.21
684.009	8148.74
684.357	8073.94
684.705	8074.62
685.053	8120.49
685.4	8083.21
685.748	8041.17
686.095	7987.61
686.443	7980.38
686.79	7989.2
687.138	7991.46
687.485	7962.76
687.832	7980.84
688.18	7922.08
688.527	7878.69
688.874	7865.81
689.221	7846.6
689.568	7828.52
689.915	7785.36
690.262	7799.6
690.609	7790.56
690.956	7710.79
691.303	7750.78
691.65	7678.02
691.997	7679.15
692.344	7655.42
692.69	7611.81
693.037	7583.78
693.383	7552.82
693.73	7526.61
694.077	7536.78
694.423	7501.3
694.769	7408.87
695.116	7446.16
695.462	7466.27
695.808	7369.55
696.155	7377.46
696.501	7271.48
696.847	7327.29
697.193	7256.79
697.539	7285.26
697.885	7247.75
698.231	7156.45
698.577	7182.66
698.923	7197.58
699.269	7161.87
699.614	7046.17
699.96	7039.84
700.306	7136.79
700.651	7001.88
700.997	6978.38
701.342	6968.66
701.688	6925.95
702.033	6900.64
702.379	6848.89
702.724	6894.54
703.069	6857.48
703.415	6814.31
703.76	6814.76
704.105	6803.47
704.45	6753.07
704.795	6704.94
705.14	6745.84
705.485	6636.69
705.83	6678.72
706.175	6707.2
706.52	6601.89
706.865	6628.1
707.209	6624.49
707.554	6600.53
707.899	6631.94
708.243	6564.83
708.588	6558.5
708.932	6543.59
709.277	6492.96
709.621	6526.41
709.966	6444.15
710.31	6442.12
710.654	6402.35
710.998	6431.72
711.342	6443.93
711.687	6363.48
712.031	6406.87
712.375	6341.1
712.719	6389.24
713.063	6300.2
713.407	6403.93
713.75	6302.91
714.094	6278.28
714.438	6289.58
714.782	6264.72
715.125	6271.05
715.469	6274.44
715.812	6238.96
716.156	6222.24
716.499	6188.57
716.843	6247.55
717.186	6169.36
717.53	6237.6
717.873	6212.52
718.216	6181.33
718.559	6174.56
718.902	6120.09
719.246	6183.37
719.589	6120.09
719.932	6055.24
720.275	6108.34
720.617	6122.81
720.96	6069.02
721.303	6018.85
721.646	6116.7
721.989	6031.96
722.331	6034.9
722.674	6020.66
723.016	6092.3
723.359	6053.2
723.701	6022.47
724.044	6071.73
724.386	5996.71
724.729	6045.52
725.071	6016.82
725.413	5995.12
725.755	6012.75
726.097	6005.52
726.439	5992.87
726.782	5981.57
727.124	5964.39
727.465	5982.02
727.807	5991.28
728.149	5947.89
728.491	5982.92
728.833	5977.27
729.175	6013.66
729.516	5923.49
729.858	5985.63
730.199	5963.49
730.541	5944.5
730.882	5978.4
731.224	5952.87
731.565	5949.48
731.906	5990.38
732.248	5983.6
732.589	5953.54
732.93	5932.75
733.271	5979.76
733.612	5958.74
733.953	5962.36
734.294	5986.31
734.635	5928.01
734.976	5968.23
735.317	5953.54
735.658	5960.78
735.999	5992.19
736.339	5963.26
736.68	6000.55
737.021	5965.3
737.361	5954.45
737.702	5980.89
738.042	5976.14
738.383	5968.68
738.723	6079.19
739.063	5990.38
739.404	6056.59
739.744	6089.36
740.084	6008.91
740.424	6041.68
740.764	6094.56
741.104	6067.89
741.444	6105.4
741.784	6090.04
742.124	6121.45
742.464	6114.67
742.804	6121.22
743.143	6167.32
743.483	6207.32
743.823	6209.36
744.162	6227.66
744.502	6273.99
744.841	6249.13
745.181	6339.97
745.52	6387.66
745.86	6403.7
746.199	6466.98
746.538	6458.39
746.877	6468.33
747.216	6543.81
747.556	6567.54
747.895	6567.09
748.234	6648.22
748.573	6682.56
748.911	6756.01
749.25	6804.82
749.589	6886.4
749.928	6866.51
750.267	6918.72
750.605	7045.04
750.944	7076.9
751.283	7175.88
751.621	7261.98
751.96	7333.39
752.298	7449.78
752.636	7558.93
752.975	7638.47
753.313	7657.23
753.651	7819.94
753.989	7918.69
754.327	7945.58
754.666	8032.36
755.004	8204.33
755.342	8365.68
755.679	8496.53
756.017	8611.55
756.355	8784.43
756.693	8868.27
757.031	9014.03
757.368	9118.66
757.706	9270.29
758.044	9429.84
758.381	9590.51
758.719	9708.25
759.056	9949.15
759.394	9971.97
759.731	10207.67
760.068	10383.94
760.405	10520.43
760.743	10668.22
761.08	10876.8
761.417	11027.53
761.754	11199.73
762.091	11339.39
762.428	11620.97
762.765	11611.7
763.102	11961.75
763.438	12006.04
763.775	12211.01
764.112	12393.6
764.449	12605.12
764.785	12779.58
765.122	12891.21
765.458	12962.85
765.795	13269.28
766.131	13436.06
766.467	13515.61
766.804	13694.13
767.14	13900.23
767.476	13980.68
767.812	14081.24
768.148	14361.68
768.485	14445.07
768.821	14482.81
769.157	14720.55
769.492	14765.52
769.828	14945.17
770.164	15069.69
770.5	15191.04
770.836	15347.42
771.171	15401.66
771.507	15434.88
771.842	15561.43
772.178	15741.99
772.513	15768.2
772.849	15917.12
773.184	15942.43
773.519	16104.69
773.855	16097.23
774.19	16289.32
774.525	16333.16
774.86	16395.53
775.195	16439.6
775.53	16563.66
775.865	16612.7
776.2	16591
776.535	16568.63
776.87	16800.04
777.205	16809.53
777.539	16809.3
777.874	16934.5
778.209	16903.99
778.543	16970.66
778.878	16985.12
779.212	17085
779.547	17053.14
779.881	17120.26
780.215	17089.75
780.55	17303.3
780.884	17117.54
781.218	17187.6
781.552	17266.69
781.886	17229.18
782.22	17301.27
782.554	17240.03
782.888	17148.05
783.222	17221.5
783.556	17204.55
783.889	17110.54
784.223	17060.6
784.557	17036.19
784.89	17227.82
785.224	17190.76
785.557	17071.22
785.891	17177.88
786.224	17173.36
786.558	17208.84
786.891	17066.92
787.224	17094.27
787.557	17073.7
787.891	17113.93
788.224	17074.83
788.557	17072.35
788.89	17128.17
789.223	17093.36
789.556	17141.5
789.888	17032.35
790.221	17063.31
790.554	16925.46
790.887	17027.15
791.219	16845.69
791.552	16903.54
791.884	16824.22
792.217	16924.55
792.549	16852.92
792.882	16766.37
793.214	16638.46
793.546	16788.51
793.879	16643.88
794.211	16572.02
794.543	16662.19
794.875	16682.08
795.207	16728.18
795.539	16645.92
795.871	16542.42
796.203	16559.82
796.535	16415.87
796.867	16438.92
797.198	16441.18
797.53	16377.68
797.862	16401.86
798.193	16323.89
798.525	16252.03
798.856	16177
799.188	16081.87
799.519	16103.79
799.85	16007.29
800.182	16044.8
800.513	16029.44
800.844	15908.54
801.175	15949.44
801.506	15963.45
801.837	15888.2
802.168	15913.96
802.499	15747.18
802.83	15756.45
803.161	15794.87
803.491	15711.48
803.822	15721.65
804.153	15690.92
804.483	15548.77
804.814	15618.83
805.145	15528.66
805.475	15570.01
805.805	15474.42
806.136	15566.4
806.466	15445.72
806.796	15468.1
807.126	15322.79
807.457	15290.93
807.787	15363.01
808.117	15285.73
808.447	15243.92
808.777	15289.12
809.107	15226.29
809.436	15132.96
809.766	15147.88
810.096	15030.82
810.426	15086.41
810.755	14987.2
811.085	15004.83
811.414	15085.73
811.744	14932.52
812.073	14949.92
812.403	14791.96
812.732	14800.54
813.061	14835.12
813.39	14746.99
813.719	14826.76
814.049	14839.86
814.378	14763.03
814.707	14724.39
815.036	14754.22
815.365	14607.55
815.693	14529.82
816.022	14566.2
816.351	14498.86
816.68	14473.55
817.008	14556.71
817.337	14444.62
817.665	14424.51
817.994	14425.19
818.322	14361.46
818.651	14353.78
818.979	14226.09
819.307	14359.2
819.636	14238.75
819.964	14241.91
820.292	14247.79
820.62	14264.29
820.948	14182.25
821.276	14262.93
821.604	14218.19
821.932	14248.02
822.259	14252.08
822.587	14182.25
822.915	14228.13
823.243	14235.59
823.57	14196.04
823.898	14241.69
824.225	14155.59
824.553	14216.15
824.88	14228.58
825.207	14273.1
825.535	14209.37
825.862	14284.17
826.189	14176.15
826.516	14163.27
826.843	14266.55
827.17	14257.28
827.497	14308.13
827.824	14323.04
828.151	14319.2
828.478	14225.87
828.805	14359.42
829.131	14230.39
829.458	14220.22
829.785	14288.24
830.111	14318.75
830.438	14330.27
830.764	14271.97
831.09	14229.26
831.417	14227
831.743	14315.81
832.069	14246.89
832.395	14083.73
832.722	14239.2
833.048	14238.3
833.374	14240.33
833.7	14044.4
834.026	14133.89
834.351	14163.95
834.677	14295.47
835.003	14109.94
835.329	14106.78
835.654	14104.97
835.98	14048.25
836.306	14019.32
836.631	14012.09
836.956	14123.27
837.282	14036.5
837.607	14027
837.932	14041.24
838.258	14005.99
838.583	13927.12
838.908	13986.55
839.233	13910.17
839.558	13907.01
839.883	13817.29
840.208	13751.98
840.533	13791.08
840.858	13805.31
841.182	13750.63
841.507	13713.57
841.832	13614.36
842.156	13625.43
842.481	13669.5
842.805	13585.89
843.13	13588.15
843.454	13519.9
843.778	13472.89
844.103	13534.14
844.427	13459.11
844.751	13437.42
845.075	13327.36
845.399	13424.53
845.723	13290.98
846.047	13337.98
846.371	13262.05
846.695	13162.85
847.019	13216.63
847.343	13032.91
847.666	12974.83
847.99	12926.92
848.313	12873.81
848.637	12809.86
848.96	12860.93
849.284	12794.72
849.607	12667.49
849.931	12714.27
850.254	12600.6
850.577	12610.32
850.9	12474.28
851.223	12463.2
851.546	12503.43
851.869	12292.81
852.192	12387.27
852.515	12268.41
852.838	12268.63
853.161	12316.77
853.483	12176.66
853.806	12172.59
854.129	12175.3
854.451	12020.05
854.774	12002.88
855.096	12022.76
855.419	11898.92
855.741	11908.87
856.063	11811.7
856.385	11915.65
856.708	11747.06
857.03	11727.86
857.352	11753.17
857.674	11712.94
857.996	11588.88
858.318	11540.52
858.64	11582.32
858.961	11586.39
859.283	11535.54
859.605	11459.61
859.926	11561.53
860.248	11434.76
860.57	11360.63
860.891	11419.16
861.212	11337.58
861.534	11313.86
861.855	11270.92
862.176	11191.37
862.498	11215.55
862.819	11165.84
863.14	11135.1
863.461	11155.44
863.782	11159.06
864.103	11125.84
864.424	11077.03
864.745	11121.77
865.065	11056.69
865.386	11030.92
865.707	11002.22
866.027	11041.77
866.348	10993.64
866.668	10930.14
866.989	10947.09
867.309	10875.67
867.63	10911.83
867.95	10931.72
868.27	10837.26
868.59	10872.28
868.91	10870.7
869.23	10832.51
869.55	10668.9
869.87	10797.71
870.19	10810.82
870.51	10776.24
870.83	10745.51
871.15	10726.3
871.469	10676.58
871.789	10677.94
872.109	10645.62
872.428	10692.18
872.748	10680.2
873.067	10608.11
873.386	10664.38
873.706	10568.56
874.025	10568.11
874.344	10529.02
874.663	10640.43
874.982	10555.23
875.301	10564.27
875.62	10447.44
875.939	10507.77
876.258	10447.89
876.577	10472.52
876.896	10426.19
877.214	10384.84
877.533	10437.95
877.852	10349.81
878.17	10342.36
878.489	10370.15
878.807	10357.5
879.125	10318.63
879.444	10260.32
879.762	10276.37
880.08	10324.28
880.398	10183.04
880.716	10163.38
881.034	10169.93
881.352	10220.55
881.67	10097.84
881.988	10197.5
882.306	10100.1
882.624	10088.35
882.941	9941.46
883.259	10014
883.577	9969.26
883.894	10015.36
884.212	9917.73
884.529	9964.74
884.846	9957.28
885.164	9985.75
885.481	9895.81
885.798	9911.63
886.115	9804.74
886.432	9803.16
886.75	9802.93
887.067	9754.57
887.383	9743.5
887.7	9759.77
888.017	9706.21
888.334	9715.93
888.651	9661.24
888.967	9616.05
889.284	9586.89
889.6	9563.62
889.917	9543.05
890.233	9472.1
890.55	9524.98
890.866	9518.2
891.182	9471.87
891.498	9430.74
891.815	9347.81
892.131	9289.5
892.447	9315.26
892.763	9307.35
893.079	9334.7
893.395	9235.04
893.71	9216.28
894.026	9268.03
894.342	9100.81
894.657	9101.03
894.973	9128.38
895.289	9100.81
895.604	9056.97
895.92	8971.32
896.235	8901.26
896.55	9001.83
896.865	8892.68
897.181	8885.22
897.496	8839.34
897.811	8820.14
898.126	8767.48
898.441	8743.98
898.756	8778.1
899.071	8649.07
899.386	8703.75
899.7	8585.79
900.015	8593.7
900.33	8534.27
900.644	8508.96
900.959	8499.92
901.273	8486.13
901.588	8478
901.902	8428.28
902.216	8380.82
902.531	8330.88
902.845	8315.06
903.159	8283.88
903.473	8227.61
903.787	8205.01
904.101	8112.58
904.415	8104
904.729	8146.48
905.042	8083.66
905.356	8008.86
905.67	8049.53
905.984	8035.98
906.297	7985.36
906.611	7858.58
906.924	7958.46
907.237	7868.3
907.551	7826.26
907.864	7843.66
908.177	7828.75
908.491	7791.24
908.804	7742.42
909.117	7620.62
909.43	7669.21
909.743	7605.93
910.056	7589.21
910.368	7577
910.681	7531.81
910.994	7475.99
911.307	7472.6
911.619	7406.61
911.932	7385.6
912.244	7335.65
912.557	7332.04
912.869	7261.53
913.181	7282.1
913.494	7215.43
913.806	7201.42
914.118	7238.71
914.43	7118.71
914.742	7156.45
915.054	7084.36
915.366	7074.87
915.678	7005.04
915.99	6982.67
916.302	6917.81
916.613	6972.05
916.925	6945.16
917.236	6914.65
917.548	6865.84
917.859	6875.55
918.171	6817.93
918.482	6812.5
918.794	6793.07
919.105	6764.14
919.416	6701.32
919.727	6693.41
920.038	6691.15
920.349	6596.01
920.66	6594.66
920.971	6624.03
921.282	6594.66
921.593	6527.09
921.903	6473.76
922.214	6502.46
922.525	6463.14
922.835	6426.07
923.146	6398.73
923.456	6424.27
923.767	6349.69
924.077	6302.24
924.387	6354.66
924.697	6237.15
925.008	6265.63
925.318	6235.34
925.628	6234.21
925.938	6184.27
926.248	6146.31
926.558	6136.14
926.867	6094.56
927.177	6069.93
927.487	6049.36
927.796	6002.36
928.106	6009.36
928.416	6015.92
928.725	5977.05
929.034	5890.95
929.344	5898.4
929.653	5899.31
929.962	5827.45
930.271	5805.07
930.581	5840.33
930.89	5782.7
931.199	5749.93
931.508	5789.25
931.817	5681.69
932.125	5697.05
932.434	5676.04
932.743	5608.47
933.051	5623.84
933.36	5623.38
933.669	5517.4
933.977	5531.18
934.286	5514.01
934.594	5516.72
934.902	5478.3
935.21	5441.69
935.519	5469.71
935.827	5419.09
936.135	5399.66
936.443	5371.19
936.751	5318.98
937.059	5356.05
937.367	5330.28
937.674	5304.75
937.982	5259.55
938.29	5291.19
938.597	5261.13
938.905	5137.07
939.213	5166.22
939.52	5153.34
939.827	5118.99
940.135	5109.27
940.442	5149.05
940.749	5061.59
941.056	5055.71
941.363	5007.13
941.67	5008.26
941.977	4940.46
942.284	4958.09
942.591	4904.76
942.898	4922.38
943.205	4905.66
943.511	4864.76
943.818	4845.32
944.125	4796.51
944.431	4808.72
944.738	4793.35
945.044	4754.03
945.35	4765.33
945.657	4711.32
945.963	4760.81
946.269	4699.79
946.575	4679.68
946.881	4656.18
947.187	4623.41
947.493	4601.04
947.799	4558.33
948.105	4587.48
948.41	4507.48
948.716	4552.22
949.022	4540.7
949.327	4493.47
949.633	4572.11
949.938	4499.8
950.244	4434.04
950.549	4392.46
950.854	4369.4
951.16	4331.67
951.465	4397.2
951.77	4386.35
952.075	4321.27
952.38	4302.51
952.685	4250.76
952.99	4248.05
953.294	4223.65
953.599	4246.47
953.904	4211.44
954.209	4170.77
954.513	4195.4
954.818	4154.72
955.122	4135.96
955.426	4154.72
955.731	4115.4
956.035	4091.67
956.339	4093.93
956.643	4030.43
956.948	4018.23
957.252	4017.78
957.556	4008.28
957.86	4006.48
958.163	3972.13
958.467	3926.93
958.771	3980.94
959.075	3943.2
959.378	3923.09
959.682	3923.99
959.985	3855.97
960.289	3877.67
960.592	3841.28
960.896	3807.39
961.199	3785.69
961.502	3750.21
961.805	3794.28
962.108	3780.27
962.411	3731.46
962.714	3703.89
963.017	3667.05
963.32	3698.01
963.623	3669.31
963.926	3635.41
964.228	3651.46
964.531	3652.36
964.833	3592.7
965.136	3587.73
965.438	3543.21
965.741	3528.98
966.043	3520.16
966.345	3533.95
966.648	3502.76
966.95	3492.14
967.252	3468.86
967.554	3499.37
967.856	3455.98
968.158	3447.85
968.46	3408.75
968.761	3437.68
969.063	3418.47
969.365	3338.25
969.666	3359.71
969.968	3342.31
970.269	3332.14
970.571	3308.87
970.872	3324.23
971.174	3277.46
971.475	3318.13
971.776	3290.79
972.077	3253.05
972.378	3255.99
972.679	3215.99
972.98	3202.88
973.281	3202.66
973.582	3190.45
973.883	3151.58
974.183	3145.48
974.484	3115.43
974.785	3141.87
975.085	3091.7
975.386	3105.71
975.686	3078.82
975.986	3087.4
976.287	3070.91
976.587	3035.65
976.887	3005.37
977.187	3030.68
977.487	3050.8
977.787	3022.32
978.087	2977.35
978.387	2960.4
978.687	2919.27
978.987	2960.18
979.286	2930.35
979.586	2948.2
979.885	2914.75
980.185	2909.56
980.484	2839.05
980.784	2872.95
981.083	2832.04
981.382	2841.31
981.682	2844.7
981.981	2817.36
982.28	2793.4
982.579	2778.49
982.878	2764.7
983.177	2751.37
983.475	2783.91
983.774	2733.97
984.073	2707.98
984.372	2681.77
984.67	2719.05
984.969	2700.07
985.267	2701.43
985.566	2675.66
985.864	2631.15
986.162	2640.41
986.461	2594.54
986.759	2635.44
987.057	2599.96
987.355	2568.32
987.653	2574.2
987.951	2544.14
988.249	2541.2
988.547	2557.93
988.844	2499.4
989.142	2524.03
989.44	2519.06
989.737	2519.28
990.035	2465.5
990.332	2478.16
990.63	2446.97
990.927	2438.38
991.224	2415.33
991.521	2448.1
991.819	2423.24
992.116	2392.73
992.413	2359.06
992.71	2404.03
993.006	2385.28
993.303	2366.75
993.6	2358.16
993.897	2339.4
994.193	2341.44
994.49	2300.76
994.787	2332.62
995.083	2304.6
995.379	2284.26
995.676	2277.48
995.972	2299.18
996.268	2263.02
996.565	2240.65
996.861	2219.4
997.157	2241.78
997.453	2216.02
997.749	2199.74
998.044	2180.08
998.34	2181.44
998.636	2172.63
998.932	2140.08
999.227	2146.64
999.523	2139.41
999.818	2104.83
1000.114	2092.85
1000.409	2088.33
1000.704	2104.83
1001	2099.86
1001.295	2042.01
1001.59	2026.87
1001.885	2061.22
1002.18	2030.26
1002.475	2039.75
1002.77	2034.33
1003.065	2019.64
1003.359	2013.31
1003.654	1984.16
1003.949	1980.77
1004.243	1944.16
1004.538	1921.56
1004.832	1943.71
1005.127	1961.11
1005.421	1932.86
1005.715	1920.88
1006.009	1912.97
1006.304	1880.66
1006.598	1848.12
1006.892	1888.79
1007.186	1854.44
1007.48	1843.37
1007.773	1850.15
1008.067	1803.14
1008.361	1770.15
1008.655	1792.98
1008.948	1804.95
1009.242	1753.88
1009.535	1790.94
1009.829	1762.02
1010.122	1726.54
1010.415	1732.41
1010.708	1712.07
1011.001	1747.55
1011.295	1711.62
1011.588	1708.68
1011.881	1670.04
1012.173	1680.66
1012.466	1675.69
1012.759	1682.02
1013.052	1644.28
1013.344	1652.64
1013.637	1652.41
1013.93	1636.82
1014.222	1631.4
1014.514	1623.71
1014.807	1620.32
1015.099	1611.06
1015.391	1593.21
1015.683	1559.76
1015.976	1559.08
1016.268	1570.61
1016.56	1553.21
1016.851	1554.11
1017.143	1545.07
1017.435	1537.39
1017.727	1510.95
1018.018	1494.45
1018.31	1468.24
1018.602	1491.29
1018.893	1497.84
1019.185	1462.36
1019.476	1474.57
1019.767	1420.1
1020.058	1411.29
1020.35	1420.78
1020.641	1416.49
1020.932	1377.39
1021.223	1374.68
1021.514	1398.86
1021.804	1376.49
1022.095	1378.07
1022.386	1382.59
1022.677	1368.13
1022.967	1346.66
1023.258	1328.81
1023.548	1329.03
1023.839	1314.8
1024.129	1309.15
1024.419	1326.55
1024.709	1302.59
1025	1282.03
1025.29	1286.55
1025.58	1304.85
1025.87	1259.66
1026.16	1268.24
1026.449	1260.11
1026.739	1203.16
1027.029	1232.54
1027.319	1224.4
1027.608	1179.21
1027.898	1214.46
1028.187	1201.8
1028.477	1208.81
1028.766	1176.95
1029.055	1158.64
1029.344	1161.81
1029.634	1144.86
1029.923	1157.74
1030.212	1155.93
1030.501	1136.95
1030.79	1139.21
1031.078	1136.27
1031.367	1119.55
1031.656	1117.96
1031.945	1082.49
1032.233	1104.86
1032.522	1098.98
1032.81	1081.13
1033.099	1067.57
1033.387	1081.13
1033.675	1051.75
1033.963	1030.51
1034.251	1019.21
1034.54	1021.02
1034.828	1023.5
1035.116	1035.03
1035.403	1023.96
1035.691	997.52
1035.979	1009.72
1036.267	1013.33
1036.554	996.16
1036.842	983.28
1037.129	955.94
1037.417	954.81
1037.704	960.23
1037.992	945.54
1038.279	947.8
1038.566	938.08
1038.853	938.08
1039.14	938.08
