Data from hue_32_FLMS001491_00075.txt Node
Date: Tue Feb 07 17:23:53 GMT 2017
User: dcchb
Spectrometer: FLMS00149
Trigger mode: 0
Integration Time (sec): 2.000000E-2
Scans to average: 10
Electric dark correction enabled: true
Nonlinearity correction enabled: false
Boxcar width: 0
XAxis mode: Wavelengths
Number of Pixels in Spectrum: 2048
>>>>>Begin Spectral Data<<<<<
341.393	-3.04
341.776	-3.04
342.16	-3.04
342.543	-52.53
342.927	-61.57
343.31	-67.22
343.693	-70.38
344.077	-63.15
344.46	-54.11
344.843	-51.4
345.226	-42.81
345.61	-33.54
345.993	-16.37
346.376	-2.36
346.759	3.97
347.142	25.44
347.525	30.86
347.908	71.99
348.291	61.82
348.674	89.62
349.057	117.64
349.44	133
349.823	134.81
350.206	164.64
350.588	178.43
350.971	214.36
351.354	243.51
351.737	243.28
352.119	256.39
352.502	256.84
352.884	274.24
353.267	279.67
353.65	286
354.032	284.41
354.414	316.05
354.797	316.05
355.179	309.05
355.562	344.98
355.944	330.06
356.326	311.98
356.709	331.42
357.091	327.58
357.473	347.01
357.855	345.43
358.238	346.56
358.62	350.17
359.002	345.43
359.384	329.38
359.766	344.98
360.148	334.13
360.53	347.91
360.912	330.97
361.294	348.59
361.676	338.2
362.057	325.99
362.439	335.49
362.821	340.01
363.203	327.35
363.584	316.95
363.966	310.4
364.348	332.1
364.729	335.49
365.111	313.57
365.493	331.87
365.874	295.71
366.256	306.33
366.637	308.59
367.019	341.14
367.4	326.22
367.781	327.12
368.163	341.36
368.544	308.14
368.925	329.38
369.306	331.64
369.688	318.54
370.069	298.88
370.45	318.99
370.831	308.14
371.212	309.05
371.593	312.21
371.974	324.41
372.355	293
372.736	311.53
373.117	327.12
373.498	322.15
373.879	319.21
374.26	315.37
374.641	337.97
375.021	303.4
375.402	338.65
375.783	331.19
376.163	320.34
376.544	330.51
376.925	337.52
377.305	321.7
377.686	339.55
378.066	333.9
378.447	331.87
378.827	316.73
379.208	324.86
379.588	345.88
379.968	343.85
380.349	323.96
380.729	358.99
381.109	354.02
381.489	332.1
381.87	330.06
382.25	335.26
382.63	330.29
383.01	335.71
383.39	342.49
383.77	360.34
384.15	353.79
384.53	347.24
384.91	334.36
385.29	331.19
385.67	338.42
386.049	341.59
386.429	355.15
386.809	345.43
387.189	344.52
387.568	355.15
387.948	346.11
388.328	370.06
388.707	361.02
389.087	367.35
389.466	353.11
389.846	370.96
390.225	368.25
390.605	386.56
390.984	356.5
391.363	360.8
391.743	361.93
392.122	377.97
392.501	389.04
392.881	370.29
393.26	395.14
393.639	360.57
394.018	376.61
394.397	408.03
394.776	379.1
395.155	378.87
395.534	390.17
395.913	379.55
396.292	403.73
396.671	377.97
397.05	393.56
397.429	398.99
397.808	388.37
398.186	390.85
398.565	388.14
398.944	384.52
399.323	391.76
399.701	389.27
400.08	392.89
400.458	394.69
400.837	409.16
401.215	410.51
401.594	414.35
401.972	417.07
402.351	400.79
402.729	411.42
403.107	401.25
403.486	407.57
403.864	401.92
404.242	414.35
404.62	420.23
404.999	420.23
405.377	416.61
405.755	410.06
406.133	431.08
406.511	416.16
406.889	431.53
407.267	437.18
407.645	431.53
408.023	438.53
408.401	443.05
408.779	434.47
409.156	456.84
409.534	443.73
409.912	436.27
410.29	444.41
410.667	468.36
411.045	460.23
411.422	462.71
411.8	452.32
412.178	473.11
412.555	465.43
412.933	452.32
413.31	452.54
413.687	469.04
414.065	487.35
414.442	477.18
414.819	464.07
415.197	495.48
415.574	482.37
415.951	493.9
416.328	503.62
416.705	495.26
417.082	483.73
417.46	499.1
417.837	493.67
418.214	512.88
418.591	494.58
418.967	520.79
419.344	516.05
419.721	525.31
420.098	498.19
420.475	500.45
420.852	530.06
421.228	533.67
421.605	540.23
421.982	532.77
422.358	515.37
422.735	548.36
423.111	545.88
423.488	575.71
423.864	530.73
424.241	565.31
424.617	577.51
424.994	571.86
425.37	561.92
425.746	584.29
426.123	575.03
426.499	575.03
426.875	593.78
427.251	577.06
427.627	605.53
428.003	578.87
428.379	614.57
428.756	598.08
429.132	589.49
429.507	606.21
429.883	632.2
430.259	612.77
430.635	628.36
431.011	613.67
431.387	619.55
431.763	649.6
432.138	631.75
432.514	648.92
432.89	648.47
433.265	660.22
433.641	677.62
434.016	671.07
434.392	666.55
434.767	676.95
435.143	701.35
435.518	672.2
435.894	707.91
436.269	689.15
436.644	692.76
437.02	710.62
437.395	692.99
437.77	723.72
438.145	719.66
438.52	721.92
438.895	726.66
439.271	740.22
439.646	748.81
440.021	729.37
440.395	737.51
440.77	731.63
441.145	751.75
441.52	762.37
441.895	781.58
442.27	765.98
442.645	763.27
443.019	777.96
443.394	773.21
443.769	792.42
444.143	786.1
444.518	798.07
444.892	775.25
445.267	798.52
445.641	824.96
446.016	801.01
446.39	826.55
446.764	826.55
447.139	833.1
447.513	816.83
447.887	828.58
448.262	808.47
448.636	817.51
449.01	872.65
449.384	845.75
449.758	851.4
450.132	851.18
450.506	865.64
450.88	897.05
451.254	871.29
451.628	875.36
452.002	864.74
452.376	909.71
452.75	904.74
453.123	906.54
453.497	911.29
453.871	906.32
454.244	923.72
454.618	927.33
454.992	949.25
455.365	949.93
455.739	978.18
456.112	978.18
456.486	975.92
456.859	1011.17
457.232	997.16
457.606	996.71
457.979	995.58
458.352	1034.68
458.725	1055.69
459.099	1058.86
459.472	1071.74
459.845	1074.9
460.218	1072.19
460.591	1080.1
460.964	1091.85
461.337	1109.7
461.71	1144.05
462.083	1154.9
462.456	1156.93
462.829	1147.22
463.201	1200.77
463.574	1173.2
463.947	1195.12
464.32	1225.63
464.692	1246.65
465.065	1231.51
465.438	1247.78
465.81	1288.91
466.183	1285.97
466.555	1315.57
466.928	1295.91
467.3	1321
467.672	1336.36
468.045	1413.88
468.417	1390.83
468.789	1414.33
469.161	1444.16
469.534	1443.93
469.906	1456.36
470.278	1496.58
470.65	1491.16
471.022	1520.77
471.394	1562.57
471.766	1597.15
472.138	1599.41
472.51	1657.71
472.882	1657.03
473.253	1689.12
473.625	1752.17
473.997	1751.95
474.369	1789.91
474.74	1804.15
475.112	1854.09
475.484	1886.18
475.855	1912.17
476.227	1945.61
476.598	1997.81
476.97	2008.66
477.341	2073.52
477.713	2118.04
478.084	2173.86
478.455	2200.97
478.827	2226.06
479.198	2288.43
479.569	2357.35
479.94	2438.93
480.311	2442.77
480.682	2523.9
481.053	2602.09
481.424	2667.63
481.795	2710.79
482.166	2744.69
482.537	2801.64
482.908	2888.86
483.279	2934.06
483.65	3041.63
484.021	3123.43
484.391	3176.99
484.762	3196.65
485.133	3261.51
485.503	3298.35
485.874	3395.52
486.244	3485.23
486.615	3590.32
486.985	3667.6
487.356	3689.97
487.726	3800.48
488.097	3885.9
488.467	3976.52
488.837	4099.45
489.207	4132.22
489.578	4208.38
489.948	4283.86
490.318	4363.85
490.688	4456.06
491.058	4515.49
491.428	4606.33
491.798	4656.95
492.168	4772.66
492.538	4816.72
492.908	4940.79
493.278	5048.58
493.648	5144.4
494.017	5130.61
494.387	5265.75
494.757	5273.43
495.126	5385.52
495.496	5428.91
495.866	5502.13
496.235	5575.35
496.605	5674.33
496.974	5760.43
497.344	5796.81
497.713	5918.84
498.082	5945.51
498.452	6051.95
498.821	6125.39
499.19	6132.4
499.559	6237.7
499.928	6272.05
500.298	6335.55
500.667	6376.91
501.036	6465.27
501.405	6533.74
501.774	6612.16
502.143	6623
502.512	6728.99
502.88	6755.2
503.249	6760.4
503.618	6848.08
503.987	6896.44
504.356	7002.2
504.724	6981.41
505.093	7091.92
505.462	7097.57
505.83	7169.43
506.199	7254.63
506.567	7374.4
506.936	7307.73
507.304	7407.39
507.672	7464.56
508.041	7520.38
508.409	7580.94
508.777	7636.31
509.145	7722.41
509.514	7720.6
509.882	7853.48
510.25	7813.03
510.618	7841.05
510.986	7912.24
511.354	7975.28
511.722	8074.94
512.09	8112
512.458	8093.7
512.826	8198.1
513.193	8234.94
513.561	8189.06
513.929	8338.21
514.297	8399.23
514.664	8423.41
515.032	8466.12
515.4	8488.27
515.767	8551.31
516.135	8619.56
516.502	8628.37
516.869	8714.25
517.237	8712.89
517.604	8771.65
517.972	8839.67
518.339	8825.66
518.706	8811.65
519.073	8917.18
519.44	8956.95
519.808	9105.42
520.175	9008.03
520.542	9152.65
520.909	9168.7
521.276	9178.42
521.643	9260.22
522.009	9347.45
522.376	9372.54
522.743	9459.77
523.11	9527.33
523.477	9650.27
523.843	9630.83
524.21	9762.58
524.577	9790.38
524.943	9867.89
525.31	9840.77
525.676	9944.95
526.043	9992.63
526.409	9988.57
526.776	10131.84
527.142	10112.4
527.508	10171.16
527.874	10273.53
528.241	10306.07
528.607	10358.95
528.973	10396.01
529.339	10396.01
529.705	10539.29
530.071	10564.37
530.437	10681.88
530.803	10705.83
531.169	10720.98
531.535	10763.69
531.901	10740.64
532.267	10848.2
532.632	10902.21
532.998	10946.73
533.364	11016.56
533.73	11043.68
534.095	11147.18
534.461	11188.76
534.826	11223.33
535.192	11285.48
535.557	11346.04
535.923	11326.38
536.288	11414.52
536.653	11461.07
537.019	11464.91
537.384	11482.54
537.749	11541.74
538.114	11527.96
538.479	11657.22
538.845	11688.41
539.21	11795.52
539.575	11802.08
539.94	11844.11
540.305	11940.6
540.67	11898.57
541.034	11955.29
541.399	12076.65
541.764	12017.21
542.129	12154.38
542.494	12121.16
542.858	12154.84
543.223	12165.91
543.587	12297.43
543.952	12334.49
544.316	12384.43
544.681	12394.38
545.045	12463.53
545.41	12578.33
545.774	12628.5
546.138	12699.91
546.503	12680.47
546.867	12656.97
547.231	12810.41
547.595	12813.8
547.959	12932.22
548.324	12900.35
548.688	12903.29
549.052	13009.28
549.416	12997.98
549.779	13085.43
550.143	13061.03
550.507	13162.27
550.871	13212.44
551.235	13126.56
551.599	13270.06
551.962	13345.76
552.326	13404.07
552.689	13480.45
553.053	13431.19
553.417	13446.78
553.78	13652.88
554.143	13593.67
554.507	13607.23
554.87	13709.37
555.234	13821.68
555.597	13763.61
555.96	13784.4
556.323	13876.15
556.686	13843.15
557.05	14003.83
557.413	13946.2
557.776	14083.15
558.139	14096.48
558.502	14225.74
558.865	14164.95
559.228	14229.13
559.59	14319.75
559.953	14366.08
560.316	14499.86
560.679	14416.92
561.041	14576.24
561.404	14564.72
561.767	14728.78
562.129	14604.04
562.492	14816.23
562.854	14841.09
563.217	14769.46
563.579	14912.05
563.941	14828.89
564.304	14932.62
564.666	15061.2
565.028	15133.29
565.39	15160.63
565.753	15176
566.115	15155.66
566.477	15239.95
566.839	15388.42
567.201	15387.75
567.563	15486.05
567.925	15627.51
568.287	15673.16
568.648	15613.95
569.01	15682.2
569.372	15782.31
569.734	15806.49
570.095	15912.93
570.457	15914.74
570.819	16006.49
571.18	15983.21
571.542	16131.91
571.903	16076.31
572.265	16282.86
572.626	16345.23
572.987	16349.53
573.349	16384.33
573.71	16506.13
574.071	16580.48
574.432	16716.98
574.794	16832
575.155	17033.35
575.516	16916.74
575.877	17037.65
576.238	17159
576.599	17346.79
576.96	17443.06
577.32	17568.48
577.681	17590.85
578.042	17749.72
578.403	17884.63
578.763	17996.04
579.124	18189.48
579.485	18335.01
579.845	18459.75
580.206	18509.7
580.566	18668.79
580.927	18902.23
581.287	19069.91
581.648	19212.05
582.008	19443.01
582.368	19494.53
582.728	19698.37
583.089	19879.6
583.449	20038.24
583.809	20273.72
584.169	20518.68
584.529	20612.01
584.889	21004.09
585.249	21020.82
585.609	21260.36
585.969	21586
586.329	21941.25
586.688	22085.42
587.048	22258.3
587.408	22502.13
587.768	22734.22
588.127	22919.75
588.487	23095.11
588.846	23502.56
589.206	23545.27
589.565	23885.37
589.925	24319.49
590.284	24332.14
590.643	24754.05
591.003	24959.7
591.362	25266.13
591.721	25597.87
592.08	25795.38
592.44	26170.74
592.799	26391.98
593.158	26630.61
593.517	26832.42
593.876	27173.2
594.235	27362.57
594.593	27624.26
594.952	27967.75
595.311	28084.59
595.67	28494.75
596.029	28760.5
596.387	29106.48
596.746	29404.33
597.104	29583.76
597.463	29712.79
597.822	30124.53
598.18	30369.72
598.538	30616.95
598.897	30971.97
599.255	30974.23
599.613	31576.92
599.972	31492.41
600.33	31870.02
600.688	31890.59
601.046	32408.99
601.404	32684.69
601.762	32850.79
602.12	33203.32
602.478	33336.88
602.836	33633.82
603.194	33684.67
603.552	33896.41
603.91	34097.54
604.268	34419.34
604.625	34572.33
604.983	34876.5
605.341	34811.42
605.698	35206.89
606.056	35586.76
606.413	35681.45
606.771	35826.76
607.128	36006.86
607.485	35964.15
607.843	36261.77
608.2	36555.78
608.557	36862.66
608.914	36768.2
609.272	37103.33
609.629	37270.56
609.986	37606.37
610.343	37651.34
610.7	37938.11
611.057	38032.35
611.414	38186.47
611.771	38361.83
612.127	38714.14
612.484	38654.03
612.841	38911.19
613.198	38931.08
613.554	39061.92
613.911	39375.81
614.267	39503.95
614.624	39588.69
614.98	39730.61
615.337	39981
615.693	39991.84
616.05	40112.52
616.406	40351.38
616.762	40460.08
617.118	40356.58
617.475	40440.65
617.831	40779.17
618.187	40750.69
618.543	40984.59
618.899	41397.91
619.255	41215.09
619.611	41198.14
619.967	41533.5
620.323	41682.65
620.678	41528.07
621.034	41586.6
621.39	41760.84
621.746	41643.55
622.101	42243.54
622.457	41902.3
622.812	42037.67
623.168	42171.67
623.523	42136.65
623.879	42391.1
624.234	42169.87
624.589	42425
624.945	42321.95
625.3	42625.9
625.655	42582.74
626.01	42678.1
626.365	42761.49
626.72	42643.3
627.075	42803.07
627.43	42769.62
627.785	42748.16
628.14	42851.88
628.495	42947.47
628.85	42926.46
629.205	42711.09
629.559	43059.33
629.914	42944.53
630.269	43103.85
630.623	42990.41
630.978	42962.39
631.332	42983.4
631.687	43209.16
632.041	43100.24
632.396	43080.35
632.75	43042.39
633.104	43006.23
633.459	42893.24
633.813	43012.1
634.167	43009.39
634.521	43005.78
634.875	43005.55
635.229	42939.79
635.583	42813.69
635.937	42867.93
636.291	42955.83
636.645	43020.01
636.999	42849.62
637.352	43075.6
637.706	42869.28
638.06	42912.67
638.413	42937.3
638.767	42834.26
639.121	42981.14
639.474	42749.51
639.828	42848.94
640.181	42834.26
640.534	42900.47
640.888	42603.98
641.241	42552
641.594	42709.29
641.947	42908.6
642.301	42662.73
642.654	42696.86
643.007	42728.27
643.36	42622.96
643.713	42599.23
644.066	42782.28
644.419	42571.66
644.771	42371.44
645.124	41984.79
645.477	41842.19
645.83	41617.56
646.182	41387.74
646.535	41362.2
646.888	41525.36
647.24	41267.74
647.593	41519.94
647.945	41407.63
648.298	41146.84
648.65	41175.77
649.002	41005.6
649.355	41243.11
649.707	41235.88
650.059	41341.19
650.411	41839.03
650.763	41918.35
651.115	42291.67
651.467	42142.97
651.819	42207.83
652.171	42180.26
652.523	42038.12
652.875	41967.39
653.227	41731.23
653.578	42122.18
653.93	41958.12
654.282	41964.45
654.633	41872.25
654.985	41960.15
655.337	41887.61
655.688	41938.91
656.039	41848.52
656.391	41687.17
656.742	41809.65
657.094	41797.22
657.445	41998.8
657.796	41898.23
658.147	41668.64
658.498	41796.77
658.849	41797.67
659.2	41721.06
659.551	41591.35
659.902	41688.07
660.253	41662.53
660.604	41762.42
660.955	41425.03
661.306	41644.46
661.656	41611.69
662.007	41724.45
662.358	41702.76
662.708	41563.33
663.059	41709.54
663.409	41306.61
663.76	41686.94
664.11	41690.78
664.461	41669.77
664.811	41656.43
665.161	41657.79
665.511	41584.34
665.862	41546.15
666.212	41677
666.562	41688.97
666.912	41560.39
667.262	41515.87
667.612	41537.57
667.962	41583.67
668.312	41396.55
668.662	41698.69
669.011	41576.21
669.361	41524.91
669.711	41538.92
670.06	41415.31
670.41	41150.46
670.76	41264.35
671.109	41453.5
671.459	41486.49
671.808	41242.88
672.157	41415.54
672.507	41071.14
672.856	41121.53
673.205	41225.48
673.554	41405.37
673.904	41178.71
674.253	41317.01
674.602	41234.75
674.951	40574.43
675.3	40406.52
675.649	41111.81
675.998	40957.02
676.346	41169.67
676.695	41272.71
677.044	40890.13
677.393	41044.02
677.741	41133.73
678.09	41091.93
678.438	40913.85
678.787	41088.76
679.135	40940.07
679.484	40684.26
679.832	40741.88
680.181	40617.59
680.529	40764.7
680.877	40675.22
681.225	40616.46
681.573	40909.33
681.922	40511.6
682.27	40466.86
682.618	40515.9
682.966	40170.37
683.314	40456.24
683.661	40362
684.009	40062.35
684.357	40030.04
684.705	40103.25
685.053	40029.58
685.4	40128.34
685.748	39856.71
686.095	39751.17
686.443	39620.78
686.79	39628.24
687.138	39642.25
687.485	39704.39
687.832	39573.78
688.18	39724.96
688.527	39330.17
688.874	39378.98
689.221	39276.61
689.568	39107.12
689.915	39083.17
690.262	39030.97
690.609	38959.78
690.956	38720.92
691.303	38795.49
691.65	38659.22
691.997	38586.91
692.344	38348.95
692.69	38304.2
693.037	38496.29
693.383	38038
693.73	38239.35
694.077	37998.45
694.423	38099.46
694.769	37795.97
695.116	37860.6
695.462	37798.46
695.808	37556.43
696.155	37730.89
696.501	37399.14
696.847	37433.95
697.193	37168.87
697.539	37383.55
697.885	36959.61
698.231	36911.47
698.577	37050
698.923	36840.51
699.269	36574.31
699.614	36506.29
699.96	36612.27
700.306	36603.46
700.651	36303.35
700.997	36425.61
701.342	36283.01
701.688	36175
702.033	35957.83
702.379	36076.24
702.724	35853.87
703.069	35910.37
703.415	35534.33
703.76	35651.85
704.105	35510.61
704.45	35513.09
704.795	35262.93
705.14	35271.52
705.485	35163.04
705.83	35098.87
706.175	35029.04
706.52	34980
706.865	34982.03
707.209	34748.82
707.554	34820.68
707.899	34793.34
708.243	34508.82
708.588	34565.32
708.932	34321.26
709.277	34274.25
709.621	34436.96
709.966	34093.69
710.31	34187.7
710.654	33805.11
710.998	34019.35
711.342	33970.53
711.687	33866.81
712.031	33799.24
712.375	33615.06
712.719	33631.56
713.063	33610.99
713.407	33693.03
713.75	33454.16
714.094	33542.07
714.438	33286.03
714.782	33294.84
715.125	33053.27
715.469	33150.89
715.812	33053.5
716.156	32945.48
716.499	32915.42
716.843	32957.23
717.186	32679.27
717.53	32970.56
717.873	32804.24
718.216	32579.84
718.559	32552.04
718.902	32311.14
719.246	32524.92
719.589	32323.12
719.932	32254.19
720.275	32270.01
720.617	32362.67
720.96	32238.38
721.303	32137.59
721.646	32177.81
721.989	31857.82
722.331	32038.61
722.674	32084.26
723.016	32017.14
723.359	31889.68
723.701	31869.12
724.044	31701.21
724.386	31510.94
724.729	31723.36
725.071	31649.24
725.413	31432.52
725.755	31571.05
726.097	31314.33
726.439	31298.97
726.782	31269.36
727.124	31509.36
727.465	31096.03
727.807	31105.52
728.149	31088.58
728.491	31058.97
728.833	31139.42
729.175	31021.46
729.516	30943.72
729.858	30763.84
730.199	30872.31
730.541	30746.44
730.882	30737.85
731.224	30902.59
731.565	30577.63
731.906	30696.04
732.248	30623.05
732.589	30580.79
732.93	30338.31
733.271	30297.41
733.612	30418.99
733.953	30528.14
734.294	30275.49
734.635	30211.76
734.976	30236.85
735.317	30192.33
735.658	30136.06
735.999	30151.88
736.339	30077.3
736.68	30110.07
737.021	30085.89
737.361	29908.72
737.702	30016.74
738.042	29924.31
738.383	29852.9
738.723	29781.26
739.063	29659.91
739.404	29792.34
739.744	29695.17
740.084	29706.69
740.424	29681.15
740.764	29685.67
741.104	29774.03
741.444	29431.9
741.784	29383.76
742.124	29451.56
742.464	29466.92
742.804	29307.15
743.143	29238.23
743.483	29219.47
743.823	29055.18
744.162	29195.74
744.502	29127.72
744.841	29051.34
745.181	29047.05
745.52	28933.15
745.86	29164.56
746.199	28956.88
746.538	28946.48
746.877	29036.43
747.216	28887.5
747.556	28831.91
747.895	28810.89
748.234	28714.63
748.573	28631.01
748.911	28618.58
749.25	28645.93
749.589	28379.04
749.928	28506.95
750.267	28591.47
750.605	28405.48
750.944	28332.04
751.283	28390.79
751.621	28352.6
751.96	28222.44
752.298	28240.29
752.636	28217.46
752.975	27989
753.313	28021.99
753.651	28031.93
753.989	27904.48
754.327	27912.61
754.666	27759.85
755.004	27824.93
755.342	27779.96
755.679	27801.43
756.017	27690.25
756.355	27675.78
756.693	27558.95
757.031	27610.7
757.368	27307.21
757.706	27342.23
758.044	27203.03
758.381	27306.3
758.719	27184.27
759.056	27256.59
759.394	27086.42
759.731	26951.06
760.068	27017.04
760.405	26919.65
760.743	26692.53
761.08	26800.33
761.417	26669.48
761.754	26459.77
762.091	26532.08
762.428	26312.88
762.765	26290.51
763.102	26263.62
763.438	26191.3
763.775	26037.41
764.112	26125.99
764.449	26201.7
764.785	26054.58
765.122	25777.08
765.458	25680.58
765.795	25717.19
766.131	25578.21
766.467	25631.54
766.804	25536.63
767.14	25323.08
767.476	25383.19
767.812	25208.28
768.148	25262.97
768.485	25070.2
768.821	24958.11
769.157	24986.36
769.492	24898.46
769.828	24889.19
770.164	24636.32
770.5	24529.43
770.836	24516.77
771.171	24328.75
771.507	24416.66
771.842	24107.29
772.178	24213.95
772.513	24135.31
772.849	24087.4
773.184	23995.43
773.519	24036.33
773.855	23910.91
774.19	23763.57
774.525	23674.53
774.86	23635.21
775.195	23554.76
775.53	23459.62
775.865	23340.08
776.2	23191.83
776.535	22907.77
776.87	22980.54
777.205	23008.34
777.539	22807.21
777.874	22778.74
778.209	22658.29
778.543	22601.57
778.878	22561.79
779.212	22578.29
779.547	22395.7
779.881	22375.58
780.215	22240.67
780.55	22298.3
780.884	22106.44
781.218	21982.37
781.552	22044.97
781.886	21873
782.22	21789.16
782.554	21732.66
782.888	21599.11
783.222	21540.58
783.556	21456.96
783.889	21366.57
784.223	21179.23
784.557	21156.86
784.89	21114.6
785.224	21087.03
785.557	20940.14
785.891	20869.41
786.224	20823.76
786.558	20771.78
786.891	20594.39
787.224	20534.5
787.557	20527.72
787.891	20375.18
788.224	20488.63
788.557	20465.13
788.89	20321.4
789.223	20391.46
789.556	20137.45
789.888	19955.53
790.221	20019.26
790.554	19758.03
790.887	19864.24
791.219	19760.06
791.552	19663.79
791.884	19589.89
792.217	19633.06
792.549	19541.08
792.882	19355.1
793.214	19287.3
793.546	19365.49
793.879	19174.76
794.211	19076.24
794.543	19266.74
794.875	19059.29
795.207	19165.5
795.539	19027.42
795.871	19090.7
796.203	18790.37
796.535	18735.68
796.867	18684.16
797.198	18556.48
797.53	18662.24
797.862	18511.73
798.193	18425.63
798.525	18362.13
798.856	18411.39
799.188	18224.51
799.519	18222.7
799.85	18010.5
800.182	18179.08
800.513	18036.04
800.844	17902.03
801.175	17989.94
801.506	17885.98
801.837	17879.43
802.168	17810.28
802.499	17776.38
802.83	17570.74
803.161	17525.99
803.491	17634.69
803.822	17659.32
804.153	17420.23
804.483	17380.01
804.814	17323.51
805.145	17269.28
805.475	17255.72
805.805	17169.62
806.136	17128.49
806.466	17156.06
806.796	17121.03
807.126	17014.59
807.457	16978.21
807.787	16946.35
808.117	16912
808.447	16731.44
808.777	16806.69
809.107	16726.69
809.436	16675.39
809.766	16681.27
810.096	16630.88
810.426	16508.85
810.755	16527.15
811.085	16430.66
811.414	16480.37
811.744	16243.77
812.073	16302.3
812.403	16258
812.732	16215.52
813.061	16172.81
813.39	16125.8
813.719	16089.2
814.049	16145.24
814.378	16009.88
814.707	15917
815.036	15865.47
815.365	15812.82
815.693	15664.57
816.022	15803.78
816.351	15734.18
816.68	15561.07
817.008	15570.34
817.337	15458.48
817.665	15523.33
817.994	15621.19
818.322	15525.37
818.651	15477.01
818.979	15326.96
819.307	15443.11
819.636	15364.47
819.964	15239.05
820.292	15266.62
820.62	15273.85
820.948	15241.31
821.276	15368.99
821.604	15163.12
821.932	15227.07
822.259	15256
822.587	15235.21
822.915	15191.59
823.243	15161.31
823.57	15152.95
823.898	15161.99
824.225	15140.52
824.553	15117.24
824.88	15185.72
825.207	15156.79
825.535	15152.95
825.862	15153.18
826.189	15065.27
826.516	15191.37
826.843	15155.21
827.17	15206.51
827.497	15130.58
827.824	15119.73
828.151	15166.06
828.478	15136
828.805	15140.75
829.131	15021.2
829.458	15170.58
829.785	15055.55
830.111	15216.45
830.438	15154.08
830.764	15073.86
831.09	15171.25
831.417	14977.13
831.743	15122.67
832.069	15134.64
832.395	15002.44
832.722	15086.96
833.048	15002.44
833.374	15054.65
833.7	14967.64
834.026	14890.13
834.351	14925.38
834.677	14989.11
835.003	14929.9
835.329	14849
835.654	14885.39
835.98	14765.39
836.306	14870.24
836.631	14806.52
836.956	14847.65
837.282	14855.1
837.607	14756.35
837.932	14705.73
838.258	14749.8
838.583	14629.8
838.908	14563.13
839.233	14621.89
839.558	14598.84
839.883	14623.7
840.208	14508.22
840.533	14479.29
840.858	14499.86
841.182	14561.1
841.507	14386.87
841.832	14340.09
842.156	14397.71
842.481	14391.84
842.805	14359.52
843.13	14321.33
843.454	14294.21
843.778	14245.18
844.103	14178.06
844.427	14168.34
844.751	14191.62
845.075	14085.86
845.399	14040.21
845.723	14065.07
846.047	13992.98
846.371	13864.85
846.695	13876.82
847.019	13867.56
847.343	13710.5
847.666	13634.12
847.99	13554.35
848.313	13645.64
848.637	13455.14
848.96	13470.96
849.284	13346.22
849.607	13394.35
849.931	13357.74
850.254	13216.73
850.577	13171.08
850.9	13037.3
851.223	13096.05
851.546	13011.31
851.869	12925.44
852.192	12976.74
852.515	12891.09
852.838	12749.4
853.161	12818.32
853.483	12739.91
853.806	12605.45
854.129	12682.28
854.451	12677.76
854.774	12513.02
855.096	12557.31
855.419	12492.91
855.741	12461.95
856.063	12355.96
856.385	12379.91
856.708	12339.24
857.03	12262.4
857.352	12228.51
857.674	12199.81
857.996	12159.13
858.318	12089.53
858.64	12097.89
858.961	12108.74
859.283	11996.87
859.605	11895.18
859.926	12043.2
860.248	11914.39
860.57	11937.44
860.891	11919.81
861.212	11867.61
861.534	11782.42
861.855	11770.67
862.176	11739.93
862.498	11708.97
862.819	11728.86
863.14	11715.98
863.461	11687.28
863.782	11601.63
864.103	11592.82
864.424	11607.73
864.745	11575.87
865.065	11466.04
865.386	11504.01
865.707	11506.72
866.027	11567.28
866.348	11459.94
866.668	11502.65
866.989	11437.79
867.309	11361.64
867.63	11385.14
867.95	11369.09
868.27	11294.29
868.59	11376.33
868.91	11282.32
869.23	11261.75
869.55	11215.2
869.87	11268.53
870.19	11257.91
870.51	11342.43
870.83	11193.51
871.15	11160.06
871.469	11140.4
871.789	11175.2
872.109	11030.8
872.428	11043.9
872.748	11016.56
873.067	11024.7
873.386	11041.64
873.706	11037.35
874.025	10954.87
874.344	10936.79
874.663	11005.26
874.982	10913.96
875.301	10942.44
875.62	10926.85
875.939	10864.25
876.258	10852.95
876.577	10833.74
876.896	10880.29
877.214	10789
877.533	10824.25
877.852	10726.4
878.17	10793.97
878.489	10774.76
878.807	10739.28
879.125	10714.2
879.444	10704.03
879.762	10662.22
880.08	10641.2
880.398	10624.25
880.716	10620.19
881.034	10591.04
881.352	10555.1
881.67	10640.07
881.988	10596.91
882.306	10478.04
882.624	10515.56
882.941	10390.14
883.259	10464.71
883.577	10409.57
883.894	10356.92
884.212	10356.46
884.529	10348.56
884.846	10355.11
885.164	10260.87
885.481	10262.91
885.798	10266.52
886.115	10234.43
886.432	10295
886.75	10064.04
887.067	10114.21
887.383	10125.06
887.7	10075.57
888.017	10002.8
888.334	10010.03
888.651	10055.68
888.967	9966.19
889.284	9968.23
889.6	9938.85
889.917	9847.55
890.233	9884.16
890.55	9895.91
890.866	9866.99
891.182	9806.87
891.498	9709.93
891.815	9751.96
892.131	9661.34
892.447	9691.62
892.763	9629.03
893.079	9649.59
893.395	9607.78
893.71	9545.86
894.026	9497.5
894.342	9484.85
894.657	9477.39
894.973	9480.56
895.289	9528.92
895.604	9426.55
895.92	9388.58
896.235	9306.1
896.55	9338.19
896.865	9267.68
897.181	9271.52
897.496	9203.73
897.811	9244.86
898.126	9182.48
898.441	9117.18
898.756	9080.11
899.071	9078.53
899.386	9024.52
899.7	9012.55
900.015	8978.65
900.33	8900.68
900.644	8919.89
900.959	8893.9
901.273	8853.91
901.588	8817.52
901.902	8802.16
902.216	8725.77
902.531	8721.25
902.845	8677.87
903.159	8594.03
903.473	8676.96
903.787	8568.94
904.101	8515.61
904.415	8517.87
904.729	8535.95
905.042	8462.96
905.356	8391.32
905.67	8420.24
905.984	8400.13
906.297	8375.27
906.611	8332.56
906.924	8293.02
907.237	8283.98
907.551	8258.22
907.864	8185.22
908.177	8210.98
908.491	8191.55
908.804	8076.07
909.117	8083.08
909.43	8055.73
909.743	7969.41
910.056	8006.7
910.368	7952.23
910.681	7853.25
910.994	7853.93
911.307	7815.29
911.619	7805.8
911.932	7771.22
912.244	7712.24
912.557	7696.87
912.869	7690.55
913.181	7633.37
913.494	7629.08
913.806	7492.13
914.118	7536.88
914.43	7493.72
914.742	7451.68
915.054	7470.67
915.366	7411.01
915.678	7392.48
915.99	7346.15
916.302	7287.62
916.613	7277
916.925	7216.43
917.236	7197
917.548	7139.6
917.859	7168.53
918.171	7141.41
918.482	7081.3
918.794	7042.43
919.105	7102.09
919.416	6999.49
919.727	7015.54
920.038	6926.95
920.349	6884.24
920.66	6875.65
920.971	6878.59
921.282	6830.68
921.593	6751.14
921.903	6804.02
922.214	6734.19
922.525	6682.66
922.835	6694.64
923.146	6654.19
923.456	6611.93
923.767	6555.66
924.077	6580.29
924.387	6578.26
924.697	6490.58
925.008	6459.84
925.318	6500.07
925.628	6429.11
925.938	6419.17
926.248	6392.95
926.558	6343.01
926.867	6319.06
927.177	6321.54
927.487	6223.24
927.796	6181.89
928.106	6238.61
928.416	6211.49
928.725	6169.68
929.034	6135.11
929.344	6186.18
929.653	6162
929.962	6035.45
930.271	6064.15
930.581	5986.86
930.89	5940.76
931.199	5963.81
931.508	5928.33
931.817	5947.99
932.125	5873.64
932.434	5863.7
932.743	5862.35
933.051	5802.69
933.36	5771.73
933.669	5802.46
933.977	5733.08
934.286	5761.11
934.594	5717.94
934.902	5642.46
935.21	5607.44
935.519	5618.74
935.827	5582.13
936.135	5549.13
936.443	5522.02
936.751	5521.79
937.059	5485.41
937.367	5458.97
937.674	5432.75
937.982	5445.18
938.29	5405.63
938.597	5433.43
938.905	5317.5
939.213	5340.78
939.52	5319.76
939.827	5279.31
940.135	5222.59
940.442	5241.57
940.749	5231.85
941.056	5240.67
941.363	5198.86
941.67	5135.81
941.977	5139.65
942.284	5095.13
942.591	5103.27
942.898	5110.73
943.205	5085.87
943.511	5047.23
943.818	5038.86
944.125	4995.7
944.431	4967.45
944.738	4985.98
945.044	4920
945.35	4849.72
945.657	4847.46
945.963	4828.02
946.269	4867.8
946.575	4825.76
946.881	4796.84
947.187	4794.35
947.493	4744.18
947.799	4750.96
948.105	4722.71
948.41	4683.85
948.716	4677.97
949.022	4668.93
949.327	4649.72
949.633	4590.06
949.938	4623.73
950.244	4604.53
950.549	4550.74
950.854	4490.4
951.16	4532.44
951.465	4472.55
951.77	4455.15
952.075	4445.66
952.38	4437.07
952.685	4431.2
952.99	4337.87
953.294	4407.92
953.599	4314.36
953.904	4291.54
954.209	4272.56
954.513	4270.75
954.818	4257.64
955.122	4258.09
955.426	4286.12
955.731	4192.79
956.035	4179.45
956.339	4159.11
956.643	4181.49
956.948	4109.62
957.252	4120.47
957.556	4100.13
957.86	4027.14
958.163	4092
958.467	4051.77
958.771	4063.98
959.075	4065.1
959.378	4015.16
959.682	3987.82
959.985	3955.73
960.289	3923.19
960.592	3938.1
960.896	3936.75
961.199	3896.07
961.502	3902.17
961.805	3919.8
962.108	3802.29
962.411	3840.03
962.714	3792.34
963.017	3812.23
963.32	3774.72
963.623	3798.9
963.926	3712.57
964.228	3695.17
964.531	3687.71
964.833	3723.19
965.136	3666.25
965.438	3642.07
965.741	3671.89
966.043	3659.47
966.345	3588.73
966.648	3601.16
966.95	3591.9
967.252	3543.31
967.554	3632.35
967.856	3558.23
968.158	3531.79
968.46	3478.91
968.761	3507.38
969.063	3482.07
969.365	3443.43
969.666	3460.6
969.968	3430.09
970.269	3413.37
970.571	3368.17
970.872	3390.55
971.174	3382.41
971.475	3386.25
971.776	3357.55
972.077	3356.65
972.378	3322.07
972.679	3312.36
972.98	3285.69
973.281	3263.77
973.582	3271
973.883	3269.65
974.183	3241.4
974.484	3196.88
974.785	3184.68
975.085	3206.37
975.386	3193.26
975.686	3131.57
975.986	3181.96
976.287	3160.72
976.587	3104.9
976.887	3077.56
977.187	3094.74
977.487	3114.62
977.787	3059.03
978.087	3071.91
978.387	3031.23
978.687	3016.32
978.987	3051.12
979.286	3028.07
979.586	3009.54
979.885	2961.18
980.185	2946.94
980.484	2946.04
980.784	2974.51
981.083	2968.86
981.382	2906.49
981.682	2908.07
981.981	2884.8
982.28	2898.13
982.579	2839.6
982.878	2819.26
983.177	2801.18
983.475	2813.84
983.774	2793.05
984.073	2786.49
984.372	2774.52
984.67	2798.7
984.969	2741.3
985.267	2736.33
985.566	2733.39
985.864	2704.01
986.162	2705.37
986.461	2694.97
986.759	2702.88
987.057	2654.07
987.355	2620.62
987.653	2652.71
987.951	2621.53
988.249	2617.23
988.547	2601.41
988.844	2628.76
989.142	2609.32
989.44	2577.91
989.737	2584.47
990.035	2560.29
990.332	2520.51
990.63	2541.08
990.927	2502.43
991.224	2527.97
991.521	2476.67
991.819	2472.83
992.116	2480.06
992.413	2461.53
992.71	2414.07
993.006	2416.11
993.303	2397.35
993.6	2426.73
993.897	2416.33
994.193	2385.83
994.49	2402.55
994.787	2358.48
995.083	2354.87
995.379	2318.48
995.676	2312.38
995.972	2337.92
996.268	2351.03
996.565	2250.46
996.861	2297.69
997.157	2286.85
997.453	2257.02
997.749	2265.38
998.044	2201.2
998.34	2216.57
998.636	2230.8
998.932	2231.03
999.227	2194.19
999.523	2129.79
999.818	2185.61
1000.114	2206.85
1000.409	2146.96
1000.704	2188.54
1001	2111.71
1001.295	2105.16
1001.59	2094.54
1001.885	2107.42
1002.18	2108.32
1002.475	2108.55
1002.77	2073.97
1003.065	2053.18
1003.359	2000.75
1003.654	2041.88
1003.949	1996.46
1004.243	2027.19
1004.538	2001.43
1004.832	2003.69
1005.127	1962.56
1005.421	1961.88
1005.715	1950.81
1006.009	1956.69
1006.304	1958.04
1006.598	1910.36
1006.892	1921.21
1007.186	1893.41
1007.48	1891.15
1007.773	1886.63
1008.067	1866.52
1008.361	1838.72
1008.655	1842.11
1008.948	1829.46
1009.242	1824.49
1009.535	1843.92
1009.829	1800.76
1010.122	1786.97
1010.415	1816.58
1010.708	1793.98
1011.001	1742.91
1011.295	1776.13
1011.588	1772.51
1011.881	1720.31
1012.173	1720.53
1012.466	1740.87
1012.759	1703.13
1013.052	1705.84
1013.344	1685.96
1013.637	1669.91
1013.93	1681.89
1014.222	1647.99
1014.514	1630.37
1014.807	1637.37
1015.099	1631.27
1015.391	1598.5
1015.683	1642.57
1015.976	1603.93
1016.268	1599.18
1016.56	1593.08
1016.851	1557.6
1017.143	1570.48
1017.435	1575.23
1017.727	1526.41
1018.018	1551.72
1018.31	1514.44
1018.602	1524.83
1018.893	1487.77
1019.185	1501.33
1019.476	1483.03
1019.767	1489.81
1020.058	1445.96
1020.35	1452.97
1020.641	1413.2
1020.932	1430.6
1021.223	1418.85
1021.514	1418.17
1021.804	1405.29
1022.095	1400.77
1022.386	1387.66
1022.677	1374.1
1022.967	1386.31
1023.258	1374.55
1023.548	1341.11
1023.839	1361.45
1024.129	1325.06
1024.419	1337.95
1024.709	1334.33
1025	1314.89
1025.29	1293.65
1025.58	1294.78
1025.87	1295.01
1026.16	1272.41
1026.449	1277.83
1026.739	1303.14
1027.029	1266.53
1027.319	1237.38
1027.608	1252.52
1027.898	1241.9
1028.187	1236.03
1028.477	1233.32
1028.766	1196.03
1029.055	1203.94
1029.344	1170.94
1029.634	1169.14
1029.923	1159.64
1030.212	1177.72
1030.501	1172.07
1030.79	1147.89
1031.078	1122.58
1031.367	1157.16
1031.656	1123.49
1031.945	1135.92
1032.233	1109.48
1032.522	1109.02
1032.81	1102.92
1033.099	1116.26
1033.387	1086.88
1033.675	1070.83
1033.963	1062.92
1034.251	1064.51
1034.54	1090.95
1034.828	1068.12
1035.116	1055.47
1035.403	1045.75
1035.691	1027.67
1035.979	1031.51
1036.267	1011.4
1036.554	1009.59
1036.842	1003.49
1037.129	987.9
1037.417	989.71
1037.704	998.29
1037.992	970.72
1038.279	976.82
1038.566	970.05
1038.853	970.05
1039.14	970.05
