Data from hue_140_FLMS001491_00045.txt Node
Date: Tue Feb 07 16:55:58 GMT 2017
User: dcchb
Spectrometer: FLMS00149
Trigger mode: 0
Integration Time (sec): 2.000000E-2
Scans to average: 10
Electric dark correction enabled: true
Nonlinearity correction enabled: false
Boxcar width: 0
XAxis mode: Wavelengths
Number of Pixels in Spectrum: 2048
>>>>>Begin Spectral Data<<<<<
341.393	-22.12
341.776	-22.12
342.16	-22.12
342.543	-45.39
342.927	-77.71
343.31	-65.05
343.693	-77.03
344.077	-74.32
344.46	-63.25
344.843	-40.2
345.226	-43.13
345.61	-38.39
345.993	-16.47
346.376	0.48
346.759	-17.82
347.142	42.74
347.525	55.85
347.908	50.2
348.291	67.6
348.674	89.74
349.057	129.06
349.44	137.43
349.823	147.59
350.206	166.8
350.588	189.85
350.971	209.51
351.354	221.72
351.737	233.47
352.119	256.74
352.502	252
352.884	263.52
353.267	280.92
353.65	286.12
354.032	303.75
354.414	300.36
354.797	308.04
355.179	329.29
355.562	305.56
355.944	337.42
356.326	332.9
356.709	341.71
357.091	328.16
357.473	339.68
357.855	336.52
358.238	329.96
358.62	335.16
359.002	343.97
359.384	329.06
359.766	324.77
360.148	340.13
360.53	343.75
360.912	343.97
361.294	348.72
361.676	332.45
362.057	345.1
362.439	346.69
362.821	337.65
363.203	330.19
363.584	332
363.966	324.31
364.348	313.69
364.729	333.58
365.111	321.83
365.493	341.04
365.874	320.92
366.256	321.6
366.637	325.9
367.019	310.08
367.4	322.51
367.781	307.36
368.163	314.6
368.544	306.69
368.925	321.15
369.306	311.66
369.688	306.46
370.069	301.94
370.45	315.73
370.831	296.74
371.212	322.96
371.593	331.32
371.974	308.04
372.355	299.91
372.736	304.43
373.117	308.04
373.498	310.75
373.879	318.89
374.26	329.06
374.641	317.08
375.021	299.46
375.402	320.92
375.783	318.66
376.163	330.42
376.544	320.02
376.925	333.13
377.305	325.67
377.686	315.73
378.066	332.9
378.447	317.99
378.827	338.55
379.208	327.03
379.588	346.46
379.968	322.51
380.349	335.39
380.729	334.93
381.109	346.01
381.489	336.29
381.87	335.84
382.25	343.97
382.63	355.95
383.01	332.67
383.39	329.96
383.77	340.36
384.15	332
384.53	334.71
384.91	357.08
385.29	348.49
385.67	355.95
386.049	360.47
386.429	355.05
386.809	357.53
387.189	359.57
387.568	348.95
387.948	336.74
388.328	338.32
388.707	345.1
389.087	348.72
389.466	352.11
389.846	358.44
390.225	395.05
390.605	345.56
390.984	364.99
391.363	362.05
391.743	361.6
392.122	392.11
392.501	367.7
392.881	383.97
393.26	357.53
393.639	377.19
394.018	377.87
394.397	368.15
394.776	386.23
395.155	382.17
395.534	378.32
395.913	391.2
396.292	379.68
396.671	370.64
397.05	388.94
397.429	373.58
397.808	383.52
398.186	389.85
398.565	364.99
398.944	392.11
399.323	396.63
399.701	395.95
400.08	394.82
400.458	391.43
400.837	406.12
401.215	402.05
401.594	407.93
401.972	399.11
402.351	413.35
402.729	418.32
403.107	405.44
403.486	424.2
403.864	404.76
404.242	417.64
404.62	427.81
404.999	401.83
405.377	420.81
405.755	440.02
406.133	410.64
406.511	419.45
406.889	420.81
407.267	423.97
407.645	431.66
408.023	422.84
408.401	448.83
408.779	449.06
409.156	422.39
409.534	451.09
409.912	441.37
410.29	455.84
410.667	444.76
411.045	445.21
411.422	466.46
411.8	456.06
412.178	447.02
412.555	471.43
412.933	468.72
413.31	454.48
413.687	466.46
414.065	445.21
414.442	468.94
414.819	490.41
415.197	491.09
415.574	496.51
415.951	489.96
416.328	514.14
416.705	497.19
417.082	496.51
417.46	514.37
417.837	499.45
418.214	510.75
418.591	502.61
418.967	526.12
419.344	495.61
419.721	509.62
420.098	526.12
420.475	511.65
420.852	527.02
421.228	533.8
421.605	534.48
421.982	527.02
422.358	528.83
422.735	561.82
423.111	537.42
423.488	547.13
423.864	563.63
424.241	553.69
424.617	559.11
424.994	580.13
425.37	553.01
425.746	563.86
426.123	566.79
426.499	569.28
426.875	569.5
427.251	575.83
427.627	570.63
428.003	573.35
428.379	594.81
428.756	594.59
429.132	580.13
429.507	623.74
429.883	615.83
430.259	626.9
430.635	638.66
431.011	622.61
431.387	624.19
431.763	622.61
432.138	640.92
432.514	668.03
432.89	647.92
433.265	665.1
433.641	670.97
434.016	674.13
434.392	694.47
434.767	688.82
435.143	696.73
435.518	716.85
435.894	692.89
436.269	700.35
436.644	703.29
437.02	711.87
437.395	717.75
437.77	733.12
438.145	735.83
438.52	735.6
438.895	762.95
439.271	728.6
439.646	738.99
440.021	762.72
440.395	746
440.77	761.59
441.145	767.01
441.52	767.69
441.895	765.88
442.27	792.32
442.645	798.65
443.019	788.48
443.394	802.72
443.769	799.78
444.143	826.22
444.518	777.86
444.892	804.98
445.267	827.13
445.641	801.14
446.016	828.93
446.39	842.49
446.764	832.77
447.139	816.28
447.513	846.56
447.887	818.31
448.262	845.88
448.636	868.93
449.01	853.79
449.384	883.85
449.758	850.18
450.132	877.97
450.506	885.43
450.88	873.9
451.254	898.54
451.628	897.63
452.002	901.93
452.376	916.39
452.75	909.83
453.123	934.01
453.497	954.58
453.871	962.49
454.244	963.62
454.618	948.7
454.992	1002.04
455.365	973.11
455.739	996.16
456.112	1006.56
456.486	1027.12
456.859	1005.88
457.232	1063.73
457.606	1056.72
457.979	1075.48
458.352	1066.44
458.725	1061.47
459.099	1086.33
459.472	1089.94
459.845	1116.38
460.218	1123.16
460.591	1147.79
460.964	1144.4
461.337	1171.07
461.71	1192.09
462.083	1195.25
462.456	1225.08
462.829	1203.61
463.201	1246.32
463.574	1242.93
463.947	1289.03
464.32	1259.2
464.692	1326.77
465.065	1307.79
465.438	1356.15
465.81	1374.68
466.183	1378.98
466.555	1407.9
466.928	1387.34
467.3	1389.37
467.672	1419.2
468.045	1463.27
468.417	1472.76
468.789	1493.77
469.161	1543.04
469.534	1525.41
469.906	1557.95
470.278	1597.95
470.65	1635.92
471.022	1669.36
471.394	1686.31
471.766	1740.32
472.138	1736.03
472.51	1769.7
472.882	1811.28
473.253	1837.04
473.625	1898.06
473.997	1913.65
474.369	1956.81
474.74	1995.68
475.112	2083.14
475.484	2097.6
475.855	2183.02
476.227	2198.84
476.598	2252.85
476.97	2304.15
477.341	2348.67
477.713	2402.45
478.084	2441.09
478.455	2557.48
478.827	2609.45
479.198	2698.49
479.569	2736.91
479.94	2808.99
480.311	2862.1
480.682	2943
481.053	3044.47
481.424	3117.01
481.795	3205.37
482.166	3216.89
482.537	3365.82
482.908	3501.41
483.279	3560.16
483.65	3653.94
484.021	3766.03
484.391	3809.19
484.762	3896.65
485.133	4013.03
485.503	4117.21
485.874	4223.19
486.244	4304.55
486.615	4419.8
486.985	4559
487.356	4695.72
487.726	4743.86
488.097	4975.04
488.467	5017.3
488.837	5175.94
489.207	5269.95
489.578	5371.64
489.948	5494.8
490.318	5666.09
490.688	5777.28
491.058	5873.32
491.428	6040.32
491.798	6159.19
492.168	6275.8
492.538	6466.75
492.908	6554.43
493.278	6639.63
493.648	6795.56
494.017	6904.03
494.387	7017.24
494.757	7141.76
495.126	7288.88
495.496	7417.46
495.866	7509.89
496.235	7670.56
496.605	7746.94
496.974	7833.95
497.344	8005.92
497.713	8119.14
498.082	8182.19
498.452	8351.22
498.821	8405.46
499.19	8495.85
499.559	8637.09
499.928	8731.55
500.298	8838.89
500.667	8972.22
501.036	8939.23
501.405	9117.98
501.774	9118.21
502.143	9324.3
502.512	9338.31
502.88	9460.57
503.249	9501.47
503.618	9604.97
503.987	9685.42
504.356	9778.98
504.724	9908.92
505.093	9915.25
505.462	10031.4
505.83	10010.39
506.199	10119.76
506.567	10330.15
506.936	10273.88
507.304	10416.48
507.672	10489.92
508.041	10560.88
508.409	10552.97
508.777	10665.74
509.145	10725.85
509.514	10775.11
509.882	10822.34
510.25	10821.89
510.618	10967.65
510.986	10962.68
511.354	11051.49
511.722	11190.24
512.09	11244.25
512.458	11248.55
512.826	11257.36
513.193	11384.81
513.561	11318.83
513.929	11467.98
514.297	11530.8
514.664	11564.02
515.032	11590.68
515.4	11660.06
515.767	11679.95
516.135	11698.7
516.502	11592.49
516.869	11846.04
517.237	11826.16
517.604	11848.98
517.972	11843.11
518.339	11905.03
518.706	11874.52
519.073	11919.94
519.44	11980.73
519.808	11983.67
520.175	11989.32
520.542	12240.61
520.909	12106.6
521.276	12138.01
521.643	12216.43
522.009	12253.72
522.376	12232.02
522.743	12266.6
523.11	12378.23
523.477	12472.47
523.843	12488.97
524.21	12480.15
524.577	12566.25
524.943	12578.45
525.31	12557.44
525.676	12611.9
526.043	12679.69
526.409	12640.83
526.776	12794.95
527.142	12766.25
527.508	12718.56
527.874	12804.44
528.241	12746.59
528.607	12706.13
528.973	12787.94
529.339	12776.19
529.705	12808.51
530.071	12789.97
530.437	12744.55
530.803	12842.18
531.169	12921.5
531.535	12837.66
531.901	12805.12
532.267	12890.31
532.632	12838.79
532.998	12902.29
533.364	12842.18
533.73	12840.37
534.095	12785.23
534.461	12790.88
534.826	12897.77
535.192	12844.66
535.557	12806.02
535.923	12744.55
536.288	12718.11
536.653	12718.56
537.019	12642.18
537.384	12667.94
537.749	12663.42
538.114	12593.82
538.479	12584.1
538.845	12530.55
539.21	12480.15
539.575	12551.11
539.94	12444.45
540.305	12466.14
540.67	12340.27
541.034	12417.78
541.399	12460.04
541.764	12385.47
542.129	12364.45
542.494	12315.41
542.858	12339.59
543.223	12300.5
543.587	12305.47
543.952	12238.8
544.316	12184.57
544.681	12118.81
545.045	12181.18
545.41	12175.08
545.774	12154.28
546.138	12037.23
546.503	11977.34
546.867	11991.58
547.231	12084.91
547.595	11959.04
547.959	11945.7
548.324	11917
548.688	11939.38
549.052	11830.23
549.416	11723.34
549.779	11796.33
550.143	11772.83
550.507	11778.25
550.871	11714.75
551.235	11715.65
551.599	11759.27
551.962	11604.69
552.326	11661.87
552.689	11762.88
553.053	11658.25
553.417	11563.57
553.78	11664.58
554.143	11603.56
554.507	11576.45
554.87	11494.87
555.234	11591.36
555.597	11458.94
555.96	11469.78
556.323	11512.72
556.686	11452.61
557.05	11505.04
557.413	11520.4
557.776	11411.93
558.139	11433.85
558.502	11445.38
558.865	11484.25
559.228	11426.39
559.59	11404.93
559.953	11397.47
560.316	11531.48
560.679	11493.51
561.041	11448.09
561.404	11525.37
561.767	11476.56
562.129	11474.08
562.492	11505.04
562.854	11476.56
563.217	11460.52
563.579	11453.74
563.941	11580.06
564.304	11536
564.666	11627.29
565.028	11599.72
565.39	11517.47
565.753	11603.79
566.115	11625.71
566.477	11643.56
566.839	11643.11
567.201	11666.39
567.563	11598.59
567.925	11649.89
568.287	11690.34
568.648	11661.19
569.01	11690.12
569.372	11778.48
569.734	11642.43
570.095	11749.55
570.457	11757.46
570.819	11701.87
571.18	11742.54
571.542	11779.38
571.903	11844.24
572.265	11764.24
572.626	11833.39
572.987	11833.62
573.349	11836.55
573.71	11898.92
574.071	11867.06
574.432	11834.75
574.794	11889.89
575.155	11897.12
575.516	11767.63
575.877	11867.74
576.238	11955.87
576.599	11956.1
576.96	11945.48
577.32	11879.04
577.681	11935.31
578.042	11994.97
578.403	11893.73
578.763	12041.07
579.124	11959.26
579.485	11929.88
579.845	12020.5
580.206	11940.05
580.566	11992.71
580.927	11985.02
581.287	12006.04
581.648	11851.92
582.008	11991.58
582.368	11938.7
582.728	11939.15
583.089	11948.87
583.449	11936.21
583.809	11909.32
584.169	11930.11
584.529	11936.44
584.889	11969.43
585.249	11909.77
585.609	11891.69
585.969	11889.21
586.329	11882.88
586.688	11874.97
587.048	11822.54
587.408	11879.49
587.768	11835.42
588.127	11836.78
588.487	11857.34
588.846	11863.45
589.206	11725.82
589.565	11797.91
589.925	11822.77
590.284	11800.4
590.643	11813.95
591.003	11925.82
591.362	11825.03
591.721	11790.45
592.08	11817.8
592.44	11831.81
592.799	11887.17
593.158	11815.76
593.517	11777.8
593.876	11764.92
594.235	11782.09
594.593	11799.04
594.952	11816.44
595.311	11719.27
595.67	11749.55
596.029	11801.98
596.387	11747.52
596.746	11785.03
597.104	11630.23
597.463	11748.19
597.822	11705.03
598.18	11707.74
598.538	11683.56
598.897	11764.69
599.255	11705.71
599.613	11812.15
599.972	11775.99
600.33	11764.24
600.688	11702.77
601.046	11731.02
601.404	11735.99
601.762	11745.48
602.12	11820.51
602.478	11760.17
602.836	11754.75
603.194	11672.94
603.552	11760.85
603.91	11729.89
604.268	11721.08
604.625	11716.56
604.983	11798.14
605.341	11663.22
605.698	11749.78
606.056	11732.83
606.413	11708.19
606.771	11825.25
607.128	11820.06
607.485	11751.81
607.843	11747.06
608.2	11799.27
608.557	11847.85
608.914	11866.16
609.272	11864.8
609.629	11864.8
609.986	11928.75
610.343	11830.45
610.7	11949.77
611.057	11877.91
611.414	11877
611.771	11891.69
612.127	11925.36
612.484	11875.42
612.841	11956.78
613.198	11881.75
613.554	11927.17
613.911	12024.34
614.267	11961.52
614.624	11841.52
614.98	12030.9
615.337	12017.57
615.693	11970.33
616.05	12047.17
616.406	12078.13
616.762	12050.56
617.118	11970.79
617.475	12007.17
617.831	12046.04
618.187	12027.28
618.543	12050.78
618.899	12057.34
619.255	12044.46
619.611	12092.59
619.967	12065.7
620.323	12135.08
620.678	12101.86
621.034	12053.72
621.39	12049.65
621.746	12063.21
622.101	12271.57
622.457	12126.04
622.812	12096.66
623.168	12142.53
623.523	12086.94
623.879	12155.64
624.234	12047.17
624.589	12177.11
624.945	12129.43
625.3	12147.96
625.655	12071.12
626.01	12100.95
626.365	12170.78
626.72	12006.94
627.075	12105.92
627.43	12102.99
627.785	12060.05
628.14	12112.03
628.495	12131.91
628.85	12122.42
629.205	12066.6
629.559	12181.18
629.914	12050.33
630.269	11967.62
630.623	12075.19
630.978	11982.76
631.332	12104.79
631.687	12091.69
632.041	12028.19
632.396	12030.67
632.75	11963.1
633.104	11932.82
633.459	11944.35
633.813	11853.73
634.167	11908.19
634.521	11915.65
634.875	11839.72
635.229	11855.99
635.583	11846.27
635.937	11879.72
636.291	11811.7
636.645	11775.54
636.999	11824.12
637.352	11837.46
637.706	11787.51
638.06	11738.48
638.413	11729.66
638.767	11724.24
639.121	11776.67
639.474	11737.35
639.828	11646.5
640.181	11627.29
640.534	11746.39
640.888	11614.19
641.241	11645.37
641.594	11659.38
641.947	11738.25
642.301	11633.85
642.654	11624.58
643.007	11651.93
643.36	11672.26
643.713	11637.91
644.066	11634.52
644.419	11621.19
644.771	11467.75
645.124	11407.64
645.477	11462.1
645.83	11367.64
646.182	11218.49
646.535	11283.8
646.888	11279.05
647.24	11232.73
647.593	11256.68
647.945	11232.5
648.298	11271.14
648.65	11194.99
649.002	11168.1
649.355	11199.51
649.707	11200.41
650.059	11230.69
650.411	11397.69
650.763	11388.66
651.115	11520.18
651.467	11496.9
651.819	11510.01
652.171	11481.76
652.523	11398.37
652.875	11406.28
653.227	11419.39
653.578	11508.2
653.93	11463.91
654.282	11391.14
654.633	11381.42
654.985	11388.43
655.337	11386.85
655.688	11441.99
656.039	11410.35
656.391	11359.96
656.742	11384.81
657.094	11382.1
657.445	11406.28
657.796	11456.68
658.147	11387.53
658.498	11385.27
658.849	11489.67
659.2	11383.46
659.551	11350.92
659.902	11460.52
660.253	11396.34
660.604	11423.23
660.955	11440.63
661.306	11486.73
661.656	11392.05
662.007	11455.32
662.358	11438.15
662.708	11465.94
663.059	11471.59
663.409	11399.95
663.76	11550.68
664.11	11439.95
664.461	11501.42
664.811	11508.65
665.161	11522.21
665.511	11502.1
665.862	11528.31
666.212	11505.04
666.562	11447.41
666.912	11474.98
667.262	11475.88
667.612	11514.08
667.962	11451.25
668.312	11437.02
668.662	11479.5
669.011	11452.83
669.361	11474.08
669.711	11411.48
670.06	11423.68
670.41	11411.93
670.76	11317.7
671.109	11499.16
671.459	11406.06
671.808	11429.78
672.157	11439.05
672.507	11312.27
672.856	11372.84
673.205	11340.97
673.554	11418.26
673.904	11343.01
674.253	11458.26
674.602	11286.06
674.951	11266.4
675.3	11109.11
675.649	11368.54
675.998	11360.63
676.346	11320.18
676.695	11323.35
677.044	11245.83
677.393	11280.86
677.741	11237.02
678.09	11273.18
678.438	11265.49
678.787	11212.84
679.135	11185.27
679.484	11146.85
679.832	11199.28
680.181	11047.65
680.529	11142.79
680.877	11047.87
681.225	11110.92
681.573	11126.97
681.922	11057.59
682.27	11001.55
682.618	10983.47
682.966	10986.63
683.314	11048.55
683.661	10933.3
684.009	10867.54
684.357	10901.89
684.705	10926.29
685.053	10924.03
685.4	10916.8
685.748	10844.26
686.095	10800.65
686.443	10782.8
686.79	10743.93
687.138	10754.77
687.485	10714.32
687.832	10659.41
688.18	10728.79
688.527	10673.65
688.874	10666.41
689.221	10608.11
689.568	10618.73
689.915	10540.32
690.262	10510.71
690.609	10483.37
690.956	10489.7
691.303	10459.87
691.65	10369.25
691.997	10399.08
692.344	10392.3
692.69	10313.43
693.037	10266.88
693.383	10245.86
693.73	10251.06
694.077	10145.98
694.423	10180.55
694.769	10120.67
695.116	10094.9
695.462	10057.62
695.808	10068.69
696.155	10048.58
696.501	9896.04
696.847	9958.64
697.193	9872.09
697.539	9885.42
697.885	9861.69
698.231	9786.21
698.577	9730.39
698.923	9722.03
699.269	9727
699.614	9639.32
699.96	9581.92
700.306	9586.44
700.651	9534.92
700.997	9537.86
701.342	9545.09
701.688	9553
702.033	9488.82
702.379	9469.38
702.724	9487.69
703.069	9434.36
703.415	9318.2
703.76	9319.78
704.105	9308.03
704.45	9229.39
704.795	9156.62
705.14	9237.98
705.485	9179.22
705.83	9118.43
706.175	9109.39
706.52	9113.46
706.865	9094.03
707.209	9124.53
707.554	9009.96
707.899	9043.86
708.243	8953.92
708.588	9009.28
708.932	8932.45
709.277	8858.55
709.621	8898.55
709.966	8850.19
710.31	8847.48
710.654	8734.94
710.998	8779.23
711.342	8765.22
711.687	8823.07
712.031	8677.99
712.375	8648.39
712.719	8661.04
713.063	8688.61
713.407	8637.32
713.75	8636.41
714.094	8582.18
714.438	8606.81
714.782	8531.1
715.125	8527.71
715.469	8536.75
715.812	8494.49
716.156	8470.54
716.499	8480.48
716.843	8482.07
717.186	8460.37
717.53	8490.65
717.873	8462.86
718.216	8406.13
718.559	8374.95
718.902	8337.44
719.246	8356.87
719.589	8369.53
719.932	8369.3
720.275	8358.45
720.617	8304.22
720.96	8293.82
721.303	8357.55
721.646	8389.19
721.989	8239.13
722.331	8331.56
722.674	8243.2
723.016	8268.74
723.359	8287.27
723.701	8263.09
724.044	8179.47
724.386	8161.85
724.729	8260.83
725.071	8183.54
725.413	8231
725.755	8208.63
726.097	8143.09
726.439	8125.24
726.782	8113.71
727.124	8170.21
727.465	8180.83
727.807	8139.25
728.149	8178.12
728.491	8124.56
728.833	8160.27
729.175	8072.58
729.516	8098.8
729.858	8147.38
730.199	8132.24
730.541	8155.52
730.882	8064
731.224	8099.25
731.565	8075.07
731.906	8121.17
732.248	8076.65
732.589	8000.27
732.93	8004.34
733.271	8085.47
733.612	8027.16
733.953	8059.93
734.294	8021.96
734.635	8051.79
734.976	8039.59
735.317	8027.61
735.658	8028.07
735.999	8113.49
736.339	7982.87
736.68	8033.94
737.021	8088.86
737.361	8049.76
737.702	8109.65
738.042	8099.02
738.383	8047.5
738.723	8114.17
739.063	8052.25
739.404	8083.66
739.744	8120.49
740.084	8099.02
740.424	8180.83
740.764	8157.33
741.104	8141.96
741.444	8116.88
741.784	8124.79
742.124	8156.42
742.464	8158.46
742.804	8169.98
743.143	8235.07
743.483	8182.19
743.823	8249.75
744.162	8294.5
744.502	8319.13
744.841	8320.26
745.181	8340.83
745.52	8323.65
745.86	8404.33
746.199	8401.62
746.538	8482.29
746.877	8573.81
747.216	8589.63
747.556	8616.07
747.895	8633.47
748.234	8683.42
748.573	8674.6
748.911	8722.74
749.25	8859.46
749.589	8877.08
749.928	9000.92
750.267	9042.5
750.605	9015.84
750.944	9170.63
751.283	9108.72
751.621	9244.76
751.96	9320.46
752.298	9359.78
752.636	9521.36
752.975	9527.46
753.313	9627.8
753.651	9790.28
753.989	9800.9
754.327	9957.28
754.666	10024.62
755.004	10090.61
755.342	10242.92
755.679	10406.76
756.017	10400.88
756.355	10581.22
756.693	10748.45
757.031	10878.84
757.368	10884.94
757.706	11129.68
758.044	11201.54
758.381	11397.02
758.719	11531.25
759.056	11730.12
759.394	11770.34
759.731	11825.48
760.068	12044.91
760.405	12221.63
760.743	12322.87
761.08	12523.09
761.417	12587.72
761.754	12874.72
762.091	13004.66
762.428	13134.6
762.765	13210.08
763.102	13490.97
763.438	13548.37
763.775	13661.82
764.112	13885.76
764.449	14095.7
764.785	14146.55
765.122	14281.91
765.458	14385.64
765.795	14676.7
766.131	14698.62
766.467	14843.71
766.804	14960.99
767.14	15114.21
767.476	15177.71
767.812	15338.61
768.148	15530.69
768.485	15532.28
768.821	15674.19
769.157	15853.17
769.492	15913.06
769.828	16094.52
770.164	16093.16
770.5	16292.03
770.836	16253.39
771.171	16392.59
771.507	16409.31
771.842	16444.34
772.178	16641.17
772.513	16773.15
772.849	16945.8
773.184	16826.7
773.519	16919.81
773.855	17087.71
774.19	17118.22
774.525	17126.13
774.86	17249.29
775.195	17345.79
775.53	17284.77
775.865	17402.73
776.2	17377.42
776.535	17288.39
776.87	17417.2
777.205	17329.74
777.539	17490.64
777.874	17594.82
778.209	17467.82
778.543	17560.92
778.878	17514.37
779.212	17578.1
779.547	17545.33
779.881	17550.3
780.215	17629.62
780.55	17705.55
780.884	17529.28
781.218	17651.54
781.552	17717.08
781.886	17643.63
782.22	17680.69
782.554	17629.62
782.888	17633.46
783.222	17611.99
783.556	17506.91
783.889	17581.03
784.223	17448.16
784.557	17497.65
784.89	17554.14
785.224	17401.15
785.557	17389.63
785.891	17461.94
786.224	17420.14
786.558	17482.51
786.891	17341.72
787.224	17441.6
787.557	17322.06
787.891	17405.45
788.224	17414.03
788.557	17477.76
788.89	17283.42
789.223	17438.21
789.556	17315.05
789.888	17216.98
790.221	17186.24
790.554	17193.7
790.887	17112.57
791.219	17143.98
791.552	17181.72
791.884	17022.63
792.217	17090.88
792.549	17029.19
792.882	16984.44
793.214	16905.35
793.546	16881.84
793.879	16900.15
794.211	16705.58
794.543	16824.22
794.875	16721.85
795.207	16817.67
795.539	16671.68
795.871	16741.51
796.203	16622.42
796.535	16591.91
796.867	16474.62
797.198	16488.18
797.53	16492.48
797.862	16350.56
798.193	16468.3
798.525	16366.83
798.856	16427.84
799.188	16200.73
799.519	16171.13
799.85	16118.25
800.182	16226.27
800.513	16217.68
800.844	15997.35
801.175	16120.96
801.506	16115.76
801.837	15998.03
802.168	16082.54
802.499	15992.38
802.83	15850.68
803.161	15779.73
803.491	15810.69
803.822	15810.01
804.153	15771.14
804.483	15609.56
804.814	15660.18
805.145	15546.06
805.475	15666.96
805.805	15506.97
806.136	15538.15
806.466	15498.38
806.796	15475.33
807.126	15363.24
807.457	15302.45
807.787	15354.65
808.117	15258.61
808.447	15299.96
808.777	15288.89
809.107	15274.88
809.436	15137.71
809.766	15184.26
810.096	15155.79
810.426	15164.38
810.755	15020.65
811.085	15008.45
811.414	15005.28
811.744	14913.53
812.073	14900.65
812.403	14871.05
812.732	14857.94
813.061	14851.62
813.39	14719.87
813.719	14681.68
814.049	14788.79
814.378	14725.97
814.707	14606.42
815.036	14637.38
815.365	14528.23
815.693	14549.02
816.022	14508.8
816.351	14513.54
816.68	14385.64
817.008	14445.52
817.337	14366.88
817.665	14241.91
817.994	14384.28
818.322	14324.62
818.651	14250.05
818.979	14252.31
819.307	14299.99
819.636	14303.38
819.964	14173.21
820.292	14260.22
820.62	14227.22
820.948	14101.8
821.276	14175.93
821.604	14149.03
821.932	14219.99
822.259	14160.56
822.587	14179.77
822.915	14147.9
823.243	14186.55
823.57	14215.93
823.898	14158.98
824.225	14175.02
824.553	14134.57
824.88	14160.11
825.207	14201.91
825.535	14167.11
825.862	14208.02
826.189	14166.44
826.516	14155.36
826.843	14189.94
827.17	14202.59
827.497	14156.04
827.824	14165.76
828.151	14218.86
828.478	14182.93
828.805	14269.03
829.131	14147.68
829.458	14128.47
829.785	14079.66
830.111	14073.1
830.438	14208.69
830.764	14245.08
831.09	14231.29
831.417	14120.11
831.743	14212.99
832.069	14108.81
832.395	14069.49
832.722	14116.72
833.048	14073.33
833.374	14089.83
833.7	14058.87
834.026	14135.25
834.351	14129.83
834.677	14039.21
835.003	14110.17
835.329	14069.26
835.654	14055.48
835.98	13931.19
836.306	13962.82
836.631	13961.02
836.956	13987.46
837.282	13987.01
837.607	13864.75
837.932	13842.83
838.258	13800.8
838.583	13837.4
838.908	13683.28
839.233	13751.08
839.558	13780
839.883	13689.16
840.208	13576.85
840.533	13654.36
840.858	13746.56
841.182	13681.02
841.507	13646.9
841.832	13604.87
842.156	13573.68
842.481	13532.78
842.805	13444.19
843.13	13506.57
843.454	13505.44
843.778	13475.38
844.103	13414.59
844.427	13349.51
844.751	13325.33
845.075	13280.58
845.399	13299.57
845.723	13149.29
846.047	13207.36
846.371	13076.75
846.695	13050.98
847.019	12998.1
847.343	12907.94
847.666	12899.58
847.99	12850.31
848.313	12853.25
848.637	12708.17
848.96	12719.92
849.284	12696.87
849.607	12585.23
849.931	12589.75
850.254	12500.72
850.577	12451.45
850.9	12428.18
851.223	12387.27
851.546	12333.72
851.869	12221.18
852.192	12262.08
852.515	12090.33
852.838	12138.24
853.161	12094.63
853.483	12067.06
853.806	11923.1
854.129	11988.41
854.451	11915.42
854.774	11813.5
855.096	11833.39
855.419	11838.81
855.741	11778.48
856.063	11713.84
856.385	11735.31
856.708	11680.17
857.03	11602.44
857.352	11680.17
857.674	11568.54
857.996	11479.27
858.318	11399.5
858.64	11399.28
858.961	11460.52
859.283	11420.29
859.605	11308.43
859.926	11354.98
860.248	11321.09
860.57	11269.56
860.891	11328.09
861.212	11192.5
861.534	11185.95
861.855	11166.97
862.176	11199.73
862.498	11182.33
862.819	11172.84
863.14	11032.73
863.461	11052.39
863.782	11003.81
864.103	11060.75
864.424	10962.45
864.745	10976.91
865.065	10991.15
865.386	10906.41
865.707	10888.56
866.027	10911.61
866.348	10919.97
866.668	10904.15
866.989	10809.01
867.309	10770.59
867.63	10790.7
867.95	10762.01
868.27	10692.4
868.59	10769.01
868.91	10715.9
869.23	10680.88
869.55	10642.46
869.87	10702.57
870.19	10627.32
870.51	10699.63
870.83	10696.24
871.15	10537.15
871.469	10632.07
871.789	10658.51
872.109	10573.31
872.428	10570.15
872.748	10476.81
873.067	10590.48
873.386	10576.47
873.706	10518.4
874.025	10493.31
874.344	10365.63
874.663	10422.35
874.982	10354.56
875.301	10388
875.62	10349.13
875.939	10303.49
876.258	10358.85
876.577	10341.9
876.896	10295.58
877.214	10289.25
877.533	10302.81
877.852	10278.18
878.17	10228.23
878.489	10204.28
878.807	10229.14
879.125	10266.88
879.444	10228.01
879.762	10161.57
880.08	10201.79
880.398	10170.61
880.716	10110.95
881.034	10068.01
881.352	10150.95
881.67	10063.72
881.988	10029.6
882.306	10027.11
882.624	10021.01
882.941	9924.74
883.259	9863.5
883.577	9926.09
883.894	9905.08
884.212	9891.29
884.529	9834.57
884.846	9849.49
885.164	9760.22
885.481	9770.62
885.798	9778.08
886.115	9739.21
886.432	9689.49
886.75	9671.41
887.067	9682.94
887.383	9596.61
887.7	9649.04
888.017	9591.19
888.334	9540.79
888.651	9532.21
888.967	9538.31
889.284	9484.98
889.6	9501.47
889.917	9418.99
890.233	9427.58
890.55	9403.62
890.866	9374.47
891.182	9299.9
891.498	9317.98
891.815	9287.47
892.131	9216.06
892.447	9165.21
892.763	9177.64
893.079	9148.49
893.395	9171.99
893.71	9125.21
894.026	9093.8
894.342	9001.6
894.657	8957.31
894.973	8916.86
895.289	8927.48
895.604	8917.99
895.92	8879.34
896.235	8856.97
896.55	8815.62
896.865	8829.63
897.181	8724.77
897.496	8853.81
897.811	8763.87
898.126	8714.15
898.441	8706.92
898.756	8649.07
899.071	8574.94
899.386	8618.11
899.7	8492.91
900.015	8503.53
900.33	8445.91
900.644	8430.99
900.959	8498.34
901.273	8355.06
901.588	8405.91
901.902	8318.68
902.216	8305.35
902.531	8326.59
902.845	8316.19
903.159	8189.19
903.473	8151.45
903.787	8123.2
904.101	8019.03
904.415	8126.14
904.729	8079.14
905.042	8031.68
905.356	7936.99
905.67	7979.93
905.984	7910.33
906.297	7892.48
906.611	7854.06
906.924	7889.99
907.237	7864.23
907.551	7796.43
907.864	7742.88
908.177	7733.16
908.491	7665.14
908.804	7598.7
909.117	7560.96
909.43	7569.77
909.743	7497.91
910.056	7497.68
910.368	7517.8
910.681	7430.79
910.994	7393.51
911.307	7432.6
911.619	7364.13
911.932	7339.95
912.244	7247.07
912.557	7246.62
912.869	7202.32
913.181	7156.22
913.494	7146.28
913.806	7144.25
914.118	7090.24
914.43	7104.25
914.742	7036.91
915.054	7029
915.366	7017.47
915.678	6973.4
915.99	6957.59
916.302	6876.23
916.613	6914.65
916.925	6867.19
917.236	6889.79
917.548	6790.13
917.859	6804.14
918.171	6760.3
918.482	6712.39
918.794	6707.42
919.105	6715.11
919.416	6633.53
919.727	6633.3
920.038	6623.58
920.349	6552.62
920.66	6511.27
920.971	6523.7
921.282	6500.65
921.593	6445.28
921.903	6461.1
922.214	6355.57
922.525	6351.73
922.835	6318.51
923.146	6305.17
923.456	6280.99
923.767	6313.08
924.077	6235.8
924.387	6291.16
924.697	6166.42
925.008	6157.83
925.318	6169.81
925.628	6095.69
925.938	6106.08
926.248	6087.78
926.558	6060.43
926.867	6038.06
927.177	6003.94
927.487	5975.46
927.796	5935.69
928.106	5914
928.416	5912.64
928.725	5923.26
929.034	5839.42
929.344	5848.01
929.653	5832.42
929.962	5761.46
930.271	5749.26
930.581	5732.31
930.89	5746.54
931.199	5737.96
931.508	5714.45
931.817	5626.77
932.125	5656.6
932.434	5608.69
932.743	5542.26
933.051	5544.97
933.36	5521.24
933.669	5466.78
933.977	5524.63
934.286	5491.86
934.594	5464.97
934.902	5448.92
935.21	5450.73
935.519	5374.58
935.827	5372.09
936.135	5321.47
936.443	5310.17
936.751	5274.24
937.059	5295.93
937.367	5248.93
937.674	5235.14
937.982	5242.38
938.29	5180.23
938.597	5194.02
938.905	5095.94
939.213	5070.18
939.52	5029.5
939.827	5053.91
940.135	5077.63
940.442	5020.46
940.749	4994.25
941.056	4993.8
941.363	4920.58
941.67	4935.27
941.977	4913.35
942.284	4887.58
942.591	4872.67
942.898	4803.97
943.205	4807.81
943.511	4763.97
943.818	4787.47
944.125	4768.04
944.431	4776.17
944.738	4684.42
945.044	4712.22
945.35	4649.4
945.657	4689.62
945.963	4662.28
946.269	4652.11
946.575	4613.69
946.881	4609.4
947.187	4596.97
947.493	4544.99
947.799	4519.91
948.105	4493.92
948.41	4481.49
948.716	4515.16
949.022	4479.46
949.327	4452.11
949.633	4354.72
949.938	4366.69
950.244	4368.5
950.549	4355.39
950.854	4384.55
951.16	4346.58
951.465	4351.1
951.77	4314.72
952.075	4251.89
952.38	4274.04
952.685	4247.83
952.99	4233.14
953.294	4200.14
953.599	4151.78
953.904	4149.98
954.209	4145
954.513	4123.31
954.818	4135.51
955.122	4076.98
955.426	4052.58
955.731	4063.65
956.035	4055.51
956.339	4006.7
956.643	4001.96
956.948	3963.31
957.252	3960.38
957.556	3934.16
957.86	3940.49
958.163	3905.24
958.467	3893.49
958.771	3859.14
959.075	3867.27
959.378	3820.94
959.682	3876.76
959.985	3814.39
960.289	3790.44
960.592	3804.67
960.896	3802.41
961.199	3771.23
961.502	3734.62
961.805	3774.62
962.108	3689.2
962.411	3701.17
962.714	3653.49
963.017	3635.86
963.32	3664.79
963.623	3606.71
963.926	3601.06
964.228	3614.4
964.531	3587.05
964.833	3580.95
965.136	3547.05
965.438	3522.65
965.741	3519.03
966.043	3485.81
966.345	3484.68
966.648	3489.65
966.95	3461.86
967.252	3438.36
967.554	3425.7
967.856	3419.83
968.158	3387.51
968.46	3388.19
968.761	3329.88
969.063	3321.52
969.365	3352.71
969.666	3329.21
969.968	3310
970.269	3301.86
970.571	3326.49
970.872	3278.81
971.174	3231.81
971.475	3243.56
971.776	3225.71
972.077	3176.22
972.378	3213.5
972.679	3189.77
972.98	3185.48
973.281	3163.33
973.582	3152.04
973.883	3174.86
974.183	3126.05
974.484	3112.26
974.785	3114.75
975.085	3054.86
975.386	3069.78
975.686	3067.07
975.986	3042.89
976.287	3033.85
976.587	3009.44
976.887	3032.94
977.187	3033.62
977.487	2972.61
977.787	2951.36
978.087	2933.51
978.387	2932.15
978.687	2924.25
978.987	2971.93
979.286	2853.51
979.586	2893.74
979.885	2898.03
980.185	2839.95
980.484	2839.5
980.784	2830.91
981.083	2841.99
981.382	2813.97
981.682	2789.79
981.981	2787.3
982.28	2741.43
982.579	2770.35
982.878	2729.22
983.177	2724.7
983.475	2751.59
983.774	2694.87
984.073	2699.39
984.372	2700.3
984.67	2656
984.969	2630.69
985.267	2653.97
985.566	2645.38
985.864	2610.58
986.162	2626.63
986.461	2594.08
986.759	2600.64
987.057	2551.83
987.355	2574.65
987.653	2561.54
987.951	2554.31
988.249	2507.08
988.547	2499.85
988.844	2490.13
989.142	2516.57
989.44	2455.33
989.737	2444.71
990.035	2443.58
990.332	2487.65
990.63	2434.31
990.927	2445.84
991.224	2439.29
991.521	2432.05
991.819	2396.58
992.116	2376.24
992.413	2387.54
992.71	2341.89
993.006	2359.97
993.303	2311.38
993.6	2336.46
993.897	2310.93
994.193	2333.3
994.49	2312.51
994.787	2286.75
995.083	2260.53
995.379	2281.1
995.676	2263.02
995.972	2212.63
996.268	2211.72
996.565	2214.43
996.861	2209.91
997.157	2228.22
997.453	2186.64
997.749	2166.75
998.044	2147.77
998.34	2178.95
998.636	2156.13
998.932	2129.01
999.227	2109.35
999.523	2108.45
999.818	2085.62
1000.114	2086.3
1000.409	2071.16
1000.704	2053.53
1001	2083.14
1001.295	2025.06
1001.59	2050.14
1001.885	2019.18
1002.18	2034.1
1002.475	1988.68
1002.77	1977.6
1003.065	1964.5
1003.359	1964.27
1003.654	1940.54
1003.949	1949.13
1004.243	1949.13
1004.538	1936.7
1004.832	1935.34
1005.127	1917.04
1005.421	1879.07
1005.715	1872.97
1006.009	1887.66
1006.304	1825.52
1006.598	1859.41
1006.892	1842.47
1007.186	1831.84
1007.48	1825.52
1007.773	1825.52
1008.067	1805.86
1008.361	1788.23
1008.655	1760.43
1008.948	1786.2
1009.242	1792.98
1009.535	1745.97
1009.829	1733.77
1010.122	1716.59
1010.415	1726.08
1010.708	1734.45
1011.001	1708.68
1011.295	1687.89
1011.588	1714.33
1011.881	1697.84
1012.173	1689.93
1012.466	1669.59
1012.759	1634.11
1013.052	1645.63
1013.344	1642.92
1013.637	1620.32
1013.93	1573.32
1014.222	1591.62
1014.514	1602.47
1014.807	1612.87
1015.099	1556.15
1015.391	1536.03
1015.683	1567.22
1015.976	1547.56
1016.268	1520.89
1016.56	1541.23
1016.851	1511.85
1017.143	1527.45
1017.435	1496.71
1017.727	1462.36
1018.018	1489.03
1018.31	1468.01
1018.602	1468.24
1018.893	1463.49
1019.185	1455.81
1019.476	1435.02
1019.767	1430.05
1020.058	1410.39
1020.35	1401.12
1020.641	1407.67
1020.932	1381.46
1021.223	1357.96
1021.514	1363.83
1021.804	1358.64
1022.095	1339.2
1022.386	1330.61
1022.677	1326.77
1022.967	1330.84
1023.258	1311.18
1023.548	1313.21
1023.839	1317.73
1024.129	1296.94
1024.419	1265.08
1024.709	1294.23
1025	1276.38
1025.29	1254.01
1025.58	1237.06
1025.87	1247.23
1026.16	1244.29
1026.449	1230.05
1026.739	1223.5
1027.029	1211.97
1027.319	1191.86
1027.608	1211.07
1027.898	1190.05
1028.187	1183.95
1028.477	1183.05
1028.766	1155.48
1029.055	1134.24
1029.344	1163.16
1029.634	1140.34
1029.923	1152.54
1030.212	1113.67
1030.501	1113.9
1030.79	1114.8
1031.078	1119.55
1031.367	1107.12
1031.656	1089.49
1031.945	1091.75
1032.233	1065.54
1032.522	1058.31
1032.81	1069.15
1033.099	1069.6
1033.387	1052.43
1033.675	1046.1
1033.963	1045.2
1034.251	1028.93
1034.54	1028.48
1034.828	1017.85
1035.116	1021.24
1035.403	1016.05
1035.691	982.6
1035.979	1010.85
1036.267	987.35
1036.554	982.83
1036.842	981.92
1037.129	964.3
1037.417	972.66
1037.704	948.25
1037.992	970.85
1038.279	956.16
1038.566	912.09
1038.853	912.09
1039.14	912.09
