Data from hue_290_FLMS001491_00044.txt Node
Date: Tue Feb 07 15:52:47 GMT 2017
User: dcchb
Spectrometer: FLMS00149
Trigger mode: 0
Integration Time (sec): 2.000000E-2
Scans to average: 10
Electric dark correction enabled: true
Nonlinearity correction enabled: false
Boxcar width: 0
XAxis mode: Wavelengths
Number of Pixels in Spectrum: 2048
>>>>>Begin Spectral Data<<<<<
341.393	-21.44
341.776	-21.44
342.16	-21.44
342.543	-47.65
342.927	-55.56
343.31	-65.28
343.693	-53.76
344.077	-68.9
344.46	-69.12
344.843	-50.14
345.226	-32.97
345.61	-26.41
345.993	-40.2
346.376	6.81
346.759	5.45
347.142	24.43
347.525	36.86
347.908	46.81
348.291	76.86
348.674	91.55
349.057	117.99
349.44	135.62
349.823	133.36
350.206	150.98
350.588	194.15
350.971	193.7
351.354	198.22
351.737	215.84
352.119	249.51
352.502	246.8
352.884	274.37
353.267	275.95
353.65	277.54
354.032	292.45
354.414	282.28
354.797	300.36
355.179	318.21
355.562	321.15
355.944	311.43
356.326	334.93
356.709	322.05
357.091	332
357.473	327.25
357.855	355.5
358.238	341.26
358.62	346.46
359.002	342.62
359.384	328.61
359.766	312.34
360.148	340.13
360.53	336.74
360.912	322.73
361.294	331.77
361.676	327.7
362.057	339.68
362.439	325.67
362.821	322.05
363.203	334.03
363.584	320.7
363.966	348.27
364.348	321.83
364.729	346.91
365.111	315.27
365.493	305.1
365.874	308.49
366.256	308.04
366.637	315.05
367.019	324.54
367.4	302.39
367.781	315.27
368.163	292
368.544	306.91
368.925	331.54
369.306	324.77
369.688	317.76
370.069	311.21
370.45	303.3
370.831	325.9
371.212	306.46
371.593	300.13
371.974	288.16
372.355	326.57
372.736	311.21
373.117	300.81
373.498	325.22
373.879	313.01
374.26	310.75
374.641	324.77
375.021	304.88
375.402	319.12
375.783	331.32
376.163	300.13
376.544	322.96
376.925	317.53
377.305	317.08
377.686	322.28
378.066	323.86
378.447	307.59
378.827	339.91
379.208	324.77
379.588	334.48
379.968	310.75
380.349	326.8
380.729	329.06
381.109	338.55
381.489	355.5
381.87	337.87
382.25	350.98
382.63	349.62
383.01	349.62
383.39	334.71
383.77	363.86
384.15	350.75
384.53	348.95
384.91	339.45
385.29	351.66
385.67	348.49
386.049	357.53
386.429	339.68
386.809	362.73
387.189	363.18
387.568	361.37
387.948	360.7
388.328	344.43
388.707	362.96
389.087	379
389.466	381.04
389.846	367.93
390.225	372.9
390.605	359.34
390.984	364.54
391.363	360.02
391.743	358.66
392.122	374.71
392.501	387.36
392.881	410.41
393.26	362.28
393.639	375.39
394.018	397.98
394.397	393.01
394.776	413.58
395.155	400.02
395.534	398.21
395.913	385.78
396.292	409.51
396.671	401.37
397.05	412.67
397.429	409.51
397.808	420.58
398.186	412.9
398.565	407.25
398.944	410.19
399.323	419
399.701	416.29
400.08	432.56
400.458	424.88
400.837	430.75
401.215	418.55
401.594	438.89
401.972	437.98
402.351	446.57
402.729	428.72
403.107	420.81
403.486	454.25
403.864	443.86
404.242	454.25
404.62	461.71
404.999	454.03
405.377	440.69
405.755	476.63
406.133	461.03
406.511	479.11
406.889	490.18
407.267	473.46
407.645	473.69
408.023	493.35
408.401	494.48
408.779	506.46
409.156	521.37
409.534	522.73
409.912	529.05
410.29	553.01
410.667	529.96
411.045	542.39
411.422	564.31
411.8	566.57
412.178	544.65
412.555	575.61
412.933	591.65
413.31	580.35
413.687	595.49
414.065	599.11
414.442	601.14
414.819	616.28
415.197	647.47
415.574	617.87
415.951	622.61
416.328	660.12
416.705	632.33
417.082	670.75
417.46	659.22
417.837	673
418.214	657.41
418.591	698.54
418.967	714.36
419.344	702.83
419.721	758.65
420.098	707.58
420.475	700.8
420.852	762.27
421.228	779.22
421.605	762.27
421.982	762.27
422.358	762.49
422.735	786.67
423.111	781.25
423.488	807.92
423.864	824.64
424.241	816.5
424.617	806.56
424.994	849.05
425.37	856.5
425.746	877.07
426.123	864.86
426.499	873.68
426.875	901.02
427.251	912.55
427.627	914.35
428.003	928.59
428.379	955.26
428.756	945.99
429.132	960.23
429.507	973.11
429.883	978.76
430.259	998.19
430.635	1002.71
431.011	1031.19
431.387	1010.85
431.763	1042.26
432.138	1065.99
432.514	1085.88
432.89	1060.11
433.265	1107.12
433.641	1120
434.016	1120.68
434.392	1137.4
434.767	1153.67
435.143	1135.14
435.518	1181.01
435.894	1203.39
436.269	1216.04
436.644	1214.46
437.02	1254.91
437.395	1233.22
437.77	1235.7
438.145	1285.87
438.52	1303.72
438.895	1318.41
439.271	1338.98
439.646	1334.91
440.021	1336.94
440.395	1333.1
440.77	1339.43
441.145	1353.66
441.52	1398.18
441.895	1390.73
442.27	1425.75
442.645	1412.65
443.019	1383.49
443.394	1409.03
443.769	1393.44
444.143	1426.66
444.518	1414.91
444.892	1442.02
445.267	1470.5
445.641	1475.02
446.016	1474.57
446.39	1477.05
446.764	1482.25
447.139	1461.01
447.513	1514.11
447.887	1499.42
448.262	1489.48
448.636	1511.63
449.01	1541.46
449.384	1563.6
449.758	1554.11
450.132	1549.37
450.506	1565.18
450.88	1566.77
451.254	1543.72
451.628	1574.9
452.002	1606.77
452.376	1591.4
452.75	1630.49
453.123	1679.08
453.497	1666.65
453.871	1683.83
454.244	1707.78
454.618	1685.41
454.992	1702.36
455.365	1730.38
455.739	1767.44
456.112	1740.77
456.486	1770.15
456.859	1781.22
457.232	1802.69
457.606	1827.1
457.979	1818.51
458.352	1814.22
458.725	1843.14
459.099	1842.01
459.472	1886.53
459.845	1894.22
460.218	1915.46
460.591	1966.53
460.964	1933.76
461.337	1991.16
461.71	1969.24
462.083	2025.96
462.456	1988.68
462.829	2015.79
463.201	2046.75
463.574	2045.85
463.947	2100.76
464.32	2142.57
464.692	2133.08
465.065	2131.05
465.438	2156.13
465.81	2175.56
466.183	2196.58
466.555	2254.43
466.928	2277.03
467.3	2242
467.672	2260.99
468.045	2341.89
468.417	2333.07
468.789	2326.07
469.161	2343.47
469.534	2380.08
469.906	2393.86
470.278	2439.96
470.65	2470.02
471.022	2512.28
471.394	2543.01
471.766	2542.79
472.138	2565.61
472.51	2624.37
472.882	2609.9
473.253	2646.96
473.625	2684.93
473.997	2693.97
474.369	2735.1
474.74	2740.3
475.112	2792.27
475.484	2782.78
475.855	2898.03
476.227	2885.83
476.598	2898.03
476.97	2936.67
477.341	3006.5
477.713	3038.82
478.084	3051.93
478.455	3096.9
478.827	3121.53
479.198	3220.06
479.569	3188.87
479.94	3273.39
480.311	3295.99
480.682	3321.3
481.053	3379.37
481.424	3425.25
481.795	3445.14
482.166	3472.71
482.537	3543.21
482.908	3594.96
483.279	3587.73
483.65	3642.87
484.021	3739.82
484.391	3740.72
484.762	3829.31
485.133	3828.18
485.503	3859.14
485.874	3916.76
486.244	3916.99
486.615	3967.16
486.985	4031.79
487.356	4041.28
487.726	4100.26
488.097	4178.68
488.467	4196.75
488.837	4262.74
489.207	4258
489.578	4325.11
489.948	4354.49
490.318	4387.26
490.688	4421.38
491.058	4471.32
491.428	4516.97
491.798	4540.93
492.168	4634.03
492.538	4619.57
492.908	4698.21
493.278	4704.09
493.648	4731.43
494.017	4737.53
494.387	4808.94
494.757	4842.61
495.126	4895.27
495.496	4888.71
495.866	4892.55
496.235	4958.77
496.605	5008.48
496.974	5019.56
497.344	5023.62
497.713	5044.19
498.082	5143.17
498.452	5089.39
498.821	5139.1
499.19	5143.4
499.559	5187.91
499.928	5232.43
500.298	5242.15
500.667	5260.68
501.036	5234.92
501.405	5322.15
501.774	5302.04
502.143	5325.31
502.512	5347.91
502.88	5419.77
503.249	5432.43
503.618	5434.91
503.987	5524.85
504.356	5494.57
504.724	5491.18
505.093	5495.7
505.462	5516.72
505.83	5540
506.199	5586.77
506.567	5665.42
506.936	5600.56
507.304	5676.26
507.672	5683.27
508.041	5713.32
508.409	5727.79
508.777	5765.07
509.145	5800.1
509.514	5809.37
509.882	5794.68
510.25	5787.22
510.618	5841
510.986	5858.86
511.354	5926.88
511.722	5950.61
512.09	5955.13
512.458	5904.51
512.826	5961
513.193	6018.4
513.561	5994.67
513.929	6048.91
514.297	6063.6
514.664	6051.17
515.032	6136.59
515.4	6173.65
515.767	6124.61
516.135	6194.22
516.502	6198.96
516.869	6249.58
517.237	6273.99
517.604	6226.31
517.972	6258.85
518.339	6317.15
518.706	6314.21
519.073	6339.07
519.44	6348.56
519.808	6417.49
520.175	6330.48
520.542	6466.75
520.909	6481.44
521.276	6417.26
521.643	6504.26
522.009	6539.07
522.376	6539.74
522.743	6627.88
523.11	6630.14
523.477	6690.02
523.843	6660.64
524.21	6735.22
524.577	6771.6
524.943	6812.05
525.31	6856.8
525.676	6900.64
526.043	6933.18
526.409	7018.15
526.776	6989.22
527.142	6995.1
527.508	7052.5
527.874	7038.94
528.241	7077.13
528.607	7073.29
528.973	7186.73
529.339	7140.86
529.705	7167.98
530.071	7291.14
530.437	7175.66
530.803	7298.37
531.169	7298.82
531.535	7316.9
531.901	7287.07
532.267	7379.72
532.632	7443.45
532.998	7448.65
533.364	7540.85
533.73	7494.07
534.095	7528.19
534.461	7571.58
534.826	7657.45
535.192	7623.1
535.557	7653.84
535.923	7664.23
536.288	7651.8
536.653	7681.86
537.019	7718.92
537.384	7744.23
537.749	7805.47
538.114	7806.15
538.479	7798.92
538.845	7846.15
539.21	7845.47
539.575	7921.63
539.94	7897.9
540.305	7965.24
540.67	7906.94
541.034	7983.1
541.399	7966.37
541.764	7982.87
542.129	8040.72
542.494	8061.51
542.858	8097.89
543.223	8056.09
543.587	8130.66
543.952	8132.47
544.316	8246.59
544.681	8141.51
545.045	8145.58
545.41	8256.08
545.774	8188.29
546.138	8216.08
546.503	8307.83
546.867	8246.37
547.231	8309.64
547.595	8355.06
547.959	8369.53
548.324	8447.04
548.688	8397.55
549.052	8405.68
549.416	8409.3
549.779	8505.79
550.143	8432.35
550.507	8518.22
550.871	8542.63
551.235	8522.97
551.599	8587.6
551.962	8634.83
552.326	8620.37
552.689	8716.86
553.053	8654.04
553.417	8632.34
553.78	8727.03
554.143	8682.51
554.507	8791.66
554.87	8758.22
555.234	8795.5
555.597	8787.14
555.96	8829.17
556.323	8855.61
556.686	8861.04
557.05	8906.69
557.413	8925.44
557.776	8939.91
558.139	8972.67
558.502	8975.39
558.865	8998.21
559.228	9106.23
559.59	9042.95
559.953	9030.98
560.316	9199.79
560.679	9158.88
561.041	9207.47
561.404	9169.05
561.767	9229.16
562.129	9298.99
562.492	9306
562.854	9388.03
563.217	9291.76
563.579	9393.91
563.941	9301.25
564.304	9466.22
564.666	9487.24
565.028	9524.75
565.39	9477.29
565.753	9567.69
566.115	9538.08
566.477	9652.2
566.839	9593.22
567.201	9676.16
567.563	9682.94
567.925	9724.07
568.287	9737.4
568.648	9771.97
569.01	9828.02
569.372	9905.53
569.734	9883.16
570.095	9953.66
570.457	10003.16
570.819	10050.84
571.18	10039.31
571.542	10036.83
571.903	10165.86
572.265	10140.55
572.626	10231.62
572.987	10242.02
573.349	10283.15
573.71	10317.27
574.071	10349.13
574.432	10384.16
574.794	10481.11
575.155	10467.55
575.516	10547.77
575.877	10524.5
576.238	10595.46
576.599	10674.32
576.96	10717.26
577.32	10793.19
577.681	10856.92
578.042	10922
578.403	10912.96
578.763	10986.18
579.124	11041.09
579.485	11190.24
579.845	11196.57
580.206	11186.85
580.566	11351.82
580.927	11376.45
581.287	11472.27
581.648	11509.78
582.008	11646.5
582.368	11733.51
582.728	11852.82
583.089	11910
583.449	12007.62
583.809	12109.31
584.169	12248.52
584.529	12289.65
584.889	12517.21
585.249	12514.95
585.609	12575.74
585.969	12746.59
586.329	12804.89
586.688	12952.68
587.048	13107.03
587.408	13185.22
587.768	13265.67
588.127	13439.22
588.487	13498.88
588.846	13646.45
589.206	13763.73
589.565	13874.01
589.925	14037.63
590.284	14167.11
590.643	14377.73
591.003	14549.02
591.362	14688.46
591.721	14805.51
592.08	14906.08
592.44	15090.48
592.799	15200.98
593.158	15241.21
593.517	15400.53
593.876	15617.7
594.235	15747.41
594.593	15733.17
594.952	16033.05
595.311	16057.01
595.67	16202.09
596.029	16529.99
596.387	16649.31
596.746	16739.93
597.104	16844.11
597.463	16900.6
597.822	17149.86
598.18	17159.8
598.538	17277.31
598.897	17515.5
599.255	17481.6
599.613	17824.64
599.972	17729.05
600.33	17971.08
600.688	18109.61
601.046	18182.15
601.404	18264.63
601.762	18372.65
602.12	18523.61
602.478	18693.1
602.836	18717.5
603.194	18770.83
603.552	18939.64
603.91	18911.17
604.268	19212.18
604.625	19085.85
604.983	19414.43
605.341	19247.66
605.698	19564.03
606.056	19646.07
606.413	19668.66
606.771	19866.85
607.128	19926.51
607.485	19847.87
607.843	20012.61
608.2	20106.84
608.557	20281.98
608.914	20239.04
609.272	20406.72
609.629	20422.32
609.986	20634.51
610.343	20576.44
610.7	20844.9
611.057	20814.62
611.414	20901.17
611.771	20864.11
612.127	21103.65
612.484	21093.26
612.841	21155.63
613.198	21230.2
613.554	21251.67
613.911	21521.27
614.267	21398.79
614.624	21563.08
614.98	21473.36
615.337	21678.1
615.693	21806.91
616.05	21756.07
616.406	21837.65
616.762	21883.07
617.118	21967.36
617.475	21974.14
617.831	22082.84
618.187	22163.06
618.543	22214.81
618.899	22300.91
619.255	22281.93
619.611	22282.83
619.967	22414.81
620.323	22444.86
620.678	22425.43
621.034	22450.74
621.39	22466.78
621.746	22424.07
622.101	22764.4
622.457	22518.98
622.812	22627.46
623.168	22779.77
623.523	22733.89
623.879	22852.76
624.234	22607.57
624.589	22771.86
624.945	22817.06
625.3	22861.12
625.655	22784.74
626.01	22816.38
626.365	22902.02
626.72	22949.48
627.075	22855.25
627.43	22862.25
627.785	22896.38
628.14	22883.49
628.495	22789.94
628.85	22941.8
629.205	22846.89
629.559	22999.88
629.914	22889.6
630.269	23001.91
630.623	22863.38
630.978	22853.44
631.332	22987.9
631.687	23014.11
632.041	22903.61
632.396	22891.4
632.75	22829.48
633.104	22908.13
633.459	22805.76
633.813	22884.4
634.167	22843.72
634.521	22857.28
634.875	22918.97
635.229	22849.37
635.583	22792.2
635.937	22813.89
636.291	22859.31
636.645	22715.82
636.999	22833.1
637.352	22803.04
637.706	22733.89
638.06	22787.9
638.413	22771.63
638.767	22720.11
639.121	22676.27
639.474	22632.2
639.828	22633.33
640.181	22680.56
640.534	22707.68
640.888	22625.2
641.241	22450.06
641.594	22637.17
641.947	22718.53
642.301	22678.53
642.654	22594.24
643.007	22619.55
643.36	22643.27
643.713	22492.54
644.066	22681.69
644.419	22547.91
644.771	22387.24
645.124	22180.24
645.477	22086.45
645.83	22034.93
646.182	21898.66
646.535	21804.65
646.888	21812.11
647.24	21786.12
647.593	21975.27
647.945	21876.06
648.298	21669.74
648.65	21695.05
649.002	21625
649.355	21866.8
649.707	21778.44
650.059	21910.86
650.411	22143.4
650.763	22170.52
651.115	22323.28
651.467	22348.14
651.819	22359.21
652.171	22313.79
652.523	22277.63
652.875	22277.86
653.227	22192.21
653.578	22229.95
653.93	22297.97
654.282	22224.53
654.633	22219.78
654.985	22326.45
655.337	22354.69
655.688	22373.23
656.039	22410.74
656.391	22172.78
656.742	22346.11
657.094	22370.29
657.445	22331.64
657.796	22342.49
658.147	22321.02
658.498	22238.99
658.849	22441.02
659.2	22332.32
659.551	22312.21
659.902	22332.77
660.253	22375.26
660.604	22348.59
660.955	22323.74
661.306	22346.56
661.656	22262.95
662.007	22395.37
662.358	22268.37
662.708	22276.28
663.059	22375.26
663.409	22256.17
663.76	22380.91
664.11	22413.45
664.461	22435.37
664.811	22369.16
665.161	22370.51
665.511	22252.78
665.862	22350.4
666.212	22440.34
666.562	22453.9
666.912	22404.18
667.262	22293.45
667.612	22278.76
667.962	22424.98
668.312	22300.91
668.662	22411.42
669.011	22359.21
669.361	22403.51
669.711	22318.09
670.06	22339.1
670.41	22298.2
670.76	22249.39
671.109	22250.06
671.459	22280.12
671.808	22186.11
672.157	22304.53
672.507	22117.19
672.856	22059.34
673.205	22195.83
673.554	22343.4
673.904	22162.61
674.253	22260.46
674.602	22175.04
674.951	21864.99
675.3	21832.22
675.649	22130.75
675.998	22047.36
676.346	22115.15
676.695	22199.67
677.044	22030.86
677.393	22103.4
677.741	22058.66
678.09	22001.48
678.438	21856.85
678.787	21971.2
679.135	22034.03
679.484	21848.72
679.832	21915.38
680.181	21657.31
680.529	21783.41
680.877	21728.27
681.225	21800.13
681.573	21823.64
681.922	21616.86
682.27	21470.2
682.618	21585.9
682.966	21590.87
683.314	21683.3
683.661	21518.11
684.009	21465.9
684.357	21491.44
684.705	21364.44
685.053	21365.57
685.4	21350.65
685.748	21135.97
686.095	21300.71
686.443	21119.02
686.79	21126.03
687.138	21148.17
687.485	21111.79
687.832	21095.97
688.18	21100.04
688.527	20884.68
688.874	20977.33
689.221	20810.55
689.568	20791.35
689.915	20721.07
690.262	20628.41
690.609	20564.46
690.956	20584.35
691.303	20424.12
691.65	20399.94
691.997	20427.06
692.344	20327.4
692.69	20227.07
693.037	20219.61
693.383	20163.11
693.73	20152.72
694.077	19990.01
694.423	19919.73
694.769	19918.15
695.116	19889.9
695.462	19831.37
695.808	19743.69
696.155	19805.16
696.501	19709.34
696.847	19622.56
697.193	19403.81
697.539	19444.71
697.885	19404.04
698.231	19272.52
698.577	19259.63
698.923	19204.27
699.269	19120.66
699.614	19011.28
699.96	18990.04
700.306	18920.66
700.651	18937.16
700.997	18781.91
701.342	18722.7
701.688	18790.72
702.033	18677.5
702.379	18595.47
702.724	18541.91
703.069	18646.77
703.415	18380.34
703.76	18348.47
704.105	18432.76
704.45	18283.62
704.795	18241.58
705.14	18083.17
705.485	18042.94
705.83	18112.09
706.175	17989.61
706.52	17951.42
706.865	17906.68
707.209	17859.45
707.554	17751.2
707.899	17940.35
708.243	17714.14
708.588	17742.39
708.932	17593.46
709.277	17532.45
709.621	17577.19
709.966	17428.72
710.31	17492.9
710.654	17270.76
710.998	17267.14
711.342	17394.15
711.687	17292.68
712.031	17108.5
712.375	17120.93
712.719	17171.1
713.063	17125
713.407	17122.29
713.75	17038.9
714.094	17002.07
714.438	16879.13
714.782	16882.97
715.125	16891.56
715.469	16936.98
715.812	16848.85
716.156	16716.88
716.499	16709.19
716.843	16788.06
717.186	16673.04
717.53	16715.97
717.873	16809.08
718.216	16758.68
718.559	16541.51
718.902	16580.84
719.246	16491.35
719.589	16481.63
719.932	16465.58
720.275	16317.11
720.617	16426.26
720.96	16371.8
721.303	16481.4
721.646	16419.26
721.989	16249.77
722.331	16319.37
722.674	16309.2
723.016	16290
723.359	16261.75
723.701	16262.65
724.044	16219.94
724.386	16086.84
724.729	16252.93
725.071	16119.6
725.413	16080.51
725.755	16116.21
726.097	16050.45
726.439	15929.78
726.782	16028.53
727.124	16093.62
727.465	15936.56
727.807	15971.59
728.149	15950.8
728.491	15966.61
728.833	15986.05
729.175	15885.71
729.516	15835.32
729.858	15858.59
730.199	15981.98
730.541	15905.82
730.882	15826.05
731.224	15950.12
731.565	15850.23
731.906	15769.33
732.248	15854.07
732.589	15769.78
732.93	15739.05
733.271	15858.14
733.612	15838.03
733.953	15772.72
734.294	15742.21
734.635	15726.17
734.976	15828.99
735.317	15774.75
735.658	15775.21
735.999	15691.82
736.339	15741.31
736.68	15794.64
737.021	15726.17
737.361	15721.87
737.702	15718.26
738.042	15664.48
738.383	15759.84
738.723	15767.75
739.063	15759.84
739.404	15843.68
739.744	15737.02
740.084	15715.55
740.424	15762.1
740.764	15820.4
741.104	15899.05
741.444	15829.67
741.784	15767.75
742.124	15805.26
742.464	15856.79
742.804	15737.69
743.143	15794.42
743.483	15925.94
743.823	15861.08
744.162	15843.91
744.502	15949.67
744.841	15833.51
745.181	15971.36
745.52	15900.63
745.86	16005.26
746.199	15953.96
746.538	16083.45
746.877	16050.23
747.216	16144.46
747.556	16220.39
747.895	16239.6
748.234	16264.91
748.573	16254.74
748.911	16324.57
749.25	16412.7
749.589	16393.72
749.928	16549.88
750.267	16574.51
750.605	16634.85
750.944	16770.43
751.283	16755.52
751.621	16933.37
751.96	16921.17
752.298	17014.04
752.636	17123.87
752.975	17205
753.313	17177.2
753.651	17413.36
753.989	17407.03
754.327	17543.52
754.666	17634.37
755.004	17801.37
755.342	17846.11
755.679	17987.8
756.017	18004.3
756.355	18167.01
756.693	18157.06
757.031	18288.81
757.368	18312.32
757.706	18474.8
758.044	18519.32
758.381	18774.45
758.719	18709.14
759.056	18877.27
759.394	19030.49
759.731	19079.98
760.068	19174.67
760.405	19209.24
760.743	19319.97
761.08	19476.13
761.417	19573.52
761.754	19674.09
762.091	19792.28
762.428	19822.78
762.765	19871.14
763.102	20080.18
763.438	20086.05
763.775	20119.95
764.112	20219.16
764.449	20314.07
764.785	20401.75
765.122	20466.16
765.458	20428.19
765.795	20581.63
766.131	20549.54
766.467	20633.38
766.804	20633.16
767.14	20688.3
767.476	20783.44
767.812	20834.28
768.148	20956.09
768.485	20825.92
768.821	20792.48
769.157	20912.02
769.492	20977.1
769.828	21031.79
770.164	20938.46
770.5	20991.79
770.836	20952.25
771.171	20967.16
771.507	20980.72
771.842	20973.04
772.178	21033.15
772.513	21034.5
772.849	21050.77
773.184	20938.46
773.519	21025.01
773.855	20988.18
774.19	21030.66
774.525	20911.34
774.86	21091.68
775.195	21091.68
775.53	21003.32
775.865	20976.43
776.2	20868.18
776.535	20788.63
776.87	20854.62
777.205	20822.53
777.539	20719.03
777.874	20815.75
778.209	20578.24
778.543	20644.01
778.878	20473.16
779.212	20566.49
779.547	20468.87
779.881	20541.64
780.215	20444.46
780.55	20615.08
780.884	20520.84
781.218	20403.56
781.552	20439.94
781.886	20370.11
782.22	20174.64
782.554	20284.47
782.888	20002.21
783.222	20039.95
783.556	19990.92
783.889	20033.17
784.223	19863.01
784.557	19922.89
784.89	19970.35
785.224	19723.58
785.557	19686.74
785.891	19656.69
786.224	19651.71
786.558	19630.92
786.891	19458.95
787.224	19369.46
787.557	19472.74
787.891	19378.5
788.224	19313.19
788.557	19292.18
788.89	19222.12
789.223	19258.28
789.556	19174.67
789.888	19067.78
790.221	19030.71
790.554	18999.98
790.887	18835.69
791.219	18827.1
791.552	18793.66
791.884	18726.32
792.217	18687.22
792.549	18649.03
792.882	18476.83
793.214	18414.23
793.546	18456.72
793.879	18391.41
794.211	18228.25
794.543	18372.88
794.875	18266.89
795.207	18383.95
795.539	18179.89
795.871	18257.63
796.203	18049.95
796.535	17967.92
796.867	18039.1
797.198	17806.11
797.53	17795.27
797.862	17670.98
798.193	17740.13
798.525	17642.05
798.856	17605.89
799.188	17526.12
799.519	17389.85
799.85	17422.62
800.182	17369.29
800.513	17400.47
800.844	17254.26
801.175	17423.52
801.506	17295.84
801.837	17250.65
802.168	17091.1
802.499	17161.16
802.83	17078.68
803.161	16949.64
803.491	17039.81
803.822	16881.62
804.153	16944.22
804.483	16718.68
804.814	16675.52
805.145	16647.27
805.475	16748.29
805.805	16596.88
806.136	16631.23
806.466	16631.46
806.796	16571.57
807.126	16382.87
807.457	16342.42
807.787	16472.82
808.117	16356.66
808.447	16260.17
808.777	16308.75
809.107	16260.62
809.436	16123.9
809.766	16101.07
810.096	16027.18
810.426	16031.92
810.755	16028.53
811.085	15911.25
811.414	15985.82
811.744	15855.88
812.073	15887.75
812.403	15819.05
812.732	15798.93
813.061	15708.77
813.39	15666.96
813.719	15642.1
814.049	15636.91
814.378	15619.96
814.707	15578.38
815.036	15466.29
815.365	15498.6
815.693	15315.11
816.022	15364.37
816.351	15263.81
816.68	15232.17
817.008	15265.16
817.337	15174.77
817.665	15124.15
817.994	15233.98
818.322	15084.38
818.651	14961.22
818.979	15009.13
819.307	15038.95
819.636	15053.87
819.964	14937.71
820.292	15006.87
820.62	14988.56
820.948	14953.08
821.276	14923.25
821.604	14888
821.932	14891.61
822.259	14926.19
822.587	14837.15
822.915	14835.8
823.243	14850.71
823.57	14799.19
823.898	14846.19
824.225	14769.36
824.553	14795.8
824.88	14872.63
825.207	14864.5
825.535	14869.92
825.862	14837.6
826.189	14713.77
826.516	14901.78
826.843	14921.44
827.17	14853.65
827.497	14880.31
827.824	14861.56
828.151	14857.26
828.478	14867.21
828.805	14911.27
829.131	14857.26
829.458	14831.28
829.785	14735.91
830.111	14806.42
830.438	14821.56
830.764	14780.43
831.09	14882.57
831.417	14789.47
831.743	14794.22
832.069	14828.56
832.395	14712.86
832.722	14767.32
833.048	14701.56
833.374	14694.78
833.7	14746.76
834.026	14731.84
834.351	14591.73
834.677	14628.34
835.003	14679.87
835.329	14684.16
835.654	14562.13
835.98	14553.09
836.306	14640.77
836.631	14492.3
836.956	14464.96
837.282	14566.42
837.607	14534.34
837.932	14473.77
838.258	14443.49
838.583	14404.4
838.908	14398.29
839.233	14314.23
839.558	14317.84
839.883	14332.76
840.208	14290.95
840.533	14182.93
840.858	14312.87
841.182	14229.48
841.507	14290.95
841.832	14116.04
842.156	14131.41
842.481	14095.48
842.805	14043.5
843.13	14114.46
843.454	14055.03
843.778	14000.56
844.103	13959.66
844.427	13839.21
844.751	13935.71
845.075	13884.86
845.399	13753.11
845.723	13766.45
846.047	13667.69
846.371	13631.53
846.695	13634.92
847.019	13521.71
847.343	13488.94
847.666	13441.93
847.99	13387.47
848.313	13412.78
848.637	13255.5
848.96	13268.38
849.284	13130.76
849.607	13118.78
849.931	13015.28
850.254	12957.43
850.577	12958.78
850.9	12840.14
851.223	12811.89
851.546	12803.31
851.869	12723.76
852.192	12748.62
852.515	12625.68
852.838	12572.35
853.161	12586.36
853.483	12453.71
853.806	12491.23
854.129	12445.58
854.451	12436.76
854.774	12454.16
855.096	12319.48
855.419	12330.55
855.741	12189.09
856.063	12180.05
856.385	12135.98
856.708	12159.71
857.03	12064.12
857.352	12089.2
857.674	11999.94
857.996	12013.72
858.318	11946.61
858.64	11915.42
858.961	11942.77
859.283	11850.34
859.605	11802.43
859.926	11838.59
860.248	11688.08
860.57	11741.64
860.891	11729.44
861.212	11647.18
861.534	11631.36
861.855	11620.74
862.176	11575.09
862.498	11590.01
862.819	11619.61
863.14	11547.3
863.461	11504.36
863.782	11469.33
864.103	11450.12
864.424	11408.09
864.745	11477.24
865.065	11258.49
865.386	11278.83
865.707	11280.86
866.027	11348.66
866.348	11252.39
866.668	11301.2
866.989	11235.89
867.309	11179.62
867.63	11201.99
867.95	11161.32
868.27	11101.66
868.59	11137.59
868.91	11108.89
869.23	11127.87
869.55	11068.66
869.87	11016.69
870.19	10996.8
870.51	11098.95
870.83	11064.14
871.15	10950.47
871.469	10940.53
871.789	10985.5
872.109	10948.21
872.428	10922
872.748	10849.01
873.067	10974.65
873.386	10939.85
873.706	10903.47
874.025	10834.55
874.344	10793.19
874.663	10832.29
874.982	10812.17
875.301	10739.18
875.62	10662.35
875.939	10737.6
876.258	10722.68
876.577	10700.76
876.896	10702.8
877.214	10671.61
877.533	10647.21
877.852	10668
878.17	10660.54
878.489	10598.17
878.807	10588.45
879.125	10634.55
879.444	10529.24
879.762	10475.01
880.08	10537.15
880.398	10441.79
880.716	10478.4
881.034	10464.61
881.352	10409.25
881.67	10388
881.988	10383.03
882.306	10348.68
882.624	10288.8
882.941	10287.44
883.259	10295.35
883.577	10295.58
883.894	10225.97
884.212	10193.88
884.529	10185.07
884.846	10187.56
885.164	10212.19
885.481	10093.32
885.798	10122.93
886.115	9989.37
886.432	10017.84
886.75	9967.9
887.067	9959.54
887.383	9950.95
887.7	9941.46
888.017	9861.46
888.334	9962.03
888.651	9817.4
888.967	9899.88
889.284	9769.04
889.6	9821.69
889.917	9656.27
890.233	9750.51
890.55	9649.72
890.866	9708.02
891.182	9634.13
891.498	9588.93
891.815	9501.47
892.131	9559.1
892.447	9506.44
892.763	9459.44
893.079	9455.37
893.395	9445.88
893.71	9406.11
894.026	9402.49
894.342	9319.78
894.657	9352.55
894.973	9269.16
895.289	9249.5
895.604	9239.11
895.92	9203.18
896.235	9126.34
896.55	9138.77
896.865	9115.04
897.181	9041.82
897.496	9080.47
897.811	8991.43
898.126	8993.69
898.441	8995.5
898.756	9005.22
899.071	8870.53
899.386	8888.38
899.7	8818.55
900.015	8778.1
900.33	8738.56
900.644	8723.64
900.959	8685.68
901.273	8758.44
901.588	8654.26
901.902	8618.78
902.216	8568.39
902.531	8507.15
902.845	8511.67
903.159	8460.82
903.473	8467.38
903.787	8404.55
904.101	8351.67
904.415	8324.56
904.729	8316.65
905.042	8254.73
905.356	8200.26
905.67	8284.1
905.984	8246.59
906.297	8209.3
906.611	8169.53
906.924	8130.89
907.237	8059.48
907.551	8085.01
907.864	8059.03
908.177	7937.67
908.491	7972.25
908.804	7925.47
909.117	7892.25
909.43	7833.49
909.743	7849.09
910.056	7798.02
910.368	7794.85
910.681	7779.48
910.994	7667.62
911.307	7673.27
911.619	7600.28
911.932	7671.24
912.244	7551.24
912.557	7543.11
912.869	7455.88
913.181	7457.23
913.494	7465.59
913.806	7424.69
914.118	7428.99
914.43	7294.07
914.742	7358.25
915.054	7292.04
915.366	7257.24
915.678	7221.99
915.99	7226.96
916.302	7122.78
916.613	7144.02
916.925	7089.11
917.236	7085.94
917.548	7020.18
917.859	7085.94
918.171	6950.58
918.482	6964.82
918.794	6937.02
919.105	6956.46
919.416	6901.54
919.727	6876.68
920.038	6791.94
920.349	6784.93
920.66	6711.94
920.971	6763.69
921.282	6707.65
921.593	6636.92
921.903	6645.5
922.214	6642.11
922.525	6651.6
922.835	6542
923.146	6483.47
923.456	6467.2
923.767	6504.49
924.077	6450.48
924.387	6410.03
924.697	6378.39
925.008	6394.44
925.318	6304.95
925.628	6339.3
925.938	6316.02
926.248	6250.03
926.558	6231.73
926.867	6197.61
927.177	6128.45
927.487	6132.75
927.796	6049.13
928.106	6132.07
928.416	6064.28
928.725	6037.84
929.034	5950.38
929.344	5987.67
929.653	5982.92
929.962	5982.47
930.271	5883.49
930.581	5911.51
930.89	5939.08
931.199	5884.17
931.508	5833.32
931.817	5817.05
932.125	5814.11
932.434	5764.85
932.743	5707.45
933.051	5682.59
933.36	5704.51
933.669	5673.33
933.977	5649.82
934.286	5615.93
934.594	5608.02
934.902	5528.24
935.21	5497.74
935.519	5484.4
935.827	5540.45
936.135	5517.62
936.443	5450.28
936.751	5403.05
937.059	5470.17
937.367	5385.88
937.674	5350.62
937.982	5302.94
938.29	5311.3
938.597	5287.8
938.905	5268.36
939.213	5251.42
939.52	5165.99
939.827	5238.53
940.135	5207.57
940.442	5151.08
940.749	5154.24
941.056	5145.88
941.363	5063.85
941.67	5066.79
941.977	5005.09
942.284	4986.11
942.591	4977.3
942.898	4981.37
943.205	4961.71
943.511	4959.67
943.818	4917.64
944.125	4923.74
944.431	4905.89
944.738	4870.18
945.044	4848.94
945.35	4819.56
945.657	4728.04
945.963	4752.9
946.269	4761.03
946.575	4736.4
946.881	4712.45
947.187	4689.85
947.493	4659.79
947.799	4640.36
948.105	4626.57
948.41	4625.9
948.716	4613.24
949.022	4558.78
949.327	4596.74
949.633	4508.84
949.938	4522.62
950.244	4529.85
950.549	4461.15
950.854	4434.49
951.16	4388.84
951.465	4439.46
951.77	4335.73
952.075	4400.59
952.38	4379.57
952.685	4397.65
952.99	4272.91
953.294	4312.23
953.599	4249.86
953.904	4200.14
954.209	4225
954.513	4243.08
954.818	4224.32
955.122	4189.07
955.426	4174.16
955.731	4128.51
956.035	4161.27
956.339	4116.76
956.643	4091.9
956.948	4057.1
957.252	4049.64
957.556	4072.46
957.86	4025.46
958.163	4048.06
958.467	3990.88
958.771	3975.74
959.075	4012.58
959.378	3925.12
959.682	3911.34
959.985	3911.56
960.289	3912.92
960.592	3880.38
960.896	3912.47
961.199	3833.83
961.502	3826.37
961.805	3772.58
962.108	3761.29
962.411	3832.02
962.714	3732.36
963.017	3754.28
963.32	3717.67
963.623	3712.47
963.926	3674.96
964.228	3668.86
964.531	3644.9
964.833	3660.05
965.136	3632.02
965.438	3595.64
965.741	3568.3
966.043	3589.54
966.345	3550.22
966.648	3527.17
966.95	3565.81
967.252	3523.1
967.554	3536.43
967.856	3483.1
968.158	3497.34
968.46	3454.4
968.761	3457.11
969.063	3454.4
969.365	3412.14
969.666	3391.13
969.968	3353.84
970.269	3362.43
970.571	3336.44
970.872	3335.76
971.174	3294.86
971.475	3299.6
971.776	3323.33
972.077	3261.64
972.378	3264.35
972.679	3259.38
972.98	3249.21
973.281	3233.16
973.582	3198.59
973.883	3192.94
974.183	3188.19
974.484	3187.97
974.785	3165.37
975.085	3134.86
975.386	3121.75
975.686	3130.57
975.986	3109.55
976.287	3105.26
976.587	3077.91
976.887	3029.78
977.187	3063.22
977.487	3023.9
977.787	3016.9
978.087	2981.19
978.387	2998.82
978.687	2990.68
978.987	2947.07
979.286	2969.89
979.586	2944.58
979.885	2928.99
980.185	2862.33
980.484	2901.65
980.784	2882.21
981.083	2868.65
981.382	2886.51
981.682	2877.01
981.981	2836.11
982.28	2838.15
982.579	2800.63
982.878	2812.16
983.177	2776
983.475	2747.53
983.774	2752.72
984.073	2731.71
984.372	2695.1
984.67	2698.26
984.969	2702.33
985.267	2695.78
985.566	2713.18
985.864	2683.57
986.162	2663.24
986.461	2637.02
986.759	2627.08
987.057	2567.42
987.355	2594.76
987.653	2597.7
987.951	2583.92
988.249	2579.4
988.547	2524.93
988.844	2536.68
989.142	2535.78
989.44	2526.74
989.737	2505.27
990.035	2491.71
990.332	2474.54
990.63	2459.4
990.927	2448.55
991.224	2466.86
991.521	2453.52
991.819	2463.24
992.116	2431.83
992.413	2377.82
992.71	2411.04
993.006	2384.15
993.303	2381.21
993.6	2365.39
993.897	2375.56
994.193	2332.4
994.49	2345.28
994.787	2318.84
995.083	2338.72
995.379	2259.86
995.676	2281.1
995.972	2283.58
996.268	2250.36
996.565	2242.68
996.861	2236.81
997.157	2233.19
997.453	2212.4
997.749	2219.86
998.044	2198.16
998.34	2190.25
998.636	2168.56
998.932	2165.85
999.227	2137.37
999.523	2117.03
999.818	2106.19
1000.114	2126.3
1000.409	2071.61
1000.704	2074.32
1001	2091.27
1001.295	2075.45
1001.59	2083.82
1001.885	2079.3
1002.18	2056.02
1002.475	2034.1
1002.77	2016.02
1003.065	2043.59
1003.359	1989.58
1003.654	1993.42
1003.949	1959.98
1004.243	1990.48
1004.538	1955.68
1004.832	1962.69
1005.127	1904.16
1005.421	1931.73
1005.715	1911.16
1006.009	1894.44
1006.304	1908
1006.598	1876.14
1006.892	1862.13
1007.186	1865.29
1007.48	1857.15
1007.773	1864.84
1008.067	1808.12
1008.361	1828.68
1008.655	1803.14
1008.948	1804.5
1009.242	1776.03
1009.535	1795.24
1009.829	1761.79
1010.122	1758.85
1010.415	1734.9
1010.708	1717.72
1011.001	1730.6
1011.295	1692.41
1011.588	1714.11
1011.881	1699.64
1012.173	1711.85
1012.466	1674.56
1012.759	1685.41
1013.052	1652.87
1013.344	1659.65
1013.637	1661.45
1013.93	1629.59
1014.222	1626.43
1014.514	1587.33
1014.807	1594.79
1015.099	1599.99
1015.391	1574.9
1015.683	1577.39
1015.976	1581
1016.268	1552.08
1016.56	1548.69
1016.851	1543.94
1017.143	1551.17
1017.435	1488.8
1017.727	1520.67
1018.018	1494
1018.31	1465.75
1018.602	1448.8
1018.893	1483.38
1019.185	1460.33
1019.476	1452.19
1019.767	1469.59
1020.058	1428.01
1020.35	1425.53
1020.641	1423.27
1020.932	1399.54
1021.223	1380.1
1021.514	1387.11
1021.804	1362.25
1022.095	1346.43
1022.386	1347.11
1022.677	1323.38
1022.967	1349.6
1023.258	1353.89
1023.548	1304.63
1023.839	1336.49
1024.129	1292.2
1024.419	1321.12
1024.709	1279.32
1025	1270.73
1025.29	1274.57
1025.58	1261.24
1025.87	1228.92
1026.16	1266.44
1026.449	1256.49
1026.739	1252.2
1027.029	1221.69
1027.319	1222.37
1027.608	1204.97
1027.898	1190.73
1028.187	1173.33
1028.477	1198.64
1028.766	1190.96
1029.055	1196.61
1029.344	1154.12
1029.634	1144.63
1029.923	1153.9
1030.212	1143.73
1030.501	1124.52
1030.79	1115.03
1031.078	1114.12
1031.367	1092.88
1031.656	1057.85
1031.945	1090.4
1032.233	1094.69
1032.522	1080
1032.81	1057.63
1033.099	1053.56
1033.387	1039.32
1033.675	1062.15
1033.963	1068.93
1034.251	1030.96
1034.54	1050.4
1034.828	1016.72
1035.116	1036.39
1035.403	1049.04
1035.691	987.12
1035.979	1017.4
1036.267	984.41
1036.554	983.28
1036.842	986.67
1037.129	998.65
1037.417	966.78
1037.704	948.03
1037.992	932.43
1038.279	963.17
1038.566	955.71
1038.853	955.71
1039.14	955.71
