Data from hue_22_FLMS001491_00041.txt Node
Date: Tue Feb 07 17:10:10 GMT 2017
User: dcchb
Spectrometer: FLMS00149
Trigger mode: 0
Integration Time (sec): 2.000000E-2
Scans to average: 10
Electric dark correction enabled: true
Nonlinearity correction enabled: false
Boxcar width: 0
XAxis mode: Wavelengths
Number of Pixels in Spectrum: 2048
>>>>>Begin Spectral Data<<<<<
341.393	0.99
341.776	0.99
342.16	0.99
342.543	-74.94
342.927	-78.33
343.31	-67.94
343.693	-63.19
344.077	-64.32
344.46	-59.12
344.843	-40.82
345.226	-48.95
345.61	-46.02
345.993	-20.25
346.376	1.67
346.759	17.94
347.142	38.5
347.525	36.69
347.908	53.64
348.291	68.33
348.674	86.18
349.057	107.65
349.44	137.26
349.823	158.05
350.206	163.47
350.588	191.27
350.971	215.45
351.354	232.4
351.737	248.44
352.119	236.69
352.502	256.58
352.884	275.78
353.267	282.11
353.65	280.98
354.032	311.26
354.414	324.14
354.797	308.1
355.179	318.72
355.562	308.55
355.944	355.33
356.326	334.77
356.709	319.4
357.091	342.22
357.473	342.22
357.855	335.44
358.238	350.58
358.62	354.88
359.002	352.17
359.384	337.48
359.766	305.16
360.148	356.69
360.53	319.4
360.912	321.88
361.294	339.96
361.676	322.34
362.057	346.97
362.439	345.84
362.821	333.86
363.203	313.97
363.584	340.87
363.966	338.15
364.348	311.49
364.729	326.86
365.111	322.11
365.493	317.59
365.874	314.65
366.256	294.31
366.637	308.33
367.019	304.94
367.4	343.35
367.781	318.04
368.163	317.14
368.544	287.31
368.925	318.95
369.306	318.49
369.688	331.15
370.069	343.13
370.45	327.76
370.831	314.43
371.212	297.03
371.593	304.03
371.974	315.33
372.355	317.82
372.736	322.79
373.117	303.13
373.498	306.52
373.879	316.46
374.26	324.37
374.641	329.12
375.021	299.29
375.402	324.6
375.783	304.71
376.163	328.66
376.544	319.85
376.925	323.47
377.305	322.11
377.686	342.45
378.066	337.93
378.447	337.7
378.827	324.14
379.208	346.06
379.588	339.28
379.968	346.29
380.349	331.15
380.729	306.74
381.109	341.32
381.489	340.19
381.87	344.71
382.25	335.67
382.63	357.36
383.01	340.64
383.39	323.92
383.77	334.54
384.15	353.75
384.53	325.73
384.91	331.83
385.29	363.47
385.67	348.1
386.049	361.43
386.429	332.05
386.809	337.7
387.189	338.61
387.568	361.43
387.948	369.79
388.328	346.06
388.707	350.13
389.087	346.97
389.466	366.4
389.846	389
390.225	339.74
390.605	346.74
390.984	376.35
391.363	355.56
391.743	344.71
392.122	354.88
392.501	365.5
392.881	350.58
393.26	400.75
393.639	363.01
394.018	373.86
394.397	374.31
394.776	361.66
395.155	374.99
395.534	375.22
395.913	380.41
396.292	388.55
396.671	393.29
397.05	384.93
397.429	384.26
397.808	397.59
398.186	389
398.565	405.72
398.944	366.63
399.323	379.51
399.701	383.58
400.08	394.65
400.458	387.42
400.837	409.34
401.215	378.61
401.594	412.73
401.972	386.52
402.351	414.09
402.729	410.02
403.107	401.2
403.486	422.67
403.864	411.15
404.242	393.75
404.62	420.64
404.999	397.59
405.377	404.37
405.755	410.92
406.133	426.74
406.511	425.16
406.889	412.73
407.267	423.12
407.645	438.72
408.023	442.33
408.401	420.19
408.779	434.42
409.156	435.1
409.534	452.5
409.912	449.56
410.29	451.6
410.667	466.06
411.045	451.37
411.422	451.6
411.8	458.15
412.178	459.73
412.555	444.82
412.933	452.5
413.31	469
413.687	458.83
414.065	481.88
414.442	493.18
414.819	489.79
415.197	491.6
415.574	471.26
415.951	509.68
416.328	502.67
416.705	505.83
417.082	506.29
417.46	497.02
417.837	500.41
418.214	484.59
418.591	511.26
418.967	491.6
419.344	494.31
419.721	511.94
420.098	499.05
420.475	517.13
420.852	506.51
421.228	520.3
421.605	524.36
421.982	509.68
422.358	526.85
422.735	526.17
423.111	556
423.488	541.09
423.864	531.14
424.241	543.12
424.617	541.09
424.994	549.22
425.37	537.02
425.746	554.65
426.123	564.82
426.499	551.26
426.875	557.36
427.251	548.32
427.627	568.66
428.003	564.14
428.379	612.5
428.756	565.04
429.132	578.37
429.507	609.11
429.883	588.77
430.259	587.87
430.635	598.94
431.011	609.11
431.387	624.7
431.763	639.16
432.138	622.22
432.514	630.58
432.89	652.95
433.265	633.97
433.641	651.82
434.016	659.73
434.392	650.92
434.767	663.57
435.143	640.75
435.518	672.16
435.894	667.64
436.269	696.79
436.644	677.81
437.02	697.24
437.395	691.59
437.77	673.97
438.145	683.91
438.52	692.72
438.895	717.81
439.271	731.14
439.646	737.69
440.021	714.42
440.395	724.36
440.77	738.37
441.145	730.91
441.52	750.12
441.895	742.44
442.27	774.98
442.645	772.95
443.019	750.57
443.394	771.82
443.769	774.53
444.143	775.88
444.518	765.49
444.892	764.36
445.267	791.93
445.641	812.72
446.016	806.39
446.39	789.22
446.764	786.5
447.139	790.8
447.513	823.11
447.887	808.2
448.262	830.8
448.636	838.25
449.01	822.21
449.384	846.16
449.758	819.27
450.132	853.17
450.506	859.72
450.88	850.68
451.254	865.37
451.628	855.43
452.002	866.95
452.376	873.96
452.75	873.06
453.123	868.76
453.497	879.61
453.871	909.44
454.244	911.02
454.618	921.42
454.992	965.71
455.365	950.57
455.739	948.08
456.112	942.21
456.486	959.16
456.859	997.12
457.232	995.99
457.606	976.56
457.979	973.39
458.352	1015.65
458.725	1017.23
459.099	1004.35
459.472	1028.98
459.845	1049.1
460.218	1056.1
460.591	1054.75
460.964	1077.8
461.337	1089.1
461.71	1095.2
462.083	1112.37
462.456	1118.7
462.829	1130
463.201	1139.94
463.574	1156.21
463.947	1141.52
464.32	1181.3
464.692	1165.48
465.065	1195.99
465.438	1200.73
465.81	1234.4
466.183	1243.89
466.555	1250.67
466.928	1260.84
467.3	1250.22
467.672	1270.56
468.045	1319.82
468.417	1312.14
468.789	1328.19
469.161	1334.74
469.534	1371.12
469.906	1389.88
470.278	1415.19
470.65	1409.31
471.022	1431.23
471.394	1470.55
471.766	1505.81
472.138	1499.25
472.51	1539.48
472.882	1535.41
473.253	1559.82
473.625	1565.02
473.997	1636.2
474.369	1642.75
474.74	1666.93
475.112	1690.89
475.484	1688.4
475.855	1725.01
476.227	1772.69
476.598	1805.01
476.97	1816.53
477.341	1881.39
477.713	1882.52
478.084	1906.48
478.455	1956.87
478.827	1983.76
479.198	2013.14
479.569	2043.87
479.94	2113.93
480.311	2132.91
480.682	2168.62
481.053	2218.33
481.424	2262.85
481.795	2290.65
482.166	2299.01
482.537	2345.33
482.908	2421.72
483.279	2442.73
483.65	2449.06
484.021	2542.84
484.391	2580.13
484.762	2633.46
485.133	2650.41
485.503	2689.28
485.874	2748.49
486.244	2755.04
486.615	2862.16
486.985	2858.99
487.356	2922.72
487.726	2997.52
488.097	3013.56
488.467	3048.82
488.837	3105.77
489.207	3154.58
489.578	3192.77
489.948	3213.79
490.318	3273.22
490.688	3339.66
491.058	3371.07
491.428	3428.47
491.798	3462.14
492.168	3500.78
492.538	3561.35
492.908	3597.05
493.278	3661.23
493.648	3703.94
494.017	3699.42
494.387	3723.38
494.757	3781.23
495.126	3847.22
495.496	3825.75
495.866	3858.06
496.235	3929.25
496.605	3957.27
496.974	3986.87
497.344	4035.01
497.713	4056.93
498.082	4040.43
498.452	4140.99
498.821	4158.85
499.19	4160.2
499.559	4220.09
499.928	4287.66
500.298	4283.59
500.667	4314.77
501.036	4316.81
501.405	4376.69
501.774	4357.48
502.143	4440.19
502.512	4431.61
502.88	4440.42
503.249	4488.33
503.618	4478.16
503.987	4521.32
504.356	4544.15
504.724	4608.1
505.093	4604.03
505.462	4564.26
505.83	4670.24
506.199	4672.05
506.567	4739.85
506.936	4752.5
507.304	4721.09
507.672	4808.32
508.041	4816
508.409	4828.21
508.777	4867.3
509.145	4906.62
509.514	4861.2
509.882	4921.99
510.25	4982.33
510.618	4965.83
510.986	5044.47
511.354	5052.16
511.722	5027.07
512.09	5106.17
512.458	5096.9
512.826	5160.63
513.193	5178.03
513.561	5175.54
513.929	5191.36
514.297	5219.83
514.664	5273.62
515.032	5261.64
515.4	5313.84
515.767	5356.78
516.135	5308.87
516.502	5294.18
516.869	5417.34
517.237	5434.97
517.604	5382.32
517.972	5422.54
518.339	5474.74
518.706	5485.59
519.073	5506.15
519.44	5498.7
519.808	5603.55
520.175	5594.97
520.542	5621.41
520.909	5635.64
521.276	5639.48
521.643	5683.33
522.009	5725.36
522.376	5733.27
522.743	5806.26
523.11	5808.75
523.477	5832.93
523.843	5891.68
524.21	5942.98
524.577	5948.4
524.943	5969.87
525.31	5978.46
525.676	6104.56
526.043	6087.16
526.409	6133.93
526.776	6142.3
527.142	6181.39
527.508	6171
527.874	6275.85
528.241	6240.37
528.607	6331.22
528.973	6403.31
529.339	6340.26
529.705	6421.38
530.071	6425.23
530.437	6460.48
530.803	6485.11
531.169	6466.36
531.535	6524.66
531.901	6527.14
532.267	6559.69
532.632	6595.62
532.998	6670.42
533.364	6698.21
533.73	6675.16
534.095	6763.75
534.461	6827.7
534.826	6821.15
535.192	6820.24
535.557	6874.25
535.923	6873.12
536.288	6877.64
536.653	6956.74
537.019	6932.11
537.384	6944.31
537.749	7053.01
538.114	6991.09
538.479	7034.25
538.845	7140.91
539.21	7090.29
539.575	7155.83
539.94	7116.51
540.305	7165.55
540.67	7220.01
541.034	7204.64
541.399	7266.79
541.764	7313.11
542.129	7308.82
542.494	7367.57
542.858	7450.06
543.223	7390.4
543.587	7505.65
543.952	7502.94
544.316	7512.43
544.681	7467.46
545.045	7572.77
545.41	7611.18
545.774	7601.47
546.138	7646.44
546.503	7620.9
546.867	7663.16
547.231	7733.21
547.595	7766.89
547.959	7801.69
548.324	7758.98
548.688	7801.24
549.052	7820.67
549.416	7902.02
549.779	7836.94
550.143	7886.43
550.507	7952.64
550.871	7985.19
551.235	7956.94
551.599	7996.26
551.962	8074.67
552.326	8100.89
552.689	8178.4
553.053	8109.25
553.417	8055.01
553.78	8237.61
554.143	8220.66
554.507	8215.91
554.87	8297.27
555.234	8353.99
555.597	8330.94
555.96	8330.71
556.323	8383.37
556.686	8410.03
557.05	8441.67
557.413	8505.62
557.776	8457.04
558.139	8568
558.502	8545.17
558.865	8551.5
559.228	8604.38
559.59	8599.18
559.953	8671.27
560.316	8757.82
560.679	8749.01
561.041	8832.39
561.404	8791.72
561.767	8893.18
562.129	8852.73
562.492	8890.92
562.854	8870.13
563.217	8911.26
563.579	8893.41
563.941	9034.65
564.304	9053.63
564.666	9120.52
565.028	9141.54
565.39	9165.49
565.753	9116
566.115	9177.7
566.477	9297.92
566.839	9252.04
567.201	9279.39
567.563	9337.24
567.925	9396.67
568.287	9409.55
568.648	9416.33
569.01	9449.33
569.372	9503.34
569.734	9501.98
570.095	9614.52
570.457	9619.27
570.819	9672.37
571.18	9712.82
571.542	9753.95
571.903	9782.65
572.265	9823.33
572.626	9911.69
572.987	9866.49
573.349	9987.62
573.71	10051.57
574.071	9996.43
574.432	10070.55
574.794	10197.56
575.155	10247.27
575.516	10249.98
575.877	10394.61
576.238	10387.38
576.599	10489.53
576.96	10544.89
577.32	10481.17
577.681	10658.79
578.042	10727.94
578.403	10797.54
578.763	10920.25
579.124	10949.85
579.485	11061.71
579.845	11223.07
580.206	11241.82
580.566	11390.75
580.927	11520.69
581.287	11611.98
581.648	11689.72
582.008	11892.65
582.368	12040.9
582.728	12142.82
583.089	12263.04
583.449	12387.78
583.809	12612.86
584.169	12735.8
584.529	12812.18
584.889	13170.81
585.249	13312.73
585.609	13356.12
585.969	13608.99
586.329	13846.27
586.688	14100.96
587.048	14337.11
587.408	14453.04
587.768	14637.21
588.127	14882.18
588.487	15136.18
588.846	15471.77
589.206	15600.35
589.565	15805.32
589.925	16187.91
590.284	16377.28
590.643	16658.63
591.003	16937.94
591.362	17205.06
591.721	17451.15
592.08	17801.42
592.44	18085.71
592.799	18372.03
593.158	18670.33
593.517	18961.39
593.876	19275.51
594.235	19561.15
594.593	19861.94
594.952	20146.67
595.311	20407.68
595.67	20801.8
596.029	21246.31
596.387	21449.01
596.746	21783.01
597.104	21971.26
597.463	22347.07
597.822	22740.28
598.18	22952.48
598.538	23168.52
598.897	23646.92
599.255	23731.44
599.613	24447.35
599.972	24581.59
600.33	24928.69
600.688	25156.94
601.046	25453.88
601.404	25885.96
601.762	26165.95
602.12	26470.58
602.478	26788.08
602.836	27107.17
603.194	27285.92
603.552	27642.75
603.91	27763.65
604.268	28216.97
604.625	28319.57
604.983	28838.87
605.341	28955.93
605.698	29248.81
606.056	29646.08
606.413	29802.24
606.771	30149.57
607.128	30371.26
607.485	30656.91
607.843	30763.8
608.2	31143.9
608.557	31494.17
608.914	31550.22
609.272	31942.52
609.629	32217.54
609.986	32551.09
610.343	32589.28
610.7	32947.47
611.057	33192.66
611.414	33288.02
611.771	33651.18
612.127	33951.51
612.484	34104.5
612.841	34280.54
613.198	34403.02
613.554	34695.44
613.911	35045.26
614.267	35054.53
614.624	35295.2
614.98	35417.46
615.337	35888.63
615.693	35911.68
616.05	35998.69
616.406	36391.44
616.762	36426.47
617.118	36524.1
617.475	36711.89
617.831	36870.08
618.187	37042.95
618.543	37239.56
618.899	37452.21
619.255	37591.19
619.611	37740.34
619.967	37920.67
620.323	38219.19
620.678	38135.13
621.034	38317.95
621.39	38389.13
621.746	38389.81
622.101	38887.65
622.457	38794.32
622.812	38835.67
623.168	39099.17
623.523	39160.41
623.879	39464.58
624.234	39204.48
624.589	39455.54
624.945	39483.34
625.3	39610.12
625.655	39704.8
626.01	39717.23
626.365	39845.82
626.72	39777.8
627.075	39920.62
627.43	40072.93
627.785	39989.54
628.14	40287.84
628.495	40210.55
628.85	40203.1
629.205	40217.56
629.559	40419.36
629.914	40405.8
630.269	40452.35
630.623	40496.65
630.978	40431.34
631.332	40644.21
631.687	40756.98
632.041	40641.95
632.396	40724.21
632.75	40743.87
633.104	40848.28
633.459	40708.17
633.813	40577.55
634.167	40842.4
634.521	40796.3
634.875	40807.83
635.229	40648.51
635.583	40749.75
635.937	40690.99
636.291	40710.88
636.645	40717.66
636.999	40775.06
637.352	40901.83
637.706	40515.18
638.06	40766.02
638.413	40806.02
638.767	40662.07
639.121	40742.52
639.474	40603.54
639.828	40659.13
640.181	40786.58
640.534	40797.43
640.888	40587.04
641.241	40623.65
641.594	40665.46
641.947	40740.93
642.301	40706.13
642.654	40701.39
643.007	40660.48
643.36	40766.7
643.713	40712.23
644.066	40682.63
644.419	40634.72
644.771	40388.4
645.124	40098.92
645.477	40023.67
645.83	39706.84
646.182	39676.56
646.535	39488.99
646.888	39685.14
647.24	39402.21
647.593	39736.44
647.945	39458.93
648.298	39298.71
648.65	39278.6
649.002	39245.61
649.355	39427.97
649.707	39343.68
650.059	39552.94
650.411	40044.23
650.763	40065.25
651.115	40557.44
651.467	40367.16
651.819	40244.22
652.171	40128.97
652.523	40215.52
652.875	40215.52
653.227	40021.86
653.578	40345.46
653.93	40255.3
654.282	40065.25
654.633	40033.61
654.985	40121.29
655.337	40093.95
655.688	40234.51
656.039	40239.25
656.391	39987.06
656.742	39929.2
657.094	40001.07
657.445	40064.79
657.796	40027.28
658.147	39862.54
658.498	39964.68
658.849	40027.05
659.2	39982.31
659.551	39905.25
659.902	40093.27
660.253	39944.35
660.604	40115.64
660.955	39792.71
661.306	40102.08
661.656	40007.85
662.007	40077.9
662.358	39946.38
662.708	39877.91
663.059	39884.23
663.409	39602.66
663.76	39964.46
664.11	39956.55
664.461	39873.39
664.811	39948.64
665.161	39979.37
665.511	39710.45
665.862	39918.58
666.212	40002.65
666.562	39970.56
666.912	39706.39
667.262	39621.64
667.612	39813.28
667.962	39929.2
668.312	39849.43
668.662	40000.16
669.011	39790
669.361	39753.16
669.711	39685.14
670.06	39740.06
670.41	39655.99
670.76	39499.16
671.109	39607.18
671.459	39710.68
671.808	39702.77
672.157	39722.66
672.507	39515.66
672.856	39613.96
673.205	39641.08
673.554	39682.66
673.904	39651.92
674.253	39780.28
674.602	39577.8
674.951	38992.73
675.3	38919.51
675.649	39545.49
675.998	39445.6
676.346	39364.02
676.695	39536.9
677.044	39236.34
677.393	39418.03
677.741	39426.39
678.09	39287.87
678.438	39101.88
678.787	39367.86
679.135	39328.54
679.484	39119.51
679.832	39243.8
680.181	39019.17
680.529	39124.03
680.877	38918.84
681.225	38956.35
681.573	39274.76
681.922	38847.2
682.27	38739.18
682.618	38821.66
682.966	38778.27
683.314	38705.06
683.661	38673.19
684.009	38571.27
684.357	38425.52
684.705	38476.14
685.053	38351.62
685.4	38406.31
685.748	38333.77
686.095	38255.35
686.443	38039.31
686.79	38147.56
687.138	38098.74
687.485	38114.34
687.832	37890.16
688.18	38121.79
688.527	37802.25
688.874	37706.44
689.221	37675.48
689.568	37585.54
689.915	37515.93
690.262	37675.48
690.609	37470.74
690.956	37289.95
691.303	37179.22
691.65	37189.84
691.997	37132.67
692.344	36866.23
692.69	36862.17
693.037	36904.43
693.383	36655.62
693.73	36721.15
694.077	36457.66
694.423	36415.62
694.769	36407.72
695.116	36318.9
695.462	36188.96
695.808	36189.19
696.155	36163.65
696.501	35939.93
696.847	35965.69
697.193	35744.23
697.539	35769.09
697.885	35680.73
698.231	35617.45
698.577	35526.16
698.923	35520.28
699.269	35204.58
699.614	35057.92
699.96	35045.94
700.306	35126.17
700.651	34920.97
700.997	34834.2
701.342	34800.3
701.688	34794.65
702.033	34647.99
702.379	34664.03
702.724	34502
703.069	34533.41
703.415	34137.94
703.76	34245.06
704.105	34275.12
704.45	34088.23
704.795	33872.87
705.14	33861.12
705.485	33671.52
705.83	33788.57
706.175	33584.74
706.52	33609.37
706.865	33488.47
707.209	33446.66
707.554	33244.86
707.899	33236.27
708.243	33170.96
708.588	33228.14
708.932	33000.57
709.277	32912.67
709.621	32969.84
709.966	32843.97
710.31	32809.62
710.654	32515.84
710.998	32538.21
711.342	32669.96
711.687	32413.24
712.031	32374.6
712.375	32364.88
712.719	32383.64
713.063	32352.45
713.407	32335.96
713.75	32155.62
714.094	32135.28
714.438	31985.01
714.782	32147.49
715.125	31769.19
715.469	31909.08
715.812	31781.62
716.156	31541.63
716.499	31649.87
716.843	31676.99
717.186	31435.19
717.53	31532.36
717.873	31514.96
718.216	31480.39
718.559	31323.1
718.902	31033.62
719.246	31183.22
719.589	31058.48
719.932	30972.6
720.275	31029.78
720.617	30962.21
720.96	30826.17
721.303	30871.14
721.646	30939.84
721.989	30697.13
722.331	30800.86
722.674	30671.14
723.016	30814.42
723.359	30545.27
723.701	30660.07
724.044	30374.43
724.386	30306.18
724.729	30470.7
725.071	30429.34
725.413	30372.62
725.755	30344.82
726.097	30102.57
726.439	30084.94
726.782	30071.61
727.124	30083.36
727.465	30026.64
727.807	29885.85
728.149	29940.31
728.491	29884.27
728.833	29901.45
729.175	29859.64
729.516	29736.7
729.858	29632.3
730.199	29801.79
730.541	29748.91
730.882	29489.03
731.224	29626.88
731.565	29431.18
731.906	29486.54
732.248	29393.89
732.589	29275.7
732.93	29164.74
733.271	29267.56
733.612	29305.3
733.953	29324.06
734.294	29231.41
734.635	28981.02
734.976	29170.17
735.317	28947.8
735.658	29015.82
735.999	28865.99
736.339	28872.09
736.68	29030.73
737.021	28863.96
737.361	28753.68
737.702	28861.47
738.042	28748.93
738.383	28859.21
738.723	28794.13
739.063	28649.05
739.404	28615.38
739.744	28671.87
740.084	28477.3
740.424	28516.17
740.764	28423.29
741.104	28568.37
741.444	28323.41
741.784	28317.76
742.124	28335.61
742.464	28388.04
742.804	28265.1
743.143	28226.01
743.483	28046.13
743.823	27991.21
744.162	28059.23
744.502	28067.14
744.841	27902.4
745.181	28185.56
745.52	28004.32
745.86	27936.53
746.199	27847.71
746.538	27866.24
746.877	27919.8
747.216	27804.1
747.556	27802.52
747.895	27882.29
748.234	27671
748.573	27773.82
748.911	27612.01
749.25	27680.26
749.589	27490.21
749.928	27545.35
750.267	27543.32
750.605	27395.07
750.944	27319.14
751.283	27369.53
751.621	27406.6
751.96	27313.26
752.298	27346.26
752.636	27169.54
752.975	27116.43
753.313	26971.58
753.651	27100.39
753.989	26929.09
754.327	26837.57
754.666	26823.33
755.004	26765.26
755.342	26814.97
755.679	26800.74
756.017	26752.83
756.355	26656.78
756.693	26538.14
757.031	26677.35
757.368	26496.56
757.706	26405.49
758.044	26471.25
758.381	26357.36
758.719	26325.72
759.056	26333.4
759.394	26137.93
759.731	26131.38
760.068	25993.53
760.405	25894.09
760.743	25756.47
761.08	25892.51
761.417	25706.08
761.754	25722.8
762.091	25674.66
762.428	25595.8
762.765	25459.98
763.102	25562.12
763.438	25351.73
763.775	25250.27
764.112	25254.79
764.449	25264.28
764.785	25180.44
765.122	24986.09
765.458	25000.78
765.795	24951.97
766.131	24866.78
766.467	24792.88
766.804	24683.73
767.14	24529.84
767.476	24382.95
767.812	24350.63
768.148	24394.02
768.485	24312.21
768.821	24161.48
769.157	24149.51
769.492	24043.52
769.828	23963.07
770.164	23896.41
770.5	23799.91
770.836	23827.93
771.171	23663.87
771.507	23686.02
771.842	23452.58
772.178	23333.26
772.513	23468.85
772.849	23268.4
773.184	23192.24
773.519	23133.71
773.855	22994.96
774.19	22878.13
774.525	22839.71
774.86	22896.88
775.195	22802.42
775.53	22670.22
775.865	22561.75
776.2	22455.99
776.535	22306.62
776.87	22365.6
777.205	22179.61
777.539	22089.22
777.874	22205.38
778.209	21996.57
778.543	21916.34
778.878	21670.25
779.212	21759.51
779.547	21726.97
779.881	21709.34
780.215	21488.79
780.55	21518.84
780.884	21349.13
781.218	21336.7
781.552	21384.61
781.886	21265.97
782.22	21178.06
782.554	21017.84
782.888	20914.11
783.222	20796.83
783.556	20716.83
783.889	20661.69
784.223	20534.46
784.557	20456.95
784.89	20548.92
785.224	20419.43
785.557	20303.05
785.891	20307.35
786.224	20190.97
786.558	20131.53
786.891	19948.71
787.224	19945.77
787.557	19928.83
787.891	19806.12
788.224	19848.83
788.557	19747.36
788.89	19599.34
789.223	19581.26
789.556	19566.35
789.888	19525.9
790.221	19394.38
790.554	19238.45
790.887	19209.75
791.219	19189.64
791.552	19102.41
791.884	19086.81
792.217	19039.58
792.549	18902.19
792.882	18826.71
793.214	18746.71
793.546	18751.68
793.879	18671.68
794.211	18522.08
794.543	18541.97
794.875	18531.57
795.207	18500.84
795.539	18433.5
795.871	18477.79
796.203	18232.83
796.535	18083
796.867	18136.11
797.198	18103.11
797.53	18084.13
797.862	17889.78
798.193	17912.38
798.525	17912.61
798.856	17739.05
799.188	17727.75
799.519	17565.5
799.85	17494.99
800.182	17566.18
800.513	17505.84
800.844	17321.44
801.175	17525.73
801.506	17315.11
801.837	17245.51
802.168	17212.51
802.499	17183.59
802.83	17086.87
803.161	17066.98
803.491	17129.35
803.822	17036.47
804.153	16970.71
804.483	16692.75
804.814	16774.78
805.145	16657.95
805.475	16679.19
805.805	16603.49
806.136	16681.23
806.466	16577.73
806.796	16658.86
807.126	16436.49
807.457	16335.47
807.787	16357.85
808.117	16349.71
808.447	16282.59
808.777	16298.64
809.107	16207.79
809.436	16041.47
809.766	16149.49
810.096	16055.93
810.426	16117.4
810.755	16049.61
811.085	15987.01
811.414	15959.67
811.744	15818.2
812.073	15749.95
812.403	15801.93
812.732	15659.56
813.061	15796.96
813.39	15571.2
813.719	15579.34
814.049	15635.83
814.378	15508.38
814.707	15525.33
815.036	15493.24
815.365	15398.78
815.693	15234.71
816.022	15285.33
816.351	15286.69
816.68	15179.8
817.008	15241.04
817.337	15053.02
817.665	14918.79
817.994	15089.18
818.322	14988.17
818.651	14909.75
818.979	14893.93
819.307	14883.31
819.636	14871.33
819.964	14780.94
820.292	14823.88
820.62	14886.47
820.948	14825.46
821.276	14875.63
821.604	14753.37
821.932	14833.14
822.259	14795.18
822.587	14723.31
822.915	14680.6
823.243	14766.48
823.57	14742.52
823.898	14685.8
824.225	14643.99
824.553	14827.04
824.88	14790.66
825.207	14775.06
825.535	14665.91
825.862	14725.8
826.189	14729.41
826.516	14672.02
826.843	14686.03
827.17	14731.67
827.497	14760.37
827.824	14679.47
828.151	14721.05
828.478	14723.31
828.805	14817.77
829.131	14724.44
829.458	14649.42
829.785	14628.4
830.111	14689.87
830.438	14682.18
830.764	14698.46
831.09	14658.68
831.417	14637.67
831.743	14591.11
832.069	14637.67
832.395	14578.46
832.722	14646.03
833.048	14584.11
833.374	14578.91
833.7	14565.58
834.026	14464.11
834.351	14528.74
834.677	14471.12
835.003	14496.43
835.329	14481.96
835.654	14505.24
835.98	14400.38
836.306	14425.92
836.631	14429.54
836.956	14452.81
837.282	14466.15
837.607	14325.58
837.932	14319.48
838.258	14303.66
838.583	14297.56
838.908	14232.48
839.233	14335.53
839.558	14110.67
839.883	14180.5
840.208	14010.56
840.533	14121.07
840.858	14099.83
841.182	14041.75
841.507	13982.77
841.832	13985.93
842.156	13967.63
842.481	13982.99
842.805	13931.47
843.13	13855.99
843.454	13830
843.778	13784.13
844.103	13841.3
844.427	13765.37
844.751	13688.99
845.075	13707.52
845.399	13624.13
845.723	13513.63
846.047	13567.19
846.371	13484.93
846.695	13523.8
847.019	13414.65
847.343	13326.97
847.666	13318.38
847.99	13220.98
848.313	13185.05
848.637	13058.95
848.96	13129.01
849.284	12982.57
849.607	12964.72
849.931	12917.26
850.254	12882.23
850.577	12715.68
850.9	12677.04
851.223	12701.67
851.546	12693.31
851.869	12571.05
852.192	12683.82
852.515	12477.95
852.838	12392.75
853.161	12481.56
853.483	12390.95
853.806	12315.24
854.129	12286.77
854.451	12277.28
854.774	12244.73
855.096	12129.48
855.419	12092.2
855.741	12150.05
856.063	11955.93
856.385	12060.56
856.708	11933.78
857.03	11885.42
857.352	11836.84
857.674	11803.39
857.996	11910.73
858.318	11766.1
858.64	11809.04
858.961	11799.55
859.283	11664.41
859.605	11662.15
859.926	11603.4
860.248	11544.19
860.57	11578.09
860.891	11577.63
861.212	11511.42
861.534	11514.81
861.855	11480.69
862.176	11320.69
862.498	11437.52
862.819	11441.14
863.14	11402.04
863.461	11336.51
863.782	11319.11
864.103	11386.68
864.424	11295.83
864.745	11337.19
865.065	11178.77
865.386	11161.37
865.707	11140.13
866.027	11179.68
866.348	11183.29
866.668	11180.13
866.989	11133.58
867.309	11035.5
867.63	11104.2
867.95	11018.33
868.27	11001.38
868.59	10999.34
868.91	10939.01
869.23	10957.76
869.55	10925.22
869.87	10901.49
870.19	10909.4
870.51	10901.49
870.83	10943.75
871.15	10817.65
871.469	10856.07
871.789	10891.32
872.109	10834.83
872.428	10748.28
872.748	10838.44
873.067	10781.04
873.386	10699.46
873.706	10774.49
874.025	10685.68
874.344	10626.47
874.663	10659.01
874.982	10624.66
875.301	10652.46
875.62	10649.07
875.939	10580.6
876.258	10593.25
876.577	10527.04
876.896	10496.76
877.214	10537.43
877.533	10516.42
877.852	10490.66
878.17	10483.2
878.489	10456.31
878.807	10494.95
879.125	10421.73
879.444	10386.25
879.762	10320.04
880.08	10361.17
880.398	10306.03
880.716	10343.77
881.034	10332.69
881.352	10278.23
881.67	10234.39
881.988	10242.75
882.306	10226.26
882.624	10137.45
882.941	10110.1
883.259	10113.04
883.577	10086.83
883.894	10141.29
884.212	10057.67
884.529	10056.32
884.846	10011.57
885.164	10061.06
885.481	9969.77
885.798	10025.13
886.115	9914.63
886.432	9899.26
886.75	9901.52
887.067	9818.81
887.383	9866.94
887.7	9878.24
888.017	9786.27
888.334	9822.2
888.651	9765.03
888.967	9792.6
889.284	9640.28
889.6	9668.08
889.917	9594.41
890.233	9626.5
890.55	9458.14
890.866	9564.35
891.182	9496.33
891.498	9490.46
891.815	9478.48
892.131	9470.12
892.447	9369.33
892.763	9366.84
893.079	9315.77
893.395	9391.25
893.71	9326.85
894.026	9286.85
894.342	9295.21
894.657	9245.94
894.973	9182.89
895.289	9209.56
895.604	9181.76
895.92	9149.9
896.235	9055.21
896.55	9057.47
896.865	9039.4
897.181	9040.3
897.496	8942.67
897.811	8920.98
898.126	8882.34
898.441	8888.89
898.756	8803.7
899.071	8749.91
899.386	8859.74
899.7	8712.4
900.015	8718.5
900.33	8677.82
900.644	8573.87
900.959	8613.87
901.273	8592.4
901.588	8475.57
901.902	8514.44
902.216	8546.75
902.531	8455.68
902.845	8455.68
903.159	8371.39
903.473	8350.83
903.787	8297.27
904.101	8296.59
904.415	8301.56
904.729	8224.28
905.042	8118.29
905.356	8155.12
905.67	8171.17
905.984	8160.1
906.297	8121
906.611	8114.45
906.924	8059.53
907.237	7999.87
907.551	8007.11
907.864	7928.46
908.177	7940.44
908.491	7935.24
908.804	7892.98
909.117	7817.96
909.43	7737.51
909.743	7781.35
910.056	7783.16
910.368	7725.76
910.681	7657.74
910.994	7681.69
911.307	7609.6
911.619	7563.28
911.932	7557.4
912.244	7441.02
912.557	7527.57
912.869	7424.97
913.181	7462.49
913.494	7454.8
913.806	7292.55
914.118	7328.93
914.43	7268.14
914.742	7317.18
915.054	7227.01
915.366	7238.99
915.678	7187.69
915.99	7149.95
916.302	7070.63
916.613	7040.58
916.925	7107.47
917.236	7054.59
917.548	6952.22
917.859	6946.34
918.171	6960.13
918.482	6890.53
918.794	6875.61
919.105	6819.11
919.416	6801.49
919.727	6805.1
920.038	6827.48
920.349	6742.73
920.66	6699.34
920.971	6728.95
921.282	6689.4
921.593	6568.5
921.903	6563.08
922.214	6561.72
922.525	6587.48
922.835	6519.24
923.146	6424.77
923.456	6431.55
923.767	6434.49
924.077	6393.14
924.387	6352.91
924.697	6320.82
925.008	6393.81
925.318	6300.94
925.628	6275.17
925.938	6271.78
926.248	6184.1
926.558	6157.44
926.867	6148.17
927.177	6149.3
927.487	6105.91
927.796	6079.25
928.106	6057.1
928.416	5992.24
928.725	6053.03
929.034	5975.52
929.344	5967.16
929.653	5927.39
929.962	5903.88
930.271	5903.88
930.581	5843.09
930.89	5791.8
931.199	5782.31
931.508	5765.81
931.817	5803.32
932.125	5746.15
932.434	5706.38
932.743	5635.87
933.051	5666.38
933.36	5613.5
933.669	5610.78
933.977	5536.44
934.286	5561.75
934.594	5575.53
934.902	5568.07
935.21	5499.15
935.519	5467.29
935.827	5431.35
936.135	5426.38
936.443	5393.62
936.751	5394.29
937.059	5357.46
937.367	5355.42
937.674	5339.38
937.982	5289.21
938.29	5276.1
938.597	5251.92
938.905	5143.68
939.213	5189.55
939.52	5160.18
939.827	5198.59
940.135	5093.74
940.442	5115.43
940.749	5132.15
941.056	5078.37
941.363	5009.9
941.67	5004.92
941.977	5027.75
942.284	4949.11
942.591	4976.23
942.898	4958.82
943.205	4939.39
943.511	4923.12
943.818	4866.85
944.125	4847.87
944.431	4836.12
944.738	4790.24
945.044	4792.28
945.35	4761.54
945.657	4756.8
945.963	4756.12
946.269	4751.82
946.575	4733.07
946.881	4636.57
947.187	4639.74
947.493	4585.05
947.799	4617.59
948.105	4551.38
948.41	4532.39
948.716	4561.09
949.022	4508.44
949.327	4501.21
949.633	4526.97
949.938	4485.39
950.244	4463.7
950.549	4435.67
950.854	4423.02
951.16	4370.14
951.465	4363.81
951.77	4308.45
952.075	4331.04
952.38	4328.33
952.685	4330.59
952.99	4290.59
953.294	4297.82
953.599	4223.7
953.904	4239.3
954.209	4235.91
954.513	4178.73
954.818	4177.15
955.122	4166.75
955.426	4148
955.731	4107.77
956.035	4075.23
956.339	4065.06
956.643	4048.11
956.948	4021.9
957.252	4028.68
957.556	4037.27
957.86	3984.39
958.163	3956.36
958.467	3985.06
958.771	3955.23
959.075	3930.38
959.378	3899.87
959.682	3856.25
959.985	3882.02
960.289	3860.32
960.592	3804.73
960.896	3817.61
961.199	3769.93
961.502	3795.69
961.805	3767.9
962.108	3744.85
962.411	3738.74
962.714	3712.08
963.017	3663.27
963.32	3700.55
963.623	3724.51
963.926	3669.59
964.228	3615.58
964.531	3630.05
964.833	3637.73
965.136	3599.09
965.438	3582.36
965.741	3557.05
966.043	3540.78
966.345	3539.65
966.648	3495.36
966.95	3495.59
967.252	3461.46
967.554	3477.96
967.856	3473.67
968.158	3432.99
968.46	3425.31
968.761	3425.08
969.063	3351.64
969.365	3351.41
969.666	3355.48
969.968	3361.8
970.269	3299.88
970.571	3345.31
970.872	3299.21
971.174	3299.66
971.475	3303.05
971.776	3229.83
972.077	3246.55
972.378	3233.45
972.679	3218.76
972.98	3177.85
973.281	3208.59
973.582	3163.17
973.883	3154.58
974.183	3163.84
974.484	3160.68
974.785	3126.56
975.085	3144.41
975.386	3112.32
975.686	3094.01
975.986	3061.7
976.287	3082.26
976.587	3011.08
976.887	3019.89
977.187	3006.56
977.487	3001.14
977.787	2985.32
978.087	2962.72
978.387	2983.96
978.687	2987.58
978.987	2970.63
979.286	2902.16
979.586	2881.14
979.885	2888.82
980.185	2903.29
980.484	2881.82
980.784	2883.85
981.083	2844.3
981.382	2868.03
981.682	2826
981.981	2831.42
982.28	2811.08
982.579	2812.89
982.878	2781.93
983.177	2736.74
983.475	2749.84
983.774	2716.85
984.073	2721.6
984.372	2706.45
984.67	2687.7
984.969	2723.85
985.267	2718.43
985.566	2677.98
985.864	2644.76
986.162	2660.81
986.461	2689.05
986.759	2619.68
987.057	2608.38
987.355	2605.44
987.653	2572.22
987.951	2579.45
988.249	2543.52
988.547	2560.92
988.844	2544.88
989.142	2521.83
989.44	2555.95
989.737	2502.17
990.035	2501.71
990.332	2483.86
990.63	2478.21
990.927	2431.43
991.224	2440.25
991.521	2405.67
991.819	2450.19
992.116	2432.11
992.413	2411.09
992.71	2420.81
993.006	2399.57
993.303	2370.19
993.6	2362.28
993.897	2333.81
994.193	2329.74
994.49	2327.93
994.787	2313.92
995.083	2321.61
995.379	2310.08
995.676	2293.58
995.972	2259.69
996.268	2253.58
996.565	2239.12
996.861	2251.32
997.157	2219.91
997.453	2208.84
997.749	2186.69
998.044	2180.37
998.34	2175.39
998.636	2159.35
998.932	2138.56
999.227	2098.79
999.523	2161.16
999.818	2106.7
1000.114	2120.71
1000.409	2120.25
1000.704	2053.82
1001	2096.07
1001.295	2080.71
1001.59	2063.99
1001.885	2033.03
1002.18	2049.97
1002.475	2011.56
1002.77	2005.68
1003.065	2013.14
1003.359	1988.28
1003.654	1973.82
1003.949	1983.54
1004.243	1994.38
1004.538	1948.96
1004.832	1941.5
1005.127	1930.43
1005.421	1923.2
1005.715	1926.36
1006.009	1895.4
1006.304	1908.74
1006.598	1846.82
1006.892	1884.33
1007.186	1880.04
1007.48	1835.06
1007.773	1834.61
1008.067	1821.96
1008.361	1850.88
1008.655	1797.78
1008.948	1809.98
1009.242	1809.75
1009.535	1764.56
1009.829	1799.36
1010.122	1745.58
1010.415	1736.54
1010.708	1737.44
1011.001	1724.56
1011.295	1701.06
1011.588	1690.89
1011.881	1700.15
1012.173	1693.6
1012.466	1674.17
1012.759	1691.57
1013.052	1678.01
1013.344	1667.39
1013.637	1635.3
1013.93	1643.21
1014.222	1629.65
1014.514	1639.82
1014.807	1616.09
1015.099	1606.37
1015.391	1593.72
1015.683	1564.56
1015.976	1554.39
1016.268	1532.7
1016.56	1538.35
1016.851	1511.68
1017.143	1554.62
1017.435	1516.43
1017.727	1525.02
1018.018	1514.4
1018.31	1475.98
1018.602	1481.18
1018.893	1475.98
1019.185	1493.6
1019.476	1461.29
1019.767	1423.55
1020.058	1425.13
1020.35	1396.43
1020.641	1414.28
1020.932	1401.4
1021.223	1410.44
1021.514	1384
1021.804	1349.43
1022.095	1360.73
1022.386	1342.2
1022.677	1338.13
1022.967	1328.64
1023.258	1349.65
1023.548	1321.63
1023.839	1327.06
1024.129	1314.85
1024.419	1303.33
1024.709	1287.73
1025	1282.08
1025.29	1291.12
1025.58	1269.88
1025.87	1272.14
1026.16	1238.7
1026.449	1241.63
1026.739	1234.4
1027.029	1221.3
1027.319	1233.5
1027.608	1219.26
1027.898	1202.54
1028.187	1229.2
1028.477	1182.65
1028.766	1162.99
1029.055	1156.44
1029.344	1171.35
1029.634	1153.95
1029.923	1163.9
1030.212	1151.24
1030.501	1144.24
1030.79	1123.67
1031.078	1131.13
1031.367	1119.6
1031.656	1103.56
1031.945	1103.33
1032.233	1088.64
1032.522	1078.25
1032.81	1080.73
1033.099	1074.41
1033.387	1077.12
1033.675	1052.03
1033.963	1064.46
1034.251	1057.23
1034.54	1037.8
1034.828	1042.09
1035.116	1013.84
1035.403	1028.53
1035.691	1009.1
1035.979	1027.63
1036.267	1011.13
1036.554	990.79
1036.842	988.53
1037.129	991.47
1037.417	973.17
1037.704	987.18
1037.992	953.28
1038.279	974.52
1038.566	946.95
1038.853	946.95
1039.14	946.95
