Data from hue_100_FLMS001491_00050.txt Node
Date: Tue Feb 07 17:03:15 GMT 2017
User: dcchb
Spectrometer: FLMS00149
Trigger mode: 0
Integration Time (sec): 2.000000E-2
Scans to average: 10
Electric dark correction enabled: true
Nonlinearity correction enabled: false
Boxcar width: 0
XAxis mode: Wavelengths
Number of Pixels in Spectrum: 2048
>>>>>Begin Spectral Data<<<<<
341.393	-21.27
341.776	-21.27
342.16	-21.27
342.543	-70.31
342.927	-78.67
343.31	-66.92
343.693	-53.36
344.077	-50.65
344.46	-67.82
344.843	-56.3
345.226	-40.48
345.61	-35.28
345.993	-15.4
346.376	-4.32
346.759	20.76
347.142	33.42
347.525	29.58
347.908	50.82
348.291	63.02
348.674	86.3
349.057	106.64
349.44	123.13
349.823	132.4
350.206	189.35
350.588	194.77
350.971	207.42
351.354	215.33
351.737	224.15
352.119	257.14
352.502	297.14
352.884	276.35
353.267	295.11
353.65	291.04
354.032	311.15
354.414	318.61
354.797	309.34
355.179	320.19
355.562	329.68
355.944	346.4
356.326	317.7
356.709	339.4
357.091	342.11
357.473	361.54
357.855	327.87
358.238	338.72
358.62	356.35
359.002	345.27
359.384	347.76
359.766	362.45
360.148	323.35
360.53	334.2
360.912	322.9
361.294	329.91
361.676	326.06
362.057	329.45
362.439	341.43
362.821	323.35
363.203	324.03
363.584	340.98
363.966	332.62
364.348	326.97
364.729	329.91
365.111	323.58
365.493	318.16
365.874	322.45
366.256	316.35
366.637	304.6
367.019	338.49
367.4	323.13
367.781	329.23
368.163	310.92
368.544	302.79
368.925	329.68
369.306	361.09
369.688	326.29
370.069	303.47
370.45	325.84
370.831	311.38
371.212	321.09
371.593	304.82
371.974	317.03
372.355	298.72
372.736	333.07
373.117	327.19
373.498	331.94
373.879	325.39
374.26	339.4
374.641	325.61
375.021	321.55
375.402	329.91
375.783	330.13
376.163	335.33
376.544	337.36
376.925	341.43
377.305	333.3
377.686	315.67
378.066	327.87
378.447	338.72
378.827	354.99
379.208	336.01
379.588	344.6
379.968	361.09
380.349	358.83
380.729	346.18
381.109	344.82
381.489	339.85
381.87	357.02
382.25	355.44
382.63	345.5
383.01	360.87
383.39	354.76
383.77	365.39
384.15	363.13
384.53	348.44
384.91	357.02
385.29	356.35
385.67	371.49
386.049	376.69
386.429	361.32
386.809	377.59
387.189	383.46
387.568	372.17
387.948	407.87
388.328	370.58
388.707	358.83
389.087	380.53
389.466	376.69
389.846	374.43
390.225	389.79
390.605	408.1
390.984	387.76
391.363	388.66
391.743	396.35
392.122	395.22
392.501	394.31
392.881	402.45
393.26	409
393.639	381.66
394.018	399.28
394.397	402.67
394.776	406.06
395.155	390.47
395.534	393.86
395.913	397.48
396.292	405.16
396.671	425.72
397.05	418.94
397.429	374.65
397.808	404.93
398.186	424.37
398.565	421.2
398.944	405.84
399.323	403.12
399.701	421.66
400.08	410.58
400.458	429.79
400.837	425.72
401.215	414.88
401.594	427.08
401.972	415.1
402.351	432.28
402.729	440.41
403.107	460.75
403.486	464.14
403.864	458.72
404.242	450.81
404.62	443.8
404.999	456.91
405.377	449.68
405.755	451.49
406.133	446.74
406.511	467.98
406.889	470.69
407.267	463.91
407.645	487.87
408.023	465.72
408.401	496.23
408.779	495.55
409.156	519.51
409.534	507.98
409.912	487.87
410.29	479.51
410.667	511.6
411.045	498.04
411.422	527.19
411.8	523.35
412.178	498.04
412.555	541.2
412.933	537.58
413.31	525.38
413.687	531.03
414.065	538.49
414.442	551.37
414.819	539.17
415.197	545.04
415.574	559.73
415.951	566.51
416.328	553.4
416.705	568.54
417.082	536.68
417.46	566.96
417.837	559.28
418.214	568.32
418.591	572.61
418.967	573.74
419.344	605.15
419.721	588.43
420.098	583.23
420.475	589.11
420.852	591.82
421.228	586.62
421.605	625.94
421.982	627.75
422.358	627.53
422.735	635.89
423.111	615.77
423.488	632.27
423.864	633.63
424.241	662.1
424.617	631.37
424.994	639.95
425.37	656.45
425.746	656.9
426.123	665.26
426.499	677.24
426.875	680.18
427.251	680.41
427.627	667.07
428.003	708.43
428.379	705.72
428.756	711.82
429.132	709.56
429.507	718.14
429.883	723.57
430.259	736.22
430.635	761.08
431.011	732.83
431.387	734.42
431.763	750.23
432.138	800.63
432.514	769.22
432.89	780.29
433.265	774.87
433.641	783.68
434.016	806.73
434.392	798.37
434.767	822.32
435.143	823.9
435.518	838.37
435.894	829.78
436.269	841.98
436.644	877.91
437.02	872.49
437.395	878.14
437.77	855.99
438.145	887.86
438.52	887.86
438.895	910.46
439.271	900.74
439.646	915.88
440.021	932.6
440.395	929.89
440.77	911.81
441.145	939.16
441.52	953.84
441.895	952.04
442.27	958.14
442.645	968.76
443.019	962.66
443.394	978.7
443.769	983.9
444.143	977.12
444.518	1005.37
444.892	996.56
445.267	984.8
445.641	999.95
446.016	1025.93
446.39	1025.71
446.764	1011.02
447.139	1035.88
447.513	1053.96
447.887	1062.32
448.262	1065.93
448.636	1058.02
449.01	1075.88
449.384	1069.77
449.758	1098.93
450.132	1084.91
450.506	1088.98
450.88	1089.43
451.254	1106.38
451.628	1120.39
452.002	1139.38
452.376	1138.25
452.75	1165.82
453.123	1189.77
453.497	1197
453.871	1186.61
454.244	1215.53
454.618	1208.98
454.992	1217.57
455.365	1246.27
455.739	1285.36
456.112	1247.4
456.486	1285.81
456.859	1291.46
457.232	1341.63
457.606	1338.69
457.979	1349.09
458.352	1382.76
458.725	1381.63
459.099	1390.9
459.472	1432.7
459.845	1446.71
460.218	1420.5
460.591	1463.89
460.964	1478.8
461.337	1525.81
461.71	1537.33
462.083	1543.21
462.456	1563.09
462.829	1556.99
463.201	1598.12
463.574	1604.22
463.947	1635.86
464.32	1646.71
464.692	1683.09
465.065	1722.41
465.438	1728.29
465.81	1747.04
466.183	1778.46
466.555	1798.12
466.928	1863.2
467.3	1859.81
467.672	1857.55
468.045	1923.76
468.417	1883.76
468.789	1959.47
469.161	1986.59
469.534	2023.65
469.906	2089.86
470.278	2088.5
470.65	2126.92
471.022	2189.29
471.394	2254.83
471.766	2249.18
472.138	2293.24
472.51	2344.32
472.882	2385.45
473.253	2423.86
473.625	2487.14
473.997	2547.25
474.369	2599
474.74	2596.06
475.112	2655.5
475.484	2737.75
475.855	2818.43
476.227	2846.22
476.598	2927.58
476.97	3017.29
477.341	3085.77
477.713	3177.74
478.084	3179.55
478.455	3302.03
478.827	3387.91
479.198	3516.49
479.569	3513.33
479.94	3693.43
480.311	3739.76
480.682	3860.44
481.053	3985.4
481.424	4045.29
481.795	4151.05
482.166	4212.06
482.537	4347.43
482.908	4462
483.279	4567.99
483.65	4658.15
484.021	4831.71
484.391	4971.82
484.762	5062.66
485.133	5141.76
485.503	5271.02
485.874	5480.96
486.244	5557.11
486.615	5729.54
486.985	5859.48
487.356	6046.37
487.726	6205.01
488.097	6357.54
488.467	6397.32
488.837	6585.79
489.207	6728.16
489.578	6922.5
489.948	7030.52
490.318	7202.04
490.688	7355.71
491.058	7474.8
491.428	7697.4
491.798	7768.81
492.168	8041.12
492.538	8158.85
492.908	8343.48
493.278	8516.58
493.648	8564.49
494.017	8664.6
494.387	8851.49
494.757	9003.12
495.126	9178.49
495.496	9219.62
495.866	9389.78
496.235	9658.25
496.605	9714.97
496.974	9886.27
497.344	10057.79
497.713	10200.16
498.082	10300.49
498.452	10431.79
498.821	10551.11
499.19	10623.2
499.559	10760.14
499.928	10866.35
500.298	11037.2
500.667	11159.23
501.036	11261.6
501.405	11387.02
501.774	11445.55
502.143	11570.74
502.512	11611.19
502.88	11787.23
503.249	11866.1
503.618	11977.51
503.987	12109.48
504.356	12239.2
504.724	12274.23
505.093	12353.55
505.462	12371.4
505.83	12536.14
506.199	12676.7
506.567	12846.19
506.936	12891.38
507.304	13049.8
507.672	13130.93
508.041	13157.14
508.409	13296.12
508.777	13409.56
509.145	13427.87
509.514	13491.37
509.882	13541.31
510.25	13605.72
510.618	13702.89
510.986	13775.65
511.354	13934.52
511.722	14027.17
512.09	14146.72
512.458	14150.56
512.826	14224.68
513.193	14308.52
513.561	14356.66
513.929	14422.19
514.297	14573.83
514.664	14660.83
515.032	14685.01
515.4	14744.44
515.767	14846.81
516.135	14930.88
516.502	14703.09
516.869	15054.94
517.237	15018.56
517.604	15023.53
517.972	15104.21
518.339	15193.7
518.706	15234.15
519.073	15275.05
519.44	15253.81
519.808	15363.18
520.175	15374.71
520.542	15617.87
520.909	15626.91
521.276	15557.75
521.643	15642.27
522.009	15730.86
522.376	15848.37
522.743	15840.23
523.11	15882.49
523.477	16111.64
523.843	16023.96
524.21	16195.48
524.577	16235.93
524.943	16286.1
525.31	16308.92
525.676	16355.02
526.043	16529.48
526.409	16470.5
526.776	16512.76
527.142	16547.11
527.508	16540.78
527.874	16679.76
528.241	16651.29
528.607	16702.81
528.973	16805.41
529.339	16723.37
529.705	16850.38
530.071	16838.63
530.437	16933.09
530.803	16881.11
531.169	16842.92
531.535	16826.2
531.901	16930.15
532.267	16905.74
532.632	17034.78
532.998	16990.94
533.364	17033.42
533.73	17029.13
534.095	17052.18
534.461	17037.26
534.826	17069.13
535.192	17060.99
535.557	17100.09
535.923	16978.96
536.288	16980.77
536.653	17069.81
537.019	16945.74
537.384	16962.24
537.749	16945.97
538.114	17047.66
538.479	16992.29
538.845	16963.82
539.21	16837.04
539.575	16799.98
539.94	16832.52
540.305	16925.4
540.67	16737.16
541.034	16832.52
541.399	17002.01
541.764	16731.74
542.129	16784.16
542.494	16792.75
542.858	16818.51
543.223	16745.29
543.587	16729.7
543.952	16701
544.316	16713.66
544.681	16579.65
545.045	16748.46
545.41	16741.9
545.774	16630.72
546.138	16598.41
546.503	16603.83
546.867	16514.34
547.231	16614
547.595	16504.4
547.959	16433.44
548.324	16403.16
548.688	16411.52
549.052	16423.27
549.416	16323.16
549.779	16369.03
550.143	16314.35
550.507	16300.33
550.871	16313.89
551.235	16198.19
551.599	16306.89
551.962	16263.72
552.326	16215.36
552.689	16254.23
553.053	16210.84
553.417	16204.74
553.78	16359.54
554.143	16194.57
554.507	16197.51
554.87	16192.54
555.234	16245.42
555.597	16129.04
555.96	16210.39
556.323	16173.11
556.686	16174.46
557.05	16226.89
557.413	16211.75
557.776	16211.75
558.139	16233.44
558.502	16181.69
558.865	16146.21
559.228	16218.53
559.59	16315.47
559.953	16165.2
560.316	16251.07
560.679	16197.51
561.041	16250.62
561.404	16375.13
561.767	16350.5
562.129	16215.36
562.492	16355.02
562.854	16306.89
563.217	16296.94
563.579	16336.27
563.941	16441.12
564.304	16402.03
564.666	16512.53
565.028	16428.47
565.39	16530.61
565.753	16605.18
566.115	16600.21
566.477	16560.44
566.839	16606.77
567.201	16753.66
567.563	16674.56
567.925	16735.12
568.287	16753.2
568.648	16728.35
569.01	16770.38
569.372	16845.18
569.734	16745.29
570.095	16847.21
570.457	16881.79
570.819	16828.91
571.18	16838.4
571.542	16930.15
571.903	16919.53
572.265	16870.04
572.626	17003.59
572.987	16957.04
573.349	16979.41
573.71	17032.52
574.071	17110.71
574.432	17023.93
574.794	17206.75
575.155	17156.13
575.516	17043.14
575.877	17119.3
576.238	17152.29
576.599	17145.96
576.96	17114.32
577.32	17112.29
577.681	17310.25
578.042	17276.58
578.403	17236.81
578.763	17170.82
579.124	17209.91
579.485	17268.9
579.845	17319.29
580.206	17186.19
580.566	17201.33
580.927	17252.17
581.287	17360.65
581.648	17268.9
582.008	17255.79
582.368	17230.71
582.728	17327.88
583.089	17288.1
583.449	17196.36
583.809	17232.06
584.169	17227.54
584.529	17162.46
584.889	17255.79
585.249	17182.34
585.609	17158.84
585.969	17188.45
586.329	17127.66
586.688	17235.22
587.048	17196.36
587.408	17119.75
587.768	17208.11
588.127	17030.94
588.487	17078.84
588.846	17240.2
589.206	17118.39
589.565	17064.83
589.925	17194.77
590.284	17060.31
590.643	17080.2
591.003	17067.09
591.362	17154.1
591.721	17126.53
592.08	17054.21
592.44	17040.2
592.799	17034.55
593.158	17105.28
593.517	17090.82
593.876	17059.18
594.235	17028
594.593	16991.39
594.952	17076.58
595.311	17009.24
595.67	16995.01
596.029	17084.04
596.387	17038.17
596.746	17062.35
597.104	16866.87
597.463	16914.56
597.822	17061.22
598.18	16972.18
598.538	16881.56
598.897	17030.94
599.255	16913.43
599.613	17066.19
599.972	17040.43
600.33	16990.94
600.688	16954.1
601.046	17015.34
601.404	17049.24
601.762	17017.38
602.12	17001.78
602.478	17046.98
602.836	17091.95
603.194	16952.29
603.552	17066.87
603.91	16951.84
604.268	17074.55
604.625	17043.37
604.983	17067.09
605.341	16881.79
605.698	17088.79
606.056	17192.06
606.413	17097.15
606.771	17145.51
607.128	17112.97
607.485	17059.86
607.843	17036.13
608.2	17176.47
608.557	17233.64
608.914	17012.41
609.272	17139.63
609.629	17223.25
609.986	17307.31
610.343	17124.27
610.7	17319.97
611.057	17195.9
611.414	17181.21
611.771	17365.62
612.127	17359.97
612.484	17346.18
612.841	17439.74
613.198	17314.32
613.554	17366.75
613.911	17425.95
614.267	17361.32
614.624	17347.76
614.98	17400.87
615.337	17530.36
615.693	17373.3
616.05	17409.68
616.406	17538.04
616.762	17467.08
617.118	17484.26
617.475	17459.63
617.831	17544.82
618.187	17456.01
618.543	17489.46
618.899	17660.98
619.255	17492.17
619.611	17580.3
619.967	17696.46
620.323	17595.67
620.678	17577.59
621.034	17548.66
621.39	17531.71
621.746	17638.38
622.101	17786.85
622.457	17564.48
622.812	17581.43
623.168	17611.94
623.523	17571.94
623.879	17646.97
624.234	17589.34
624.589	17641.99
624.945	17581.2
625.3	17588.66
625.655	17655.78
626.01	17600.41
626.365	17680.64
626.72	17586.63
627.075	17648.1
627.43	17605.61
627.785	17534.43
628.14	17648.1
628.495	17657.59
628.85	17669.79
629.205	17492.85
629.559	17665.95
629.914	17489.91
630.269	17570.58
630.623	17534.65
630.978	17443.81
631.332	17549.34
631.687	17473.18
632.041	17526.06
632.396	17448.78
632.75	17393.86
633.104	17432.73
633.459	17355.45
633.813	17269.57
634.167	17236.13
634.521	17327.2
634.875	17400.64
635.229	17248.56
635.583	17271.83
635.937	17213.76
636.291	17249.01
636.645	17189.12
636.999	17125.85
637.352	17226.19
637.706	17145.06
638.06	17212.4
638.413	17194.1
638.767	17142.8
639.121	17124.27
639.474	16952.52
639.828	17030.71
640.181	17031.39
640.534	17036.81
640.888	16983.93
641.241	16928.79
641.594	16989.58
641.947	16952.52
642.301	16929.7
642.654	16942.13
643.007	16892.63
643.36	16910.26
643.713	16824.84
644.066	16867.1
644.419	16808.34
644.771	16663.04
645.124	16597.95
645.477	16526.54
645.83	16481.35
646.182	16267.79
646.535	16398.41
646.888	16352.76
647.24	16234.57
647.593	16336.94
647.945	16250.39
648.298	16255.36
648.65	16238.64
649.002	16256.49
649.355	16386.43
649.707	16302.82
650.059	16318.41
650.411	16617.61
650.763	16565.41
651.115	16741
651.467	16617.84
651.819	16577.61
652.171	16649.03
652.523	16655.13
652.875	16666.2
653.227	16517.05
653.578	16697.16
653.93	16606.09
654.282	16546.88
654.633	16473.66
654.985	16536.49
655.337	16499.65
655.688	16587.11
656.039	16563.83
656.391	16483.61
656.742	16554.56
657.094	16486.54
657.445	16530.84
657.796	16587.33
658.147	16515.24
658.498	16523.15
658.849	16612.19
659.2	16578.52
659.551	16548.01
659.902	16611.96
660.253	16511.18
660.604	16612.19
660.955	16543.04
661.306	16594.56
661.656	16568.8
662.007	16631.62
662.358	16600.67
662.708	16705.3
663.059	16733.09
663.409	16488.35
663.76	16677.95
664.11	16577.16
664.461	16593.21
664.811	16638.86
665.161	16615.13
665.511	16497.17
665.862	16536.49
666.212	16645.18
666.562	16681.79
666.912	16641.57
667.262	16660.1
667.612	16606.54
667.962	16572.87
668.312	16622.13
668.662	16659.42
669.011	16602.47
669.361	16644.73
669.711	16630.27
670.06	16490.84
670.41	16544.85
670.76	16602.93
671.109	16606.09
671.459	16582.59
671.808	16511.85
672.157	16506.88
672.507	16488.13
672.856	16421.46
673.205	16467.79
673.554	16541.01
673.904	16433.89
674.253	16578.97
674.602	16479.09
674.951	16317.96
675.3	16154.12
675.649	16472.08
675.998	16387.11
676.346	16517.28
676.695	16477.73
677.044	16342.82
677.393	16346.21
677.741	16494.68
678.09	16300.79
678.438	16309.6
678.787	16236.61
679.135	16276.15
679.484	16146.44
679.832	16171.3
680.181	16215.82
680.529	16195.93
680.877	15994.13
681.225	16058.53
681.573	16147.34
681.922	16004.75
682.27	15936.05
682.618	15972.43
682.966	15962.72
683.314	15929.04
683.661	15932.89
684.009	15795.71
684.357	15789.84
684.705	15772.44
685.053	15702.16
685.4	15765.43
685.748	15521.6
686.095	15615.61
686.443	15560.92
686.79	15575.61
687.138	15566.79
687.485	15577.42
687.832	15484.76
688.18	15501.94
688.527	15458.77
688.874	15419
689.221	15367.25
689.568	15317.08
689.915	15287.48
690.262	15268.95
690.609	15200.7
690.956	15129.07
691.303	15118.22
691.65	15078.45
691.997	15065.11
692.344	14929.07
692.69	14965.23
693.037	14961.61
693.383	14765.46
693.73	14777.44
694.077	14696.99
694.423	14678
694.769	14680.04
695.116	14722.75
695.462	14590.1
695.808	14634.16
696.155	14569.98
696.501	14392.81
696.847	14404.79
697.193	14312.82
697.539	14303.55
697.885	14243.67
698.231	14194.4
698.577	14149.66
698.923	14105.82
699.269	14052.48
699.614	14037.57
699.96	13940.4
700.306	13955.76
700.651	13902.21
700.997	13797.35
701.342	13797.12
701.688	13748.31
702.033	13725.26
702.379	13640.29
702.724	13578.15
703.069	13641.19
703.415	13469.45
703.76	13461.54
704.105	13464.48
704.45	13397.13
704.795	13373.86
705.14	13255.67
705.485	13283.24
705.83	13253.63
706.175	13226.74
706.52	13102.23
706.865	13123.02
707.209	13105.84
707.554	13064.71
707.899	13112.62
708.243	12937.48
708.588	12863.36
708.932	12850.48
709.277	12831.27
709.621	12811.39
709.966	12736.59
710.31	12717.38
710.654	12633.99
710.998	12721.22
711.342	12678.73
711.687	12679.64
712.031	12539.08
712.375	12487.1
712.719	12477.61
713.063	12576.14
713.407	12605.52
713.75	12429.7
714.094	12431.74
714.438	12393.09
714.782	12382.47
715.125	12234.9
715.469	12370.95
715.812	12345.86
716.156	12222.02
716.499	12266.99
716.843	12243.94
717.186	12185.64
717.53	12235.36
717.873	12223.61
718.216	12107.22
718.559	12107
718.902	12001.92
719.246	12043.72
719.589	12011.18
719.932	11957.85
720.275	12007.11
720.617	11929.83
720.96	11997.62
721.303	12042.82
721.646	11947.23
721.989	11933.44
722.331	11952.2
722.674	11890.73
723.016	11931.64
723.359	11831.3
723.701	11904.74
724.044	11770.28
724.386	11742.49
724.729	11802.6
725.071	11852.54
725.413	11772.54
725.755	11792.66
726.097	11725.54
726.439	11645.77
726.782	11669.27
727.124	11777.06
727.465	11614.13
727.807	11669.5
728.149	11648.71
728.491	11632.89
728.833	11652.77
729.175	11628.14
729.516	11619.33
729.858	11607.35
730.199	11608.93
730.541	11603.51
730.882	11588.37
731.224	11642.83
731.565	11539.33
731.906	11598.76
732.248	11619.33
732.589	11536.17
732.93	11537.75
733.271	11516.73
733.612	11563.74
733.953	11597.41
734.294	11527.58
734.635	11509.05
734.976	11592.21
735.317	11511.99
735.658	11519.89
735.999	11551.76
736.339	11445.77
736.68	11603.73
737.021	11586.33
737.361	11471.76
737.702	11592.89
738.042	11509.05
738.383	11558.76
738.723	11574.58
739.063	11512.21
739.404	11566.45
739.744	11591.31
740.084	11518.54
740.424	11548.82
740.764	11572.32
741.104	11655.94
741.444	11620.23
741.784	11614.36
742.124	11603.51
742.464	11646.67
742.804	11702.71
743.143	11604.86
743.483	11657.97
743.823	11600.57
744.162	11660.23
744.502	11739.78
744.841	11801.24
745.181	11788.81
745.52	11744.52
745.86	11918.75
746.199	11828.36
746.538	11847.12
746.877	12079.43
747.216	11987.23
747.556	12052.31
747.895	12129.6
748.234	12191.06
748.573	12240.33
748.911	12328.46
749.25	12296.82
749.589	12345.18
749.928	12446.2
750.267	12548.79
750.605	12614.1
750.944	12696.81
751.283	12772.74
751.621	12871.95
751.96	12857.26
752.298	12951.27
752.636	13064.49
752.975	13115.56
753.313	13195.33
753.651	13386.29
753.989	13445.27
754.327	13501.09
754.666	13601.42
755.004	13762.1
755.342	13950.57
755.679	14100.62
756.017	14118.7
756.355	14361.4
756.693	14411.12
757.031	14625.8
757.368	14684.78
757.706	14843.42
758.044	15005.45
758.381	15205.45
758.719	15291.77
759.056	15534.93
759.394	15657.19
759.731	15734.93
760.068	15931.98
760.405	16047.46
760.743	16155.71
761.08	16470.73
761.417	16551.4
761.754	16644.96
762.091	16877.49
762.428	17037.04
762.765	17178.73
763.102	17328.33
763.438	17553.18
763.775	17587.98
764.112	17736.23
764.449	18006.05
764.785	17994.98
765.122	18146.84
765.458	18237.01
765.795	18399.71
766.131	18532.59
766.467	18670.22
766.804	18808.06
767.14	18853.71
767.476	18984.33
767.812	19126.7
768.148	19277.88
768.485	19315.85
768.821	19433.81
769.157	19480.14
769.492	19694.14
769.828	19755.38
770.164	19814.37
770.5	19857.08
770.836	20011.87
771.171	20020.24
771.507	20200.57
771.842	20168.71
772.178	20301.81
772.513	20337.52
772.849	20449.38
773.184	20619.99
773.519	20519.66
773.855	20525.08
774.19	20648.47
774.525	20666.55
774.86	20782.02
775.195	20764.4
775.53	20863.15
775.865	20872.19
776.2	20792.65
776.535	20711.29
776.87	20932.53
777.205	20927.33
777.539	20837.39
777.874	21126.2
778.209	20976.14
778.543	20958.97
778.878	20912.64
779.212	20993.54
779.547	20938.4
779.881	21097.04
780.215	21035.12
780.55	21027.89
780.884	20956.48
781.218	20966.2
781.552	20946.54
781.886	20909.48
782.22	20864.06
782.554	20871.74
782.888	20739.09
783.222	20778.18
783.556	20822.48
783.889	20841.68
784.223	20692.76
784.557	20523.05
784.89	20848.92
785.224	20660.22
785.557	20644.63
785.891	20622.48
786.224	20525.53
786.558	20519.66
786.891	20470.39
787.224	20396.5
787.557	20318.31
787.891	20377.52
788.224	20414.12
788.557	20475.37
788.89	20395.14
789.223	20365.76
789.556	20225.2
789.888	20203.28
790.221	20201.7
790.554	20123.51
790.887	20114.92
791.219	19998.32
791.552	19972.55
791.884	19964.64
792.217	19897.53
792.549	19884.87
792.882	19746.12
793.214	19787.25
793.546	19759.23
793.879	19668.16
794.211	19498.67
794.543	19639.23
794.875	19561.94
795.207	19661.38
795.539	19466.8
795.871	19495.5
796.203	19306.36
796.535	19272.91
796.867	19185.91
797.198	19175.06
797.53	19243.99
797.862	19125.57
798.193	19204.89
798.525	18994.05
798.856	19000.38
799.188	18921.96
799.519	18821.85
799.85	18769.87
800.182	18788.63
800.513	18768.07
800.844	18614.4
801.175	18725.81
801.506	18681.51
801.837	18580.73
802.168	18563.78
802.499	18503.21
802.83	18437.91
803.161	18401.07
803.491	18424.8
803.822	18446.72
804.153	18307.96
804.483	18195.65
804.814	18126.27
805.145	18097.57
805.475	18144.35
805.805	17983.45
806.136	17940.52
806.466	17981.19
806.796	17925.6
807.126	17852.38
807.457	17824.81
807.787	17817.58
808.117	17774.65
808.447	17642.22
808.777	17774.42
809.107	17669.56
809.436	17580.07
809.766	17637.93
810.096	17531.49
810.426	17451.94
810.755	17528.1
811.085	17363.58
811.414	17438.84
811.744	17234.55
812.073	17261.66
812.403	17250.59
812.732	17179.18
813.061	17132.4
813.39	17080.2
813.719	17105.74
814.049	17079.97
814.378	16998.17
814.707	16907.78
815.036	16964.27
815.365	16900.54
815.693	16748.23
816.022	16766.54
816.351	16713.66
816.68	16642.7
817.008	16783.49
817.337	16592.98
817.665	16592.08
817.994	16653.77
818.322	16574
818.651	16454.91
818.979	16439.77
819.307	16532.87
819.636	16552.3
819.964	16373.78
820.292	16488.35
820.62	16456.26
820.948	16383.27
821.276	16499.2
821.604	16397.73
821.932	16349.6
822.259	16437.28
822.587	16419.2
822.915	16259.66
823.243	16392.76
823.57	16308.24
823.898	16374.23
824.225	16307.79
824.553	16302.14
824.88	16267.79
825.207	16337.4
825.535	16310.73
825.862	16396.38
826.189	16255.36
826.516	16371.74
826.843	16391.41
827.17	16301.24
827.497	16376.94
827.824	16296.94
828.151	16418.3
828.478	16254.23
828.805	16328.13
829.131	16204.29
829.458	16303.95
829.785	16243.61
830.111	16254.69
830.438	16372.87
830.764	16280.67
831.09	16337.62
831.417	16280.45
831.743	16376.94
832.069	16206.55
832.395	16212.43
832.722	16220.79
833.048	16280.67
833.374	16204.74
833.7	16108.25
834.026	16191.41
834.351	16257.17
834.677	16209.26
835.003	16209.94
835.329	16199.09
835.654	16081.36
835.98	16079.77
836.306	16099.44
836.631	15940.12
836.956	16072.54
837.282	16031.19
837.607	16004.97
837.932	16063.05
838.258	15957.07
838.583	15950.29
838.908	15871.87
839.233	15937.41
839.558	15866.67
839.883	15794.81
840.208	15729.95
840.533	15761.59
840.858	15745.32
841.182	15727.47
841.507	15733.57
841.832	15677.75
842.156	15570.41
842.481	15572.9
842.805	15537.87
843.13	15560.92
843.454	15515.04
843.778	15433.69
844.103	15388.27
844.427	15320.92
844.751	15345.56
845.075	15343.07
845.399	15225.11
845.723	15285.67
846.047	15185.34
846.371	15054.04
846.695	15128.39
847.019	14896.76
847.343	14935.85
847.666	14830.77
847.99	14776.53
848.313	14735.86
848.637	14718.91
848.96	14557.33
849.284	14594.84
849.607	14508.97
849.931	14436.65
850.254	14434.62
850.577	14272.82
850.9	14235.98
851.223	14240.73
851.546	14155.53
851.869	14065.82
852.192	14114.63
852.515	13984.91
852.838	13934.07
853.161	13982.65
853.483	13866.73
853.806	13803.68
854.129	13823.34
854.451	13638.03
854.774	13701.31
855.096	13577.69
855.419	13634.42
855.741	13473.97
856.063	13433.52
856.385	13445.72
856.708	13369.11
857.03	13296.12
857.352	13359.62
857.674	13245.73
857.996	13176.35
858.318	13249.11
858.64	13179.29
858.961	13093.86
859.283	13010.48
859.605	13073.53
859.926	12994.88
860.248	12985.17
860.57	13087.54
860.891	12982.23
861.212	12822.69
861.534	12850.93
861.855	12763.93
862.176	12829.46
862.498	12783.59
862.819	12860.88
863.14	12732.97
863.461	12756.7
863.782	12633.54
864.103	12663.82
864.424	12684.38
864.745	12690.94
865.065	12643.93
865.386	12561.45
865.707	12528.23
866.027	12617.04
866.348	12528.68
866.668	12515.12
866.989	12412.98
867.309	12383.6
867.63	12385.86
867.95	12471.73
868.27	12336.82
868.59	12351.29
868.91	12271.06
869.23	12283.26
869.55	12275.13
869.87	12364.39
870.19	12254.56
870.51	12312.42
870.83	12341.12
871.15	12107
871.469	12241.23
871.789	12216.37
872.109	12144.06
872.428	12061.8
872.748	12047.34
873.067	12064.29
873.386	12136.15
873.706	12033.33
874.025	12038.07
874.344	11911.75
874.663	12048.69
874.982	11995.36
875.301	11923.27
875.62	11890.73
875.939	11875.14
876.258	11902.94
876.577	11862.71
876.896	11804.41
877.214	11782.26
877.533	11720.79
877.852	11757.85
878.17	11763.28
878.489	11702.71
878.807	11744.07
879.125	11608.48
879.444	11691.19
879.762	11628.82
880.08	11644.86
880.398	11548.59
880.716	11580.91
881.034	11545.2
881.352	11575.71
881.67	11497.75
881.988	11543.62
882.306	11471.76
882.624	11379.56
882.941	11406
883.259	11367.58
883.577	11334.14
883.894	11361.48
884.212	11274.48
884.529	11298.43
884.846	11246.46
885.164	11274.48
885.481	11232.44
885.798	11205.55
886.115	11054.6
886.432	11115.61
886.75	11077.87
887.067	11103.41
887.383	10987.25
887.7	11076.06
888.017	11047.36
888.334	11015.95
888.651	10942.28
888.967	10915.84
889.284	10879.46
889.6	10843.08
889.917	10770.76
890.233	10797.88
890.55	10822.74
890.866	10806.92
891.182	10644.89
891.498	10697.32
891.815	10613.93
892.131	10633.14
892.447	10606.92
892.763	10455.29
893.079	10454.39
893.395	10483.76
893.71	10442.18
894.026	10423.88
894.342	10408.96
894.657	10374.61
894.973	10310.89
895.289	10304.33
895.604	10214.62
895.92	10205.13
896.235	10128.74
896.55	10155.64
896.865	10083.55
897.181	10104.11
897.496	10133.72
897.811	10053.72
898.126	9987.05
898.441	9902.08
898.756	9898.24
899.071	9799.26
899.386	9927.62
899.7	9757.23
900.015	9699.6
900.33	9634.97
900.644	9645.14
900.959	9680.17
901.273	9590.68
901.588	9583.45
901.902	9477.46
902.216	9449.21
902.531	9448.99
902.845	9487.86
903.159	9395.43
903.473	9367.86
903.787	9352.72
904.101	9251.25
904.415	9279.73
904.729	9202.67
905.042	9157.02
905.356	9084.93
905.67	9164.25
905.984	9136.45
906.297	9085.83
906.611	9004.71
906.924	9011.71
907.237	8955.22
907.551	8947.31
907.864	8912.96
908.177	8904.82
908.491	8810.59
908.804	8817.37
909.117	8707.77
909.43	8703.47
909.743	8617.37
910.056	8632.74
910.368	8613.53
910.681	8519.75
910.994	8562.68
911.307	8511.61
911.619	8514.32
911.932	8458.96
912.244	8362.92
912.557	8390.94
912.869	8352.75
913.181	8262.13
913.494	8298.74
913.806	8221.9
914.118	8213.77
914.43	8161.34
914.742	8068.01
915.054	8094.22
915.366	8074.34
915.678	7989.82
915.99	7936.26
916.302	7904.62
916.613	7920.67
916.925	7914.11
917.236	7893.32
917.548	7774
917.859	7783.95
918.171	7752.99
918.482	7695.36
918.794	7740.79
919.105	7629.83
919.416	7583.73
919.727	7580.56
920.038	7618.08
920.349	7500.57
920.66	7524.75
920.971	7501.92
921.282	7473.45
921.593	7399.1
921.903	7323.17
922.214	7353.45
922.525	7335.15
922.835	7277.97
923.146	7233.23
923.456	7233.91
923.767	7177.41
924.077	7167.47
924.387	7173.57
924.697	7087.02
925.008	7072.33
925.318	6998.88
925.628	6986
925.938	6953.01
926.248	6928.83
926.558	6946.23
926.867	6933.35
927.177	6849.74
927.487	6820.13
927.796	6804.54
928.106	6812.67
928.416	6779.23
928.725	6778.55
929.034	6718.89
929.344	6678.67
929.653	6665.33
929.962	6603.87
930.271	6620.59
930.581	6556.18
930.89	6528.16
931.199	6524.55
931.508	6467.37
931.817	6495.17
932.125	6404.78
932.434	6435.51
932.743	6352.12
933.051	6304.21
933.36	6320.94
933.669	6332.01
933.977	6225.57
934.286	6262.18
934.594	6240.03
934.902	6152.35
935.21	6159.81
935.519	6089.3
935.827	6127.27
936.135	6082.07
936.443	6012.47
936.751	6026.48
937.059	6014.73
937.367	5990.77
937.674	5984
937.982	5929.76
938.29	5899.03
938.597	5917.78
938.905	5837.33
939.213	5788.29
939.52	5735.41
939.827	5838.46
940.135	5747.62
940.442	5684.79
940.749	5719.82
941.056	5744.68
941.363	5598.02
941.67	5598.69
941.977	5579.49
942.284	5598.02
942.591	5524.8
942.898	5534.52
943.205	5528.19
943.511	5470.34
943.818	5518.24
944.125	5425.14
944.431	5419.72
944.738	5395.76
945.044	5361.86
945.35	5345.82
945.657	5288.87
945.963	5287.29
946.269	5265.37
946.575	5225.6
946.881	5218.14
947.187	5175.65
947.493	5184.02
947.799	5172.72
948.105	5150.8
948.41	5049.56
948.716	5048.43
949.022	5078.93
949.327	5051.14
949.633	5023.12
949.938	5023.57
950.244	5005.04
950.549	4940.18
950.854	4907.64
951.16	4910.35
951.465	4905.38
951.77	4837.13
952.075	4839.17
952.38	4849.11
952.685	4800.07
952.99	4780.19
953.294	4786.06
953.599	4758.94
953.904	4687.76
954.209	4666.74
954.513	4654.31
954.818	4701.09
955.122	4674.2
955.426	4611.6
955.731	4602.56
956.035	4587.42
956.339	4570.93
956.643	4573.41
956.948	4497.71
957.252	4527.76
957.556	4504.26
957.86	4483.02
958.163	4494.54
958.467	4428.56
958.771	4426.52
959.075	4417.03
959.378	4359.41
959.682	4337.94
959.985	4352.85
960.289	4344.04
960.592	4267.43
960.896	4283.93
961.199	4271.05
961.502	4301.33
961.805	4199.18
962.108	4193.31
962.411	4188.11
962.714	4200.77
963.017	4144.72
963.32	4150.37
963.623	4137.26
963.926	4106.53
964.228	4092.75
964.531	4071.73
964.833	4050.94
965.136	4033.76
965.438	4017.27
965.741	3998.06
966.043	4005.06
966.345	3947.21
966.648	3948.57
966.95	3920.09
967.252	3847.78
967.554	3854.33
967.856	3866.54
968.158	3828.35
968.46	3836.26
968.761	3817.5
969.063	3819.53
969.365	3749.03
969.666	3780.21
969.968	3760.32
970.269	3741.79
970.571	3722.81
970.872	3735.92
971.174	3673.77
971.475	3669.25
971.776	3611.18
972.077	3660.89
972.378	3627.67
972.679	3620.67
972.98	3613.21
973.281	3590.84
973.582	3603.72
973.883	3560.33
974.183	3514
974.484	3514.46
974.785	3476.72
975.085	3484.85
975.386	3468.81
975.686	3466.55
975.986	3448.69
976.287	3452.54
976.587	3395.36
976.887	3388.58
977.187	3414.8
977.487	3364.18
977.787	3352.2
978.087	3331.41
978.387	3340.22
978.687	3312.88
978.987	3276.95
979.286	3251.64
979.586	3342.71
979.885	3235.59
980.185	3223.84
980.484	3205.99
980.784	3212.77
981.083	3196.72
981.382	3159.44
981.682	3143.39
981.981	3155.82
982.28	3149.72
982.579	3093.45
982.878	3096.61
983.177	3085.54
983.475	3089.38
983.774	3024.52
984.073	3017.07
984.372	3027.69
984.67	3027.24
984.969	3013.45
985.267	3015.71
985.566	2983.85
985.864	2993.11
986.162	2968.26
986.461	2925.09
986.759	2949.05
987.057	2898.88
987.355	2858.2
987.653	2866.56
987.951	2871.08
988.249	2874.02
988.547	2835.15
988.844	2841.03
989.142	2879.9
989.44	2818.65
989.737	2802.38
990.035	2808.26
990.332	2749.28
990.63	2758.32
990.927	2758.77
991.224	2732.33
991.521	2717.41
991.819	2704.08
992.116	2692.1
992.413	2707.92
992.71	2694.36
993.006	2664.08
993.303	2651.2
993.6	2652.11
993.897	2619.34
994.193	2622.28
994.49	2594.71
994.787	2578.21
995.083	2570.75
995.379	2547.7
995.676	2532.11
995.972	2516.97
996.268	2529.62
996.565	2508.38
996.861	2455.05
997.157	2519.23
997.453	2470.87
997.749	2461.38
998.044	2388.16
998.34	2434.03
998.636	2426.35
998.932	2394.26
999.227	2345.67
999.523	2376.18
999.818	2387.25
1000.114	2374.6
1000.409	2336.41
1000.704	2309.74
1001	2317.42
1001.295	2288.95
1001.59	2287.6
1001.885	2300.25
1002.18	2264.54
1002.475	2251.44
1002.77	2232
1003.065	2233.13
1003.359	2205.79
1003.654	2221.16
1003.949	2198.56
1004.243	2172.34
1004.538	2167.82
1004.832	2165.34
1005.127	2137.32
1005.421	2134.15
1005.715	2106.58
1006.009	2090.09
1006.304	2088.96
1006.598	2084.21
1006.892	2061.61
1007.186	2054.61
1007.48	2050.09
1007.773	2010.54
1008.067	2048.51
1008.361	2020.03
1008.655	1987.49
1008.948	1975.29
1009.242	1947.72
1009.535	1957.89
1009.829	1948.17
1010.122	1926.47
1010.415	1909.53
1010.708	1923.31
1011.001	1902.97
1011.295	1862.97
1011.588	1866.59
1011.881	1872.46
1012.173	1856.42
1012.466	1857.55
1012.759	1805.35
1013.052	1826.82
1013.344	1807.16
1013.637	1823.43
1013.93	1809.19
1014.222	1808.06
1014.514	1787.5
1014.807	1776.65
1015.099	1754.73
1015.391	1760.15
1015.683	1749.3
1015.976	1718.8
1016.268	1708.18
1016.56	1697.33
1016.851	1683.77
1017.143	1667.95
1017.435	1663.88
1017.727	1636.76
1018.018	1651
1018.31	1661.85
1018.602	1611.23
1018.893	1610.55
1019.185	1618.01
1019.476	1595.86
1019.767	1598.57
1020.058	1600.61
1020.35	1591.12
1020.641	1549.54
1020.932	1518.58
1021.223	1548.18
1021.514	1526.49
1021.804	1524.45
1022.095	1508.63
1022.386	1500.5
1022.677	1475.41
1022.967	1465.47
1023.258	1467.96
1023.548	1434.74
1023.839	1465.47
1024.129	1440.61
1024.419	1437.67
1024.709	1407.84
1025	1433.61
1025.29	1406.49
1025.58	1380.95
1025.87	1352.93
1026.16	1377.56
1026.449	1382.99
1026.739	1354.96
1027.029	1358.13
1027.319	1348.64
1027.608	1358.81
1027.898	1340.73
1028.187	1343.44
1028.477	1321.97
1028.766	1315.19
1029.055	1275.42
1029.344	1280.84
1029.634	1287.85
1029.923	1244.46
1030.212	1239.49
1030.501	1255.08
1030.79	1242.42
1031.078	1207.62
1031.367	1222.99
1031.656	1228.19
1031.945	1182.77
1032.233	1171.92
1032.522	1173.5
1032.81	1160.62
1033.099	1170.11
1033.387	1164.01
1033.675	1159.04
1033.963	1171.01
1034.251	1165.14
1034.54	1127.17
1034.828	1130.79
1035.116	1132.15
1035.403	1092.82
1035.691	1090.79
1035.979	1101.86
1036.267	1081.53
1036.554	1086.95
1036.842	1103.67
1037.129	1082.88
1037.417	1061.64
1037.704	1035.65
1037.992	1074.75
1038.279	1027.52
1038.566	1024.8
1038.853	1024.8
1039.14	1024.8
