Data from hue_36_FLMS001491_00036.txt Node
Date: Tue Feb 07 17:29:43 GMT 2017
User: dcchb
Spectrometer: FLMS00149
Trigger mode: 0
Integration Time (sec): 2.000000E-2
Scans to average: 10
Electric dark correction enabled: true
Nonlinearity correction enabled: false
Boxcar width: 0
XAxis mode: Wavelengths
Number of Pixels in Spectrum: 2048
>>>>>Begin Spectral Data<<<<<
341.393	-18.93
341.776	-18.93
342.16	-18.93
342.543	-74.07
342.927	-54.86
343.31	-50.34
343.693	-50.34
344.077	-83.33
344.46	-69.77
344.843	-61.64
345.226	-30
345.61	-40.39
345.993	-13.05
346.376	-8.76
346.759	19.27
347.142	10.68
347.525	61.52
347.908	56.78
348.291	63.11
348.674	73.95
349.057	122.31
349.44	152.37
349.823	153.5
350.206	158.7
350.588	231.69
350.971	215.42
351.354	242.31
351.737	233.27
352.119	285.7
352.502	279.15
352.884	257.45
353.267	280.95
353.65	290.44
354.032	310.78
354.414	315.98
354.797	334.28
355.179	341.06
355.562	352.59
355.944	325.02
356.326	337.9
356.709	331.57
357.091	335.41
357.473	344.23
357.855	337.22
358.238	340.61
358.62	369.76
359.002	325.92
359.384	340.16
359.766	355.53
360.148	345.81
360.53	335.41
360.912	335.87
361.294	349.88
361.676	346.26
362.057	329.77
362.439	345.58
362.821	354.85
363.203	341.06
363.584	356.88
363.966	344.23
364.348	330.9
364.729	328.86
365.111	333.61
365.493	327.05
365.874	328.86
366.256	336.77
366.637	329.54
367.019	316.43
367.4	311.69
367.781	327.96
368.163	317.34
368.544	322.53
368.925	307.39
369.306	303.33
369.688	334.28
370.069	302.2
370.45	311.91
370.831	315.08
371.212	326.15
371.593	318.47
371.974	304
372.355	306.04
372.736	333.16
373.117	328.86
373.498	306.04
373.879	314.17
374.26	315.3
374.641	319.37
375.021	323.66
375.402	328.18
375.783	332.25
376.163	313.72
376.544	354.17
376.925	328.86
377.305	318.69
377.686	321.63
378.066	337
378.447	323.66
378.827	324.34
379.208	324.12
379.588	326.15
379.968	333.61
380.349	326.38
380.729	328.64
381.109	335.87
381.489	326.6
381.87	334.28
382.25	337
382.63	334.74
383.01	325.92
383.39	335.64
383.77	354.4
384.15	364.79
384.53	333.83
384.91	339.03
385.29	360.72
385.67	342.42
386.049	369.54
386.429	327.05
386.809	357.79
387.189	359.6
387.568	334.51
387.948	335.41
388.328	375.19
388.707	337.9
389.087	361.18
389.466	338.35
389.846	367.96
390.225	359.37
390.605	339.93
390.984	359.6
391.363	387.39
391.743	385.36
392.122	357.11
392.501	371.8
392.881	380.84
393.26	365.92
393.639	386.71
394.018	374.06
394.397	375.64
394.776	387.84
395.155	391.68
395.534	361.85
395.913	381.06
396.292	371.12
396.671	378.35
397.05	400.05
397.429	385.36
397.808	383.32
398.186	375.64
398.565	374.51
398.944	396.88
399.323	394.17
399.701	400.27
400.08	372.02
400.458	388.29
400.837	406.83
401.215	397.56
401.594	414.06
401.972	403.44
402.351	400.72
402.729	404.11
403.107	405.02
403.486	421.97
403.864	411.8
404.242	408.41
404.62	408.18
404.999	414.96
405.377	418.8
405.755	403.66
406.133	426.49
406.511	432.81
406.889	426.03
407.267	433.27
407.645	414.28
408.023	404.34
408.401	402.08
408.779	445.02
409.156	411.8
409.534	435.3
409.912	447.73
410.29	454.73
410.667	445.92
411.045	429.2
411.422	433.49
411.8	461.29
412.178	451.8
412.555	429.88
412.933	467.39
413.31	452.7
413.687	473.94
414.065	460.38
414.442	451.12
414.819	465.35
415.197	467.84
415.574	489.31
415.951	468.07
416.328	459.03
416.705	492.47
417.082	461.29
417.46	477.33
417.837	489.99
418.214	502.87
418.591	470.78
418.967	509.42
419.344	511.46
419.721	491.57
420.098	491.57
420.475	487.5
420.852	487.05
421.228	494.05
421.605	499.25
421.982	522.98
422.358	513.04
422.735	520.27
423.111	525.47
423.488	499.03
423.864	523.43
424.241	532.7
424.617	536.99
424.994	539.03
425.37	544
425.746	539.7
426.123	539.7
426.499	545.8
426.875	536.99
427.251	548.52
427.627	558.01
428.003	551.68
428.379	560.04
428.756	554.84
429.132	558.46
429.507	581.28
429.883	593.71
430.259	582.19
430.635	595.52
431.011	578.12
431.387	577.22
431.763	579.7
432.138	596.42
432.514	622.64
432.89	593.26
433.265	617.44
433.641	639.36
434.016	620.83
434.392	631.45
434.767	639.81
435.143	656.99
435.518	645.01
435.894	633.94
436.269	636.42
436.644	649.08
437.02	654.28
437.395	668.74
437.77	657.44
438.145	665.12
438.52	667.61
438.895	692.47
439.271	672.58
439.646	683.65
440.021	696.31
440.395	713.71
440.77	695.63
441.145	728.85
441.52	706.03
441.895	700.38
442.27	728.85
442.645	718
443.019	722.98
443.394	716.2
443.769	735.18
444.143	758.68
444.518	717.78
444.892	750.55
445.267	760.04
445.641	761.62
446.016	774.73
446.39	733.82
446.764	727.27
447.139	763.43
447.513	768.85
447.887	766.59
448.262	775.18
448.636	759.13
449.01	788.28
449.384	746.93
449.758	788.06
450.132	786.02
450.506	782.18
450.88	805.46
451.254	816.08
451.628	792.58
452.002	822.86
452.376	816.98
452.75	820.37
453.123	835.97
453.497	854.95
453.871	842.29
454.244	866.93
454.618	854.5
454.992	883.88
455.365	863.99
455.739	908.06
456.112	901.5
456.486	922.29
456.859	913.03
457.232	929.52
457.606	914.38
457.979	906.02
458.352	947.6
458.725	950.31
459.099	978.11
459.472	982.63
459.845	987.83
460.218	1002.06
460.591	990.09
460.964	997.54
461.337	1009.52
461.71	1051.1
462.083	1044.55
462.456	1075.73
462.829	1041.16
463.201	1073.7
463.574	1062.18
463.947	1082.06
464.32	1094.04
464.692	1113.93
465.065	1118.9
465.438	1161.83
465.81	1173.36
466.183	1194.6
466.555	1201.61
466.928	1203.64
467.3	1211.78
467.672	1220.82
468.045	1278.89
468.417	1294.26
468.789	1302.62
469.161	1325.22
469.534	1339.23
469.906	1352.11
470.278	1378.78
470.65	1411.54
471.022	1419.45
471.394	1437.76
471.766	1488.15
472.138	1494.25
472.51	1526.12
472.882	1554.82
473.253	1588.26
473.625	1609.28
473.997	1629.84
474.369	1634.82
474.74	1687.02
475.112	1722.27
475.484	1762.5
475.855	1795.26
476.227	1838.65
476.598	1899.67
476.97	1904.41
477.341	1969.27
477.713	2027.57
478.084	2077.29
478.455	2112.54
478.827	2150.28
479.198	2199.55
479.569	2255.36
479.94	2345.31
480.311	2367.45
480.682	2451.97
481.053	2496.71
481.424	2571.06
481.795	2618.97
482.166	2709.82
482.537	2737.84
482.908	2860.32
483.279	2903.93
483.65	3016.93
484.021	3072.52
484.391	3159.3
484.762	3207.66
485.133	3306.18
485.503	3352.06
485.874	3421.21
486.244	3503.24
486.615	3634.99
486.985	3695.78
487.356	3769.9
487.726	3894.42
488.097	3981.87
488.467	4091.7
488.837	4174.64
489.207	4312.49
489.578	4413.05
489.948	4469.54
490.318	4579.82
490.688	4621.18
491.058	4734.17
491.428	4857.33
491.798	4923.32
492.168	5084.22
492.538	5139.58
492.908	5271.56
493.278	5387.26
493.648	5469.74
494.017	5577.76
494.387	5652.11
494.757	5733.01
495.126	5865.66
495.496	5831.99
495.866	5968.94
496.235	6089.16
496.605	6242.83
496.974	6262.72
497.344	6338.87
497.713	6380.23
498.082	6489.38
498.452	6622.26
498.821	6708.58
499.19	6801.69
499.559	6869.71
499.928	6988.8
500.298	7014.11
500.667	7232.41
501.036	7147.89
501.405	7271.28
501.774	7294.78
502.143	7447.09
502.512	7480.76
502.88	7606.18
503.249	7585.17
503.618	7775.9
503.987	7798.95
504.356	7918.04
504.724	7920.98
505.093	7996.91
505.462	8060.41
505.83	8142.89
506.199	8276
506.567	8335.43
506.936	8398.48
507.304	8529.78
507.672	8493.84
508.041	8618.81
508.409	8644.12
508.777	8712.6
509.145	8861.07
509.514	8897.68
509.882	8941.97
510.25	8962.31
510.618	9041.63
510.986	9068.97
511.354	9193.94
511.722	9294.95
512.09	9342.18
512.458	9363.88
512.826	9476.64
513.193	9511.9
513.561	9595.51
513.929	9626.7
514.297	9767.48
514.664	9757.54
515.032	9840.25
515.4	9933.81
515.767	9971.32
516.135	9980.81
516.502	9942.62
516.869	10164.53
517.237	10215.16
517.604	10235.49
517.972	10298.54
518.339	10320.01
518.706	10440.01
519.073	10419.9
519.44	10541.25
519.808	10636.61
520.175	10640.68
520.542	10804.52
520.909	10816.27
521.276	10759.1
521.643	10896.95
522.009	10929.71
522.376	11052.42
522.743	11134.23
523.11	11198.41
523.477	11419.64
523.843	11399.3
524.21	11472.52
524.577	11545.97
524.943	11649.92
525.31	11671.16
525.676	11733.76
526.043	11874.09
526.409	11894.66
526.776	12067.08
527.142	12036.35
527.508	12107.31
527.874	12178.49
528.241	12225.72
528.607	12241.99
528.973	12396.11
529.339	12461.88
529.705	12585.04
530.071	12584.36
530.437	12628.2
530.803	12727.63
531.169	12789.78
531.535	12851.7
531.901	12848.08
532.267	12886.95
532.632	12967.4
532.998	12999.04
533.364	13152.25
533.73	13098.92
534.095	13293.49
534.461	13466.37
534.826	13363.32
535.192	13410.1
535.557	13503.43
535.923	13592.02
536.288	13575.97
536.653	13686.25
537.019	13633.6
537.384	13685.57
537.749	13864.78
538.114	13861.84
538.479	13825
538.845	13996.98
539.21	13946.36
539.575	14028.16
539.94	14032.23
540.305	14121.04
540.67	14125.56
541.034	14220.93
541.399	14337.98
541.764	14409.85
542.129	14435.38
542.494	14447.81
542.858	14512.44
543.223	14535.49
543.587	14642.16
543.952	14624.08
544.316	14764.64
544.681	14742.72
545.045	14919.66
545.41	14933.45
545.774	14900.68
546.138	15018.64
546.503	15168.02
546.867	14980.45
547.231	15204.4
547.595	15262.03
547.959	15226.1
548.324	15296.83
548.688	15280.56
549.052	15401.23
549.416	15462.47
549.779	15463.38
550.143	15565.3
550.507	15611.62
550.871	15692.98
551.235	15678.29
551.599	15801.45
551.962	15833.99
552.326	15838.51
552.689	15969.35
553.053	15876.48
553.417	15979.75
553.78	16160.54
554.143	16008.9
554.507	16314.43
554.87	16297.48
555.234	16372.28
555.597	16377.25
555.96	16490.92
556.323	16468.32
556.686	16520.07
557.05	16557.36
557.413	16612.5
557.776	16679.84
558.139	16736.57
558.502	16797.13
558.865	16890.23
559.228	16990.12
559.59	17010
559.953	16983.34
560.316	17211.81
560.679	17191.92
561.041	17322.76
561.404	17404.34
561.767	17433.04
562.129	17435.76
562.492	17615.41
562.854	17555.53
563.217	17581.29
563.579	17661.74
563.941	17774.28
564.304	17888.4
564.666	17937.89
565.028	18016.98
565.39	18014.72
565.753	18125.23
566.115	18294.72
566.477	18355.28
566.839	18351.66
567.201	18478.44
567.563	18494.71
567.925	18620.81
568.287	18591.66
568.648	18604.77
569.01	18815.15
569.372	18867.58
569.734	18859.22
570.095	18961.59
570.457	19127.46
570.819	19056.05
571.18	19126.11
571.542	19296.27
571.903	19290.62
572.265	19417.85
572.626	19480
572.987	19618.3
573.349	19621.69
573.71	19691.29
574.071	19889.7
574.432	19821.91
574.794	20205.4
575.155	20086.31
575.516	20032.98
575.877	20231.84
576.238	20368.79
576.599	20577.59
576.96	20520.42
577.32	20695.11
577.681	20813.29
578.042	20933.97
578.403	21066.4
578.763	21112.72
579.124	21303.23
579.485	21490.11
579.845	21609.21
580.206	21774.85
580.566	21881.97
580.927	22001.51
581.287	22201.73
581.648	22245.35
582.008	22583.87
582.368	22747.71
582.728	22797.2
583.089	22965.55
583.449	23141.37
583.809	23388.37
584.169	23579.32
584.529	23538.65
584.889	23996.26
585.249	23956.26
585.609	24121.46
585.969	24459.3
586.329	24640.76
586.688	24808.44
587.048	24919.85
587.408	25117.59
587.768	25216.12
588.127	25581.3
588.487	25676.9
588.846	26139.71
589.206	26118.69
589.565	26338.12
589.925	26701.73
590.284	26873.25
590.643	27074.37
591.003	27372.9
591.362	27729.27
591.721	27788.03
592.08	28050.62
592.44	28242.25
592.799	28549.14
593.158	28636.37
593.517	28838.62
593.876	29071.83
594.235	29432.5
594.593	29419.62
594.952	29763.12
595.311	29873.4
595.67	30193.84
596.029	30517.22
596.387	30691.68
596.746	30985
597.104	30956.3
597.463	31262.29
597.822	31645.78
598.18	31703.18
598.538	31753.12
598.897	32170.74
599.255	32046.45
599.613	32826.09
599.972	32757.16
600.33	32941.79
600.688	32965.74
601.046	33198.05
601.404	33532.73
601.762	33581.09
602.12	33903.8
602.478	34102.21
602.836	34208.87
603.194	34211.13
603.552	34553.95
603.91	34429.43
604.268	34939.7
604.625	34734.06
604.983	35163.88
605.341	35114.16
605.698	35416.75
606.056	35693.13
606.413	35579.91
606.771	35915.5
607.128	36069.16
607.485	35983.97
607.843	36071.42
608.2	36517.29
608.557	36675.02
608.914	36648.13
609.272	36959.54
609.629	37159.31
609.986	37321.56
610.343	37169.47
610.7	37575.34
611.057	37662.12
611.414	37815.56
611.771	37754.77
612.127	38131.26
612.484	38137.81
612.841	38467.07
613.198	38338.26
613.554	38478.59
613.911	38674.52
614.267	38714.07
614.624	38767.85
614.98	38987.73
615.337	39171.68
615.693	39092.59
616.05	39081.51
616.406	39573.48
616.762	39484.89
617.118	39484.22
617.475	39619.81
617.831	39815.28
618.187	39746.36
618.543	39930.31
618.899	40097.99
619.255	40099.34
619.611	40244.65
619.967	40362.16
620.323	40473.34
620.678	40474.25
621.034	40478.31
621.39	40456.17
621.746	40398.77
622.101	40904.29
622.457	40574.13
622.812	40868.81
623.168	40957.17
623.523	41017.74
623.879	41198.52
624.234	41072.2
624.589	41243.94
624.945	41295.47
625.3	41252.76
625.655	41423.83
626.01	41412.53
626.365	41364.17
626.72	41291.17
627.075	41518.74
627.43	41383.38
627.785	41313.32
628.14	41583.6
628.495	41610.04
628.85	41591.05
629.205	41474.9
629.559	41682.35
629.914	41570.49
630.269	41743.82
630.623	41628.11
630.978	41432.87
631.332	41745.4
631.687	41736.81
632.041	41725.51
632.396	41790.6
632.75	41446.65
633.104	41716.93
633.459	41529.59
633.813	41541.34
634.167	41523.03
634.521	41595.35
634.875	41805.74
635.229	41637.38
635.583	41681.45
635.937	41616.14
636.291	41537.95
636.645	41561.9
636.999	41446.2
637.352	41656.14
637.706	41394.22
638.06	41552.64
638.413	41433.32
638.767	41386.54
639.121	41514.9
639.474	41194.45
639.828	41344.05
640.181	41333.88
640.534	41388.57
640.888	41232.64
641.241	41061.58
641.594	41117.62
641.947	41508.34
642.301	41138.41
642.654	41215.47
643.007	41317.61
643.36	41206.2
643.713	41219.76
644.066	41381.79
644.419	41044.85
644.771	40818.64
645.124	40536.84
645.477	40429.5
645.83	40286.45
646.182	40096.86
646.535	40000.59
646.888	40158.1
647.24	39829.52
647.593	40219.34
647.945	40104.31
648.298	39956.07
648.65	39882.85
649.002	39667.26
649.355	39917.2
649.707	39852.79
650.059	39916.52
650.411	40491.65
650.763	40548.37
651.115	40873.78
651.467	40817.97
651.819	40682.6
652.171	40561.02
652.523	40579.33
652.875	40448.26
653.227	40434.25
653.578	40812.54
653.93	40561.25
654.282	40340.46
654.633	40330.07
654.985	40447.35
655.337	40495.49
655.688	40631.98
656.039	40643.28
656.391	40319
656.742	40409.16
657.094	40359.45
657.445	40572.1
657.796	40372.33
658.147	40365.32
658.498	40285.78
658.849	40346.79
659.2	40435.38
659.551	40204.88
659.902	40416.39
660.253	40308.38
660.604	40333.46
660.955	40113.8
661.306	40342.72
661.656	40326
662.007	40213.24
662.358	40203.75
662.708	40101.83
663.059	40167.36
663.409	39962.17
663.76	40270.18
664.11	40237.19
664.461	40363.06
664.811	40202.16
665.161	40154.25
665.511	40167.14
665.862	40113.13
666.212	40253.01
666.562	40247.13
666.912	40213.01
667.262	40063.86
667.612	40198.55
667.962	40088.72
668.312	40080.36
668.662	40217.76
669.011	40215.27
669.361	40068.61
669.711	40124.43
670.06	39991.32
670.41	39891.21
670.76	39834.04
671.109	40089.85
671.459	40000.81
671.808	39920.81
672.157	39834.72
672.507	39867.93
672.856	39768.95
673.205	39893.7
673.554	39964.88
673.904	39877.88
674.253	40035.84
674.602	39967.14
674.951	39339.14
675.3	39250.1
675.649	39887.6
675.998	39770.31
676.346	39576.42
676.695	39810.76
677.044	39634.49
677.393	39556.08
677.741	39720.59
678.09	39541.16
678.438	39565.12
678.787	39520.15
679.135	39527.15
679.484	39397.66
679.832	39679.92
680.181	39313.15
680.529	39396.31
680.877	39235.64
681.225	39339.59
681.573	39467.27
681.922	39167.39
682.27	39000.84
682.618	39112.02
682.966	38929.2
683.314	39060.05
683.661	38905.93
684.009	38752.26
684.357	38741.41
684.705	38693.28
685.053	38735.54
685.4	38612.83
685.748	38522.43
686.095	38467.52
686.443	38405.37
686.79	38356.79
687.138	38306.39
687.485	38328.54
687.832	38122.44
688.18	38235.66
688.527	37974.43
688.874	37989.11
689.221	38009.68
689.568	37860.98
689.915	37876.57
690.262	37827.08
690.609	37774.2
690.956	37654.89
691.303	37436.13
691.65	37425.06
691.997	37477.72
692.344	37091.96
692.69	37119.31
693.037	37187.78
693.383	36779.43
693.73	37004.51
694.077	36602.71
694.423	36805.87
694.769	36720.9
695.116	36570.62
695.462	36500.79
695.808	36423.51
696.155	36388.25
696.501	36096.96
696.847	36279.1
697.193	35883.63
697.539	36002.5
697.885	35794.6
698.231	35640.48
698.577	35734.71
698.923	35722.28
699.269	35526.81
699.614	35301.5
699.96	35251.11
700.306	35338.79
700.651	35147.61
700.997	35083.43
701.342	35008.18
701.688	34969.08
702.033	34883.21
702.379	34945.58
702.724	34812.93
703.069	34897.9
703.415	34417.91
703.76	34477.79
704.105	34470.56
704.45	34419.04
704.795	34124.36
705.14	34052.72
705.485	34043.68
705.83	33937.92
706.175	34063.34
706.52	33879.17
706.865	33779.06
707.209	33566.63
707.554	33601.88
707.899	33726.4
708.243	33485.28
708.588	33354.43
708.932	33328.9
709.277	33243.25
709.621	33121.67
709.966	33135
710.31	33188.34
710.654	32904.05
710.998	32788.35
711.342	32855.24
711.687	32795.13
712.031	32668.12
712.375	32530.05
712.719	32657.28
713.063	32509.48
713.407	32635.13
713.75	32420.45
714.094	32410.73
714.438	32228.81
714.782	32321.24
715.125	32044.41
715.469	32097.74
715.812	32023.4
716.156	31892.55
716.499	31827.92
716.843	31740.69
717.186	31674.93
717.53	31899.1
717.873	31818.88
718.216	31638.09
718.559	31536.63
718.902	31413.24
719.246	31304.32
719.589	31332.34
719.932	31155.4
720.275	31213.93
720.617	31137.09
720.96	31164.43
721.303	31084.66
721.646	31136.41
721.989	30926.93
722.331	31070.88
722.674	30889.19
723.016	30936.87
723.359	30824.78
723.701	30796.76
724.044	30693.71
724.386	30490.1
724.729	30638.35
725.071	30585.92
725.413	30472.25
725.755	30486.94
726.097	30387.73
726.439	30261.86
726.782	30301.18
727.124	30460.05
727.465	30295.31
727.807	30148.64
728.149	30210.11
728.491	29911.81
728.833	30198.36
729.175	29966.73
729.516	29997.01
729.858	29882.21
730.199	29851.25
730.541	29880.63
730.882	29836.11
731.224	29829.78
731.565	29564.25
731.906	29660.29
732.248	29729.44
732.589	29502.56
732.93	29424.82
733.271	29406.97
733.612	29408.55
733.953	29460.98
734.294	29285.39
734.635	29260.53
734.976	29485.61
735.317	29243.13
735.658	29119.97
735.999	29235.45
736.339	29164.71
736.68	29129.69
737.021	29065.96
737.361	28992.29
737.702	29041.1
738.042	28965.17
738.383	28893.08
738.723	29005.4
739.063	28855.12
739.404	28901.67
739.744	28846.53
740.084	28725.18
740.424	28787.77
740.764	28559.31
741.104	28675.69
741.444	28597.5
741.784	28475.92
742.124	28513.66
742.464	28449.03
742.804	28428.24
743.143	28396.82
743.483	28454.45
743.823	28148.47
744.162	28170.16
744.502	28184.4
744.841	28126.77
745.181	28178.52
745.52	28052.43
745.86	28209.03
746.199	27987.8
746.538	28068.47
746.877	28058.75
747.216	28011.07
747.556	27873.67
747.895	27912.32
748.234	27766.56
748.573	27656.73
748.911	27632.1
749.25	27738.08
749.589	27552.78
749.928	27678.88
750.267	27530.18
750.605	27539.67
750.944	27464.87
751.283	27292.22
751.621	27402.73
751.96	27325.89
752.298	27369.05
752.636	27140.59
752.975	27062.62
753.313	27075.73
753.651	27170.19
753.989	26963.87
754.327	27026.24
754.666	26828.73
755.004	26916.64
755.342	26815.85
755.679	26773.36
756.017	26695.17
756.355	26829.41
756.693	26541.51
757.031	26620.6
757.368	26446.37
757.706	26386.93
758.044	26300.61
758.381	26365.92
758.719	26337.9
759.056	26250.89
759.394	26248.41
759.731	25964.8
760.068	25983.78
760.405	25872.82
760.743	25825.59
761.08	25907.62
761.417	25712.83
761.754	25640.06
762.091	25646.84
762.428	25514.41
762.765	25430.8
763.102	25304.7
763.438	25276.91
763.775	25224.48
764.112	25223.57
764.449	25260.64
764.785	25058.38
765.122	24869.69
765.458	24887.76
765.795	24857.93
766.131	24817.03
766.467	24707.88
766.804	24665.4
767.14	24425.18
767.476	24499.53
767.812	24284.84
768.148	24381.56
768.485	24278.74
768.821	24041.68
769.157	24046.43
769.492	23945.42
769.828	24023.61
770.164	23802.14
770.5	23789.49
770.836	23748.58
771.171	23650.96
771.507	23461.13
771.842	23376.39
772.178	23407.8
772.513	23317.18
772.849	23249.39
773.184	23036.74
773.519	23185.44
773.855	22937.98
774.19	22914.48
774.525	22782.96
774.86	22717.43
775.195	22683.08
775.53	22551.33
775.865	22582.51
776.2	22404.67
776.535	22254.39
776.87	22309.53
777.205	22153.82
777.539	22045.58
777.874	22096.42
778.209	21835.87
778.543	21799.71
778.878	21703.44
779.212	21638.81
779.547	21530.56
779.881	21612.14
780.215	21410.79
780.55	21463.67
780.884	21379.83
781.218	21341.64
781.552	21384.8
781.886	21180.06
782.22	20980.97
782.554	20986.85
782.888	20777.36
783.222	20763.8
783.556	20644.26
783.889	20590.02
784.223	20373.53
784.557	20423.25
784.89	20428.22
785.224	20239.07
785.557	20163.14
785.891	20205.4
786.224	20064.16
786.558	20131.28
786.891	19925.86
787.224	19801.8
787.557	19910.49
787.891	19777.39
788.224	19760.67
788.557	19690.61
788.89	19573.33
789.223	19565.42
789.556	19331.3
789.888	19409.26
790.221	19330.85
790.554	19244.75
790.887	19231.87
791.219	19070.29
791.552	19038.65
791.884	18949.84
792.217	18906.9
792.549	18798.66
792.882	18706.01
793.214	18645.67
793.546	18661.49
793.879	18571.32
794.211	18458.78
794.543	18556.86
794.875	18435.28
795.207	18457.42
795.539	18313.02
795.871	18252.23
796.203	18146.02
796.535	18172.91
796.867	18024.67
797.198	17936.08
797.53	17930.21
797.862	17827.84
798.193	17891.56
798.525	17819.25
798.856	17680.72
799.188	17575.87
799.519	17443.21
799.85	17339.04
800.182	17532.7
800.513	17470.11
800.844	17323.89
801.175	17367.51
801.506	17333.39
801.837	17243.44
802.168	17225.59
802.499	17226.04
802.83	17108.76
803.161	16989.21
803.491	16955.32
803.822	16934.98
804.153	16814.53
804.483	16741.31
804.814	16672.84
805.145	16651.82
805.475	16583.12
805.805	16624.7
806.136	16563.24
806.466	16556.01
806.796	16487.08
807.126	16362.34
807.457	16325.05
807.787	16255.45
808.117	16217.94
808.447	16197.6
808.777	16221.1
809.107	16069.01
809.436	16019.3
809.766	16026.75
810.096	15989.47
810.426	15877.83
810.755	15967.77
811.085	15840.54
811.414	15821.11
811.744	15720.32
812.073	15716.03
812.403	15721.45
812.732	15592.19
813.061	15631.74
813.39	15602.13
813.719	15466.99
814.049	15610.04
814.378	15490.27
814.707	15388.35
815.036	15456.83
815.365	15334.79
815.693	15153.78
816.022	15240.11
816.351	15147.68
816.68	15083.05
817.008	15167.79
817.337	15036.72
817.665	14968.93
817.994	14952.88
818.322	15063.16
818.651	14896.39
818.979	14907.24
819.307	14953.79
819.636	14796.5
819.964	14802.83
820.292	14789.72
820.62	14748.37
820.948	14701.82
821.276	14743.4
821.604	14732.78
821.932	14784.53
822.259	14791.76
822.587	14749.27
822.915	14692.33
823.243	14747.24
823.57	14577.98
823.898	14733.68
824.225	14667.47
824.553	14610.75
824.88	14606.68
825.207	14666.79
825.535	14554.25
825.862	14604.87
826.189	14582.05
826.516	14663.4
826.843	14700.01
827.17	14613.68
827.497	14682.38
827.824	14621.59
828.151	14613.01
828.478	14581.82
828.805	14700.69
829.131	14586.11
829.458	14578.88
829.785	14574.14
830.111	14533.23
830.438	14641.48
830.764	14656.17
831.09	14610.75
831.417	14553.8
831.743	14631.54
832.069	14569.84
832.395	14404.65
832.722	14580.24
833.048	14498.88
833.374	14511.77
833.7	14377.53
834.026	14424.08
834.351	14435.16
834.677	14468.15
835.003	14500.01
835.329	14467.02
835.654	14395.16
835.98	14426.57
836.306	14392.45
836.631	14298.89
836.956	14374.14
837.282	14299.12
837.607	14316.97
837.932	14279.46
838.258	14155.16
838.583	14222.73
838.908	14090.08
839.233	14198.55
839.558	14120.14
839.883	14062.51
840.208	14052.34
840.533	13996.75
840.858	14001.95
841.182	14041.27
841.507	13912.91
841.832	13890.76
842.156	13905
842.481	13879.92
842.805	13881.73
843.13	13889.86
843.454	13815.06
843.778	13761.28
844.103	13796.53
844.427	13663.88
844.751	13702.52
845.075	13619.13
845.399	13570.32
845.723	13529.64
846.047	13538.91
846.371	13492.36
846.695	13441.28
847.019	13356.77
847.343	13310.44
847.666	13262.31
847.99	13187.73
848.313	13114.74
848.637	13094.4
848.96	13024.12
849.284	13015.76
849.607	12893.5
849.931	12873.62
850.254	12759.5
850.577	12811.92
850.9	12631.14
851.223	12643.79
851.546	12612.61
851.869	12505.72
852.192	12594.53
852.515	12459.16
852.838	12336.46
853.161	12405.61
853.483	12311.15
853.806	12239.73
854.129	12237.25
854.451	12209.9
854.774	12125.61
855.096	12069.57
855.419	12027.08
855.741	11985.28
856.063	11972.4
856.385	11951.15
856.708	11893.08
857.03	11844.04
857.352	11855.79
857.674	11790.03
857.996	11768.33
858.318	11737.83
858.64	11682.24
858.961	11641.33
859.283	11591.39
859.605	11511.62
859.926	11616.47
860.248	11463.94
860.57	11505.29
860.891	11479.75
861.212	11462.81
861.534	11366.76
861.855	11333.54
862.176	11344.16
862.498	11317.73
862.819	11354.33
863.14	11342.36
863.461	11334.67
863.782	11213.55
864.103	11330.61
864.424	11207.22
864.745	11231.63
865.065	11175.81
865.386	11154.34
865.707	11165.41
866.027	11134.9
866.348	11073.89
866.668	11089.03
866.989	11057.62
867.309	11018.75
867.63	10968.58
867.95	10995.93
868.27	10919.09
868.59	10986.89
868.91	10969.71
869.23	10854.46
869.55	10859.88
869.87	10916.15
870.19	10824.4
870.51	10894.69
870.83	10816.04
871.15	10765.2
871.469	10748.02
871.789	10894.91
872.109	10739.66
872.428	10700.57
872.748	10769.04
873.067	10725.65
873.386	10777.4
873.706	10681.58
874.025	10579.89
874.344	10593.45
874.663	10624.41
874.982	10562.94
875.301	10590.06
875.62	10552.55
875.939	10524.75
876.258	10601.13
876.577	10515.26
876.896	10545.32
877.214	10477.52
877.533	10444.3
877.852	10463.06
878.17	10414.92
878.489	10470.29
878.807	10393.91
879.125	10354.13
879.444	10353.46
879.762	10307.13
880.08	10316.85
880.398	10339.45
880.716	10321.14
881.034	10290.86
881.352	10299.67
881.67	10223.52
881.988	10305.77
882.306	10156.63
882.624	10176.74
882.941	10142.61
883.259	10090.64
883.577	10046.8
883.894	10067.14
884.212	9981.71
884.529	10044.76
884.846	9994.14
885.164	9903.98
885.481	9965.44
885.798	9927.71
886.115	9857.42
886.432	9911.21
886.75	9862.62
887.067	9783.75
887.383	9854.49
887.7	9803.41
888.017	9742.63
888.334	9748.73
888.651	9747.37
888.967	9670.99
889.284	9635.51
889.6	9584.89
889.917	9562.06
890.233	9597.32
890.55	9498.11
890.866	9519.13
891.182	9530.88
891.498	9462.86
891.815	9433.03
892.131	9383.09
892.447	9417.21
892.763	9336.08
893.079	9306.7
893.395	9234.84
893.71	9261.51
894.026	9204.56
894.342	9152.81
894.657	9139.03
894.973	9108.29
895.289	9097.44
895.604	9209.98
895.92	9055.19
896.235	9037.11
896.55	9053.83
896.865	8977.22
897.181	8975.19
897.496	8938.8
897.811	8861.07
898.126	8827.62
898.441	8788.75
898.756	8796.21
899.071	8724.12
899.386	8734.97
899.7	8749.66
900.015	8657.23
900.33	8591.47
900.644	8581.75
900.959	8628.76
901.273	8539.49
901.588	8506.27
901.902	8401.42
902.216	8425.15
902.531	8473.28
902.845	8407.52
903.159	8349.67
903.473	8303.12
903.787	8267.86
904.101	8195.77
904.415	8322.1
904.729	8263.12
905.042	8173.85
905.356	8132.95
905.67	8165.27
905.984	8107.19
906.297	8086.4
906.611	8019.51
906.924	8005.04
907.237	8017.47
907.551	7968.66
907.864	7914.65
908.177	7934.09
908.491	7873.97
908.804	7820.64
909.117	7859.06
909.43	7779.06
909.743	7709.23
910.056	7710.81
910.368	7637.37
910.681	7639.86
910.994	7568.22
911.307	7607.77
911.619	7497.26
911.932	7523.93
912.244	7496.36
912.557	7464.27
912.869	7400.54
913.181	7363.7
913.494	7311.95
913.806	7319.41
914.118	7268.57
914.43	7259.53
914.742	7276.93
915.054	7198.51
915.366	7216.59
915.678	7167.1
915.99	7103.82
916.302	7084.84
916.613	6995.13
916.925	7013.43
917.236	7009.59
917.548	6944.96
917.859	6940.89
918.171	6925.98
918.482	6892.53
918.794	6871.97
919.105	6835.13
919.416	6727.79
919.727	6750.39
920.038	6766.88
920.349	6733.21
920.66	6644.4
920.971	6661.12
921.282	6633.78
921.593	6593.1
921.903	6531.18
922.214	6543.39
922.525	6497.29
922.835	6459.1
923.146	6433.33
923.456	6394.46
923.767	6422.26
924.077	6403.05
924.387	6334.58
924.697	6340.68
925.008	6325.09
925.318	6263.62
925.628	6230.4
925.938	6238.76
926.248	6159.89
926.558	6124.87
926.867	6139.33
927.177	6102.27
927.487	6020.24
927.796	6065.66
928.106	6054.81
928.416	5991.76
928.725	5992.67
929.034	5932.78
929.344	5960.35
929.653	5902.73
929.962	5903.18
930.271	5867.47
930.581	5840.35
930.89	5825.21
931.199	5728.27
931.508	5820.92
931.817	5759.91
932.125	5749.28
932.434	5690.53
932.743	5682.39
933.051	5652.79
933.36	5570.53
933.669	5571.66
933.977	5561.49
934.286	5545.22
934.594	5551.32
934.902	5483.98
935.21	5503.41
935.519	5414.6
935.827	5446.01
936.135	5394.72
936.443	5410.76
936.751	5352.23
937.059	5307.49
937.367	5306.81
937.674	5341.84
937.982	5314.04
938.29	5249.86
938.597	5230.65
938.905	5208.06
939.213	5123.09
939.52	5117.66
939.827	5158.79
940.135	5118.11
940.442	5111.11
940.749	5113.37
941.056	5027.49
941.363	5010.77
941.67	4977.55
941.977	4971.68
942.284	4932.36
942.591	4940.27
942.898	4918.35
943.205	4893.94
943.511	4937.78
943.818	4841.29
944.125	4851.23
944.431	4826.82
944.738	4800.38
945.044	4759.93
945.35	4739.14
945.657	4715.41
945.963	4697.33
946.269	4685.36
946.575	4722.42
946.881	4649.2
947.187	4626.38
947.493	4605.13
947.799	4611.01
948.105	4526.27
948.41	4578.92
948.716	4569.88
949.022	4503.44
949.327	4504.34
949.633	4434.97
949.938	4467.51
950.244	4470
950.549	4414.86
950.854	4388.19
951.16	4334.41
951.465	4360.62
951.77	4336.89
952.075	4321.98
952.38	4300.28
952.685	4270.68
952.99	4257.8
953.294	4219.61
953.599	4266.16
953.904	4193.84
954.209	4162.66
954.513	4211.47
954.818	4169.44
955.122	4144.81
955.426	4086.05
955.731	4127.86
956.035	4074.75
956.339	4053.74
956.643	4075.88
956.948	4028.2
957.252	4022.55
957.556	3996.34
957.86	3975.77
958.163	3995.21
958.467	3966.05
958.771	3910.01
959.075	3903.68
959.378	3916.34
959.682	3920.18
959.985	3878.37
960.289	3831.14
960.592	3797.02
960.896	3796.79
961.199	3799.05
961.502	3780.97
961.805	3777.58
962.108	3737.81
962.411	3755.21
962.714	3720.86
963.017	3747.75
963.32	3691.48
963.623	3666.63
963.926	3649
964.228	3648.1
964.531	3592.5
964.833	3614.42
965.136	3597.93
965.438	3593.63
965.741	3521.77
966.043	3501.66
966.345	3521.77
966.648	3498.95
966.95	3493.3
967.252	3455.33
967.554	3472.96
967.856	3445.62
968.158	3425.05
968.46	3459.85
968.761	3398.39
969.063	3413.98
969.365	3392.06
969.666	3387.76
969.968	3282.91
970.269	3339.86
970.571	3332.85
970.872	3301.44
971.174	3246.3
971.475	3240.2
971.776	3275.68
972.077	3242.01
972.378	3229.12
972.679	3225.96
972.98	3188
973.281	3170.59
973.582	3163.82
973.883	3192.06
974.183	3094.66
974.484	3116.36
974.785	3108.9
975.085	3141.44
975.386	3135.34
975.686	3066.19
975.986	3067.32
976.287	3055.34
976.587	2997.27
976.887	3020.99
977.187	3044.5
977.487	3014.89
977.787	2980.09
978.087	2948
978.387	2952.52
978.687	2942.35
978.987	2912.52
979.286	2904.61
979.586	2871.85
979.885	2871.85
980.185	2898.06
980.484	2839.53
980.784	2877.04
981.083	2876.14
981.382	2860.77
981.682	2827.55
981.981	2824.16
982.28	2826.2
982.579	2763.15
982.878	2795.69
983.177	2786.88
983.475	2733.54
983.774	2725.18
984.073	2698.52
984.372	2682.92
984.67	2702.81
984.969	2691.74
985.267	2673.43
985.566	2695.13
985.864	2639.76
986.162	2647.9
986.461	2637.5
986.759	2612.42
987.057	2554.57
987.355	2612.42
987.653	2572.64
987.951	2553.44
988.249	2553.66
988.547	2549.82
988.844	2521.57
989.142	2518.41
989.44	2511.4
989.737	2538.97
990.035	2508.01
990.332	2449.48
990.63	2467.34
990.927	2464.85
991.224	2398.19
991.521	2442.7
991.819	2404.74
992.116	2429.6
992.413	2390.28
992.71	2387.79
993.006	2392.76
993.303	2381.01
993.6	2372.88
993.897	2325.42
994.193	2343.72
994.49	2296.49
994.787	2295.82
995.083	2282.93
995.379	2273.44
995.676	2270.96
995.972	2285.42
996.268	2254.01
996.565	2239.32
996.861	2246.1
997.157	2254.91
997.453	2206.55
997.749	2207.46
998.044	2182.6
998.34	2195.48
998.636	2179.89
998.932	2137.63
999.227	2135.59
999.523	2127.01
999.818	2108.48
1000.114	2093.79
1000.409	2096.5
1000.704	2090.4
1001	2062.15
1001.295	2059.66
1001.59	2057.86
1001.885	2030.96
1002.18	1993
1002.475	2010.4
1002.77	2006.11
1003.065	1993.45
1003.359	1959.55
1003.654	2020.57
1003.949	1932.21
1004.243	1946.67
1004.538	1937.41
1004.832	1924.53
1005.127	1909.84
1005.421	1902.38
1005.715	1890.18
1006.009	1901.25
1006.304	1894.24
1006.598	1858.54
1006.892	1848.6
1007.186	1862.83
1007.48	1865.54
1007.773	1838.65
1008.067	1832.55
1008.361	1813.57
1008.655	1816.51
1008.948	1811.76
1009.242	1754.36
1009.535	1766.11
1009.829	1779.9
1010.122	1757.07
1010.415	1719.33
1010.708	1739.22
1011.001	1719.56
1011.295	1734.47
1011.588	1734.25
1011.881	1675.04
1012.173	1700.12
1012.466	1673.91
1012.759	1669.84
1013.052	1663.97
1013.344	1642.5
1013.637	1649.28
1013.93	1624.42
1014.222	1621.03
1014.514	1625.55
1014.807	1601.6
1015.099	1601.14
1015.391	1566.79
1015.683	1564.54
1015.976	1569.73
1016.268	1545.78
1016.56	1536.97
1016.851	1557.98
1017.143	1525.67
1017.435	1505.78
1017.727	1510.98
1018.018	1495.38
1018.31	1458.1
1018.602	1475.05
1018.893	1489.28
1019.185	1442.28
1019.476	1443.41
1019.767	1431.43
1020.058	1412
1020.35	1420.58
1020.641	1411.54
1020.932	1428.27
1021.223	1414.26
1021.514	1375.61
1021.804	1342.17
1022.095	1382.39
1022.386	1357.31
1022.677	1337.87
1022.967	1334.03
1023.258	1328.16
1023.548	1309.4
1023.839	1336.29
1024.129	1316.86
1024.419	1334.03
1024.709	1287.25
1025	1293.13
1025.29	1294.49
1025.58	1262.62
1025.87	1306.91
1026.16	1256.75
1026.449	1253.13
1026.739	1236.18
1027.029	1222.85
1027.319	1206.13
1027.608	1238.67
1027.898	1210.42
1028.187	1217.2
1028.477	1198.22
1028.766	1204.54
1029.055	1181.49
1029.344	1168.61
1029.634	1140.82
1029.923	1140.59
1030.212	1152.79
1030.501	1137.43
1030.79	1105.11
1031.078	1081.61
1031.367	1106.92
1031.656	1114.15
1031.945	1117.32
1032.233	1075.28
1032.522	1110.54
1032.81	1070.99
1033.099	1084.32
1033.387	1096.75
1033.675	1051.1
1033.963	1072.57
1034.251	1042.74
1034.54	1032.8
1034.828	1047.26
1035.116	1024.89
1035.403	997.32
1035.691	1009.3
1035.979	1010.88
1036.267	1037.77
1036.554	976.08
1036.842	978.11
1037.129	978.56
1037.417	961.39
1037.704	982.18
1037.992	967.04
1038.279	955.74
1038.566	947.15
1038.853	947.15
1039.14	947.15
