Data from hue_34_FLMS001491_00093.txt Node
Date: Tue Feb 07 17:26:28 GMT 2017
User: dcchb
Spectrometer: FLMS00149
Trigger mode: 0
Integration Time (sec): 2.000000E-2
Scans to average: 10
Electric dark correction enabled: true
Nonlinearity correction enabled: false
Boxcar width: 0
XAxis mode: Wavelengths
Number of Pixels in Spectrum: 2048
>>>>>Begin Spectral Data<<<<<
341.393	-3.52
341.776	-3.52
342.16	-3.52
342.543	-70.63
342.927	-75.61
343.31	-40.58
343.693	-61.82
344.077	-75.61
344.46	-40.13
344.843	-54.59
345.226	-49.39
345.61	-43.06
345.993	-18.88
346.376	-20.69
346.759	14.34
347.142	18.86
347.525	46.88
347.908	56.82
348.291	64.96
348.674	92.75
349.057	110.15
349.44	121.9
349.823	124.62
350.206	161.22
350.588	212.52
350.971	222.47
351.354	230.15
351.737	220.21
352.119	234.67
352.502	260.66
352.884	302.69
353.267	270.6
353.65	305.4
354.032	277.61
354.414	321.22
354.797	313.31
355.179	326.19
355.562	325.06
355.944	347.66
356.326	336.59
356.709	346.53
357.091	338.62
357.473	332.97
357.855	336.14
358.238	351.28
358.62	322.58
359.002	355.8
359.384	357.15
359.766	328.23
360.148	336.14
360.53	352.86
360.912	340.43
361.294	325.51
361.676	351.73
362.057	311.73
362.439	318.28
362.821	337.94
363.203	329.58
363.584	344.04
363.966	352.63
364.348	324.38
364.729	329.81
365.111	317.38
365.493	306.31
365.874	325.74
366.256	311.28
366.637	324.38
367.019	330.71
367.4	314.21
367.781	326.64
368.163	287.55
368.544	300.2
368.925	299.3
369.306	340.2
369.688	324.16
370.069	334.1
370.45	317.38
370.831	317.15
371.212	313.76
371.593	344.5
371.974	316.25
372.355	327.32
372.736	324.16
373.117	321.9
373.498	323.03
373.879	321.22
374.26	310.37
374.641	312.86
375.021	313.99
375.402	310.83
375.783	325.97
376.163	331.62
376.544	325.97
376.925	348.34
377.305	319.64
377.686	310.6
378.066	329.81
378.447	329.36
378.827	342.24
379.208	332.75
379.588	338.4
379.968	316.25
380.349	310.83
380.729	336.59
381.109	325.29
381.489	344.04
381.87	321.9
382.25	327.77
382.63	335.46
383.01	331.39
383.39	351.5
383.77	331.16
384.15	334.33
384.53	365.06
384.91	329.13
385.29	341.33
385.67	352.18
386.049	350.15
386.429	354.67
386.809	348.56
387.189	350.6
387.568	354.89
387.948	340.2
388.328	355.34
388.707	352.63
389.087	358.73
389.466	342.01
389.846	360.32
390.225	382.91
390.605	368.45
390.984	352.41
391.363	364.16
391.743	360.32
392.122	376.59
392.501	362.12
392.881	382.24
393.26	374.78
393.639	374.33
394.018	375.68
394.397	351.73
394.776	395.57
395.155	375
395.534	380.43
395.913	376.13
396.292	380.2
396.671	381.11
397.05	381.33
397.429	387.21
397.808	387.43
398.186	408.45
398.565	382.46
398.944	396.47
399.323	382.01
399.701	399.18
400.08	398.51
400.458	383.37
400.837	391.05
401.215	396.02
401.594	401.22
401.972	389.02
402.351	396.47
402.729	402.57
403.107	403.93
403.486	410.48
403.864	418.17
404.242	405.29
404.62	402.35
404.999	424.49
405.377	406.87
405.755	427.21
406.133	413.87
406.511	414.78
406.889	412.74
407.267	426.53
407.645	429.92
408.023	433.31
408.401	424.49
408.779	436.47
409.156	432.86
409.534	411.84
409.912	437.15
410.29	438.05
410.667	448.22
411.045	461.33
411.422	452.74
411.8	455.91
412.178	464.72
412.555	467.66
412.933	447.77
413.31	442.8
413.687	480.99
414.065	497.49
414.442	479.18
414.819	467.88
415.197	492.97
415.574	475.79
415.951	479.63
416.328	486.41
416.705	493.65
417.082	471.5
417.46	497.03
417.837	483.48
418.214	499.07
418.591	521.67
418.967	485.51
419.344	513.53
419.721	478.28
420.098	481.22
420.475	501.33
420.852	500.65
421.228	498.39
421.605	499.52
421.982	495.45
422.358	514.66
422.735	510.37
423.111	527.77
423.488	537.26
423.864	534.77
424.241	550.37
424.617	532.06
424.994	543.81
425.37	565.73
425.746	556.47
426.123	542.01
426.499	547.2
426.875	556.92
427.251	563.7
427.627	571.16
428.003	582.91
428.379	586.3
428.756	595.11
429.132	579.07
429.507	598.73
429.883	599.18
430.259	606.64
430.635	596.02
431.011	600.99
431.387	591.27
431.763	605.05
432.138	615.9
432.514	640.31
432.89	633.3
433.265	620.87
433.641	615.9
434.016	631.27
434.392	639.86
434.767	663.81
435.143	673.3
435.518	660.65
435.894	662
436.269	659.52
436.644	673.75
437.02	706.29
437.395	694.32
437.77	689.8
438.145	677.37
438.52	713.07
438.895	706.75
439.271	713.07
439.646	724.37
440.021	709.01
440.395	723.47
440.77	745.84
441.145	726.86
441.52	732.96
441.895	732.96
442.27	745.84
442.645	739.29
443.019	739.74
443.394	745.62
443.769	770.47
444.143	740.19
444.518	750.81
444.892	779.97
445.267	779.51
445.641	749.23
446.016	777.48
446.39	783.13
446.764	805.95
447.139	793.75
447.513	792.17
447.887	803.47
448.262	796.69
448.636	798.04
449.01	821.77
449.384	825.39
449.758	815.22
450.132	803.69
450.506	844.14
450.88	857.7
451.254	824.71
451.628	856.57
452.002	871.26
452.376	863.13
452.75	882.79
453.123	876.23
453.497	877.14
453.871	879.17
454.244	898.15
454.618	892.5
454.992	917.59
455.365	918.72
455.739	943.58
456.112	935.22
456.486	937.48
456.859	961.66
457.232	965.5
457.606	958.27
457.979	975.67
458.352	996.46
458.725	1012.5
459.099	1030.81
459.472	1029.22
459.845	1023.8
460.218	1055.21
460.591	1043.91
460.964	1044.82
461.337	1052.05
461.71	1107.19
462.083	1111.71
462.456	1101.99
462.829	1100.86
463.201	1121.2
463.574	1122.33
463.947	1149.67
464.32	1199.84
464.692	1189.22
465.065	1176.34
465.438	1214.3
465.81	1195.77
466.183	1229.67
466.555	1252.95
466.928	1268.99
467.3	1297.47
467.672	1288.2
468.045	1328.65
468.417	1343.57
468.789	1347.86
469.161	1359.16
469.534	1388.31
469.906	1412.27
470.278	1424.47
470.65	1442.77
471.022	1445.71
471.394	1501.75
471.766	1518.03
472.138	1556.44
472.51	1599.83
472.882	1597.12
473.253	1619.72
473.625	1668.08
473.997	1689.55
474.369	1679.83
474.74	1751.92
475.112	1779.26
475.484	1822.2
475.855	1866.04
476.227	1895.87
476.598	1933.38
476.97	1985.81
477.341	2014.06
477.713	2069.87
478.084	2073.26
478.455	2130.66
478.827	2181.74
479.198	2271.45
479.569	2293.6
479.94	2372.92
480.311	2439.58
480.682	2477.1
481.053	2519.58
481.424	2569.75
481.795	2650.65
482.166	2748.05
482.537	2793.47
482.908	2829.85
483.279	2927.03
483.65	2966.12
484.021	3082.05
484.391	3129.73
484.762	3206.12
485.133	3254.93
485.503	3303.51
485.874	3436.17
486.244	3510.97
486.615	3578.08
486.985	3633.45
487.356	3762.26
487.726	3788.02
488.097	3899.43
488.467	3949.6
488.837	4082.03
489.207	4186.66
489.578	4253.32
489.948	4350.49
490.318	4381.9
490.688	4519.53
491.058	4617.38
491.428	4728.34
491.798	4734.66
492.168	4930.82
492.538	4971.27
492.908	5023.47
493.278	5123.58
493.648	5241.99
494.017	5272.05
494.387	5325.61
494.757	5473.85
495.126	5537.13
495.496	5600.63
495.866	5698.03
496.235	5757.24
496.605	5838.14
496.974	5863
497.344	5941.64
497.713	6050.79
498.082	6126.72
498.452	6236.09
498.821	6329.2
499.19	6320.38
499.559	6394.96
499.928	6519.02
500.298	6564.9
500.667	6621.85
501.036	6716.98
501.405	6788.17
501.774	6826.36
502.143	6881.05
502.512	6937.09
502.88	6985
503.249	7099.57
503.618	7114.04
503.987	7187.93
504.356	7251.66
504.724	7316.52
505.093	7347.93
505.462	7432.9
505.83	7486
506.199	7565.55
506.567	7606.68
506.936	7691.87
507.304	7764.41
507.672	7747.69
508.041	7875.37
508.409	7974.35
508.777	7968.02
509.145	8077.4
509.514	8035.82
509.882	8160.79
510.25	8152.43
510.618	8201.92
510.986	8233.78
511.354	8336.6
511.722	8435.13
512.09	8426.32
512.458	8466.32
512.826	8522.13
513.193	8570.04
513.561	8598.52
513.929	8758.06
514.297	8771.85
514.664	8831.51
515.032	8857.27
515.4	8929.81
515.767	8888.68
516.135	9008.9
516.502	9004.16
516.869	9197.15
517.237	9217.71
517.604	9249.8
517.972	9315.56
518.339	9267.43
518.706	9349.91
519.073	9385.16
519.44	9368.89
519.808	9544.48
520.175	9516.01
520.542	9589.68
520.909	9672.61
521.276	9618.6
521.643	9753.06
522.009	9725.72
522.376	9823.57
522.743	9890.01
523.11	9913.51
523.477	10026.5
523.843	10123.67
524.21	10236.67
524.577	10223.11
524.943	10253.39
525.31	10365.25
525.676	10399.37
526.043	10560.5
526.409	10575.41
526.776	10653.83
527.142	10623.32
527.508	10800.72
527.874	10776.76
528.241	10826.03
528.607	10845.46
528.973	11013.14
529.339	10909.87
529.705	11105.34
530.071	11141.5
530.437	11168.62
530.803	11264.21
531.169	11364.32
531.535	11311.21
531.901	11348.28
532.267	11419.23
532.632	11482.96
532.998	11605.9
533.364	11638.66
533.73	11639.34
534.095	11781.03
534.461	11802.95
534.826	11838.66
535.192	11830.07
535.557	11991.65
535.923	11955.72
536.288	12037.3
536.653	12095.83
537.019	11996.85
537.384	12126.79
537.749	12122.49
538.114	12173.11
538.479	12186.45
538.845	12317.06
539.21	12365.2
539.575	12453.56
539.94	12417.17
540.305	12546.66
540.67	12527
541.034	12569.03
541.399	12642.03
541.764	12694.68
542.129	12750.5
542.494	12841.8
542.858	12770.16
543.223	12934
543.587	13009.47
543.952	13011.06
544.316	13050.15
544.681	13000.89
545.045	13169.7
545.41	13205.85
545.774	13262.8
546.138	13210.82
546.503	13331.95
546.867	13282.46
547.231	13445.4
547.595	13519.97
547.959	13461.44
548.324	13587.54
548.688	13476.81
549.052	13576.92
549.416	13609.01
549.779	13680.87
550.143	13810.81
550.507	13844.93
550.871	13875.21
551.235	13900.07
551.599	14013.97
551.962	13992.27
552.326	14001.76
552.689	14085.38
553.053	14054.19
553.417	14043.12
553.78	14253.74
554.143	14278.37
554.507	14289.67
554.87	14467.06
555.234	14523.78
555.597	14417.57
555.96	14474.52
556.323	14566.04
556.686	14595.87
557.05	14670.9
557.413	14721.97
557.776	14759.03
558.139	14765.81
558.502	14767.39
558.865	14908.86
559.228	14939.82
559.59	15048.97
559.953	15018.24
560.316	15135.75
560.679	15157.89
561.041	15360.37
561.404	15281.05
561.767	15453.25
562.129	15389.3
562.492	15575.28
562.854	15546.13
563.217	15484.66
563.579	15603.53
563.941	15631.78
564.304	15786.35
564.666	15793.58
565.028	15893.47
565.39	15896.86
565.753	15928.04
566.115	16068.6
566.477	16105.89
566.839	16149.73
567.201	16131.88
567.563	16262.5
567.925	16365.09
568.287	16336.84
568.648	16525.99
569.01	16457.75
569.372	16615.71
569.734	16655.48
570.095	16786.32
570.457	16814.8
570.819	16838.98
571.18	16830.16
571.542	16956.49
571.903	16979.54
572.265	17074.9
572.626	17165.3
572.987	17176.37
573.349	17300.89
573.71	17406.65
574.071	17504.72
574.432	17619.52
574.794	17687.77
575.155	17715.57
575.516	17810.25
575.877	17882.57
576.238	18021.77
576.599	18193.74
576.96	18155.33
577.32	18361.88
577.681	18496.79
578.042	18571.14
578.403	18759.38
578.763	18827.85
579.124	19034.85
579.485	19255.19
579.845	19451.56
580.206	19462.64
580.566	19558.68
580.927	19745.12
581.287	19838.9
581.648	20054.03
582.008	20302.84
582.368	20397.98
582.728	20625.32
583.089	20738.54
583.449	20925.42
583.809	21075.48
584.169	21380.78
584.529	21554.79
584.889	21977.37
585.249	21983.7
585.609	22056.02
585.969	22434.09
586.329	22548.21
586.688	22851.93
587.048	23102.99
587.408	23202.88
587.768	23454.62
588.127	23618.01
588.487	23866.59
588.846	24237.2
589.206	24351.55
589.565	24653.69
589.925	24972.32
590.284	25143.17
590.643	25388.13
591.003	25633.55
591.362	26010.04
591.721	26179.52
592.08	26408.22
592.44	26716.68
592.799	26897.47
593.158	27266.5
593.517	27346.5
593.876	27794.17
594.235	27878.01
594.593	28062.41
594.952	28443.87
595.311	28663.3
595.67	29011.31
596.029	29267.58
596.387	29592.99
596.746	29841.12
597.104	29912.31
597.463	30157.95
597.822	30696.24
598.18	30627.99
598.538	30814.88
598.897	31251.93
599.255	31147.98
599.613	31901.41
599.972	31837.23
600.33	32095.53
600.688	32230.66
601.046	32626.36
601.404	32933.02
601.762	32943.64
602.12	33316.51
602.478	33471.99
602.836	33572.55
603.194	33703.17
603.552	33871.75
603.91	34020
604.268	34397.61
604.625	34545.41
604.983	34775.68
605.341	34890.71
605.698	35154.2
606.056	35332.96
606.413	35435.55
606.771	35706.28
607.128	35921.87
607.485	35833.96
607.843	36078.02
608.2	36395.53
608.557	36626.93
608.914	36710.32
609.272	37001.39
609.629	37150.76
609.986	37262.62
610.343	37332.45
610.7	37563.4
611.057	37659.67
611.414	37732.89
611.771	38057.63
612.127	38206.1
612.484	38395.02
612.841	38501.01
613.198	38498.75
613.554	38834.11
613.911	38853.54
614.267	38936.93
614.624	39114.1
614.98	39272.06
615.337	39514.54
615.693	39407.42
616.05	39681.09
616.406	39715.21
616.762	39830.24
617.118	39828.66
617.475	39910.24
617.831	40069.33
618.187	40324.46
618.543	40468.87
618.899	40611.01
619.255	40743.66
619.611	40647.62
619.967	40928.06
620.323	41018.91
620.678	40938.01
621.034	40968.97
621.39	40949.08
621.746	40907.72
622.101	41560.59
622.457	41304.78
622.812	41426.13
623.168	41503.87
623.523	41587.48
623.879	41793.12
624.234	41518.78
624.589	41763.07
624.945	41767.14
625.3	41879.68
625.655	41896.17
626.01	41960.35
626.365	41978.43
626.72	42102.04
627.075	42110.18
627.43	42144.53
627.785	42003.97
628.14	42176.39
628.495	42263.39
628.85	42154.47
629.205	42170.29
629.559	42295.26
629.914	42171.42
630.269	42191.76
630.623	42227.46
630.978	42170.29
631.332	42264.75
631.687	42412.32
632.041	42323.28
632.396	42287.8
632.75	42136.39
633.104	42340.23
633.459	42226.33
633.813	42135.49
634.167	42145.43
634.521	42310.4
634.875	42317.63
635.229	42248.93
635.583	42261.81
635.937	42174.81
636.291	42236.5
636.645	42161.48
636.999	42055.94
637.352	42242.15
637.706	42041.93
638.06	42462.26
638.413	42161.48
638.767	42133.23
639.121	42172.1
639.474	41907.92
639.828	42031.99
640.181	42003.74
640.534	41960.13
640.888	42006.68
641.241	41789.06
641.594	41871.77
641.947	41986.11
642.301	41890.75
642.654	41897.98
643.007	41847.36
643.36	41867.92
643.713	41736.18
644.066	41914.93
644.419	41692.34
644.771	41580.25
645.124	41198.56
645.477	41114.5
645.83	40933.49
646.182	40711.34
646.535	40589.09
646.888	40695.3
647.24	40472.03
647.593	40804.68
647.945	40597.9
648.298	40411.24
648.65	40328.76
649.002	40344.12
649.355	40538.69
649.707	40533.72
650.059	40621.63
650.411	41122.86
650.763	40958.34
651.115	41419.12
651.467	41285.57
651.819	41382.51
652.171	41291.22
652.523	41325.34
652.875	41049.64
653.227	41118.57
653.578	41274.72
653.93	41210.09
654.282	41046.7
654.633	41087.61
654.985	41138
655.337	41246.25
655.688	41127.15
656.039	41317.88
656.391	40902.3
656.742	40973.48
657.094	41051
657.445	41227.94
657.796	41167.15
658.147	41014.61
658.498	41041.73
658.849	40988.85
659.2	40985.91
659.551	40817.56
659.902	41117.44
660.253	40947.95
660.604	41015.52
660.955	40779.82
661.306	41031.11
661.656	40827.27
662.007	40961.06
662.358	40825.01
662.708	40947.72
663.059	40887.16
663.409	40604.68
663.76	40952.02
664.11	40766.71
664.461	40898.23
664.811	40789.53
665.161	40818.01
665.511	40707.28
665.862	40760.16
666.212	40863.43
666.562	40821.62
666.912	40850.55
667.262	40633.38
667.612	40627.73
667.962	40688.52
668.312	40614.4
668.662	40980.49
669.011	40625.7
669.361	40635.41
669.711	40603.1
670.06	40589.54
670.41	40475.42
670.76	40549.54
671.109	40780.04
671.459	40612.36
671.808	40481.29
672.157	40534.17
672.507	40396.32
672.856	40411.69
673.205	40528.3
673.554	40633.83
673.904	40401.75
674.253	40632.93
674.602	40554.29
674.951	40091.47
675.3	39757.02
675.649	40409.43
675.998	40401.97
676.346	40348.87
676.695	40541.18
677.044	40285.59
677.393	40316.1
677.741	40443.56
678.09	40291.24
678.438	40188.42
678.787	40225.93
679.135	40247.85
679.484	39921.99
679.832	40133.96
680.181	39815.32
680.529	39975.77
680.877	39989.33
681.225	39746.4
681.573	40025.04
681.922	39803.35
682.27	39849.67
682.618	39766.74
682.966	39603.35
683.314	39664.14
683.661	39605.16
684.009	39424.6
684.357	39329.23
684.705	39308.44
685.053	39376.69
685.4	39307.31
685.748	39049.02
686.095	39079.3
686.443	38916.59
686.79	38987.77
687.138	38967.21
687.485	39001.11
687.832	38788.91
688.18	38767.67
688.527	38605.41
688.874	38689.7
689.221	38556.15
689.568	38456.04
689.915	38283.84
690.262	38423.04
690.609	38169.94
690.956	38095.82
691.303	38043.84
691.65	37877.97
691.997	37965.88
692.344	37779.9
692.69	37706
693.037	37750.07
693.383	37539.22
693.73	37654.93
694.077	37426.91
694.423	37328.83
694.769	37259.46
695.116	37232.79
695.462	37118.9
695.808	37032.35
696.155	36975.85
696.501	36745.8
696.847	36852.24
697.193	36662.19
697.539	36703.99
697.885	36380.61
698.231	36416.09
698.577	36374.96
698.923	36273.27
699.269	36187.4
699.614	35933.62
699.96	35947.85
700.306	35973.39
700.651	35849.55
700.997	35741.53
701.342	35501.31
701.688	35343.58
702.033	35510.58
702.379	35257.7
702.724	35251.15
703.069	35405.72
703.415	34982.68
703.76	34948.78
704.105	34955.56
704.45	34852.97
704.795	34602.35
705.14	34577.72
705.485	34598.06
705.83	34441.68
706.175	34530.94
706.52	34236.03
706.865	34285.53
707.209	34214.79
707.554	34211.4
707.899	34128.02
708.243	34018.41
708.588	33954.01
708.932	33643.06
709.277	33785.43
709.621	33856.16
709.966	33547.92
710.31	33566.67
710.654	33298.43
710.998	33350.18
711.342	33353.12
711.687	33168.27
712.031	33133.01
712.375	32976.86
712.719	33095.5
713.063	32932.79
713.407	33126.46
713.75	32923.98
714.094	32864.55
714.438	32847.6
714.782	32589.98
715.125	32543.42
715.469	32627.94
715.812	32583.2
716.156	32270.89
716.499	32314.96
716.843	32388.4
717.186	32177.78
717.53	32392.02
717.873	32254.39
718.216	32138.69
718.559	32002.87
718.902	31956.32
719.246	31994.06
719.589	31869.09
719.932	31728.98
720.275	31831.8
720.617	31750.45
720.96	31652.83
721.303	31557.69
721.646	31544.81
721.989	31412.38
722.331	31552.94
722.674	31369.67
723.016	31428.2
723.359	31320.63
723.701	31285.83
724.044	31262.1
724.386	31033.63
724.729	31065.72
725.071	31058.72
725.413	31105.72
725.755	30992.28
726.097	30941.88
726.439	30730.59
726.782	30752.96
727.124	30811.72
727.465	30690.14
727.807	30622.8
728.149	30657.82
728.491	30555.23
728.833	30553.87
729.175	30433.42
729.516	30434.33
729.858	30399.3
730.199	30373.54
730.541	30191.17
730.882	30277.49
731.224	30333.76
731.565	30092.41
731.906	30078.63
732.248	30156.37
732.589	29978.75
732.93	29948.69
733.271	29930.61
733.612	29935.13
733.953	29846.77
734.294	29799.99
734.635	29874.79
734.976	29930.16
735.317	29703.95
735.658	29605.65
735.999	29535.14
736.339	29512.09
736.68	29620.56
737.021	29605.2
737.361	29374.92
737.702	29515.71
738.042	29447.69
738.383	29469.15
738.723	29442.71
739.063	29302.38
739.404	29332.89
739.744	29202.04
740.084	29077.3
740.424	29231.87
740.764	29063.74
741.104	29249.05
741.444	29018.09
741.784	28850.19
742.124	28995.04
742.464	28826.46
742.804	28937.19
743.143	28832.34
743.483	28906.68
743.823	28621.72
744.162	28574.49
744.502	28654.94
744.841	28513.25
745.181	28633.24
745.52	28394.83
745.86	28530.42
746.199	28461.72
746.538	28495.62
746.877	28446.81
747.216	28499.69
747.556	28245.91
747.895	28246.14
748.234	28141.05
748.573	28095.41
748.911	28080.49
749.25	28116.87
749.589	27824.23
749.928	28033.94
750.267	27975.86
750.605	27896.09
750.944	27871
751.283	27777.22
751.621	27774.28
751.96	27720.73
752.298	27738.35
752.636	27609.99
752.975	27470.11
753.313	27395.31
753.651	27484.57
753.989	27433.73
754.327	27257.01
754.666	27281.42
755.004	27215.2
755.342	27282.32
755.679	27072.83
756.017	27036
756.355	27034.87
756.693	26984.25
757.031	27007.52
757.368	26810.47
757.706	26761.2
758.044	26706.97
758.381	26786.29
758.719	26596.91
759.056	26540.87
759.394	26467.65
759.731	26316.47
760.068	26284.15
760.405	26240.76
760.743	26185.85
761.08	26225.4
761.417	26065.85
761.754	25978.4
762.091	25843.94
762.428	25797.39
762.765	25713.55
763.102	25824.05
763.438	25595.36
763.775	25517.62
764.112	25575.25
764.449	25475.81
764.785	25540.67
765.122	25315.59
765.458	25197.4
765.795	25084.64
766.131	25040.8
766.467	24969.84
766.804	24843.06
767.14	24734.82
767.476	24658.66
767.812	24697.08
768.148	24628.83
768.485	24550.19
768.821	24431.32
769.157	24354.94
769.492	24226.58
769.828	24261.83
770.164	23997.43
770.5	23911.56
770.836	23967.6
771.171	23740.04
771.507	23882.41
771.842	23520.38
772.178	23458.69
772.513	23611.68
772.849	23442.87
773.184	23385.02
773.519	23348.86
773.855	23172.37
774.19	23094.18
774.525	23010.34
774.86	22957.69
775.195	23010.79
775.53	22818.93
775.865	22801.08
776.2	22649.67
776.535	22344.14
776.87	22442.67
777.205	22344.14
777.539	22345.5
777.874	22202.23
778.209	22088.33
778.543	22126.07
778.878	21879.3
779.212	22005.85
779.547	21769.47
779.881	21842.01
780.215	21668.23
780.55	21726.31
780.884	21565.18
781.218	21511.4
781.552	21496.03
781.886	21269.82
782.22	21272.08
782.554	21195.93
782.888	21038.64
783.222	20936.5
783.556	20816.05
783.889	20759.33
784.223	20731.98
784.557	20602.72
784.89	20769.95
785.224	20473.01
785.557	20406.57
785.891	20404.99
786.224	20332.67
786.558	20172.22
786.891	20079.34
787.224	19988.73
787.557	20104.2
787.891	19855.85
788.224	19979.23
788.557	19833.48
788.89	19778.56
789.223	19768.62
789.556	19612.69
789.888	19683.42
790.221	19519.59
790.554	19334.28
790.887	19345.58
791.219	19231.91
791.552	19294.51
791.884	19128.86
792.217	19089.31
792.549	19038.47
792.882	18892.48
793.214	18810
793.546	18841.19
793.879	18705.6
794.211	18525.71
794.543	18694.07
794.875	18618.37
795.207	18587.18
795.539	18458.14
795.871	18506.05
796.203	18419.73
796.535	18188.77
796.867	18300.18
797.198	18201.65
797.53	18165.27
797.862	18092.96
798.193	18020.42
798.525	17879.85
798.856	17910.36
799.188	17758.28
799.519	17699.52
799.85	17664.27
800.182	17674.44
800.513	17707.43
800.844	17497.94
801.175	17603.7
801.506	17525.74
801.837	17362.81
802.168	17340.89
802.499	17339.08
802.83	17231.51
803.161	17122.36
803.491	17167.11
803.822	17101.8
804.153	16980.9
804.483	16899.99
804.814	16940.44
805.145	16867.9
805.475	16777.28
805.805	16703.84
806.136	16764.18
806.466	16643.05
806.796	16616.84
807.126	16559.21
807.457	16526.22
807.787	16479.67
808.117	16411.64
808.447	16363.51
808.777	16434.24
809.107	16312.21
809.436	16207.58
809.766	16322.16
810.096	16096.4
810.426	16089.17
810.755	16103.63
811.085	16029.28
811.414	15966.46
811.744	15916.29
812.073	15927.14
812.403	15905.9
812.732	15759.68
813.061	15842.85
813.39	15615.06
813.719	15730.08
814.049	15627.26
814.378	15635.39
814.707	15609.18
815.036	15497.09
815.365	15474.49
815.693	15331.45
816.022	15391.33
816.351	15406.93
816.68	15237.89
817.008	15293.03
817.337	15180.72
817.665	15092.81
817.994	15128.74
818.322	15077.67
818.651	15019.36
818.979	15027.5
819.307	15113.6
819.636	15075.63
819.964	14875.64
820.292	14994.05
820.62	14869.76
820.948	14904.57
821.276	14903.89
821.604	14859.6
821.932	14949.31
822.259	14860.05
822.587	14796.77
822.915	14794.74
823.243	14864.57
823.57	14848.07
823.898	14846.94
824.225	14761.29
824.553	14812.82
824.88	14800.84
825.207	14825.92
825.535	14785.47
825.862	14827.28
826.189	14736.66
826.516	14768.98
826.843	14791.12
827.17	14829.77
827.497	14867.05
827.824	14768.98
828.151	14788.18
828.478	14734.63
828.805	14877
829.131	14719.49
829.458	14762.87
829.785	14669.32
830.111	14744.34
830.438	14816.66
830.764	14742.31
831.09	14722.88
831.417	14639.71
831.743	14756.55
832.069	14701.41
832.395	14662.09
832.722	14679.03
833.048	14722.88
833.374	14702.99
833.7	14597.68
834.026	14639.94
834.351	14550.9
834.677	14597.91
835.003	14641.3
835.329	14623.67
835.654	14609.21
835.98	14547.74
836.306	14470.45
836.631	14391.13
836.956	14418.25
837.282	14478.14
837.607	14442.88
837.932	14330.57
838.258	14392.94
838.583	14373.96
838.908	14281.31
839.233	14255.54
839.558	14288.08
839.883	14140.74
840.208	14163.79
840.533	14197.24
840.858	14119.73
841.182	14241.08
841.507	14119.5
841.832	14101.42
842.156	13990.92
842.481	13998.15
842.805	14003.57
843.13	14006.28
843.454	13966.06
843.778	13841.54
844.103	13851.03
844.427	13818.72
844.751	13841.99
845.075	13754.54
845.399	13693.75
845.723	13640.87
846.047	13619.4
846.371	13584.15
846.695	13534.88
847.019	13406.07
847.343	13445.85
847.666	13380.76
847.99	13317.71
848.313	13240.2
848.637	13209.47
848.96	13165.4
849.284	13110.26
849.607	13019.42
849.931	13026.2
850.254	12983.49
850.577	12865.98
850.9	12754.11
851.223	12876.6
851.546	12738.07
851.869	12611.07
852.192	12623.04
852.515	12618.07
852.838	12585.76
853.161	12480
853.483	12511.41
853.806	12416.04
854.129	12366.55
854.451	12234.58
854.774	12264.86
855.096	12270.96
855.419	12139.21
855.741	12136.95
856.063	12042.04
856.385	12074.81
856.708	12003.85
857.03	11976.51
857.352	11907.58
857.674	11923.85
857.996	11960.69
858.318	11810.41
858.64	11839.11
858.961	11778.32
859.283	11695.38
859.605	11682.05
859.926	11728.38
860.248	11702.84
860.57	11612.22
860.891	11683.41
861.212	11562.05
861.534	11494.49
861.855	11528.38
862.176	11515.28
862.498	11440.02
862.819	11495.62
863.14	11381.49
863.461	11405
863.782	11372
864.103	11368.16
864.424	11337.43
864.745	11315.28
865.065	11217.66
865.386	11264.21
865.707	11274.38
866.027	11245
866.348	11215.62
866.668	11147.83
866.989	11204.78
867.309	11094.04
867.63	11139.24
867.95	11103.08
868.27	11031.22
868.59	11093.14
868.91	11072.58
869.23	10928.63
869.55	10915.07
869.87	11019.02
870.19	11051.33
870.51	10991
870.83	11031.67
871.15	10911.45
871.469	10834.16
871.789	10967.04
872.109	10841.17
872.428	10759.36
872.748	10834.16
873.067	10814.28
873.386	10816.54
873.706	10766.6
874.025	10713.72
874.344	10688.86
874.663	10757.56
874.982	10734.51
875.301	10756.2
875.62	10654.06
875.939	10652.02
876.258	10664.9
876.577	10563.66
876.896	10599.59
877.214	10480.73
877.533	10558.69
877.852	10523.44
878.17	10535.42
878.489	10499.94
878.807	10513.04
879.125	10382.2
879.444	10425.59
879.762	10436.21
880.08	10374.06
880.398	10338.36
880.716	10360.05
881.034	10420.62
881.352	10315.31
881.67	10271.24
881.988	10279.38
882.306	10311.92
882.624	10262.65
882.941	10161.19
883.259	10096.33
883.577	10121.19
883.894	10120.74
884.212	10185.59
884.529	10090.46
884.846	10033.73
885.164	10024.92
885.481	10058.82
885.798	10018.59
886.115	10004.13
886.432	10021.08
886.75	9857.69
887.067	9950.8
887.383	9904.25
887.7	9890.01
888.017	9869.9
888.334	9758.71
888.651	9855.66
888.967	9809.11
889.284	9732.27
889.6	9819.28
889.917	9605.27
890.233	9624.48
890.55	9581.54
890.866	9589.45
891.182	9591.26
891.498	9516.91
891.815	9532.5
892.131	9381.55
892.447	9449.57
892.763	9450.7
893.079	9436.91
893.395	9372.06
893.71	9268.33
894.026	9356.91
894.342	9355.33
894.657	9281.66
894.973	9317.59
895.289	9219.07
895.604	9226.3
895.92	9097.71
896.235	9152.4
896.55	9146.53
896.865	9149.01
897.181	9029.01
897.496	9012.07
897.811	8989.92
898.126	8972.97
898.441	8928
898.756	8863.37
899.071	8821.79
899.386	8898.17
899.7	8799.64
900.015	8732.07
900.33	8715.35
900.644	8675.58
900.959	8669.48
901.273	8650.04
901.588	8633.54
901.902	8533.43
902.216	8521.91
902.531	8524.17
902.845	8502.47
903.159	8432.42
903.473	8361.91
903.787	8396.26
904.101	8342.25
904.415	8313.1
904.729	8299.32
905.042	8267.68
905.356	8238.75
905.67	8190.84
905.984	8187.91
906.297	8137.51
906.611	8100
906.924	8065.42
907.237	8059.1
907.551	8057.29
907.864	7984.07
908.177	8035.59
908.491	7985.65
908.804	7924.64
909.117	7822.27
909.43	7858.65
909.743	7735.94
910.056	7764.64
910.368	7733
910.681	7663.4
910.994	7641.93
911.307	7652.55
911.619	7563.74
911.932	7557.64
912.244	7517.19
912.557	7515.61
912.869	7432.67
913.181	7447.36
913.494	7398.1
913.806	7411.66
914.118	7370.3
914.43	7331.88
914.742	7363.3
915.054	7256.63
915.366	7266.35
915.678	7221.6
915.99	7152.23
916.302	7034.26
916.613	7135.28
916.925	7064.77
917.236	7047.37
917.548	7034.94
917.859	6969.86
918.171	6938.9
918.482	6998.33
918.794	6859.58
919.105	6899.8
919.416	6856.42
919.727	6837.43
920.038	6845.12
920.349	6725.12
920.66	6763.76
920.971	6714.5
921.282	6663.88
921.593	6672.24
921.903	6594.73
922.214	6596.76
922.525	6570.77
922.835	6519.93
923.146	6515.18
923.456	6533.94
923.767	6466.82
924.077	6444
924.387	6388.86
924.697	6420.95
925.008	6323.32
925.318	6342.3
925.628	6306.15
925.938	6289.65
926.248	6231.12
926.558	6189.54
926.867	6190.44
927.177	6168.52
927.487	6127.62
927.796	6088.3
928.106	6086.27
928.416	6050.11
928.725	6054.85
929.034	6032.03
929.344	6027.51
929.653	5965.59
929.962	5926.72
930.271	5951.13
930.581	5867.97
930.89	5830.91
931.199	5805.82
931.508	5818.7
931.817	5764.69
932.125	5794.07
932.434	5800.85
932.743	5705.26
933.051	5661.64
933.36	5691.47
933.669	5639.27
933.977	5630.23
934.286	5615.09
934.594	5573.51
934.902	5492.16
935.21	5513.63
935.519	5541.87
935.827	5511.59
936.135	5409
936.443	5369
936.751	5403.12
937.059	5318.6
937.367	5315.44
937.674	5316.34
937.982	5284.03
938.29	5317.25
938.597	5259.17
938.905	5206.52
939.213	5171.04
939.52	5160.64
939.827	5163.13
940.135	5150.47
940.442	5112.05
940.749	5083.81
941.056	5107.99
941.363	5030.48
941.67	5022.34
941.977	5018.72
942.284	4935.79
942.591	4981.44
942.898	4943.25
943.205	4958.16
943.511	4914.09
943.818	4911.38
944.125	4897.6
944.431	4863.47
944.738	4862.34
945.044	4779.86
945.35	4778.73
945.657	4768.34
945.963	4766.98
946.269	4751.84
946.575	4736.47
946.881	4705.51
947.187	4691.05
947.493	4654.89
947.799	4623.48
948.105	4657.15
948.41	4585.06
948.716	4637.72
949.022	4536.02
949.327	4536.02
949.633	4451.28
949.938	4457.83
950.244	4483.82
950.549	4418.97
950.854	4448.57
951.16	4401.57
951.465	4403.6
951.77	4347.56
952.075	4346.2
952.38	4364.05
952.685	4314.11
952.99	4273.88
953.294	4287.44
953.599	4262.36
953.904	4263.49
954.209	4191.63
954.513	4174
954.818	4201.34
955.122	4151.85
955.426	4137.84
955.731	4110.05
956.035	4089.93
956.339	4111.63
956.643	4042.7
956.948	4047
957.252	4023.04
957.556	4034.8
957.86	4023.27
958.163	3964.51
958.467	4029.37
958.771	3948.02
959.075	3955.25
959.378	3930.17
959.682	3978.07
959.985	3908.24
960.289	3860.79
960.592	3849.72
960.896	3830.28
961.199	3811.98
961.502	3825.99
961.805	3769.27
962.108	3733.11
962.411	3765.2
962.714	3736.72
963.017	3765.2
963.32	3748.02
963.623	3671.19
963.926	3693.79
964.228	3657.4
964.531	3682.71
964.833	3647.01
965.136	3601.13
965.438	3604.07
965.741	3593.22
966.043	3572.43
966.345	3576.95
966.648	3549.61
966.95	3500.57
967.252	3509.84
967.554	3475.26
967.856	3421.7
968.158	3428.26
968.46	3454.25
968.761	3414.25
969.063	3444.53
969.365	3418.09
969.666	3399.11
969.968	3361.59
970.269	3322.27
970.571	3333.57
970.872	3297.19
971.174	3340.58
971.475	3313.91
971.776	3279.56
972.077	3259.45
972.378	3248.15
972.679	3244.31
972.98	3225.55
973.281	3220.35
973.582	3209.28
973.883	3164.76
974.183	3193.24
974.484	3183.74
974.785	3139
975.085	3154.37
975.386	3144.42
975.686	3119.34
975.986	3098.1
976.287	3050.87
976.587	3050.87
976.887	3061.49
977.187	3032.11
977.487	3036.4
977.787	3022.84
978.087	2969.51
978.387	2990.53
978.687	2989.4
978.987	2964.09
979.286	2950.3
979.586	2887.93
979.885	2874.15
980.185	2884.09
980.484	2891.77
980.784	2874.37
981.083	2857.42
981.382	2857.65
981.682	2852.68
981.981	2802.96
982.28	2800.03
982.579	2811.32
982.878	2824.66
983.177	2767.94
983.475	2758.67
983.774	2731.78
984.073	2763.64
984.372	2736.3
984.67	2724.1
984.969	2705.11
985.267	2701.72
985.566	2690.42
985.864	2675.51
986.162	2660.37
986.461	2652.01
986.759	2620.59
987.057	2616.53
987.355	2574.49
987.653	2597.77
987.951	2591.22
988.249	2572.91
988.547	2542.4
988.844	2560.03
989.142	2531.56
989.44	2522.74
989.737	2525.46
990.035	2532.46
990.332	2494.5
990.63	2481.39
990.927	2513.93
991.224	2450.88
991.521	2424.89
991.819	2432.13
992.116	2452.01
992.413	2396.42
992.71	2429.41
993.006	2393.03
993.303	2396.42
993.6	2385.35
993.897	2371.56
994.193	2367.04
994.49	2342.41
994.787	2357.55
995.083	2326.82
995.379	2318.46
995.676	2279.36
995.972	2306.03
996.268	2259.02
996.565	2231.68
996.861	2260.83
997.157	2229.64
997.453	2243.43
997.749	2218.8
998.044	2213.6
998.34	2166.14
998.636	2184.45
998.932	2142.64
999.227	2148.97
999.523	2148.29
999.818	2133.15
1000.114	2121.17
1000.409	2108.97
1000.704	2108.74
1001	2095.64
1001.295	2073.94
1001.59	2071.23
1001.885	2057.22
1002.18	2059.03
1002.475	2045.02
1002.77	2039.82
1003.065	2009.99
1003.359	2006.6
1003.654	1967.73
1003.949	1988.52
1004.243	1989.43
1004.538	1958.01
1004.832	1947.84
1005.127	1959.14
1005.421	1903.1
1005.715	1902.65
1006.009	1919.37
1006.304	1932.03
1006.598	1883.44
1006.892	1878.69
1007.186	1860.61
1007.48	1865.36
1007.773	1834.17
1008.067	1858.81
1008.361	1822.65
1008.655	1804.57
1008.948	1839.82
1009.242	1807.51
1009.535	1796.66
1009.829	1791.01
1010.122	1776.32
1010.415	1785.81
1010.708	1730.45
1011.001	1756.89
1011.295	1703.33
1011.588	1742.65
1011.881	1688.64
1012.173	1725.93
1012.466	1685.7
1012.759	1672.6
1013.052	1664.69
1013.344	1695.65
1013.637	1669.89
1013.93	1649.55
1014.222	1625.37
1014.514	1626.95
1014.807	1600.51
1015.099	1615.42
1015.391	1566.39
1015.683	1584.69
1015.976	1619.49
1016.268	1560.51
1016.56	1557.8
1016.851	1544.69
1017.143	1551.02
1017.435	1541.08
1017.727	1512.83
1018.018	1496.33
1018.31	1503.11
1018.602	1452.94
1018.893	1489.55
1019.185	1459.5
1019.476	1450.91
1019.767	1439.84
1020.058	1444.81
1020.35	1444.13
1020.641	1435.99
1020.932	1443.9
1021.223	1389.44
1021.514	1379.72
1021.804	1394.64
1022.095	1390.57
1022.386	1371.59
1022.677	1386.05
1022.967	1353.28
1023.258	1307.18
1023.548	1326.39
1023.839	1308.31
1024.129	1310.35
1024.419	1306.96
1024.709	1332.27
1025	1311.7
1025.29	1280.29
1025.58	1226.28
1025.87	1254.3
1026.16	1244.13
1026.449	1242.55
1026.739	1272.16
1027.029	1252.95
1027.319	1234.64
1027.608	1232.83
1027.898	1212.72
1028.187	1213.4
1028.477	1202.78
1028.766	1193.06
1029.055	1177.7
1029.344	1154.87
1029.634	1141.76
1029.923	1142.44
1030.212	1163.01
1030.501	1152.38
1030.79	1129.79
1031.078	1119.84
1031.367	1122.1
1031.656	1131.59
1031.945	1105.61
1032.233	1115.32
1032.522	1085.04
1032.81	1053.4
1033.099	1066.74
1033.387	1078.94
1033.675	1086.62
1033.963	1064.25
1034.251	1035.78
1034.54	1038.94
1034.828	1026.06
1035.116	1026.51
1035.403	1041.65
1035.691	1017.25
1035.979	1002.56
1036.267	1009.56
1036.554	996.91
1036.842	1001.65
1037.129	978.83
1037.417	998.04
1037.704	984.71
1037.992	977.02
1038.279	951.49
1038.566	939.51
1038.853	939.51
1039.14	939.51
