Data from hue_220_FLMS001491_00092.txt Node
Date: Tue Feb 07 16:40:11 GMT 2017
User: dcchb
Spectrometer: FLMS00149
Trigger mode: 0
Integration Time (sec): 2.000000E-2
Scans to average: 10
Electric dark correction enabled: true
Nonlinearity correction enabled: false
Boxcar width: 0
XAxis mode: Wavelengths
Number of Pixels in Spectrum: 2048
>>>>>Begin Spectral Data<<<<<
341.393	-19.94
341.776	-19.94
342.16	-19.94
342.543	-81.18
342.927	-79.38
343.31	-80.96
343.693	-90.45
344.077	-76.21
344.46	-57.46
344.843	-46.38
345.226	-63.11
345.61	-10.45
345.993	-20.17
346.376	-5.71
346.759	29.32
347.142	28.42
347.525	20.51
347.908	54.63
348.291	98.47
348.674	90.11
349.057	129.43
349.44	124.91
349.823	145.7
350.206	152.26
350.588	187.96
350.971	207.17
351.354	210.56
351.737	239.03
352.119	248.75
352.502	269.31
352.884	262.08
353.267	280.84
353.65	282.87
354.032	277.9
354.414	321.74
354.797	322.65
355.179	302.76
355.562	337.34
355.944	305.92
356.326	347.5
356.709	330.78
357.091	323.55
357.473	357.67
357.855	343.21
358.238	324
358.62	320.61
359.002	320.16
359.384	338.01
359.766	350.22
360.148	340.27
360.53	331.23
360.912	336.66
361.294	352.02
361.676	331.23
362.057	327.17
362.439	333.49
362.821	323.32
363.203	330.33
363.584	324.45
363.966	327.84
364.348	300.05
364.729	338.47
365.111	302.53
365.493	321.74
365.874	323.78
366.256	320.16
366.637	309.09
367.019	316.32
367.4	320.84
367.781	311.35
368.163	297.11
368.544	287.62
368.925	300.5
369.306	323.55
369.688	301.86
370.069	306.83
370.45	308.64
370.831	330.33
371.212	284.46
371.593	314.51
371.974	275.19
372.355	312.7
372.736	313.61
373.117	314.06
373.498	304.57
373.879	312.25
374.26	327.39
374.641	310.9
375.021	304.57
375.402	319.26
375.783	320.61
376.163	333.49
376.544	312.03
376.925	300.73
377.305	317.22
377.686	326.94
378.066	328.75
378.447	312.25
378.827	329.88
379.208	315.87
379.588	319.26
379.968	322.65
380.349	333.04
380.729	329.2
381.109	332.59
381.489	333.04
381.87	337.56
382.25	333.49
382.63	321.07
383.01	334.85
383.39	316.77
383.77	351.57
384.15	364.45
384.53	346.15
384.91	325.36
385.29	334.4
385.67	329.88
386.049	353.83
386.429	349.76
386.809	342.53
387.189	334.62
387.568	345.92
387.948	373.49
388.328	355.19
388.707	336.21
389.087	355.19
389.466	365.58
389.846	361.97
390.225	344.12
390.605	360.16
390.984	369.43
391.363	345.25
391.743	365.13
392.122	357.22
392.501	374.85
392.881	384.11
393.26	374.17
393.639	364
394.018	389.99
394.397	369.2
394.776	371.91
395.155	377.79
395.534	379.82
395.913	401.51
396.292	398.35
396.671	410.55
397.05	373.49
397.429	393.38
397.808	384.11
398.186	386.83
398.565	382.08
398.944	408.97
399.323	393.83
399.701	397.9
400.08	408.07
400.458	393.61
400.837	412.36
401.215	418.46
401.594	415.98
401.972	441.06
402.351	407.16
402.729	429.76
403.107	422.76
403.486	411.68
403.864	425.92
404.242	448.07
404.62	453.49
404.999	438.8
405.377	453.72
405.755	436.54
406.133	437.22
406.511	452.59
406.889	455.98
407.267	467.28
407.645	477.9
408.023	485.81
408.401	495.75
408.779	473.83
409.156	477.22
409.534	497.56
409.912	492.81
410.29	495.07
410.667	529.65
411.045	522.64
411.422	524.45
411.8	545.47
412.178	545.24
412.555	552.25
412.933	563.32
413.31	566.48
413.687	564.22
414.065	616.2
414.442	594.5
414.819	591.34
415.197	598.8
415.574	608.06
415.951	617.33
416.328	639.93
416.705	640.38
417.082	667.04
417.46	649.87
417.837	667.95
418.214	659.36
418.591	677.67
418.967	668.4
419.344	686.93
419.721	701.39
420.098	715.4
420.475	732.58
420.852	728.29
421.228	748.62
421.605	751.56
421.982	765.35
422.358	770.09
422.735	787.27
423.111	794.95
423.488	804.67
423.864	837.89
424.241	825.91
424.617	859.58
424.994	864.33
425.37	861.84
425.746	893.48
426.123	886.7
426.499	933.7
426.875	938.9
427.251	929.18
427.627	960.37
428.003	942.52
428.379	959.92
428.756	987.94
429.132	994.95
429.507	998.11
429.883	1006.47
430.259	1037.66
430.635	1024.32
431.011	1027.26
431.387	1098.9
431.763	1078.56
432.138	1115.39
432.514	1113.36
432.89	1121.04
433.265	1135.96
433.641	1167.14
434.016	1183.19
434.392	1226.8
434.767	1233.36
435.143	1239.46
435.518	1255.5
435.894	1268.16
436.269	1302.96
436.644	1354.48
437.02	1349.51
437.395	1341.83
437.77	1360.59
438.145	1437.19
438.52	1438.32
438.895	1443.97
439.271	1457.08
439.646	1518.32
440.021	1515.84
440.395	1549.73
440.77	1520.36
441.145	1530.3
441.52	1571.65
441.895	1584.53
442.27	1607.36
442.645	1598.55
443.019	1645.78
443.394	1628.15
443.769	1679.67
444.143	1664.08
444.518	1690.52
444.892	1693.46
445.267	1709.28
445.641	1720.12
446.016	1750.18
446.39	1779.78
446.764	1800.8
447.139	1761.48
447.513	1820.91
447.887	1826.34
448.262	1820.91
448.636	1824.08
449.01	1871.31
449.384	1875.6
449.758	1867.24
450.132	1893.23
450.506	1896.62
450.88	1916.05
451.254	1898.88
451.628	1930.29
452.002	1973.45
452.376	2003.28
452.75	2008.03
453.123	2032.21
453.497	2068.59
453.871	2031.75
454.244	2071.08
454.618	2140.45
454.992	2151.07
455.365	2121.02
455.739	2175.71
456.112	2199.89
456.486	2212.54
456.859	2230.85
457.232	2250.51
457.606	2242.14
457.979	2319.2
458.352	2316.49
458.725	2350.84
459.099	2376.83
459.472	2415.93
459.845	2429.48
460.218	2462.25
460.591	2472.65
460.964	2499.31
461.337	2527.79
461.71	2570.05
462.083	2599.88
462.456	2628.12
462.829	2634.9
463.201	2663.38
463.574	2672.64
463.947	2726.2
464.32	2755.58
464.692	2758.06
465.065	2774.56
465.438	2857.27
465.81	2851.17
466.183	2875.57
466.555	2971.16
466.928	2964.16
467.3	2967.32
467.672	3035.8
468.045	3057.04
468.417	3061.11
468.789	3087.09
469.161	3203.25
469.534	3164.61
469.906	3225.4
470.278	3280.54
470.65	3282.57
471.022	3351.95
471.394	3385.84
471.766	3388.1
472.138	3449.34
472.51	3517.59
472.882	3592.17
473.253	3586.29
473.625	3606.63
473.997	3699.28
474.369	3707.64
474.74	3724.59
475.112	3791.03
475.484	3877.36
475.855	3894.53
476.227	3968.88
476.598	3998.71
476.97	4027.63
477.341	4114.41
477.713	4198.25
478.084	4210.45
478.455	4294.52
478.827	4332.03
479.198	4467.17
479.569	4440.05
479.94	4527.06
480.311	4578.58
480.682	4667.62
481.053	4737.67
481.424	4814.73
481.795	4837.33
482.166	4873.94
482.537	4928.4
482.908	5020.83
483.279	5040.71
483.65	5183.76
484.021	5220.15
484.391	5308.05
484.762	5318.45
485.133	5375.85
485.503	5357.99
485.874	5544.88
486.244	5557.54
486.615	5628.95
486.985	5674.82
487.356	5768.38
487.726	5791.43
488.097	5893.8
488.467	5899.68
488.837	6044.3
489.207	6087.92
489.578	6136.05
489.948	6194.36
490.318	6268.03
490.688	6280.68
491.058	6359.1
491.428	6452.66
491.798	6439.55
492.168	6629.83
492.538	6624.63
492.908	6696.26
493.278	6735.81
493.648	6720.9
494.017	6813.32
494.387	6836.37
494.757	7001.12
495.126	6974
495.496	6939.65
495.866	7031.85
496.235	7072.98
496.605	7115.91
496.974	7187.33
497.344	7170.6
497.713	7235.91
498.082	7252.63
498.452	7283.14
498.821	7319.98
499.19	7297.6
499.559	7401.1
499.928	7440.43
500.298	7380.09
500.667	7465.28
501.036	7415.34
501.405	7513.19
501.774	7509.35
502.143	7573.53
502.512	7586.41
502.88	7624.6
503.249	7646.07
503.618	7646.07
503.987	7622.34
504.356	7722.68
504.724	7712.28
505.093	7754.77
505.462	7841.09
505.83	7777.59
506.199	7855.78
506.567	7903.01
506.936	7903.46
507.304	7970.13
507.672	7950.92
508.041	7990.47
508.409	8032.05
508.777	8032.27
509.145	8154.08
509.514	8036.12
509.882	8098.49
510.25	8097.81
510.618	8098.71
510.986	8159.28
511.354	8208.32
511.722	8162.44
512.09	8235.66
512.458	8249.44
512.826	8247.18
513.193	8255.09
513.561	8261.87
513.929	8266.62
514.297	8351.59
514.664	8340.97
515.032	8398.14
515.4	8360.85
515.767	8450.34
516.135	8366.96
516.502	8325.6
516.869	8437.69
517.237	8449.89
517.604	8371.7
517.972	8427.97
518.339	8407.18
518.706	8381.42
519.073	8396.33
519.44	8454.64
519.808	8515.88
520.175	8478.36
520.542	8478.82
520.909	8500.28
521.276	8488.31
521.643	8471.81
522.009	8519.95
522.376	8560.85
522.743	8561.07
523.11	8574.63
523.477	8631.35
523.843	8683.56
524.21	8715.19
524.577	8655.08
524.943	8757.23
525.31	8682.88
525.676	8710.67
526.043	8754.74
526.409	8730.34
526.776	8808.98
527.142	8791.12
527.508	8739.6
527.874	8835.19
528.241	8795.87
528.607	8771.46
528.973	8798.58
529.339	8796.1
529.705	8795.42
530.071	8850.11
530.437	8782.31
530.803	8807.62
531.169	8866.15
531.535	8730.11
531.901	8809.66
532.267	8735.53
532.632	8810.79
532.998	8825.47
533.364	8769.66
533.73	8778.92
534.095	8822.99
534.461	8824.12
534.826	8768.75
535.192	8806.72
535.557	8804.91
535.923	8750.9
536.288	8685.14
536.653	8706.83
537.019	8690.79
537.384	8679.72
537.749	8728.75
538.114	8653.28
538.479	8600.62
538.845	8633.84
539.21	8621.86
539.575	8576.67
539.94	8561.3
540.305	8585.03
540.67	8640.39
541.034	8652.82
541.399	8550.91
541.764	8565.37
542.129	8489.44
542.494	8538.7
542.858	8592.03
543.223	8561.98
543.587	8502.09
543.952	8452.38
544.316	8404.24
544.681	8403.79
545.045	8386.62
545.41	8400.63
545.774	8433.39
546.138	8356.79
546.503	8392.04
546.867	8309.33
547.231	8335.77
547.595	8341.42
547.959	8297.35
548.324	8242.66
548.688	8298.93
549.052	8151.82
549.416	8182.55
549.779	8210.35
550.143	8123.35
550.507	8190.91
550.871	8180.52
551.235	8160.41
551.599	8137.58
551.962	8124.48
552.326	8118.15
552.689	8104.36
553.053	7989.11
553.417	8053.52
553.78	8131.03
554.143	8038.15
554.507	8012.39
554.87	8074.53
555.234	8043.35
555.597	8010.13
555.96	7978.26
556.323	7928.77
556.686	7973.97
557.05	8018.72
557.413	8003.8
557.776	7997.93
558.139	8001.09
558.502	7970.13
558.865	8028.21
559.228	8018.72
559.59	8060.3
559.953	7981.65
560.316	8091.26
560.679	8042.44
561.041	8008.55
561.404	8021.88
561.767	8072.05
562.129	7980.52
562.492	8019.17
562.854	8038.15
563.217	8073.18
563.579	8017.36
563.941	8044.48
564.304	8085.83
564.666	8114.08
565.028	8129.22
565.39	8121.76
565.753	8096.91
566.115	8126.28
566.477	8134.64
566.839	8179.16
567.201	8137.13
567.563	8210.58
567.925	8195.43
568.287	8179.39
568.648	8216.9
569.01	8216.45
569.372	8322.21
569.734	8271.14
570.095	8226.62
570.457	8263.23
570.819	8310.69
571.18	8305.71
571.542	8316.11
571.903	8350.91
572.265	8312.95
572.626	8387.52
572.987	8390.46
573.349	8428.87
573.71	8343.23
574.071	8440.17
574.432	8460.06
574.794	8451.25
575.155	8491.92
575.516	8449.44
575.877	8478.82
576.238	8477.23
576.599	8511.81
576.96	8515.65
577.32	8589.1
577.681	8610.34
578.042	8645.37
578.403	8641.75
578.763	8606.95
579.124	8632.94
579.485	8670.9
579.845	8672.71
580.206	8667.29
580.566	8667.74
580.927	8730.34
581.287	8734.86
581.648	8725.14
582.008	8831.35
582.368	8741.41
582.728	8780.73
583.089	8766.04
583.449	8759.26
583.809	8785.7
584.169	8799.03
584.529	8800.16
584.889	8876.32
585.249	8896.21
585.609	8872.48
585.969	8867.96
586.329	8877.22
586.688	8853.72
587.048	8885.81
587.408	8931.46
587.768	8957.22
588.127	8926.26
588.487	8952.02
588.846	9055.3
589.206	8919.26
589.565	8977.79
589.925	9017.79
590.284	9018.69
590.643	9029.31
591.003	9015.98
591.362	9117.22
591.721	9017.56
592.08	8990.44
592.44	9081.51
592.799	9098.24
593.158	9088.52
593.517	9064.56
593.876	9134.84
594.235	9104.79
594.593	9139.36
594.952	9167.84
595.311	9093.49
595.67	9138.23
596.029	9232.92
596.387	9181.85
596.746	9267.04
597.104	9208.06
597.463	9195.18
597.822	9286.93
598.18	9233.15
598.538	9145.47
598.897	9273.37
599.255	9203.77
599.613	9295.52
599.972	9316.99
600.33	9286.48
600.688	9249.64
601.046	9223.66
601.404	9283.99
601.762	9285.58
602.12	9290.55
602.478	9278.57
602.836	9284.22
603.194	9283.32
603.552	9294.39
603.91	9287.83
604.268	9395.18
604.625	9301.85
604.983	9344.33
605.341	9312.47
605.698	9284.67
606.056	9374.84
606.413	9313.14
606.771	9299.13
607.128	9360.6
607.485	9291.45
607.843	9410.54
608.2	9415.29
608.557	9434.5
608.914	9363.99
609.272	9453.03
609.629	9467.04
609.986	9473.14
610.343	9422.52
610.7	9502.07
611.057	9456.87
611.414	9409.87
611.771	9507.04
612.127	9469.75
612.484	9450.32
612.841	9513.37
613.198	9486.7
613.554	9504.33
613.911	9544.33
614.267	9539.35
614.624	9531.9
614.98	9592.23
615.337	9596.98
615.693	9599.01
616.05	9578.45
616.406	9674.94
616.762	9554.95
617.118	9633.36
617.475	9586.58
617.831	9612.12
618.187	9606.24
618.543	9648.28
618.899	9682.85
619.255	9627.26
619.611	9667.94
619.967	9642.85
620.323	9665
620.678	9593.36
621.034	9651.89
621.39	9584.55
621.746	9666.36
622.101	9784.77
622.457	9667.03
622.812	9690.08
623.168	9703.42
623.523	9613.93
623.879	9678.11
624.234	9620.26
624.589	9725.56
624.945	9691.67
625.3	9721.95
625.655	9677.2
626.01	9727.15
626.365	9742.74
626.72	9675.4
627.075	9614.38
627.43	9588.17
627.785	9683.53
628.14	9644.21
628.495	9658.45
628.85	9687.82
629.205	9570.31
629.559	9610.76
629.914	9594.72
630.269	9623.42
630.623	9589.52
630.978	9574.83
631.332	9569.18
631.687	9664.1
632.041	9591.56
632.396	9523.31
632.75	9533.25
633.104	9589.3
633.459	9474.5
633.813	9464.78
634.167	9453.71
634.521	9474.5
634.875	9455.74
635.229	9481.28
635.583	9436.08
635.937	9498.9
636.291	9439.47
636.645	9421.39
636.999	9397.44
637.352	9452.12
637.706	9380.49
638.06	9440.83
638.413	9388.62
638.767	9334.39
639.121	9415.29
639.474	9308.63
639.828	9332.58
640.181	9324.67
640.534	9235.63
640.888	9289.64
641.241	9189.76
641.594	9235.63
641.947	9303.65
642.301	9270.66
642.654	9263.43
643.007	9301.39
643.36	9248.51
643.713	9259.14
644.066	9288.51
644.419	9223.43
644.771	9121.29
645.124	9057.33
645.477	9027.28
645.83	8990.89
646.182	8988.86
646.535	8969.2
646.888	8954.96
647.24	8881.97
647.593	8925.81
647.945	8952.25
648.298	8857.34
648.65	8883.33
649.002	8896.66
649.355	8939.37
649.707	8902.76
650.059	8984.11
650.411	9011.91
650.763	9091.23
651.115	9164.9
651.467	9113.6
651.819	9146.14
652.171	9083.32
652.523	9029.76
652.875	9109.99
653.227	9078.12
653.578	9179.59
653.93	9144.34
654.282	9051.23
654.633	9001.97
654.985	9053.94
655.337	9058.69
655.688	9018.46
656.039	9154.28
656.391	9007.16
656.742	9069.99
657.094	9046.71
657.445	9189.76
657.796	9146.6
658.147	9110.89
658.498	9069.99
658.849	9126.03
659.2	9138.69
659.551	9135.75
659.902	9036.77
660.253	9087.84
660.604	9067.73
660.955	9068.86
661.306	9162.41
661.656	9121.51
662.007	9121.29
662.358	9051.46
662.708	9142.3
663.059	9104.11
663.409	9093.26
663.76	9169.42
664.11	9165.35
664.461	9159.93
664.811	9141.85
665.161	9112.47
665.511	9142.98
665.862	9173.49
666.212	9149.99
666.562	9235.63
666.912	9158.8
667.262	9224.33
667.612	9142.98
667.962	9170.55
668.312	9169.65
668.662	9218.23
669.011	9152.25
669.361	9115.18
669.711	9128.29
670.06	9048.97
670.41	9087.61
670.76	9131
671.109	9075.64
671.459	9074.06
671.808	9077.44
672.157	9133.04
672.507	9036.54
672.856	9023.44
673.205	9076.99
673.554	9043.32
673.904	9084.45
674.253	9060.5
674.602	9054.85
674.951	8943.21
675.3	8903.21
675.649	8997.67
675.998	9000.84
676.346	9082.87
676.695	9099.59
677.044	8913.83
677.393	9041.51
677.741	9026.82
678.09	8937.56
678.438	9022.53
678.787	8977.33
679.135	9009.88
679.484	8883.55
679.832	8973.72
680.181	8837.68
680.529	8889.43
680.877	8924
681.225	8869.77
681.573	8881.52
681.922	8803.55
682.27	8796.32
682.618	8758.81
682.966	8706.16
683.314	8793.61
683.661	8720.39
684.009	8702.77
684.357	8689.21
684.705	8657.57
685.053	8629.55
685.4	8623.9
685.748	8582.09
686.095	8613.5
686.443	8538.7
686.79	8493.28
687.138	8554.07
687.485	8570.11
687.832	8547.52
688.18	8472.94
688.527	8451.25
688.874	8416.9
689.221	8457.8
689.568	8413.51
689.915	8404.02
690.262	8409.89
690.609	8265.71
690.956	8253.29
691.303	8259.16
691.65	8206.96
691.997	8227.98
692.344	8244.25
692.69	8205.83
693.037	8137.36
693.383	8166.06
693.73	8123.35
694.077	8101.65
694.423	8063.23
694.769	8043.35
695.116	7947.53
695.462	7901.2
695.808	7930.81
696.155	7992.05
696.501	7823.47
696.847	7880.64
697.193	7790.25
697.539	7890.13
697.885	7768.78
698.231	7769.68
698.577	7762.68
698.923	7699.85
699.269	7680.19
699.614	7666.63
699.96	7583.47
700.306	7602.23
700.651	7567.43
700.997	7535.11
701.342	7449.47
701.688	7482.68
702.033	7513.64
702.379	7462.35
702.724	7402.23
703.069	7395.23
703.415	7330.37
703.76	7340.99
704.105	7341.22
704.45	7312.29
704.795	7269.58
705.14	7238.85
705.485	7203.14
705.83	7216.25
706.175	7156.37
706.52	7121.34
706.865	7155.91
707.209	7079.31
707.554	7075.24
707.899	7103.26
708.243	7019.65
708.588	7007.67
708.932	7009.48
709.277	6968.12
709.621	6987.56
709.966	6979.87
710.31	6901.46
710.654	6882.02
710.998	6913.21
711.342	6896.26
711.687	6882.25
712.031	6844.51
712.375	6839.99
712.719	6795.02
713.063	6798.63
713.407	6859.88
713.75	6808.13
714.094	6816.94
714.438	6755.7
714.782	6779.2
715.125	6697.17
715.469	6675.7
715.812	6668.69
716.156	6649.49
716.499	6683.84
716.843	6668.24
717.186	6581.69
717.53	6640.9
717.873	6609.71
718.216	6581.69
718.559	6612.88
718.902	6552.31
719.246	6572.65
719.589	6624.85
719.932	6572.2
720.275	6560.67
720.617	6606.55
720.96	6515.48
721.303	6552.54
721.646	6588.92
721.989	6478.19
722.331	6558.87
722.674	6520
723.016	6580.56
723.359	6470.96
723.701	6486.78
724.044	6455.82
724.386	6488.36
724.729	6483.84
725.071	6413.33
725.413	6429.83
725.755	6425.54
726.097	6400.68
726.439	6398.87
726.782	6420.11
727.124	6433.9
727.465	6419.66
727.807	6432.99
728.149	6414.46
728.491	6393.22
728.833	6432.32
729.175	6333.79
729.516	6422.15
729.858	6383.96
730.199	6361.58
730.541	6343.05
730.882	6370.62
731.224	6395.48
731.565	6345.99
731.906	6374.24
732.248	6435.71
732.589	6363.17
732.93	6340.79
733.271	6347.35
733.612	6289.5
733.953	6396.39
734.294	6327.46
734.635	6356.16
734.976	6379.89
735.317	6382.37
735.658	6301.7
735.999	6386.89
736.339	6353.45
736.68	6399.1
737.021	6442.26
737.361	6378.53
737.702	6440.68
738.042	6410.17
738.383	6366.1
738.723	6410.62
739.063	6394.58
739.404	6472.09
739.744	6419.21
740.084	6411.98
740.424	6389.38
740.764	6472.77
741.104	6488.81
741.444	6434.12
741.784	6389.38
742.124	6462.37
742.464	6529.26
742.804	6489.94
743.143	6490.39
743.483	6582.14
743.823	6548.47
744.162	6546.44
744.502	6576.27
744.841	6611.07
745.181	6660.56
745.52	6619.88
745.86	6738.07
746.199	6712.31
746.538	6716.83
746.877	6872.76
747.216	6910.95
747.556	6922.02
747.895	6960.66
748.234	6978.52
748.573	6961.12
748.911	7075.01
749.25	7110.49
749.589	7096.03
749.928	7255.57
750.267	7317.94
750.605	7314.1
750.944	7395.91
751.283	7470.71
751.621	7538.28
751.96	7618.73
752.298	7726.97
752.636	7814.65
752.975	7844.03
753.313	7908.44
753.651	8083.12
753.989	8105.72
754.327	8195.43
754.666	8324.02
755.004	8450.34
755.342	8558.59
755.679	8646.72
756.017	8770.56
756.355	8913.61
756.693	9007.16
757.031	9139.82
757.368	9328.29
757.706	9426.59
758.044	9551.1
758.381	9759.91
758.719	9819.8
759.056	10046.23
759.394	10122.62
759.731	10268.6
760.068	10464.98
760.405	10477.18
760.743	10666.1
761.08	10891.86
761.417	11051.4
761.754	11189.25
762.091	11493.88
762.428	11537.04
762.765	11671.28
763.102	11919.18
763.438	11990.36
763.775	12114.2
764.112	12366.4
764.449	12492.72
764.785	12706.28
765.122	12771.13
765.458	12937
765.795	13076.66
766.131	13305.36
766.467	13376.54
766.804	13594.39
767.14	13675.97
767.476	13871.44
767.812	13900.37
768.148	14129.97
768.485	14277.31
768.821	14303.52
769.157	14462.61
769.492	14674.36
769.828	14755.49
770.164	14790.74
770.5	14958.65
770.836	15111.41
771.171	15228.02
771.507	15247.68
771.842	15318.64
772.178	15468.46
772.513	15578.06
772.849	15592.3
773.184	15719.08
773.519	15863.03
773.855	15865.06
774.19	15941.9
774.525	16047.43
774.86	16113.87
775.195	16310.48
775.53	16271.38
775.865	16239.06
776.2	16285.62
776.535	16336.24
776.87	16433.18
777.205	16493.52
777.539	16548.21
777.874	16587.53
778.209	16622.11
778.543	16637.47
778.878	16649.22
779.212	16735.55
779.547	16668.43
779.881	16874.98
780.215	16811.93
780.55	16811.03
780.884	16817.35
781.218	16890.12
781.552	16953.17
781.886	16936.9
782.22	16854.42
782.554	16899.61
782.888	16833.63
783.222	16828.88
783.556	16892.61
783.889	16900.06
784.223	16770.8
784.557	16789.11
784.89	16940.06
785.224	16840.4
785.557	16761.76
785.891	16827.3
786.224	16800.63
786.558	16867.75
786.891	16772.16
787.224	16706.17
787.557	16718.15
787.891	16827.3
788.224	16792.95
788.557	16763.8
788.89	16812.38
789.223	16824.59
789.556	16729.45
789.888	16707.07
790.221	16650.58
790.554	16574.65
790.887	16571.03
791.219	16616.91
791.552	16561.99
791.884	16543.24
792.217	16529
792.549	16485.39
792.882	16416.91
793.214	16362.23
793.546	16478.61
793.879	16418.72
794.211	16237.71
794.543	16390.92
794.875	16342.56
795.207	16330.36
795.539	16310.02
795.871	16232.29
796.203	16162.23
796.535	16069.58
796.867	16040.2
797.198	16073.19
797.53	16035.23
797.862	15941.45
798.193	16019.86
798.525	15894.44
798.856	15902.8
799.188	15775.12
799.519	15696.93
799.85	15705.97
800.182	15712.75
800.513	15719.76
800.844	15574.68
801.175	15735.57
801.506	15606.54
801.837	15587.33
802.168	15555.92
802.499	15509.14
802.83	15491.51
803.161	15433.21
803.491	15508.24
803.822	15451.74
804.153	15346.43
804.483	15325.19
804.814	15274.57
805.145	15301.01
805.475	15195.93
805.805	15153.22
806.136	15128.36
806.466	15260.79
806.796	15043.62
807.126	15061.92
807.457	14962.26
807.787	15083.61
808.117	14961.58
808.447	14963.84
808.777	14951.19
809.107	14883.62
809.436	14800.23
809.766	14766.79
810.096	14792.32
810.426	14816.96
810.755	14835.71
811.085	14757.97
811.414	14717.75
811.744	14635.94
812.073	14580.8
812.403	14567.02
812.732	14451.54
813.061	14430.98
813.39	14422.62
813.719	14438.21
814.049	14468.49
814.378	14381.03
814.707	14391.66
815.036	14288.16
815.365	14356.18
815.693	14175.62
816.022	14260.36
816.351	14171.1
816.68	14088.16
817.008	14150.08
817.337	14019.01
817.665	14001.84
817.994	14085.67
818.322	14088.61
818.651	14032.79
818.979	13944.89
819.307	14076.86
819.636	14018.78
819.964	13899.69
820.292	13969.52
820.62	14005.22
820.948	13863.31
821.276	13964.32
821.604	13856.75
821.932	13907.37
822.259	13912.8
822.587	13872.57
822.915	13916.41
823.243	13920.71
823.57	13885.45
823.898	13937.43
824.225	13824.21
824.553	13899.92
824.88	13831.9
825.207	13930.65
825.535	13827.38
825.862	13872.35
826.189	13944.66
826.516	13823.31
826.843	13941.27
827.17	14017.2
827.497	13931.55
827.824	13936.3
828.151	14033.25
828.478	13987.15
828.805	13999.8
829.131	13999.8
829.458	13855.4
829.785	13890.2
830.111	13858.11
830.438	13988.05
830.764	13936.53
831.09	14007.48
831.417	13930.65
831.743	13871.22
832.069	13893.59
832.395	13809.52
832.722	13847.94
833.048	13867.38
833.374	13911.44
833.7	13747.83
834.026	13811.78
834.351	13837.55
834.677	13893.59
835.003	13833.25
835.329	13755.29
835.654	13790.77
835.98	13722.29
836.306	13766.81
836.631	13722.75
836.956	13828.05
837.282	13755.29
837.607	13628.74
837.932	13619.25
838.258	13689.3
838.583	13685.01
838.908	13588.96
839.233	13562.52
839.558	13606.37
839.883	13508.06
840.208	13491.57
840.533	13490.89
840.858	13404.11
841.182	13535.41
841.507	13402.3
841.832	13357.56
842.156	13401.4
842.481	13383.09
842.805	13385.58
843.13	13351.68
843.454	13311.01
843.778	13204.34
844.103	13231.69
844.427	13078.7
844.751	13122.31
845.075	13133.16
845.399	13103.33
845.723	13026.27
846.047	13027.4
846.371	12939.94
846.695	13002.09
847.019	12791.92
847.343	12825.82
847.666	12679.61
847.99	12735.43
848.313	12692.94
848.637	12639.61
848.96	12641.87
849.284	12584.7
849.607	12404.36
849.931	12405.94
850.254	12341.77
850.577	12343.8
850.9	12174.54
851.223	12194.2
851.546	12168.66
851.869	12082.11
852.192	12099.06
852.515	12049.57
852.838	11996.69
853.161	11908.78
853.483	11900.87
853.806	11814.1
854.129	11856.35
854.451	11734.1
854.774	11709.24
855.096	11659.75
855.419	11628.56
855.741	11633.76
856.063	11593.31
856.385	11533.88
856.708	11490.04
857.03	11434.67
857.352	11429.93
857.674	11426.08
857.996	11288.23
858.318	11305.18
858.64	11359.42
858.961	11247.78
859.283	11258.18
859.605	11142.48
859.926	11227.22
860.248	11165.75
860.57	11166.66
860.891	11152.19
861.212	11077.62
861.534	11047.34
861.855	11058.64
862.176	10976.83
862.498	10985.64
862.819	10936.61
863.14	10939.77
863.461	10931.41
863.782	10912.65
864.103	10901.35
864.424	10935.25
864.745	10859.54
865.065	10750.85
865.386	10803.28
865.707	10761.47
866.027	10798.08
866.348	10749.49
866.668	10745.42
866.989	10717.63
867.309	10603.73
867.63	10629.95
867.95	10671.3
868.27	10575.03
868.59	10580
868.91	10622.94
869.23	10554.24
869.55	10554.02
869.87	10554.24
870.19	10516.73
870.51	10617.07
870.83	10498.2
871.15	10413.68
871.469	10447.35
871.789	10461.36
872.109	10440.35
872.428	10419.1
872.748	10471.08
873.067	10423.4
873.386	10399.22
873.706	10323.51
874.025	10307.02
874.344	10318.09
874.663	10305.89
874.982	10304.08
875.301	10323.51
875.62	10175.27
875.939	10247.81
876.258	10212.56
876.577	10173.91
876.896	10184.53
877.214	10099.56
877.533	10127.36
877.852	10119.45
878.17	10084.65
878.489	10126.91
878.807	10103.86
879.125	10121.26
879.444	10030.19
879.762	10036.06
880.08	10038.78
880.398	9994.26
880.716	9995.39
881.034	9954.26
881.352	9980.92
881.67	9849.18
881.988	9902.73
882.306	9880.81
882.624	9838.78
882.941	9792.91
883.259	9773.02
883.577	9817.54
883.894	9781.83
884.212	9715.85
884.529	9741.61
884.846	9720.37
885.164	9675.62
885.481	9642.18
885.798	9654.6
886.115	9653.93
886.432	9618.67
886.75	9551.78
887.067	9520.82
887.383	9561.5
887.7	9507.04
888.017	9503.87
888.334	9488.73
888.651	9462.97
888.967	9427.49
889.284	9363.09
889.6	9343.43
889.917	9296.87
890.233	9335.52
890.55	9252.13
890.866	9236.54
891.182	9165.13
891.498	9190.66
891.815	9110.66
892.131	9196.99
892.447	9086.71
892.763	9097.78
893.079	9043.32
893.395	9014.85
893.71	8978.46
894.026	8976.66
894.342	8966.26
894.657	8838.58
894.973	8837.9
895.289	8866.15
895.604	8868.18
895.92	8792.93
896.235	8735.08
896.55	8684.69
896.865	8684.46
897.181	8698.92
897.496	8670.45
897.811	8612.37
898.126	8566.5
898.441	8576.44
898.756	8529.66
899.071	8482.21
899.386	8467.07
899.7	8343.9
900.015	8376.67
900.33	8281.31
900.644	8303.45
900.959	8324.02
901.273	8245.83
901.588	8244.02
901.902	8191.37
902.216	8176.23
902.531	8178.94
902.845	8155.89
903.159	8083.35
903.473	8071.6
903.787	8034.08
904.101	7976.23
904.415	7968.77
904.729	7935.78
905.042	7937.81
905.356	7874.09
905.67	7854.2
905.984	7757.71
906.297	7823.92
906.611	7771.94
906.924	7801.09
907.237	7670.25
907.551	7679.52
907.864	7738.72
908.177	7584.15
908.491	7621.21
908.804	7577.82
909.117	7451.5
909.43	7413.53
909.743	7369.02
910.056	7406.53
910.368	7343.71
910.681	7369.47
910.994	7367.89
911.307	7261.9
911.619	7213.54
911.932	7258.06
912.244	7176.03
912.557	7202.24
912.869	7102.36
913.181	7104.84
913.494	7111.62
913.806	7079.53
914.118	6986.43
914.43	6985.75
914.742	6953.88
915.054	6878.63
915.366	6884.28
915.678	6917.73
915.99	6833.44
916.302	6830.72
916.613	6766.32
916.925	6797.73
917.236	6771.06
917.548	6749.14
917.859	6702.82
918.171	6665.53
918.482	6674.57
918.794	6553.44
919.105	6598.64
919.416	6530.85
919.727	6550.96
920.038	6531.98
920.349	6466.44
920.66	6476.38
920.971	6468.93
921.282	6395.48
921.593	6383.96
921.903	6355.71
922.214	6343.05
922.525	6301.7
922.835	6294.47
923.146	6253.11
923.456	6204.53
923.767	6197.29
924.077	6164.75
924.387	6158.43
924.697	6104.19
925.008	6046.56
925.318	6069.84
925.628	6060.12
925.938	6085.21
926.248	5996.62
926.558	5980.13
926.867	5972.89
927.177	5981.48
927.487	5862.39
927.796	5844.99
928.106	5833.01
928.416	5789.4
928.725	5787.14
929.034	5748.04
929.344	5812.22
929.653	5729.28
929.962	5693.35
930.271	5743.97
930.581	5680.25
930.89	5679.57
931.199	5583.53
931.508	5597.08
931.817	5602.28
932.125	5588.5
932.434	5559.35
932.743	5481.61
933.051	5470.08
933.36	5450.2
933.669	5399.35
933.977	5427.37
934.286	5380.37
934.594	5369.29
934.902	5315.74
935.21	5343.31
935.519	5340.82
935.827	5319.58
936.135	5273.7
936.443	5237.77
936.751	5201.16
937.059	5241.84
937.367	5183.31
937.674	5150.77
937.982	5165.91
938.29	5137.44
938.597	5131.56
938.905	5029.87
939.213	5074.84
939.52	5029.87
939.827	5002.3
940.135	5005.69
940.442	4930.44
940.749	4928.4
941.056	4972.69
941.363	4912.58
941.67	4887.05
941.977	4865.35
942.284	4817.44
942.591	4816.31
942.898	4816.99
943.205	4776.32
943.511	4782.64
943.818	4734.51
944.125	4758.01
944.431	4731.34
944.738	4667.39
945.044	4686.15
945.35	4596.66
945.657	4624
945.963	4589.88
946.269	4539.94
946.575	4586.04
946.881	4507.4
947.187	4494.29
947.493	4512.59
947.799	4465.81
948.105	4442.09
948.41	4464.23
948.716	4412.26
949.022	4408.64
949.327	4331.36
949.633	4382.65
949.938	4396.66
950.244	4304.24
950.549	4276.22
950.854	4285.71
951.16	4259.94
951.465	4250.45
951.77	4220.85
952.075	4220.85
952.38	4217.23
952.685	4158.48
952.99	4127.07
953.294	4130
953.599	4127.52
953.904	4133.62
954.209	4104.92
954.513	4069.89
954.818	4099.95
955.122	4057.69
955.426	4036.67
955.731	3987.64
956.035	4023.34
956.339	4009.56
956.643	3971.14
956.948	3951.93
957.252	3942.21
957.556	3887.07
957.86	3910.8
958.163	3896.34
958.467	3903.34
958.771	3850.01
959.075	3807.08
959.378	3794.65
959.682	3793.06
959.985	3793.29
960.289	3730.24
960.592	3773.63
960.896	3743.8
961.199	3737.47
961.502	3740.64
961.805	3694.54
962.108	3682.33
962.411	3667.87
962.714	3635.1
963.017	3637.36
963.32	3623.13
963.623	3598.94
963.926	3577.7
964.228	3507.65
964.531	3510.36
964.833	3559.85
965.136	3519.85
965.438	3484.37
965.741	3467.2
966.043	3446.86
966.345	3448.44
966.648	3435.11
966.95	3449.57
967.252	3389.23
967.554	3413.87
967.856	3383.81
968.158	3346.3
968.46	3349.46
968.761	3330.48
969.063	3321.44
969.365	3314.43
969.666	3274.21
969.968	3245.51
970.269	3246.86
970.571	3279.86
970.872	3238.95
971.174	3236.92
971.475	3217.26
971.776	3170.03
972.077	3192.4
972.378	3159.18
972.679	3137.71
972.98	3183.81
973.281	3120.77
973.582	3131.16
973.883	3107.21
974.183	3071.95
974.484	3105.17
974.785	3096.81
975.085	3108.79
975.386	3055.68
975.686	3035.8
975.986	3014.33
976.287	2989.02
976.587	2986.53
976.887	2959.64
977.187	2976.81
977.487	2935.69
977.787	2930.49
978.087	2896.36
978.387	2935.23
978.687	2895.01
978.987	2884.16
979.286	2872.41
979.586	2812.98
979.885	2857.72
980.185	2830.83
980.484	2813.65
980.784	2796.25
981.083	2829.47
981.382	2780.89
981.682	2758.52
981.981	2739.08
982.28	2740.66
982.579	2712.19
982.878	2730.49
983.177	2705.86
983.475	2710.83
983.774	2702.25
984.073	2633.77
984.372	2682.13
984.67	2625.86
984.969	2619.08
985.267	2646.88
985.566	2606.88
985.864	2610.95
986.162	2604.85
986.461	2608.91
986.759	2580.21
987.057	2543.38
987.355	2551.74
987.653	2546.77
987.951	2500.44
988.249	2518.97
988.547	2516.94
988.844	2490.73
989.142	2489.14
989.44	2458.64
989.737	2456.83
990.035	2442.82
990.332	2423.61
990.63	2417.28
990.927	2415.02
991.224	2415.25
991.521	2358.07
991.819	2377.73
992.116	2361.92
992.413	2359.66
992.71	2347.9
993.006	2338.64
993.303	2301.35
993.6	2295.02
993.897	2288.92
994.193	2296.83
994.49	2271.52
994.787	2245.99
995.083	2266.1
995.379	2240.11
995.676	2259.32
995.972	2215.03
996.268	2205.08
996.565	2171.86
996.861	2152.88
997.157	2194.01
997.453	2148.36
997.749	2148.36
998.044	2163.95
998.34	2112.66
998.636	2113.79
998.932	2094.58
999.227	2082.15
999.523	2109.94
999.818	2102.94
1000.114	2056.39
1000.409	2070.4
1000.704	2019.33
1001	2064.97
1001.295	2045.09
1001.59	2014.81
1001.885	1986.56
1002.18	1995.6
1002.475	1972.32
1002.77	1984.75
1003.065	1940.01
1003.359	1965.77
1003.654	1928.25
1003.949	1923.96
1004.243	1918.54
1004.538	1909.27
1004.832	1890.06
1005.127	1914.7
1005.421	1864.98
1005.715	1847.8
1006.009	1865.43
1006.304	1869.95
1006.598	1817.3
1006.892	1817.52
1007.186	1845.32
1007.48	1815.04
1007.773	1793.79
1008.067	1788.37
1008.361	1743.4
1008.655	1757.86
1008.948	1781.59
1009.242	1726
1009.535	1735.49
1009.829	1747.02
1010.122	1703.4
1010.415	1727.13
1010.708	1691.88
1011.001	1683.52
1011.295	1685.77
1011.588	1670.18
1011.881	1652.78
1012.173	1623.63
1012.466	1630.64
1012.759	1611.65
1013.052	1640.35
1013.344	1595.38
1013.637	1611.88
1013.93	1586.79
1014.222	1552.67
1014.514	1559.22
1014.807	1587.92
1015.099	1562.16
1015.391	1546.57
1015.683	1523.29
1015.976	1528.26
1016.268	1538.66
1016.56	1514.03
1016.851	1510.19
1017.143	1521.71
1017.435	1470.64
1017.727	1475.84
1018.018	1451.66
1018.31	1448.94
1018.602	1454.14
1018.893	1447.82
1019.185	1402.39
1019.476	1415.05
1019.767	1397.87
1020.058	1414.37
1020.35	1401.26
1020.641	1359.23
1020.932	1381.38
1021.223	1367.82
1021.514	1358.55
1021.804	1354.94
1022.095	1326.01
1022.386	1318.78
1022.677	1324.43
1022.967	1298.67
1023.258	1318.33
1023.548	1301.38
1023.839	1280.36
1024.129	1289.4
1024.419	1269.06
1024.709	1250.98
1025	1256.86
1025.29	1245.33
1025.58	1227.93
1025.87	1234.04
1026.16	1234.04
1026.449	1210.08
1026.739	1199.23
1027.029	1187.93
1027.319	1204.88
1027.608	1178.22
1027.898	1159.01
1028.187	1182.06
1028.477	1169.4
1028.766	1165.11
1029.055	1173.02
1029.344	1146.35
1029.634	1136.64
1029.923	1085.11
1030.212	1110.65
1030.501	1115.85
1030.79	1117.43
1031.078	1085.11
1031.367	1047.6
1031.656	1070.88
1031.945	1095.96
1032.233	1051.89
1032.522	1047.15
1032.81	1058.22
1033.099	1036.75
1033.387	987.94
1033.675	1041.5
1033.963	1023.87
1034.251	1035.85
1034.54	1009.86
1034.828	1032.46
1035.116	1012.12
1035.403	1006.02
1035.691	985.68
1035.979	988.84
1036.267	956.53
1036.554	955.4
1036.842	949.52
1037.129	957.88
1037.417	936.19
1037.704	954.49
1037.992	936.87
1038.279	931.9
1038.566	939.81
1038.853	939.81
1039.14	939.81
