Data from hue_170_FLMS001491_00033.txt Node
Date: Tue Feb 07 16:48:36 GMT 2017
User: dcchb
Spectrometer: FLMS00149
Trigger mode: 0
Integration Time (sec): 2.000000E-2
Scans to average: 10
Electric dark correction enabled: true
Nonlinearity correction enabled: false
Boxcar width: 0
XAxis mode: Wavelengths
Number of Pixels in Spectrum: 2048
>>>>>Begin Spectral Data<<<<<
341.393	-13.42
341.776	-13.42
342.16	-13.42
342.543	-73.08
342.927	-90.48
343.31	-60.2
343.693	-70.82
344.077	-64.04
344.46	-53.42
344.843	-61.33
345.226	-39.18
345.61	-26.3
345.993	-12.06
346.376	-6.64
346.759	7.82
347.142	20.48
347.525	43.53
347.908	57.31
348.291	49.18
348.674	92.57
349.057	123.08
349.44	123.3
349.823	162.4
350.206	175.5
350.588	182.96
350.971	215.73
351.354	218.21
351.737	236.07
352.119	249.63
352.502	248.04
352.884	287.14
353.267	265.9
353.65	284.88
354.032	277.2
354.414	317.42
354.797	304.31
355.179	339.79
355.562	324.2
355.944	329.62
356.326	302.28
356.709	325.78
357.091	339.79
357.473	321.71
357.855	341.83
358.238	334.82
358.62	350.87
359.002	345.89
359.384	325.1
359.766	334.82
360.148	342.05
360.53	332.79
360.912	305.22
361.294	341.83
361.676	345.89
362.057	343.86
362.439	344.99
362.821	326.01
363.203	322.84
363.584	351.54
363.966	321.94
364.348	312.45
364.729	314.71
365.111	309.96
365.493	314.48
365.874	306.57
366.256	300.47
366.637	312.45
367.019	293.24
367.4	318.78
367.781	289.63
368.163	314.03
368.544	305.9
368.925	310.64
369.306	302.28
369.688	306.8
370.069	294.82
370.45	309.06
370.831	336.4
371.212	306.12
371.593	314.03
371.974	303.64
372.355	295.73
372.736	322.39
373.117	311.77
373.498	301.38
373.879	319.45
374.26	307.93
374.641	320.58
375.021	318.1
375.402	319.45
375.783	335.27
376.163	334.82
376.544	312.9
376.925	327.59
377.305	319
377.686	307.48
378.066	323.3
378.447	320.13
378.827	344.09
379.208	340.25
379.588	322.84
379.968	343.18
380.349	322.17
380.729	333.69
381.109	310.42
381.489	333.24
381.87	339.79
382.25	355.16
382.63	326.23
383.01	339.79
383.39	330.53
383.77	326.69
384.15	353.8
384.53	324.2
384.91	349.74
385.29	349.06
385.67	361.71
386.049	349.96
386.429	334.37
386.809	363.3
387.189	336.4
387.568	363.75
387.948	354.03
388.328	353.58
388.707	339.12
389.087	363.52
389.466	356.52
389.846	381.83
390.225	381.83
390.605	386.57
390.984	383.63
391.363	358.1
391.743	375.95
392.122	364.88
392.501	386.57
392.881	371.66
393.26	368.04
393.639	380.92
394.018	375.72
394.397	355.61
394.776	364.2
395.155	387.7
395.534	375.72
395.913	387.02
396.292	379.57
396.671	382.5
397.05	392.22
397.429	402.84
397.808	365.56
398.186	394.48
398.565	383.18
398.944	388.15
399.323	418.21
399.701	425.67
400.08	420.24
400.458	417.53
400.837	405.1
401.215	407.59
401.594	429.96
401.972	401.26
402.351	410.07
402.729	413.01
403.107	427.7
403.486	427.02
403.864	407.59
404.242	429.28
404.62	438.1
404.999	424.99
405.377	429.73
405.755	436.06
406.133	434.25
406.511	435.38
406.889	441.49
407.267	453.91
407.645	471.77
408.023	465.21
408.401	445.33
408.779	474.93
409.156	472.67
409.534	460.69
409.912	481.71
410.29	477.64
410.667	487.59
411.045	480.81
411.422	514.25
411.8	515.61
412.178	504.08
412.555	499.79
412.933	509.73
413.31	534.59
413.687	528.94
414.065	537.3
414.442	540.92
414.819	539.11
415.197	577.75
415.574	534.14
415.951	545.89
416.328	546.34
416.705	541.14
417.082	578.21
417.46	572.1
417.837	571.43
418.214	564.65
418.591	585.44
418.967	595.61
419.344	600.8
419.721	601.71
420.098	608.03
420.475	604.19
420.852	629.28
421.228	626.11
421.605	631.31
421.982	629.5
422.358	644.19
422.735	639.22
423.111	676.96
423.488	666.11
423.864	679.9
424.241	686.22
424.617	679.67
424.994	676.06
425.37	672.44
425.746	676.73
426.123	722.38
426.499	723.29
426.875	707.69
427.251	719.44
427.627	745.43
428.003	749.05
428.379	749.27
428.756	753.34
429.132	765.77
429.507	766.67
429.883	778.88
430.259	798.99
430.635	794.7
431.011	822.94
431.387	796.05
431.763	852.77
432.138	823.17
432.514	822.94
432.89	837.18
433.265	869.04
433.641	861.81
434.016	897.97
434.392	912.89
434.767	921.02
435.143	916.95
435.518	962.6
435.894	942.94
436.269	941.81
436.644	937.07
437.02	995.6
437.395	975.03
437.77	1002.83
438.145	1018.19
438.52	1013.67
438.895	1033.33
439.271	1039.89
439.646	1069.72
440.021	1062.03
440.395	1056.61
440.77	1057.51
441.145	1071.98
441.52	1100.9
441.895	1111.98
442.27	1112.2
442.645	1130.06
443.019	1146.33
443.394	1166.66
443.769	1158.08
444.143	1150.17
444.518	1182.93
444.892	1155.59
445.267	1190.39
445.641	1187.68
446.016	1196.27
446.39	1190.17
446.764	1212.54
447.139	1209.83
447.513	1228.13
447.887	1234.01
448.262	1240.56
448.636	1270.16
449.01	1279.66
449.384	1290.5
449.758	1291.41
450.132	1327.79
450.506	1309.94
450.88	1324.63
451.254	1327.11
451.628	1366.21
452.002	1379.09
452.376	1391.52
452.75	1404.4
453.123	1415.92
453.497	1416.15
453.871	1463.38
454.244	1469.93
454.618	1465.19
454.992	1490.27
455.365	1492.08
455.739	1548.58
456.112	1565.98
456.486	1568.01
456.859	1580.21
457.232	1617.27
457.606	1595.81
457.979	1624.05
458.352	1666.76
458.725	1699.98
459.099	1689.36
459.472	1744.05
459.845	1779.76
460.218	1744.95
460.591	1791.05
460.964	1767.1
461.337	1856.59
461.71	1853.88
462.083	1899.53
462.456	1898.62
462.829	1908.57
463.201	1932.97
463.574	1941.33
463.947	1975.91
464.32	2055.45
464.692	2061.56
465.065	2060.2
465.438	2103.36
465.81	2116.02
466.183	2165.96
466.555	2249.8
466.928	2267.43
467.3	2241.21
467.672	2294.77
468.045	2353.3
468.417	2364.82
468.789	2407.76
469.161	2398.72
469.534	2471.49
469.906	2546.97
470.278	2568.66
470.65	2594.88
471.022	2648.66
471.394	2695.66
471.766	2770.46
472.138	2794.19
472.51	2836.22
472.882	2902.21
473.253	2973.4
473.625	3019.27
473.997	3094.07
474.369	3110.57
474.74	3176.55
475.112	3222.2
475.484	3366.61
475.855	3379.26
476.227	3418.36
476.598	3565.47
476.97	3585.13
477.341	3711.46
477.713	3821.51
478.084	3794.84
478.455	3998.68
478.827	3976.08
479.198	4162.74
479.569	4198.9
479.94	4291.33
480.311	4350.31
480.682	4509.4
481.053	4664.2
481.424	4750.07
481.795	4816.29
482.166	4906.45
482.537	4971.54
482.908	5092.44
483.279	5206.11
483.65	5328.14
484.021	5468.25
484.391	5586.89
484.762	5676.38
485.133	5748.01
485.503	5866.43
485.874	6085.18
486.244	6113.43
486.615	6337.83
486.985	6402.68
487.356	6556.35
487.726	6598.39
488.097	6842.22
488.467	6846.97
488.837	7067.98
489.207	7174.19
489.578	7300.97
489.948	7378.03
490.318	7542.09
490.688	7614.86
491.058	7798.35
491.428	7953.38
491.798	8057.78
492.168	8250.09
492.538	8275.4
492.908	8429.07
493.278	8582.06
493.648	8621.61
494.017	8770.31
494.387	8869.29
494.757	8963.97
495.126	9105.66
495.496	9119
495.866	9271.54
496.235	9406.22
496.605	9445.32
496.974	9580
497.344	9657.06
497.713	9725.31
498.082	9820
498.452	9908.58
498.821	10057.05
499.19	10123.26
499.559	10197.84
499.928	10210.95
500.298	10367.55
500.667	10441.67
501.036	10434.9
501.405	10632.86
501.774	10578.39
502.143	10667.43
502.512	10818.61
502.88	10833.98
503.249	10872.17
503.618	10913.53
503.987	10938.38
504.356	11048.89
504.724	11152.84
505.093	11143.58
505.462	11211.6
505.83	11245.72
506.199	11284.36
506.567	11478.03
506.936	11482.33
507.304	11558.71
507.672	11574.07
508.041	11666.5
508.409	11660.63
508.777	11777.23
509.145	11807.51
509.514	11907.62
509.882	11993.72
510.25	11987.85
510.618	12006.15
510.986	12007.74
511.354	12158.47
511.722	12205.92
512.09	12271.01
512.458	12207.73
512.826	12357.56
513.193	12347.39
513.561	12258.35
513.929	12410.89
514.297	12532.02
514.664	12522.07
515.032	12538.79
515.4	12620.37
515.767	12541.05
516.135	12623.31
516.502	12582.64
516.869	12694.27
517.237	12719.35
517.604	12601.17
517.972	12798.45
518.339	12827.37
518.706	12710.32
519.073	12821.95
519.44	12868.73
519.808	12905.56
520.175	12913.47
520.542	13023.53
520.909	12999.35
521.276	12951.21
521.643	12970.65
522.009	13058.78
522.376	13095.62
522.743	13095.62
523.11	13133.81
523.477	13243.86
523.843	13260.81
524.21	13276.18
524.577	13374.48
524.943	13405.89
525.31	13372.67
525.676	13459.22
526.043	13442.73
526.409	13470.07
526.776	13469.84
527.142	13526.11
527.508	13528.15
527.874	13614.25
528.241	13581.48
528.607	13456.28
528.973	13549.39
529.339	13476.17
529.705	13561.37
530.071	13641.59
530.437	13555.27
530.803	13646.11
531.169	13644.98
531.535	13545.55
531.901	13461.71
532.267	13531.99
532.632	13610.18
532.998	13532.89
533.364	13525.89
533.73	13522.27
534.095	13608.15
534.461	13495.15
534.826	13548.03
535.192	13474.36
535.557	13523.18
535.923	13468.94
536.288	13395.72
536.653	13409.51
537.019	13396.63
537.384	13309.17
537.749	13335.61
538.114	13320.92
538.479	13244.99
538.845	13272.33
539.21	13153.92
539.575	13112.34
539.94	13175.84
540.305	13185.33
540.67	13023.08
541.034	13048.16
541.399	13045.45
541.764	12948.73
542.129	13008.84
542.494	12876.64
542.858	12901.95
543.223	12902.85
543.587	12857.2
543.952	12718.9
544.316	12741.05
544.681	12676.19
545.045	12727.94
545.41	12696.08
545.774	12616.98
546.138	12609.3
546.503	12581.96
546.867	12444.11
547.231	12514.84
547.595	12450.66
547.959	12443.88
548.324	12447.95
548.688	12246.82
549.052	12347.61
549.416	12349.87
549.779	12317.33
550.143	12221.74
550.507	12196.2
550.871	12182.19
551.235	12153.27
551.599	12116.43
551.962	12144.45
552.326	12090.67
552.689	12076.89
553.053	12012.48
553.417	11952.6
553.78	12095.19
554.143	11978.81
554.507	11962.99
554.87	11915.53
555.234	11980.39
555.597	11842.77
555.96	11854.07
556.323	11823.11
556.686	11742.66
557.05	11827.63
557.413	11795.09
557.776	11762.09
558.139	11821.07
558.502	11778.81
558.865	11689.33
559.228	11720.74
559.59	11756.89
559.953	11773.62
560.316	11835.99
560.679	11674.64
561.041	11781.98
561.404	11784.46
561.767	11772.71
562.129	11702.66
562.492	11824.92
562.854	11725.71
563.217	11733.84
563.579	11653.62
563.941	11710.57
564.304	11775.2
564.666	11828.76
565.028	11806.61
565.39	11729.1
565.753	11767.97
566.115	11747.4
566.477	11785.14
566.839	11834.41
567.201	11834.86
567.563	11774.52
567.925	11916.89
568.287	11799.15
568.648	11843.9
569.01	11915.08
569.372	11853.39
569.734	11891.81
570.095	11922.77
570.457	11867.17
570.819	11917.12
571.18	11901.75
571.542	11913.95
571.903	11940.84
572.265	11893.84
572.626	11948.08
572.987	11878.02
573.349	11971.35
573.71	11936.32
574.071	11979.49
574.432	11933.84
574.794	12052.25
575.155	11969.77
575.516	11966.61
575.877	11994.18
576.238	11962.76
576.599	12019.03
576.96	12046.38
577.32	12046.38
577.681	11974.97
578.042	12021.97
578.403	12019.49
578.763	12013.84
579.124	11992.82
579.485	12084.12
579.845	12029.88
580.206	12048.41
580.566	12043.89
580.927	12026.49
581.287	12014.97
581.648	11938.36
582.008	12021.29
582.368	11926.16
582.728	12050.67
583.089	11945.82
583.449	11978.36
583.809	11895.65
584.169	11940.39
584.529	11853.84
584.889	12027.62
585.249	11903.56
585.609	11879.83
585.969	11924.8
586.329	11860.39
586.688	11935.19
587.048	11929.09
587.408	11868.3
587.768	11852.26
588.127	11852.03
588.487	11782.88
588.846	11895.2
589.206	11841.19
589.565	11855.42
589.925	11875.31
590.284	11790.79
590.643	11837.34
591.003	11876.44
591.362	11819.27
591.721	11750.79
592.08	11803.67
592.44	11781.75
592.799	11738.14
593.158	11698.59
593.517	11647.97
593.876	11762.32
594.235	11713.96
594.593	11700.4
594.952	11810.68
595.311	11674.64
595.67	11683.22
596.029	11789.44
596.387	11712.38
596.746	11729.55
597.104	11707.4
597.463	11618.14
597.822	11668.08
598.18	11654.75
598.538	11686.61
598.897	11711.7
599.255	11626.95
599.613	11765.03
599.972	11697.46
600.33	11698.82
600.688	11643.22
601.046	11642.1
601.404	11677.12
601.762	11612.27
602.12	11700.62
602.478	11626.95
602.836	11692.04
603.194	11618.82
603.552	11631.02
603.91	11562.78
604.268	11628.08
604.625	11563.9
604.983	11674.18
605.341	11579.72
605.698	11567.75
606.056	11626.28
606.413	11582.44
606.771	11651.13
607.128	11686.84
607.485	11634.86
607.843	11622.21
608.2	11752.15
608.557	11686.39
608.914	11668.76
609.272	11713.28
609.629	11733.84
609.986	11750.11
610.343	11706.5
610.7	11723.9
611.057	11752.15
611.414	11773.84
611.771	11745.37
612.127	11750.11
612.484	11757.8
612.841	11753.73
613.198	11784.69
613.554	11737.46
613.911	11769.78
614.267	11716.9
614.624	11768.65
614.98	11777.91
615.337	11827.63
615.693	11824.46
616.05	11835.54
616.406	11885.03
616.762	11828.08
617.118	11797.35
617.475	11852.94
617.831	11927.51
618.187	11862.88
618.543	11933.84
618.899	11895.2
619.255	11925.7
619.611	11970.22
619.967	11976.1
620.323	11971.13
620.678	11945.82
621.034	11896.55
621.39	11885.03
621.746	11877.57
622.101	11967.28
622.457	11827.63
622.812	11975.42
623.168	11993.05
623.523	11907.85
623.879	12056.55
624.234	11910.34
624.589	11923.9
624.945	11844.12
625.3	11923.44
625.655	11909.88
626.01	11888.19
626.365	11884.57
626.72	11842.32
627.075	11912.14
627.43	11917.79
627.785	11878.7
628.14	11858.13
628.495	11870.11
628.85	11849.32
629.205	11885.7
629.559	11850.23
629.914	11883.9
630.269	11869.66
630.623	11795.76
630.978	11795.09
631.332	11834.18
631.687	11814.75
632.041	11772.94
632.396	11853.16
632.75	11762.09
633.104	11820.85
633.459	11700.62
633.813	11735.2
634.167	11723.67
634.521	11701.3
634.875	11739.95
635.229	11627.63
635.583	11641.19
635.937	11595.99
636.291	11611.36
636.645	11569.55
636.999	11541.08
637.352	11624.69
637.706	11550.8
638.06	11552.61
638.413	11496.11
638.767	11510.12
639.121	11560.74
639.474	11523.45
639.828	11438.03
640.181	11450.69
640.534	11516.9
640.888	11466.96
641.241	11403.91
641.594	11481.2
641.947	11405.94
642.301	11462.21
642.654	11479.39
643.007	11421.54
643.36	11464.25
643.713	11403.01
644.066	11435.77
644.419	11385.38
644.771	11340.63
645.124	11209.56
645.477	11181.09
645.83	11150.81
646.182	11131.83
646.535	11083.69
646.888	11106.74
647.24	11096.57
647.593	11116.46
647.945	11069.45
648.298	11029.23
648.65	10959.85
649.002	10929.35
649.355	11052.96
649.707	11075.1
650.059	11109.91
650.411	11180.86
650.763	11192.84
651.115	11290.01
651.467	11190.81
651.819	11274.2
652.171	11203.69
652.523	11238.26
652.875	11260.18
653.227	11136.12
653.578	11272.16
653.93	11249.56
654.282	11233.97
654.633	11191.03
654.985	11221.99
655.337	11229.45
655.688	11210.47
656.039	11265.38
656.391	11175.67
656.742	11268.09
657.094	11231.26
657.445	11256.34
657.796	11176.12
658.147	11201.65
658.498	11236.23
658.849	11299.51
659.2	11275.32
659.551	11265.83
659.902	11320.52
660.253	11241.88
660.604	11268.09
660.955	11241.65
661.306	11290.69
661.656	11348.77
662.007	11334.31
662.358	11299.96
662.708	11315.55
663.059	11284.82
663.409	11279.39
663.76	11342.22
664.11	11383.8
664.461	11356
664.811	11401.2
665.161	11337.02
665.511	11266.96
665.862	11318.04
666.212	11395.32
666.562	11364.81
666.912	11367.53
667.262	11370.46
667.612	11327.98
667.962	11336.79
668.312	11307.41
668.662	11382.21
669.011	11322.78
669.361	11287.75
669.711	11302.89
670.06	11365.04
670.41	11317.58
670.76	11284.59
671.109	11329.79
671.459	11265.38
671.808	11245.04
672.157	11280.07
672.507	11166.18
672.856	11208.66
673.205	11264.48
673.554	11265.38
673.904	11251.82
674.253	11224.03
674.602	11218.15
674.951	11080.08
675.3	11032.85
675.649	11151.03
675.998	11176.12
676.346	11129.34
676.695	11163.24
677.044	11081.21
677.393	11152.62
677.741	11130.02
678.09	11094.09
678.438	11024.26
678.787	11069.68
679.135	11059.06
679.484	11039.62
679.832	11049.34
680.181	10970.93
680.529	11068.55
680.877	10932.51
681.225	10996.69
681.573	11007.99
681.922	10936.12
682.27	10796.02
682.618	10911.94
682.966	10869.01
683.314	10907.2
683.661	10867.88
684.009	10745.85
684.357	10822.46
684.705	10704.49
685.053	10781.55
685.4	10677.6
685.748	10626.98
686.095	10651.61
686.443	10591.73
686.79	10539.75
687.138	10649.8
687.485	10553.99
687.832	10573.87
688.18	10550.37
688.527	10471.05
688.874	10440.09
689.221	10420.21
689.568	10375.91
689.915	10406.2
690.262	10376.59
690.609	10360.77
690.956	10291.4
691.303	10245.97
691.65	10184.96
691.997	10103.6
692.344	10178.18
692.69	10146.77
693.037	10142.47
693.383	10016.83
693.73	10055.24
694.077	10050.5
694.423	9951.97
694.769	9928.92
695.116	9902.93
695.462	9897.51
695.808	9801.47
696.155	9896.6
696.501	9730.51
696.847	9766.66
697.193	9612.77
697.539	9725.08
697.885	9678.3
698.231	9546.78
698.577	9596.27
698.923	9535.26
699.269	9522.6
699.614	9436.5
699.96	9409.61
700.306	9466.78
700.651	9347.69
700.997	9292.1
701.342	9285.55
701.688	9248.94
702.033	9251.65
702.379	9270.18
702.724	9205.55
703.069	9265.21
703.415	9043.52
703.76	9056.17
704.105	9042.39
704.45	9059.34
704.795	8996.97
705.14	8881.26
705.485	8893.24
705.83	8954.03
706.175	8917.42
706.52	8868.83
706.865	8867.03
707.209	8857.54
707.554	8766.01
707.899	8739.57
708.243	8769.85
708.588	8706.35
708.932	8657.09
709.277	8604.89
709.621	8701.16
709.966	8582.51
710.31	8603.76
710.654	8549.97
710.998	8554.72
711.342	8539.8
711.687	8480.37
712.031	8401.73
712.375	8392.24
712.719	8453.48
713.063	8378.45
713.407	8399.47
713.75	8389.53
714.094	8344.78
714.438	8317.89
714.782	8383.42
715.125	8313.37
715.469	8359.7
715.812	8292.8
716.156	8213.71
716.499	8205.8
716.843	8212.81
717.186	8192.24
717.53	8220.49
717.873	8163.77
718.216	8187.72
718.559	8134.39
718.902	8126.26
719.246	8118.35
719.589	8102.3
719.932	8042.64
720.275	8117.22
720.617	8116.76
720.96	8089.87
721.303	8107.27
721.646	8048.52
721.989	8036.31
722.331	8026.82
722.674	8035.86
723.016	8126.26
723.359	8020.95
723.701	8024.56
724.044	8014.17
724.386	7945.7
724.729	8013.72
725.071	8000.61
725.413	8014.62
725.755	7954.73
726.097	7912.02
726.439	7887.84
726.782	7973.49
727.124	7900.95
727.465	7930.78
727.807	7949.54
728.149	7884.23
728.491	7915.19
728.833	7922.19
729.175	7921.29
729.516	7808.52
729.858	7940.27
730.199	7918.58
730.541	7884.23
730.882	7889.2
731.224	7902.76
731.565	7853.49
731.906	7861.86
732.248	7894.17
732.589	7861.63
732.93	7844.23
733.271	7884.45
733.612	7828.64
733.953	7841.97
734.294	7826.15
734.635	7827.96
734.976	7885.13
735.317	7771.69
735.658	7894.62
735.999	7893.04
736.339	7858.24
736.68	7884.68
737.021	7884.23
737.361	7930.33
737.702	7899.14
738.042	7906.15
738.383	7920.38
738.723	7908.18
739.063	7874.74
739.404	7961.74
739.744	7869.76
740.084	7925.81
740.424	7988.63
740.764	7954.06
741.104	8032.02
741.444	8048.74
741.784	7990.89
742.124	8035.41
742.464	8063.43
742.804	8065.24
743.143	8096.43
743.483	8077.89
743.823	8102.3
744.162	8139.59
744.502	8187.27
744.841	8152.47
745.181	8266.59
745.52	8233.37
745.86	8309.53
746.199	8271.11
746.538	8402.86
746.877	8382.52
747.216	8455.06
747.556	8542.29
747.895	8561.5
748.234	8570.99
748.573	8625.9
748.911	8693.25
749.25	8707.48
749.589	8870.64
749.928	8913.13
750.267	9007.14
750.605	9041.26
750.944	9074.7
751.283	9124.42
751.621	9218.2
751.96	9261.82
752.298	9408.26
752.636	9511.76
752.975	9531.19
753.313	9628.14
753.651	9801.92
753.989	9971.86
754.327	9945.42
754.666	10075.36
755.004	10236.03
755.342	10408.91
755.679	10426.76
756.017	10556.7
756.355	10752.17
756.693	10839.63
757.031	10970.47
757.368	11042.34
757.706	11219.28
758.044	11349.22
758.381	11525.49
758.719	11694.97
759.056	11742.43
759.394	11957.34
759.731	12046.38
760.068	12231.46
760.405	12354.17
760.743	12519.36
761.08	12804.32
761.417	12832.35
761.754	13027.14
762.091	13202.51
762.428	13403.86
762.765	13548.03
763.102	13700.8
763.438	13729.27
763.775	13971.53
764.112	14178.53
764.449	14421.68
764.785	14527.22
765.122	14596.37
765.458	14773.99
765.795	14900.54
766.131	15082.91
766.467	15271.15
766.804	15271.38
767.14	15562.44
767.476	15682.89
767.812	15686.51
768.148	15835.88
768.485	15957.46
768.821	16081.53
769.157	16161.3
769.492	16297.57
769.828	16520.16
770.164	16539.59
770.5	16622.3
770.836	16710.21
771.171	16806.93
771.507	16897.78
771.842	16963.76
772.178	17110.88
772.513	17251.44
772.849	17246.47
773.184	17319.46
773.519	17455.28
773.855	17466.35
774.19	17497.31
774.525	17554.48
774.86	17646.23
775.195	17823.18
775.53	17752.44
775.865	17914.92
776.2	17795.38
776.535	17742.95
776.87	17841.25
777.205	17909.5
777.539	18006.45
777.874	18054.58
778.209	17987.24
778.543	18066.78
778.878	18100.68
779.212	18045.32
779.547	17990.4
779.881	18146.33
780.215	18135.03
780.55	18247.12
780.884	18203.5
781.218	18239.44
781.552	18257.51
781.886	18313.56
782.22	18160.12
782.554	18137.07
782.888	18107.69
783.222	18108.82
783.556	18119.21
783.889	18055.71
784.223	18005.09
784.557	18122.38
784.89	18132.09
785.224	18003.74
785.557	17919.22
785.891	17947.01
786.224	17993.34
786.558	18023.4
786.891	17847.36
787.224	17779.56
787.557	17878.77
787.891	17947.69
788.224	17922.16
788.557	17903.4
788.89	17907.47
789.223	17943.4
789.556	17713.8
789.888	17775.27
790.221	17845.32
790.554	17638.32
790.887	17705.21
791.219	17665.21
791.552	17613.46
791.884	17576.18
792.217	17607.36
792.549	17508.38
792.882	17452.56
793.214	17364.88
793.546	17420.25
793.879	17379.35
794.211	17250.99
794.543	17358.33
794.875	17207.37
795.207	17492.11
795.539	17263.19
795.871	17214.38
796.203	17133.25
796.535	16988.17
796.867	16989.75
797.198	17010.09
797.53	17032.46
797.862	16931.67
798.193	16990.88
798.525	16777.78
798.856	16932.13
799.188	16709.08
799.519	16641.96
799.85	16562.19
800.182	16598.35
800.513	16543.21
800.844	16537.56
801.175	16553.83
801.506	16598.12
801.837	16524
802.168	16551.8
802.499	16458.69
802.83	16296.89
803.161	16339.37
803.491	16299.83
803.822	16331.24
804.153	16222.09
804.483	16117.91
804.814	16177.79
805.145	15975.09
805.475	16112.94
805.805	15984.13
806.136	16043.11
806.466	15987.74
806.796	16029.32
807.126	15775.32
807.457	15832.04
807.787	15827.3
808.117	15774.87
808.447	15786.62
808.777	15812.38
809.107	15617.81
809.436	15603.57
809.766	15654.19
810.096	15547.53
810.426	15538.72
810.755	15590.92
811.085	15456.01
811.414	15481.54
811.744	15380.3
812.073	15313.86
812.403	15388.89
812.732	15268.44
813.061	15353.18
813.39	15221.66
813.719	15228.22
814.049	15266.18
814.378	15141.21
814.707	15080.65
815.036	15092.17
815.365	15061.89
815.693	14877.72
816.022	14985.06
816.351	14952.74
816.68	14919.97
817.008	14990.03
817.337	14816.7
817.665	14768.34
817.994	14887.89
818.322	14773.76
818.651	14749.36
818.979	14638.85
819.307	14712.3
819.636	14764.95
819.964	14605.18
820.292	14709.81
820.62	14671.85
820.948	14631.62
821.276	14645.86
821.604	14642.92
821.932	14651.73
822.259	14755.91
822.587	14644.5
822.915	14582.81
823.243	14705.29
823.57	14555.46
823.898	14688.79
824.225	14572.41
824.553	14598.18
824.88	14635.01
825.207	14603.15
825.535	14561.11
825.862	14656.93
826.189	14587.33
826.516	14608.57
826.843	14650.38
827.17	14643.15
827.497	14650.38
827.824	14628.91
828.151	14664.39
828.478	14682.92
828.805	14707.55
829.131	14664.84
829.458	14612.86
829.785	14537.39
830.111	14586.2
830.438	14690.38
830.764	14659.19
831.09	14655.8
831.417	14469.37
831.743	14595.24
832.069	14642.92
832.395	14582.81
832.722	14639.3
833.048	14524.28
833.374	14624.39
833.7	14503.71
834.026	14529.25
834.351	14489.48
834.677	14527.44
835.003	14519.31
835.329	14539.42
835.654	14485.18
835.98	14415.13
836.306	14415.58
836.631	14377.62
836.956	14453.77
837.282	14402.47
837.607	14317.73
837.932	14268.92
838.258	14375.81
838.583	14346.43
838.908	14176.27
839.233	14299.65
839.558	14223.95
839.883	14178.07
840.208	14123.84
840.533	14063.95
840.858	14131.3
841.182	14107.79
841.507	14079.55
841.832	13969.72
842.156	13937.85
842.481	13907.35
842.805	13906.89
843.13	13895.14
843.454	13852.43
843.778	13750.29
844.103	13794.81
844.427	13721.81
844.751	13774.47
845.075	13706.45
845.399	13723.17
845.723	13625.32
846.047	13580.8
846.371	13463.97
846.695	13465.1
847.019	13389.62
847.343	13396.4
847.666	13317.76
847.99	13285.44
848.313	13233.92
848.637	13182.39
848.96	13175.61
849.284	13146.01
849.607	13019.46
849.931	12972
850.254	12949.63
850.577	12838.9
850.9	12736.76
851.223	12756.87
851.546	12699.47
851.869	12598
852.192	12660.37
852.515	12513.71
852.838	12526.82
853.161	12564.33
853.483	12468.29
853.806	12357.1
854.129	12454.95
854.451	12296.99
854.774	12289.08
855.096	12217.9
855.419	12178.13
855.741	12159.6
856.063	12089.77
856.385	12097.68
856.708	12053.84
857.03	11972.48
857.352	11958.47
857.674	11946.27
857.996	11871.69
858.318	11807.97
858.64	11892.94
858.961	11772.94
859.283	11793.05
859.605	11669.44
859.926	11723
860.248	11704.92
860.57	11661.53
860.891	11670.57
861.212	11514.87
861.534	11560.97
861.855	11557.58
862.176	11540.85
862.498	11523.45
862.819	11446.85
863.14	11415.21
863.461	11434.87
863.782	11355.77
864.103	11397.58
864.424	11376.11
864.745	11390.12
865.065	11349.9
865.386	11232.84
865.707	11320.52
866.027	11230.35
866.348	11195.78
866.668	11246.17
866.989	11125.5
867.309	11193.52
867.63	11251.6
867.95	11087.76
868.27	11106.06
868.59	11118.72
868.91	11057.48
869.23	11112.39
869.55	11076.91
869.87	11105.39
870.19	11055.67
870.51	10989.23
870.83	11001.21
871.15	10938.61
871.469	10946.29
871.789	10972.51
872.109	10904.04
872.428	10868.56
872.748	10822.46
873.067	10782.46
873.386	10854.09
873.706	10768.9
874.025	10695
874.344	10676.47
874.663	10758.73
874.982	10727.77
875.301	10746.3
875.62	10786.75
875.939	10654.78
876.258	10696.36
876.577	10670.82
876.896	10634.44
877.214	10583.14
877.533	10577.49
877.852	10551.95
878.17	10546.3
878.489	10541.78
878.807	10588.11
879.125	10513.99
879.444	10508.79
879.762	10528.23
880.08	10492.97
880.398	10418.85
880.716	10533.42
881.034	10465.63
881.352	10389.02
881.67	10373.88
881.988	10415.46
882.306	10331.85
882.624	10283.26
882.941	10245.07
883.259	10188.12
883.577	10216.14
883.894	10081.68
884.212	10185.41
884.529	10182.25
884.846	10067.45
885.164	10119.42
885.481	10106.54
885.798	10083.94
886.115	10051.18
886.432	10075.81
886.75	9972.08
887.067	9997.84
887.383	9918.98
887.7	9930.95
888.017	9918.3
888.334	9886.43
888.651	9890.05
888.967	9862.03
889.284	9844.18
889.6	9799.43
889.917	9709.72
890.233	9652.32
890.55	9649.83
890.866	9661.58
891.182	9664.97
891.498	9574.13
891.815	9589.72
892.131	9534.81
892.447	9547.69
892.763	9459.1
893.079	9467.01
893.395	9383.4
893.71	9325.77
894.026	9365.32
894.342	9385.21
894.657	9199
894.973	9222.95
895.289	9278.99
895.604	9227.24
895.92	9191.54
896.235	9152.67
896.55	9097.53
896.865	9104.08
897.181	9054.59
897.496	9068.83
897.811	8982.28
898.126	8966.23
898.441	8957.42
898.756	8903.86
899.071	8836.97
899.386	8831.32
899.7	8812.56
900.015	8748.39
900.33	8645.56
900.644	8699.12
900.959	8694.6
901.273	8675.62
901.588	8603.08
901.902	8516.98
902.216	8540.93
902.531	8491.44
902.845	8477.88
903.159	8454.83
903.473	8345.68
903.787	8349.07
904.101	8319.47
904.415	8306.14
904.729	8303.88
905.042	8201.73
905.356	8251.9
905.67	8186.37
905.984	8184.33
906.297	8129.19
906.611	8121.51
906.924	8132.36
907.237	8000.83
907.551	8054.62
907.864	8044.68
908.177	8012.36
908.491	7931.91
908.804	7876.54
909.117	7842.65
909.43	7817.79
909.743	7802.2
910.056	7719.49
910.368	7727.17
910.681	7710.67
910.994	7718.58
911.307	7665.25
911.619	7607.17
911.932	7623.22
912.244	7510.45
912.557	7606.27
912.869	7467.29
913.181	7471.81
913.494	7417.12
913.806	7400.17
914.118	7367.63
914.43	7333.28
914.742	7303.9
915.054	7262.1
915.366	7242.21
915.678	7280.4
915.99	7251.7
916.302	7137.81
916.613	7101.65
916.925	7056.9
917.236	7067.3
917.548	7020.3
917.859	7063.46
918.171	6983.46
918.482	6921.09
918.794	6893.97
919.105	6926.74
919.416	6874.54
919.727	6860.98
920.038	6805.16
920.349	6790.7
920.66	6720.19
920.971	6755.44
921.282	6689.46
921.593	6666.63
921.903	6609.01
922.214	6597.26
922.525	6572.62
922.835	6621.44
923.146	6549.12
923.456	6486.52
923.767	6464.6
924.077	6446.07
924.387	6511.16
924.697	6346.87
925.008	6369.47
925.318	6392.97
925.628	6343.93
925.938	6296.25
926.248	6222.35
926.558	6251.28
926.867	6261.67
927.177	6225.29
927.487	6124.95
927.796	6160.43
928.106	6135.12
928.416	6092.41
928.725	6108.46
929.034	6001.79
929.344	6007.67
929.653	5989.81
929.962	5971.28
930.271	5951.4
930.581	5871.63
930.89	5837.73
931.199	5847.9
931.508	5798.18
931.817	5808.12
932.125	5821.23
932.434	5787.79
932.743	5741.91
933.051	5737.62
933.36	5672.76
933.669	5680.22
933.977	5646.32
934.286	5640.44
934.594	5625.76
934.902	5566.32
935.21	5558.41
935.519	5491.07
935.827	5505.99
936.135	5493.1
936.443	5465.99
936.751	5463.73
937.059	5410.39
937.367	5371.07
937.674	5384.63
937.982	5390.73
938.29	5310.96
938.597	5360.23
938.905	5316.61
939.213	5260.57
939.52	5263.51
939.827	5236.61
940.135	5149.61
940.442	5164.53
940.749	5190.97
941.056	5159.1
941.363	5102.15
941.67	5081.59
941.977	5110.74
942.284	5036.84
942.591	5016.73
942.898	5037.97
943.205	4963.85
943.511	4994.59
943.818	4951.88
944.125	4927.47
944.431	4889.05
944.738	4904.65
945.044	4858.32
945.35	4803.18
945.657	4794.59
945.963	4778.09
946.269	4769.28
946.575	4756.63
946.881	4691.32
947.187	4736.74
947.493	4701.49
947.799	4667.59
948.105	4639.12
948.41	4635.5
948.716	4636.86
949.022	4596.86
949.327	4620.36
949.633	4559.12
949.938	4561.6
950.244	4550.98
950.549	4478.44
950.854	4457.65
951.16	4491.55
951.465	4415.62
951.77	4447.48
952.075	4378.33
952.38	4357.77
952.685	4350.99
952.99	4344.43
953.294	4350.76
953.599	4290.2
953.904	4264.89
954.209	4225.11
954.513	4260.14
954.818	4246.36
955.122	4205.23
955.426	4166.81
955.731	4186.02
956.035	4155.29
956.339	4132.46
956.643	4120.71
956.948	4076.64
957.252	4087.49
957.556	4099.47
957.86	4050.43
958.163	4020.37
958.467	4007.95
958.771	4037.32
959.075	3995.52
959.378	3951
959.682	3940.38
959.985	3952.35
960.289	3950.09
960.592	3920.49
960.896	3888.85
961.199	3850.66
961.502	3837.33
961.805	3863.54
962.108	3841.62
962.411	3792.36
962.714	3757.56
963.017	3796.65
963.32	3720.95
963.623	3708.97
963.926	3725.92
964.228	3711.68
964.531	3679.14
964.833	3685.24
965.136	3625.13
965.438	3618.13
965.741	3648.41
966.043	3649.31
966.345	3593.95
966.648	3566.38
966.95	3559.37
967.252	3571.57
967.554	3506.72
967.856	3529.54
968.158	3470.33
968.46	3478.47
968.761	3445.47
969.063	3427.17
969.365	3424.46
969.666	3444.8
969.968	3395.31
970.269	3375.19
970.571	3397.34
970.872	3330.45
971.174	3380.84
971.475	3321.18
971.776	3292.48
972.077	3288.64
972.378	3285.7
972.679	3312.82
972.98	3253.62
973.281	3250
973.582	3231.24
973.883	3235.08
974.183	3247.06
974.484	3194.63
974.785	3162.54
975.085	3155.54
975.386	3184.24
975.686	3158.7
975.986	3135.2
976.287	3124.8
976.587	3061.08
976.887	3081.64
977.187	3058.14
977.487	3060.17
977.787	3034.86
978.087	3017.24
978.387	3014.3
978.687	2999.84
978.987	3000.06
979.286	2957.8
979.586	2963.91
979.885	2952.83
980.185	2948.09
980.484	2918.03
980.784	2895.21
981.083	2927.97
981.382	2890.23
981.682	2889.78
981.981	2877.35
982.28	2859.05
982.579	2837.58
982.878	2834.19
983.177	2829.9
983.475	2797.13
983.774	2774.53
984.073	2771.14
984.372	2731.14
984.67	2778.6
984.969	2730.69
985.267	2754.19
985.566	2707.87
985.864	2729.56
986.162	2717.58
986.461	2693.63
986.759	2635.78
987.057	2627.64
987.355	2636.23
987.653	2645.27
987.951	2648.43
988.249	2603.01
988.547	2650.47
988.844	2586.29
989.142	2591.49
989.44	2572.5
989.737	2536.35
990.035	2510.13
990.332	2529.34
990.63	2510.81
990.927	2489.57
991.224	2474.65
991.521	2445.5
991.819	2467.87
992.116	2478.95
992.413	2457.25
992.71	2443.47
993.006	2441.43
993.303	2393.52
993.6	2387.88
993.897	2405.95
994.193	2372.96
994.49	2346.29
994.787	2346.07
995.083	2357.37
995.379	2336.58
995.676	2295
995.972	2295.9
996.268	2290.93
996.565	2278.05
996.861	2262.91
997.157	2236.69
997.453	2231.27
997.749	2263.58
998.044	2210.93
998.34	2210.25
998.636	2207.31
998.932	2210.25
999.227	2113.08
999.523	2180.42
999.818	2171.84
1000.114	2124.38
1000.409	2157.15
1000.704	2125.51
1001	2094.55
1001.295	2094.32
1001.59	2088
1001.885	2084.38
1002.18	2046.64
1002.475	2041.22
1002.77	2025.4
1003.065	2031.95
1003.359	1998.73
1003.654	2004.16
1003.949	1995.34
1004.243	1993.99
1004.538	2001.9
1004.832	1976.81
1005.127	1958.73
1005.421	1937.94
1005.715	1929.13
1006.009	1903.14
1006.304	1925.06
1006.598	1916.02
1006.892	1888.68
1007.186	1855.69
1007.48	1880.32
1007.773	1846.42
1008.067	1834.22
1008.361	1835.35
1008.655	1860.66
1008.948	1824.5
1009.242	1815.46
1009.535	1803.26
1009.829	1798.51
1010.122	1776.37
1010.415	1765.52
1010.708	1768
1011.001	1731.62
1011.295	1733.43
1011.588	1728.91
1011.881	1679.42
1012.173	1691.62
1012.466	1686.42
1012.759	1674
1013.052	1676.93
1013.344	1656.59
1013.637	1635.58
1013.93	1635.35
1014.222	1650.49
1014.514	1611.62
1014.807	1603.94
1015.099	1584.96
1015.391	1615.24
1015.683	1590.16
1015.976	1559.42
1016.268	1572.76
1016.56	1559.2
1016.851	1548.8
1017.143	1529.37
1017.435	1536.82
1017.727	1499.76
1018.018	1521.68
1018.31	1498.18
1018.602	1467.9
1018.893	1517.39
1019.185	1478.07
1019.476	1470.16
1019.767	1470.39
1020.058	1450.05
1020.35	1421.57
1020.641	1418.64
1020.932	1401.23
1021.223	1410.95
1021.514	1406.21
1021.804	1389.94
1022.095	1345.42
1022.386	1364.4
1022.677	1393.1
1022.967	1373.44
1023.258	1347.22
1023.548	1307.23
1023.839	1321.91
1024.129	1325.53
1024.419	1321.69
1024.709	1299.32
1025	1281.24
1025.29	1288.47
1025.58	1320.56
1025.87	1276.04
1026.16	1270.16
1026.449	1277.4
1026.739	1229.26
1027.029	1242.37
1027.319	1233.56
1027.608	1233.78
1027.898	1202.6
1028.187	1209.6
1028.477	1220
1028.766	1167.34
1029.055	1186.1
1029.344	1183.84
1029.634	1169.83
1029.923	1146.33
1030.212	1131.41
1030.501	1157.62
1030.79	1126.89
1031.078	1122.37
1031.367	1133.22
1031.656	1126.67
1031.945	1109.72
1032.233	1113.56
1032.522	1116.27
1032.81	1096.84
1033.099	1111.3
1033.387	1098.19
1033.675	1050.96
1033.963	1043.28
1034.251	1059.1
1034.54	1029.72
1034.828	1052.54
1035.116	1003.05
1035.403	1026.55
1035.691	1021.13
1035.979	990.62
1036.267	1012.09
1036.554	1020.68
1036.842	985.88
1037.129	988.59
1037.417	1010.28
1037.704	1007.12
1037.992	963.05
1038.279	983.62
1038.566	993.79
1038.853	993.79
1039.14	993.79
