Data from hue_330_FLMS001491_10.txt Node
Date: Mon Feb 06 15:44:49 GMT 2017
User: dcchb
Spectrometer: FLMS00149
Trigger mode: 0
Integration Time (sec): 2.000000E-2
Scans to average: 10
Electric dark correction enabled: true
Nonlinearity correction enabled: false
Boxcar width: 0
XAxis mode: Wavelengths
Number of Pixels in Spectrum: 2048
>>>>>Begin Spectral Data<<<<<
341.393	0.62
341.776	0.62
342.16	0.62
342.543	-65.59
342.927	-70.34
343.31	-66.27
343.693	-79.38
344.077	-59.94
344.46	-69.66
344.843	-28.76
345.226	-43.22
345.61	-26.04
345.993	-27.17
346.376	-17.23
346.759	2.88
347.142	33.61
347.525	32.49
347.908	44.01
348.291	96.21
348.674	92.6
349.057	115.87
349.44	140.96
349.823	145.93
350.206	161.75
350.588	185.25
350.971	215.31
351.354	233.61
351.737	232.03
352.119	245.13
352.502	274.29
352.884	283.55
353.267	270.22
353.65	298.69
354.032	304.79
354.414	301.18
354.797	312.48
355.179	328.52
355.562	330.1
355.944	319.48
356.326	336.66
356.709	332.82
357.091	329.88
357.473	349.76
357.855	325.81
358.238	332.14
358.62	328.3
359.002	327.62
359.384	336.88
359.766	318.58
360.148	331.01
360.53	339.37
360.912	342.99
361.294	302.76
361.676	336.43
362.057	347.05
362.439	346.15
362.821	320.61
363.203	322.87
363.584	325.13
363.966	336.66
364.348	307.96
364.729	312.7
365.111	307.28
365.493	327.17
365.874	304.57
366.256	310.67
366.637	304.12
367.019	307.96
367.4	306.38
367.781	300.27
368.163	330.56
368.544	308.86
368.925	298.47
369.306	305.47
369.688	308.86
370.069	282.2
370.45	273.83
370.831	321.74
371.212	314.06
371.593	311.57
371.974	293.5
372.355	297.11
372.736	304.12
373.117	298.47
373.498	320.84
373.879	318.81
374.26	327.17
374.641	296.66
375.021	316.32
375.402	317.9
375.783	316.09
376.163	320.16
376.544	317.68
376.925	327.39
377.305	310.44
377.686	308.86
378.066	316.32
378.447	317.68
378.827	315.87
379.208	328.75
379.588	338.69
379.968	332.82
380.349	334.17
380.729	325.13
381.109	337.34
381.489	337.11
381.87	339.14
382.25	345.92
382.63	323.32
383.01	351.8
383.39	328.3
383.77	326.94
384.15	316.77
384.53	326.04
384.91	349.54
385.29	349.31
385.67	334.17
386.049	345.02
386.429	357.67
386.809	350.22
387.189	359.03
387.568	355.41
387.948	341.86
388.328	360.84
388.707	361.52
389.087	375.98
389.466	352.93
389.846	346.83
390.225	374.17
390.605	350.67
390.984	357.22
391.363	365.58
391.743	374.62
392.122	366.04
392.501	383.44
392.881	362.87
393.26	341.18
393.639	367.84
394.018	355.64
394.397	382.76
394.776	364.45
395.155	354.06
395.534	376.43
395.913	378.69
396.292	400.16
396.671	394.96
397.05	392.93
397.429	405.58
397.808	413.72
398.186	405.13
398.565	394.51
398.944	398.58
399.323	429.31
399.701	408.52
400.08	384.57
400.458	391.12
400.837	393.83
401.215	394.51
401.594	408.97
401.972	386.6
402.351	405.81
402.729	407.16
403.107	416.88
403.486	410.1
403.864	423.89
404.242	427.73
404.62	453.26
404.999	426.6
405.377	397.9
405.755	440.16
406.133	443.1
406.511	429.31
406.889	426.82
407.267	448.97
407.645	443.55
408.023	450.1
408.401	446.94
408.779	434.51
409.156	455.75
409.534	463.21
409.912	466.15
410.29	477.67
410.667	467.28
411.045	465.92
411.422	498.01
411.8	476.99
412.178	490.33
412.555	519.25
412.933	492.36
413.31	498.91
413.687	542.75
414.065	508.4
414.442	519.93
414.819	544.34
415.197	543.43
415.574	527.39
415.951	539.36
416.328	539.82
416.705	565.13
417.082	559.02
417.46	583.21
417.837	580.27
418.214	550.89
418.591	577.33
418.967	593.83
419.344	599.02
419.721	624.56
420.098	626.14
420.475	614.62
420.852	629.08
421.228	616.88
421.605	627.72
421.982	617.78
422.358	659.14
422.735	676.76
423.111	658.23
423.488	650.1
423.864	662.75
424.241	680.6
424.617	680.15
424.994	687.16
425.37	681.28
425.746	696.87
426.123	713.37
426.499	690.09
426.875	708.63
427.251	723.54
427.627	719.7
428.003	735.07
428.379	729.19
428.756	737.33
429.132	729.87
429.507	771.22
429.883	758.79
430.259	790.88
430.635	778
431.011	811
431.387	795.63
431.763	841.5
432.138	819.36
432.514	820.03
432.89	831.79
433.265	841.96
433.641	843.54
434.016	869.98
434.392	850.54
434.767	876.53
435.143	860.94
435.518	883.31
435.894	905.46
436.269	900.03
436.644	916.76
437.02	899.81
437.395	928.51
437.77	907.49
438.145	938.9
438.52	963.08
438.895	963.53
439.271	983.65
439.646	974.61
440.021	1001.27
440.395	990.43
440.77	986.58
441.145	999.92
441.52	1006.02
441.895	1021.39
442.27	1023.42
442.645	1018.22
443.019	1030.42
443.394	1028.17
443.769	1058.22
444.143	1033.59
444.518	1060.48
444.892	1038.56
445.267	1064.1
445.641	1054.83
446.016	1075.4
446.39	1107.49
446.764	1083.08
447.139	1045.34
447.513	1101.84
447.887	1068.16
448.262	1093.02
448.636	1083.3
449.01	1115.62
449.384	1089.63
449.758	1110.65
450.132	1106.36
450.506	1142.51
450.88	1124.43
451.254	1120.37
451.628	1150.42
452.002	1166.69
452.376	1142.96
452.75	1159.46
453.123	1157.2
453.497	1195.62
453.871	1188.84
454.244	1196.97
454.618	1219.35
454.992	1220.48
455.365	1241.72
455.739	1252.57
456.112	1250.53
456.486	1255.28
456.859	1255.5
457.232	1288.5
457.606	1276.52
457.979	1277.42
458.352	1276.07
458.725	1326.01
459.099	1334.37
459.472	1327.37
459.845	1345.67
460.218	1338.89
460.591	1344.09
460.964	1370.75
461.337	1411.88
461.71	1419.34
462.083	1401.49
462.456	1422.28
462.829	1431.09
463.201	1435.84
463.574	1448.04
463.947	1440.13
464.32	1462.28
464.692	1490.07
465.065	1506.12
465.438	1526.23
465.81	1510.86
466.183	1514.71
466.555	1548.15
466.928	1570.75
467.3	1561.48
467.672	1580.69
468.045	1605.55
468.417	1647.81
468.789	1623.4
469.161	1639.9
469.534	1720.8
469.906	1679.22
470.278	1713.34
470.65	1730.07
471.022	1710.18
471.394	1786.56
471.766	1809.16
472.138	1797.41
472.51	1834.25
472.882	1909.05
473.253	1885.09
473.625	1859.1
473.997	1924.86
474.369	1905.43
474.74	1908.82
475.112	1953.56
475.484	1996.05
475.855	2014.81
476.227	2014.35
476.598	2096.16
476.97	2093.22
477.341	2105.65
477.713	2145.2
478.084	2152.43
478.455	2190.85
478.827	2225.2
479.198	2248.7
479.569	2268.81
479.94	2307.23
480.311	2396.72
480.682	2371.63
481.053	2378.19
481.424	2473.55
481.795	2482.14
482.166	2504.28
482.537	2504.28
482.908	2547.67
483.279	2582.25
483.65	2590.84
484.021	2675.35
484.391	2693.43
484.762	2695.24
485.133	2710.61
485.503	2746.09
485.874	2814.56
486.244	2825.18
486.615	2870.15
486.985	2853.2
487.356	2914.22
487.726	2955.12
488.097	3009.81
488.467	3006.64
488.837	3043.25
489.207	3124.38
489.578	3123.48
489.948	3132.74
490.318	3185.85
490.688	3220.65
491.058	3258.16
491.428	3272.85
491.798	3304.04
492.168	3339.29
492.538	3353.98
492.908	3387.88
493.278	3432.17
493.648	3474.43
494.017	3455.22
494.387	3487.54
494.757	3512.85
495.126	3572.05
495.496	3526.18
495.866	3579.06
496.235	3620.41
496.605	3656.12
496.974	3659.06
497.344	3673.75
497.713	3698.6
498.082	3733.18
498.452	3754.87
498.821	3751.71
499.19	3796.23
499.559	3819.28
499.928	3854.08
500.298	3817.02
500.667	3836
501.036	3893.4
501.405	3890.69
501.774	3906.96
502.143	3944.7
502.512	3942.21
502.88	3995.32
503.249	3968.43
503.618	4005.94
503.987	3998.26
504.356	4074.86
504.724	4042.1
505.093	4011.14
505.462	4038.71
505.83	4101.53
506.199	4122.77
506.567	4172.72
506.936	4138.82
507.304	4208.87
507.672	4180.85
508.041	4208.42
508.409	4206.39
508.777	4259.27
509.145	4308.53
509.514	4289.55
509.882	4283.22
510.25	4311.92
510.618	4323.45
510.986	4299.27
511.354	4353.5
511.722	4395.76
512.09	4431.24
512.458	4404.12
512.826	4468.07
513.193	4446.15
513.561	4461.3
513.929	4449.77
514.297	4477.57
514.664	4469.66
515.032	4512.14
515.4	4546.04
515.767	4542.65
516.135	4571.57
516.502	4521.18
516.869	4548.75
517.237	4588.07
517.604	4586.94
517.972	4603.21
518.339	4647.73
518.706	4636.21
519.073	4705.13
519.44	4669.65
519.808	4698.58
520.175	4684.57
520.542	4721.63
520.909	4732.93
521.276	4798.01
521.643	4795.98
522.009	4783.32
522.376	4826.26
522.743	4848.86
523.11	4855.41
523.477	4945.58
523.843	4923.43
524.21	4960.04
524.577	4992.81
524.943	4968.63
525.31	5022.86
525.676	5076.19
526.043	5098.79
526.409	5059.25
526.776	5154.61
527.142	5153.48
527.508	5152.12
527.874	5215.17
528.241	5247.49
528.607	5210.2
528.973	5277.54
529.339	5258.56
529.705	5312.12
530.071	5367.71
530.437	5354.6
530.803	5435.73
531.169	5451.33
531.535	5388.73
531.901	5444.32
532.267	5542.17
532.632	5517.31
532.998	5545.56
533.364	5546.01
533.73	5556.63
534.095	5610.64
534.461	5609.51
534.826	5663.75
535.192	5644.54
535.557	5670.53
535.923	5729.06
536.288	5734.03
536.653	5786.68
537.019	5781.94
537.384	5773.13
537.749	5811.54
538.114	5821.94
538.479	5849.96
538.845	5870.3
539.21	5863.29
539.575	5897.42
539.94	5927.47
540.305	5989.84
540.67	5935.83
541.034	6016.51
541.399	6050.63
541.764	6052.21
542.129	6080.69
542.494	6082.72
542.858	6082.04
543.223	6142.61
543.587	6169.72
543.952	6173.57
544.316	6204.98
544.681	6223.51
545.045	6252.89
545.41	6315.94
545.774	6264.64
546.138	6311.42
546.503	6377.18
546.867	6364.52
547.231	6435.71
547.595	6394.8
547.959	6450.62
548.324	6426.89
548.688	6495.59
549.052	6566.1
549.416	6539.21
549.779	6506.21
550.143	6554.8
550.507	6588.7
550.871	6630.28
551.235	6634.8
551.599	6672.54
551.962	6732.65
552.326	6672.76
552.689	6740.11
553.053	6757.96
553.417	6719.54
553.78	6877.05
554.143	6808.13
554.507	6818.07
554.87	6874.79
555.234	6852.64
555.597	6850.38
555.96	6864.17
556.323	6922.93
556.686	6897.39
557.05	7021
557.413	7000.66
557.776	7015.13
558.139	7087.67
558.502	7048.57
558.865	7053.54
559.228	7133.32
559.59	7124.05
559.953	7147.1
560.316	7216.02
560.679	7236.14
561.041	7269.81
561.404	7269.58
561.767	7295.57
562.129	7290.6
562.492	7357.04
562.854	7294.21
563.217	7367.21
563.579	7344.16
563.941	7413.31
564.304	7509.12
564.666	7489.01
565.028	7481.78
565.39	7523.81
565.753	7491.5
566.115	7586.86
566.477	7604.26
566.839	7688.33
567.201	7715.9
567.563	7644.04
567.925	7668.89
568.287	7712.74
568.648	7743.02
569.01	7813.3
569.372	7863.47
569.734	7848.55
570.095	7907.08
570.457	7919.51
570.819	7965.84
571.18	7986.4
571.542	7990.02
571.903	8051.03
572.265	8138.49
572.626	8150.46
572.987	8204.7
573.349	8208.32
573.71	8296
574.071	8319.5
574.432	8392.94
574.794	8480.85
575.155	8508.42
575.516	8505.03
575.877	8538.93
576.238	8623.45
576.599	8719.26
576.96	8796.32
577.32	8817.11
577.681	8982.08
578.042	9032.25
578.403	9109.76
578.763	9116.77
579.124	9247.84
579.485	9366.02
579.845	9464.33
580.206	9549.75
580.566	9619.13
580.927	9759.23
581.287	9884.66
581.648	9981.15
582.008	10158.77
582.368	10267.47
582.728	10434.02
583.089	10511.76
583.449	10616.16
583.809	10827.46
584.169	11040.33
584.529	11197.84
584.889	11449.36
585.249	11453.43
585.609	11626.08
585.969	11939.06
586.329	12092.51
586.688	12388.77
587.048	12520.29
587.408	12847.52
587.768	12929.77
588.127	13119.6
588.487	13435.52
588.846	13789.19
589.206	13822.86
589.565	14070.08
589.925	14468.26
590.284	14580.35
590.643	14889.04
591.003	15145.76
591.362	15550.5
591.721	15735.8
592.08	16043.14
592.44	16307.76
592.799	16618.26
593.158	16732.61
593.517	17142.32
593.876	17486.26
594.235	17622.08
594.593	18015.52
594.952	18307.71
595.311	18535.28
595.67	18831.54
596.029	19275.37
596.387	19559.66
596.746	19840.55
597.104	19964.16
597.463	20235.8
597.822	20763.92
598.18	20917.36
598.538	21251.36
598.897	21572.26
599.255	21612.71
599.613	22283.43
599.972	22439.35
600.33	22723.64
600.688	22979
601.046	23285.88
601.404	23655.59
601.762	23824.18
602.12	24210.83
602.478	24416.02
602.836	24774.66
603.194	24806.75
603.552	25128.1
603.91	25366.96
604.268	25768.98
604.625	25853.95
604.983	26231.57
605.341	26273.15
605.698	26686.7
606.056	27026.58
606.413	27202.39
606.771	27654.13
607.128	27761.7
607.485	28030.17
607.843	28234.46
608.2	28530.27
608.557	28799.64
608.914	28920.76
609.272	29202.34
609.629	29427.87
609.986	29916.22
610.343	29868.76
610.7	30262.2
611.057	30436.43
611.414	30572.92
611.771	30772.69
612.127	31016.08
612.484	31172.46
612.841	31375.39
613.198	31461.04
613.554	31665.33
613.911	31929.5
614.267	32075.94
614.624	32221.24
614.98	32519.99
615.337	32747.78
615.693	32884.5
616.05	32868.91
616.406	33227.32
616.762	33272.51
617.118	33361.78
617.475	33495.11
617.831	33757.47
618.187	33978.49
618.543	34070.46
618.899	34305.03
619.255	34377.34
619.611	34573.72
619.967	34769.42
620.323	34725.13
620.678	34858.01
621.034	34918.12
621.39	35095.74
621.746	35081.96
622.101	35582.06
622.457	35448.95
622.812	35620.02
623.168	35745.67
623.523	35855.95
623.879	35953.8
624.234	35889.17
624.589	36057.07
624.945	36130.29
625.3	36305.66
625.655	36260.68
626.01	36491.87
626.365	36489.83
626.72	36503.62
627.075	36510.85
627.43	36646.44
627.785	36680.33
628.14	36603.05
628.495	36890.72
628.85	36789.48
629.205	36732.99
629.559	37070.83
629.914	37036.26
630.269	37040.1
630.623	37051.4
630.978	36999.2
631.332	37216.82
631.687	37277.83
632.041	37117.84
632.396	37367.55
632.75	37183.37
633.104	37457.26
633.459	37331.17
633.813	37301.56
634.167	37206.87
634.521	37327.1
634.875	37455.68
635.229	37417.94
635.583	37204.39
635.937	37308.79
636.291	37265.18
636.645	37360.09
636.999	37328
637.352	37455
637.706	37202.58
638.06	37327.55
638.413	37262.69
638.767	37321
639.121	37255.46
639.474	37078.74
639.828	37287.32
640.181	37294.1
640.534	37302.92
640.888	37145.63
641.241	37106.99
641.594	37205.52
641.947	37267.21
642.301	37340.43
642.654	37210.26
643.007	37217.04
643.36	37242.13
643.713	37118.97
644.066	37249.13
644.419	37073.09
644.771	36875.13
645.124	36572.99
645.477	36553.33
645.83	36249.39
646.182	36264.07
646.535	36229.95
646.888	36188.6
647.24	36061.82
647.593	36194.02
647.945	36173.68
648.298	36055.04
648.65	35968.04
649.002	35935.72
649.355	36221.59
649.707	36083.97
650.059	36236.05
650.411	36589.04
650.763	36536.84
651.115	36886.43
651.467	36909.71
651.819	36972.08
652.171	36776.38
652.523	36725.53
652.875	36822.93
653.227	36625.42
653.578	36926.2
653.93	36589.94
654.282	36546.1
654.633	36609.83
654.985	36673.1
655.337	36675.36
655.688	36700.9
656.039	36845.53
656.391	36350.17
656.742	36565.99
657.094	36536.61
657.445	36598.98
657.796	36584.52
658.147	36403.51
658.498	36408.48
658.849	36578.87
659.2	36491.41
659.551	36433.34
659.902	36479.21
660.253	36593.56
660.604	36505.2
660.955	36445.54
661.306	36602.37
661.656	36456.16
662.007	36437.63
662.358	36424.3
662.708	36480.79
663.059	36448.7
663.409	36307.01
663.76	36551.52
664.11	36515.82
664.461	36500.45
664.811	36578.64
665.161	36464.3
665.511	36429.72
665.862	36566.44
666.212	36577.29
666.562	36538.42
666.912	36349.04
667.262	36376.84
667.612	36405.99
667.962	36425.65
668.312	36355.15
668.662	36530.28
669.011	36375.26
669.361	36414.58
669.711	36293.9
670.06	36211.42
670.41	36223.4
670.76	36307.01
671.109	36444.86
671.459	36287.58
671.808	36260.46
672.157	36269.72
672.507	36050.07
672.856	36194.25
673.205	36114.93
673.554	36145.43
673.904	36074.93
674.253	36255.49
674.602	36142.72
674.951	35775.95
675.3	35452.12
675.649	36104.98
675.998	36005.78
676.346	36009.39
676.695	36304.3
677.044	35882.62
677.393	35829.06
677.741	35998.32
678.09	35932.11
678.438	35774.37
678.787	35959
679.135	35951.99
679.484	35784.31
679.832	35751.09
680.181	35573.02
680.529	35799
680.877	35612.79
681.225	35593.13
681.573	35740.47
681.922	35509.97
682.27	35573.7
682.618	35391.33
682.966	35490.31
683.314	35469.52
683.661	35354.27
684.009	35116.31
684.357	35136.65
684.705	35180.26
685.053	35138
685.4	35137.1
685.748	34914.05
686.095	34901.62
686.443	34794.96
686.79	34848.29
687.138	34786.37
687.485	34896.2
687.832	34685.81
688.18	34696.21
688.527	34503.9
688.874	34430
689.221	34469.77
689.568	34327.4
689.915	34352.03
690.262	34218.93
690.609	34182.32
690.956	33999.28
691.303	34004.02
691.65	33920.18
691.997	34006.96
692.344	33543.92
692.69	33673.18
693.037	33760.86
693.383	33452.62
693.73	33509.12
694.077	33376.69
694.423	33511.15
694.769	33317.49
695.116	33206.3
695.462	33137.38
695.808	32997.27
696.155	33135.8
696.501	32887.21
696.847	32847.89
697.193	32529.94
697.539	32837.27
697.885	32446.55
698.231	32335.36
698.577	32464.85
698.923	32346.89
699.269	32171.75
699.614	31970.63
699.96	32102.15
700.306	32085.2
700.651	31842.04
700.997	31696.74
701.342	31817.41
701.688	31744.19
702.033	31625.1
702.379	31596.4
702.724	31495.61
703.069	31586.01
703.415	31230.99
703.76	31164.77
704.105	31118.45
704.45	31139.69
704.795	30994.61
705.14	30783.54
705.485	30897.21
705.83	30591.46
706.175	30806.82
706.52	30582.42
706.865	30563.21
707.209	30453.61
707.554	30430.56
707.899	30500.16
708.243	30275.08
708.588	30358.47
708.932	30124.12
709.277	30028.76
709.621	30064.92
709.966	29838.25
710.31	29943.11
710.654	29777.01
710.998	29805.94
711.342	29745.15
711.687	29708.31
712.031	29547.19
712.375	29467.87
712.719	29558.94
713.063	29433.97
713.407	29484.37
713.75	29269.46
714.094	29352.17
714.438	29239.63
714.782	29201.66
715.125	29099.29
715.469	29125.28
715.812	29002.57
716.156	28751.96
716.499	28804.16
716.843	28877.83
717.186	28704.05
717.53	28817.04
717.873	28761.9
718.216	28724.61
718.559	28548.57
718.902	28362.59
719.246	28531.17
719.589	28332.53
719.932	28259.77
720.275	28389.93
720.617	28337.96
720.96	28158.98
721.303	28142.25
721.646	28177.73
721.989	27888.7
722.331	28055.25
722.674	28037.85
723.016	27957.63
723.359	27899.55
723.701	27870.62
724.044	27689.84
724.386	27726.67
724.729	27835.14
725.071	27718.76
725.413	27711.98
725.755	27570.52
726.097	27525.1
726.439	27389.73
726.782	27390.86
727.124	27576.62
727.465	27323.29
727.807	27229.74
728.149	27217.31
728.491	27200.13
728.833	27372.33
729.175	27242.84
729.516	27063.64
729.858	27123.07
730.199	27131.66
730.541	27049.4
730.882	26978.9
731.224	26955.17
731.565	26904.32
731.906	26875.85
732.248	26924.21
732.589	26743.65
732.93	26632.24
733.271	26700.03
733.612	26632.69
733.953	26646.93
734.294	26495.29
734.635	26436.76
734.976	26525.8
735.317	26500.26
735.658	26382.53
735.999	26368.29
736.339	26345.69
736.68	26394.96
737.021	26296.2
737.361	26094.4
737.702	26212.59
738.042	26134.17
738.383	26046.72
738.723	26138.69
739.063	26004.68
739.404	26068.41
739.744	25973.27
740.084	25991.8
740.424	25912.48
740.764	25897.57
741.104	25888.3
741.444	25738.25
741.784	25710.45
742.124	25816.44
742.464	25765.59
742.804	25824.8
743.143	25578.48
743.483	25673.17
743.823	25625.48
744.162	25498.71
744.502	25482.44
744.841	25279.28
745.181	25491.93
745.52	25454.87
745.86	25389.33
746.199	25258.71
746.538	25228.43
746.877	25304.59
747.216	25270.24
747.556	25166.51
747.895	25161.32
748.234	25090.58
748.573	25002.68
748.911	25014.65
749.25	25003.58
749.589	24853.98
749.928	24917.03
750.267	24882.45
750.605	24777.82
750.944	24748.9
751.283	24558.39
751.621	24688.79
751.96	24662.35
752.298	24635.23
752.636	24530.37
752.975	24416.02
753.313	24296.03
753.651	24429.58
753.989	24273.2
754.327	24249.48
754.666	24116.15
755.004	24241.57
755.342	24030.95
755.679	24119.76
756.017	23972.42
756.355	24018.97
756.693	23959.77
757.031	23930.16
757.368	23797.28
757.706	23796.38
758.044	23607.68
758.381	23687
758.719	23621.92
759.056	23677.06
759.394	23524.52
759.731	23439.78
760.068	23406.11
760.405	23323.17
760.743	23275.49
761.08	23274.36
761.417	23135.61
761.754	23105.78
762.091	23026.91
762.428	22995.5
762.765	22791.89
763.102	22869.85
763.438	22757.09
763.775	22614.72
764.112	22615.39
764.449	22671.21
764.785	22489.07
765.122	22423.08
765.458	22345.34
765.795	22368.17
766.131	22167.95
766.467	22151.45
766.804	21999.14
767.14	21864.68
767.476	21984.68
767.812	21749.2
768.148	21830.1
768.485	21716.66
768.821	21551.92
769.157	21597.79
769.492	21506.95
769.828	21521.64
770.164	21307.18
770.5	21301.3
770.836	21190.12
771.171	21193.06
771.507	21165.94
771.842	20949
772.178	20828.77
772.513	20894.54
772.849	20730.25
773.184	20702.45
773.519	20744.03
773.855	20598.27
774.19	20496.81
774.525	20501.55
774.86	20271.05
775.195	20413.87
775.53	20227.43
775.865	20073.54
776.2	19980.66
776.535	19940.21
776.87	19936.14
777.205	19911.28
777.539	19757.62
777.874	19757.62
778.209	19586.1
778.543	19461.35
778.878	19380.9
779.212	19414.35
779.547	19325.09
779.881	19304.52
780.215	19194.92
780.55	19300.45
780.884	19100.91
781.218	19043.51
781.552	19115.37
781.886	18978.2
782.22	18906.57
782.554	18820.47
782.888	18599.91
783.222	18534.6
783.556	18457.09
783.889	18411.89
784.223	18324.89
784.557	18192.69
784.89	18302.74
785.224	18164.89
785.557	18043.54
785.891	18034.95
786.224	17986.59
786.558	18011.67
786.891	17782.75
787.224	17663.21
787.557	17636.32
787.891	17723.55
788.224	17680.16
788.557	17600.38
788.89	17613.27
789.223	17516.09
789.556	17444
789.888	17346.15
790.221	17251.47
790.554	17196.78
790.887	17168.31
791.219	17089.66
791.552	17013.73
791.884	16950.46
792.217	16841.76
792.549	16914.75
792.882	16752.05
793.214	16697.13
793.546	16733.29
793.879	16620.3
794.211	16493.97
794.543	16553.41
794.875	16527.64
795.207	16562.22
795.539	16343.24
795.871	16362.68
796.203	16222.34
796.535	16147.77
796.867	16097.6
797.198	16019.41
797.53	16118.16
797.862	15971.5
798.193	16027.32
798.525	15876.59
798.856	15939.86
799.188	15679.08
799.519	15675.24
799.85	15566.54
800.182	15618.52
800.513	15636.59
800.844	15428.01
801.175	15493.55
801.506	15473.21
801.837	15332.42
802.168	15330.16
802.499	15255.59
802.83	15249.26
803.161	15182.37
803.491	15182.37
803.822	15094.01
804.153	15133.78
804.483	14906.22
804.814	14916.39
805.145	14928.82
805.475	14843.62
805.805	14767.24
806.136	14826.22
806.466	14718.88
806.796	14741.02
807.126	14659.9
807.457	14544.65
807.787	14634.81
808.117	14581.48
808.447	14488.38
808.777	14524.99
809.107	14390.3
809.436	14458.55
809.766	14325.22
810.096	14346.23
810.426	14288.83
810.755	14147.37
811.085	14285.44
811.414	14158.89
811.744	14131.55
812.073	14128.39
812.403	14026.47
812.732	13958.67
813.061	14027.15
813.39	13907.83
813.719	13910.54
814.049	13930.88
814.378	13807.49
814.707	13817.21
815.036	13690.88
815.365	13688.4
815.693	13572.24
816.022	13576.54
816.351	13511.9
816.68	13464.45
817.008	13579.7
817.337	13357.56
817.665	13489.53
817.994	13367.05
818.322	13372.47
818.651	13348.97
818.979	13313.49
819.307	13339.48
819.636	13304
819.964	13162.76
820.292	13240.27
820.62	13259.93
820.948	13134.74
821.276	13211.35
821.604	13127.73
821.932	13207.96
822.259	13169.31
822.587	13111.69
822.915	13141.29
823.243	13153.95
823.57	13108.98
823.898	13090.9
824.225	13120.95
824.553	13104.46
824.88	13123.89
825.207	13089.09
825.535	13080.28
825.862	13219.03
826.189	13082.31
826.516	13134.06
826.843	13081.41
827.17	13143.33
827.497	13077.34
827.824	13105.36
828.151	13199.6
828.478	13097.45
828.805	13147.39
829.131	13069.43
829.458	13019.26
829.785	13016.78
830.111	13028.98
830.438	13163.44
830.764	13106.94
831.09	13138.36
831.417	12962.31
831.743	13011.13
832.069	13035.53
832.395	12997.34
832.722	12978.81
833.048	12932.26
833.374	12968.19
833.7	12944.24
834.026	12923.67
834.351	12882.32
834.677	12923.22
835.003	12906.27
835.329	12965.7
835.654	12854.52
835.98	12821.75
836.306	12851.13
836.631	12748.99
836.956	12811.36
837.282	12802.54
837.607	12703.34
837.932	12692.72
838.258	12717.35
838.583	12704.24
838.908	12575.88
839.233	12611.82
839.558	12624.02
839.883	12554.87
840.208	12476.23
840.533	12540.86
840.858	12563
841.182	12438.94
841.507	12461.54
841.832	12496.56
842.156	12415.66
842.481	12413.4
842.805	12362.1
843.13	12348.09
843.454	12308.09
843.778	12338.38
844.103	12306.96
844.427	12230.81
844.751	12203.92
845.075	12231.71
845.399	12139.96
845.723	12047.54
846.047	12116.46
846.371	11994.88
846.695	12017.48
847.019	11920.31
847.343	11817.49
847.666	11824.27
847.99	11783.59
848.313	11746.75
848.637	11695.23
848.96	11615.46
849.284	11564.61
849.607	11547.44
849.931	11496.36
850.254	11457.95
850.577	11254.34
850.9	11257.73
851.223	11314
851.546	11176.15
851.869	11203.49
852.192	11192.64
852.515	11062.7
852.838	11050.95
853.161	11021.12
853.483	10965.53
853.806	10972.54
854.129	10861.13
854.451	10888.47
854.774	10886.21
855.096	10823.39
855.419	10719.44
855.741	10748.81
856.063	10626.56
856.385	10606.67
856.708	10532.55
857.03	10612.32
857.352	10600.79
857.674	10578.42
857.996	10446.22
858.318	10449.61
858.64	10500.91
858.961	10406.9
859.283	10328.49
859.605	10311.54
859.926	10312.21
860.248	10284.19
860.57	10309.28
860.891	10298.2
861.212	10197.19
861.534	10169.39
861.855	10185.44
862.176	10094.82
862.498	10235.15
862.819	10137.98
863.14	10129.17
863.461	10115.16
863.782	10031.09
864.103	10013.47
864.424	10039
864.745	10044.2
865.065	9969.62
865.386	9959.68
865.707	9902.73
866.027	9938.67
866.348	9903.86
866.668	9887.14
866.989	9895.05
867.309	9841.94
867.63	9908.38
867.95	9822.51
868.27	9761.72
868.59	9791.55
868.91	9798.78
869.23	9761.27
869.55	9683.08
869.87	9695.96
870.19	9709.52
870.51	9719.69
870.83	9703.87
871.15	9613.25
871.469	9617.54
871.789	9634.94
872.109	9674.72
872.428	9555.62
872.748	9592.46
873.067	9606.24
873.386	9597.66
873.706	9511.33
874.025	9561.95
874.344	9533.25
874.663	9562.18
874.982	9460.26
875.301	9484.21
875.62	9403.31
875.939	9366.7
876.258	9412.13
876.577	9397.21
876.896	9382.52
877.214	9342.75
877.533	9428.4
877.852	9288.06
878.17	9230.89
878.489	9290.55
878.807	9351.79
879.125	9233.6
879.444	9285.12
879.762	9219.59
880.08	9269.98
880.398	9134.17
880.716	9246.48
881.034	9218.23
881.352	9148.4
881.67	9102.76
881.988	9060.04
882.306	9150.66
882.624	9085.13
882.941	9032.93
883.259	9006.03
883.577	9008.75
883.894	9014.4
884.212	8963.55
884.529	8932.59
884.846	8948.41
885.164	8901.18
885.481	8914.06
885.798	8880.61
886.115	8756.32
886.432	8838.58
886.75	8788.19
887.067	8799.94
887.383	8754.97
887.7	8717.23
888.017	8695.08
888.334	8727.17
888.651	8596.78
888.967	8650.56
889.284	8553.84
889.6	8602.66
889.917	8538.93
890.233	8571.92
890.55	8487.86
890.866	8549.32
891.182	8505.48
891.498	8455.99
891.815	8432.26
892.131	8476.1
892.447	8392.49
892.763	8343.23
893.079	8326.73
893.395	8352.27
893.71	8284.7
894.026	8254.87
894.342	8241.08
894.657	8209.9
894.973	8225.26
895.289	8182.1
895.604	8177.13
895.92	8106.17
896.235	8082.67
896.55	8085.15
896.865	8023.24
897.181	8029.56
897.496	8014.2
897.811	7973.52
898.126	7873.18
898.441	7924.93
898.756	7911.15
899.071	7871.83
899.386	7911.83
899.7	7823.01
900.015	7758.16
900.33	7772.39
900.644	7734.66
900.959	7685.17
901.273	7621.44
901.588	7678.16
901.902	7598.61
902.216	7515
902.531	7476.13
902.845	7527.2
903.159	7461.44
903.473	7414.21
903.787	7393.42
904.101	7405.62
904.415	7441.1
904.729	7333.08
905.042	7248.11
905.356	7267.32
905.67	7268.45
905.984	7248.11
906.297	7177.61
906.611	7204.73
906.924	7133.99
907.237	7141.22
907.551	7132.19
907.864	7080.21
908.177	7040.66
908.491	7045.63
908.804	6993.43
909.117	7006.54
909.43	6962.92
909.743	6887.45
910.056	6905.75
910.368	6817.84
910.681	6841.8
910.994	6768.81
911.307	6744.85
911.619	6750.27
911.932	6743.5
912.244	6650.84
912.557	6701.69
912.869	6634.8
913.181	6637.28
913.494	6587.34
913.806	6538.3
914.118	6526.1
914.43	6480.9
914.742	6471.64
915.054	6472.32
915.366	6429.38
915.678	6409.27
915.99	6357.52
916.302	6305.31
916.613	6291.08
916.925	6309.38
917.236	6297.18
917.548	6204.98
917.859	6224.86
918.171	6206.11
918.482	6165.43
918.794	6189.16
919.105	6128.6
919.416	6104.42
919.727	6045.66
920.038	6064.42
920.349	6007.02
920.66	5952.56
920.971	6008.37
921.282	5928.15
921.593	5905.1
921.903	5866.46
922.214	5851.09
922.525	5785.55
922.835	5839.34
923.146	5742.39
923.456	5791.66
923.767	5732
924.077	5690.19
924.387	5664.2
924.697	5686.57
925.008	5637.54
925.318	5580.14
925.628	5596.18
925.938	5588.27
926.248	5521.15
926.558	5545.79
926.867	5504.88
927.177	5519.12
927.487	5445.68
927.796	5416.75
928.106	5421.5
928.416	5421.72
928.725	5371.1
929.034	5351.44
929.344	5366.36
929.653	5357.99
929.962	5294.95
930.271	5261.05
930.581	5198.68
930.89	5198.22
931.199	5193.93
931.508	5175.63
931.817	5134.5
932.125	5120.26
932.434	5062.86
932.743	5077.32
933.051	5076.19
933.36	5032.35
933.669	5001.17
933.977	4960.94
934.286	4984.45
934.594	4976.08
934.902	4966.14
935.21	4880.72
935.519	4876.2
935.827	4887.5
936.135	4822.19
936.443	4807.95
936.751	4769.99
937.059	4796.2
937.367	4728.63
937.674	4731.57
937.982	4692.93
938.29	4738.8
938.597	4668.3
938.905	4604.12
939.213	4583.55
939.52	4613.83
939.827	4625.58
940.135	4624.68
940.442	4545.59
940.749	4587.85
941.056	4574.29
941.363	4472.37
941.67	4482.76
941.977	4502.2
942.284	4459.49
942.591	4446.38
942.898	4394.63
943.205	4431.92
943.511	4363.22
943.818	4383.78
944.125	4340.85
944.431	4347.85
944.738	4284.35
945.044	4306.95
945.35	4270.57
945.657	4216.56
945.963	4241.41
946.269	4204.35
946.575	4185.37
946.881	4171.59
947.187	4139.04
947.493	4118.93
947.799	4136.11
948.105	4089.78
948.41	4071.47
948.716	4091.81
949.022	4035.77
949.327	4002.78
949.633	4006.17
949.938	3960.07
950.244	3952.83
950.549	3982.66
950.854	3943.12
951.16	3951.93
951.465	3876
951.77	3871.93
952.075	3872.38
952.38	3845.72
952.685	3871.48
952.99	3798.04
953.294	3814.08
953.599	3807.08
953.904	3763.69
954.209	3777.02
954.513	3751.03
954.818	3704.25
955.122	3726.4
955.426	3690.69
955.731	3714.87
956.035	3676.23
956.339	3682.33
956.643	3709.9
956.948	3614.99
957.252	3581.32
957.556	3578.38
957.86	3609.34
958.163	3553.3
958.467	3566.18
958.771	3555.56
959.075	3520.75
959.378	3534.77
959.682	3519.17
959.985	3457.03
960.289	3484.37
960.592	3442.11
960.896	3401.89
961.199	3430.36
961.502	3377.26
961.805	3415.45
962.108	3326.64
962.411	3350.59
962.714	3337.26
963.017	3344.71
963.32	3342.23
963.623	3313.98
963.926	3291.38
964.228	3296.58
964.531	3238.95
964.833	3224.27
965.136	3228.33
965.438	3198.5
965.741	3193.08
966.043	3223.14
966.345	3139.07
966.648	3139.3
966.95	3149.92
967.252	3106.98
967.554	3107.66
967.856	3103.36
968.158	3096.13
968.46	3046.19
968.761	3083.93
969.063	3022.24
969.365	3023.14
969.666	3021.78
969.968	3008.9
970.269	2983.59
970.571	3002.8
970.872	2970.71
971.174	2914.22
971.475	2936.59
971.776	2930.04
972.077	2929.81
972.378	2905.18
972.679	2922.58
972.98	2908.12
973.281	2890.71
973.582	2864.05
973.883	2824.73
974.183	2835.12
974.484	2806.65
974.785	2849.59
975.085	2784.5
975.386	2788.12
975.686	2768.91
975.986	2772.75
976.287	2753.54
976.587	2705.18
976.887	2718.74
977.187	2714
977.487	2740.89
977.787	2695.69
978.087	2660.89
978.387	2688.69
978.687	2668.12
978.987	2648.24
979.286	2633.32
979.586	2632.64
979.885	2630.38
980.185	2557.84
980.484	2584.96
980.784	2570.27
981.083	2556.26
981.382	2542.25
981.682	2549.93
981.981	2528.24
982.28	2530.72
982.579	2501.57
982.878	2488.69
983.177	2501.12
983.475	2481.91
983.774	2451.63
984.073	2460.44
984.372	2441.46
984.67	2430.84
984.969	2418.64
985.267	2417.06
985.566	2412.54
985.864	2425.87
986.162	2384.74
986.461	2345.87
986.759	2401.24
987.057	2323.72
987.355	2326.66
987.653	2341.8
987.951	2316.94
988.249	2289.15
988.547	2312.2
988.844	2286.21
989.142	2282.82
989.44	2298.87
989.737	2276.72
990.035	2247.34
990.332	2258.42
990.63	2201.02
990.927	2222.94
991.224	2212.77
991.521	2199.89
991.819	2177.97
992.116	2178.64
992.413	2129.61
992.71	2157.85
993.006	2141.58
993.303	2173.67
993.6	2133.22
993.897	2111.75
994.193	2146.1
994.49	2097.97
994.787	2073.11
995.083	2095.48
995.379	2037.86
995.676	2042.83
995.972	2024.07
996.268	2069.49
996.565	2017.29
996.861	2054.8
997.157	2015.48
997.453	2002.15
997.749	1997.18
998.044	1968.93
998.34	1979.78
998.636	1947.69
998.932	1955.82
999.227	1930.51
999.523	1937.52
999.818	1933.23
1000.114	1942.27
1000.409	1906.33
1000.704	1894.58
1001	1910.85
1001.295	1865.43
1001.59	1858.43
1001.885	1874.24
1002.18	1842.61
1002.475	1840.35
1002.77	1834.02
1003.065	1778.2
1003.359	1819.1
1003.654	1807.13
1003.949	1774.59
1004.243	1769.61
1004.538	1771.65
1004.832	1751.99
1005.127	1777.3
1005.421	1750.86
1005.715	1751.76
1006.009	1711.76
1006.304	1735.04
1006.598	1727.36
1006.892	1721.48
1007.186	1679.67
1007.48	1704.98
1007.773	1649.39
1008.067	1676.74
1008.361	1657.75
1008.655	1670.18
1008.948	1640.13
1009.242	1622.5
1009.535	1616.85
1009.829	1590.41
1010.122	1576.63
1010.415	1595.38
1010.708	1596.51
1011.001	1582.95
1011.295	1598.09
1011.588	1532.56
1011.881	1544.31
1012.173	1530.07
1012.466	1505.44
1012.759	1528.94
1013.052	1497.31
1013.344	1523.29
1013.637	1523.29
1013.93	1466.8
1014.222	1478.55
1014.514	1489.4
1014.807	1474.93
1015.099	1446.23
1015.391	1440.81
1015.683	1409.62
1015.976	1418.66
1016.268	1430.41
1016.56	1421.6
1016.851	1399
1017.143	1403.07
1017.435	1379.79
1017.727	1387.93
1018.018	1389.06
1018.31	1347.93
1018.602	1359.23
1018.893	1351.32
1019.185	1356.74
1019.476	1311.32
1019.767	1312.23
1020.058	1307.71
1020.35	1291.89
1020.641	1288.5
1020.932	1307.48
1021.223	1280.81
1021.514	1316.75
1021.804	1259.8
1022.095	1243.98
1022.386	1232.91
1022.677	1235.17
1022.967	1216.41
1023.258	1245.79
1023.548	1220.02
1023.839	1207.37
1024.129	1191.55
1024.419	1224.32
1024.709	1173.47
1025	1140.48
1025.29	1153.59
1025.58	1156.75
1025.87	1166.47
1026.16	1137.31
1026.449	1150.87
1026.739	1123.08
1027.029	1113.81
1027.319	1100.71
1027.608	1115.62
1027.898	1129.18
1028.187	1115.62
1028.477	1104.77
1028.766	1116.98
1029.055	1072.68
1029.344	1074.27
1029.634	1044.21
1029.923	1055.96
1030.212	1048.96
1030.501	1050.31
1030.79	1004.44
1031.078	1031.33
1031.367	1025
1031.656	1027.94
1031.945	1034.49
1032.233	1047.37
1032.522	1033.14
1032.81	1005.11
1033.099	986.13
1033.387	975.74
1033.675	975.29
1033.963	962.86
1034.251	954.49
1034.54	977.09
1034.828	953.14
1035.116	926.92
1035.403	933.25
1035.691	910.88
1035.979	932.8
1036.267	933.7
1036.554	901.16
1036.842	919.92
1037.129	920.15
1037.417	893.03
1037.704	923.76
1037.992	902.52
1038.279	891.67
1038.566	888.73
1038.853	888.73
1039.14	888.73
