Data from hue_30_FLMS001491_32.txt Node
Date: Mon Feb 06 15:05:11 GMT 2017
User: dcchb
Spectrometer: FLMS00149
Trigger mode: 0
Integration Time (sec): 2.000000E-2
Scans to average: 10
Electric dark correction enabled: true
Nonlinearity correction enabled: false
Boxcar width: 0
XAxis mode: Wavelengths
Number of Pixels in Spectrum: 2048
>>>>>Begin Spectral Data<<<<<
341.393	-17.06
341.776	-17.06
342.16	-17.06
342.543	-55.7
342.927	-80.56
343.31	-79.66
343.693	-50.96
344.077	-59.55
344.46	-52.09
344.843	-79.21
345.226	-48.93
345.61	-23.39
345.993	-29.26
346.376	-3.73
346.759	10.28
347.142	19.1
347.525	50.06
347.908	57.74
348.291	80.79
348.674	100.45
349.057	108.36
349.44	114.69
349.823	140.9
350.206	154.01
350.588	198.53
350.971	199.2
351.354	206.44
351.737	231.97
352.119	249.37
352.502	246.66
352.884	267.22
353.267	268.35
353.65	294.57
354.032	290.05
354.414	291.86
354.797	305.64
355.179	297.73
355.562	321.46
355.944	331.4
356.326	326.88
356.709	318.07
357.091	346.54
357.473	344.51
357.855	321.91
358.238	338.86
358.62	327.34
359.002	328.01
359.384	325.53
359.766	325.08
360.148	326.88
360.53	337.28
360.912	318.3
361.294	316.04
361.676	319.65
362.057	339.99
362.439	321.69
362.821	324.62
363.203	308.58
363.584	305.19
363.966	317.17
364.348	344.51
364.729	314
365.111	317.62
365.493	296.83
365.874	301.57
366.256	297.73
366.637	310.16
367.019	308.35
367.4	315.36
367.781	316.26
368.163	320.56
368.544	320.33
368.925	317.84
369.306	314.23
369.688	320.56
370.069	286.66
370.45	312.87
370.831	326.21
371.212	306.55
371.593	320.78
371.974	304.96
372.355	298.18
372.736	319.43
373.117	308.58
373.498	311.07
373.879	319.43
374.26	329.82
374.641	315.13
375.021	306.32
375.402	312.42
375.783	307.45
376.163	339.77
376.544	316.04
376.925	333.66
377.305	342.48
377.686	315.58
378.066	329.82
378.447	312.87
378.827	324.17
379.208	322.14
379.588	334.57
379.968	311.29
380.349	339.54
380.729	344.74
381.109	343.15
381.489	344.51
381.87	361.46
382.25	333.21
382.63	319.2
383.01	328.24
383.39	337.28
383.77	329.82
384.15	324.62
384.53	356.71
384.91	340.89
385.29	342.7
385.67	353.1
386.049	343.15
386.429	325.3
386.809	366.43
387.189	337.73
387.568	328.24
387.948	362.59
388.328	345.64
388.707	338.86
389.087	365.08
389.466	342.48
389.846	346.77
390.225	372.98
390.605	354
390.984	368.46
391.363	366.88
391.743	366.21
392.122	349.71
392.501	355.36
392.881	371.63
393.26	366.88
393.639	335.47
394.018	356.26
394.397	378.41
394.776	370.05
395.155	353.78
395.534	355.36
395.913	368.24
396.292	380.44
396.671	371.85
397.05	369.59
397.429	373.66
397.808	376.6
398.186	372.76
398.565	375.92
398.944	389.48
399.323	357.17
399.701	379.09
400.08	362.59
400.458	386.32
400.837	393.1
401.215	394.68
401.594	387.45
401.972	367.11
402.351	388.8
402.729	391.29
403.107	399.42
403.486	386.32
403.864	415.92
404.242	398.29
404.62	409.14
404.999	408.01
405.377	396.03
405.755	407.33
406.133	400.78
406.511	396.03
406.889	412.76
407.267	412.53
407.645	424.28
408.023	418.18
408.401	429.71
408.779	443.72
409.156	415.02
409.534	439.88
409.912	445.07
410.29	448.24
410.667	432.19
411.045	417.5
411.422	430.61
411.8	433.32
412.178	438.75
412.555	440.1
412.933	464.06
413.31	429.25
413.687	451.63
414.065	461.12
414.442	452.98
414.819	463.38
415.197	467.45
415.574	470.16
415.951	467.22
416.328	474.22
416.705	466.09
417.082	481.46
417.46	485.07
417.837	497.5
418.214	482.81
418.591	483.49
418.967	480.1
419.344	484.62
419.721	510.38
420.098	480.33
420.475	493.21
420.852	506.31
421.228	507.22
421.605	485.07
421.982	516.48
422.358	502.47
422.735	524.62
423.111	498.18
423.488	523.04
423.864	539.31
424.241	542.25
424.617	537.5
424.994	550.16
425.37	528.23
425.746	546.99
426.123	551.74
426.499	524.84
426.875	555.35
427.251	556.26
427.627	557.39
428.003	559.42
428.379	571.17
428.756	568.69
429.132	555.58
429.507	564.84
429.883	571.4
430.259	596.03
430.635	598.74
431.011	575.69
431.387	596.03
431.763	610.94
432.138	597.39
432.514	600.1
432.89	607.1
433.265	616.14
433.641	621.57
434.016	647.33
434.392	629.93
434.767	637.16
435.143	620.44
435.518	661.34
435.894	650.49
436.269	680.77
436.644	689.81
437.02	674.45
437.395	664.28
437.77	678.97
438.145	682.13
438.52	688.23
438.895	680.32
439.271	674.67
439.646	692.52
440.021	705.63
440.395	694.33
440.77	696.59
441.145	701.34
441.52	707.21
441.895	704.95
442.27	717.38
442.645	723.48
443.019	718.51
443.394	728.46
443.769	721.68
444.143	744.27
444.518	738.4
444.892	747.66
445.267	739.98
445.641	752.41
446.016	763.48
446.39	770.26
446.764	766.65
447.139	755.35
447.513	775.46
447.887	779.08
448.262	753.99
448.636	790.37
449.01	777.49
449.384	764.16
449.758	808
450.132	787.21
450.506	806.19
450.88	808.68
451.254	800.09
451.628	809.36
452.002	824.5
452.376	845.29
452.75	839.41
453.123	859.07
453.497	865.4
453.871	855.23
454.244	874.21
454.618	868.79
454.992	878.51
455.365	871.95
455.739	887.1
456.112	901.11
456.486	922.57
456.859	919.41
457.232	953.08
457.606	939.98
457.979	948.34
458.352	976.58
458.725	986.3
459.099	969.35
459.472	1006.87
459.845	1023.36
460.218	1010.71
460.591	1006.64
460.964	1018.17
461.337	1024.04
461.71	1017.26
462.083	1050.03
462.456	1055.68
462.829	1057.94
463.201	1085.51
463.574	1081.21
463.947	1137.03
464.32	1108.78
464.692	1146.3
465.065	1122.12
465.438	1124.15
465.81	1158.73
466.183	1155.79
466.555	1188.78
466.928	1205.28
467.3	1219.74
467.672	1223.13
468.045	1236.69
468.417	1232.85
468.789	1279.85
469.161	1310.14
469.534	1298.84
469.906	1318.72
470.278	1336.35
470.65	1356.46
471.022	1375.9
471.394	1386.07
471.766	1398.72
472.138	1428.32
472.51	1456.12
472.882	1469.45
473.253	1511.94
473.625	1529.11
473.997	1547.42
474.369	1574.99
474.74	1568.89
475.112	1626.28
475.484	1639.17
475.855	1663.8
476.227	1697.47
476.598	1733.85
476.97	1746.73
477.341	1805.04
477.713	1832.83
478.084	1856.79
478.455	1919.61
478.827	1937.01
479.198	1991.7
479.569	2023.56
479.94	2060.4
480.311	2076.89
480.682	2136.55
481.053	2214.07
481.424	2264.46
481.795	2224.01
482.166	2316.21
482.537	2343.78
482.908	2387.85
483.279	2453.16
483.65	2495.41
484.021	2560.05
484.391	2624.45
484.762	2652.92
485.133	2675.07
485.503	2730.89
485.874	2806.82
486.244	2845.46
486.615	2882.98
486.985	2946.25
487.356	3048.39
487.726	3074.38
488.097	3125
488.467	3154.15
488.837	3249.29
489.207	3285.9
489.578	3337.43
489.948	3362.96
490.318	3457.2
490.688	3469.17
491.058	3564.99
491.428	3609.06
491.798	3617.42
492.168	3713.01
492.538	3778.54
492.908	3819.9
493.278	3904.42
493.648	3914.36
494.017	3985.32
494.387	4032.55
494.757	4138.99
495.126	4148.48
495.496	4213.34
495.866	4205.88
496.235	4263.28
496.605	4366.55
496.974	4321.81
497.344	4384.63
497.713	4472.09
498.082	4484.74
498.452	4546.43
498.821	4621.23
499.19	4648.58
499.559	4682.02
499.928	4699.65
500.298	4755.47
500.667	4807.67
501.036	4812.64
501.405	4863.49
501.774	4931.73
502.143	4926.99
502.512	4971.06
502.88	5056.7
503.249	5047.21
503.618	5123.14
503.987	5116.36
504.356	5183.71
504.724	5182.8
505.093	5225.96
505.462	5273.87
505.83	5263.93
506.199	5382.34
506.567	5377.6
506.936	5375.79
507.304	5469.12
507.672	5471.16
508.041	5474.09
508.409	5481.32
508.777	5605.39
509.145	5646.97
509.514	5638.38
509.882	5708.66
510.25	5696.23
510.618	5756.8
510.986	5753.41
511.354	5814.2
511.722	5870.02
512.09	5889.22
512.458	5907.3
512.826	5904.59
513.193	5964.93
513.561	5944.14
513.929	6034.53
514.297	6054.64
514.664	6143.45
515.032	6141.65
515.4	6171.25
515.767	6179.39
516.135	6195.43
516.502	6183.91
516.869	6287.41
517.237	6331.47
517.604	6234.75
517.972	6387.97
518.339	6375.99
518.706	6399.04
519.073	6457.8
519.44	6488.08
519.808	6495.99
520.175	6487.4
520.542	6562.65
520.909	6623.44
521.276	6565.14
521.643	6619.37
522.009	6627.51
522.376	6780.73
522.743	6762.42
523.11	6788.18
523.477	6839.71
523.843	6848.07
524.21	6902.98
524.577	6981.62
524.943	6982.98
525.31	7036.31
525.676	7126.48
526.043	7149.53
526.409	7135.07
526.776	7243.99
527.142	7227.27
527.508	7276.76
527.874	7328.06
528.241	7366.02
528.607	7421.84
528.973	7447.6
529.339	7412.35
529.705	7514.72
530.071	7562.85
530.437	7555.62
530.803	7648.95
531.169	7647.6
531.535	7637.2
531.901	7727.59
532.267	7699.8
532.632	7828.61
532.998	7796.29
533.364	7905.44
533.73	7897.98
534.095	7939.11
534.461	8015.04
534.826	8005.33
535.192	8078.09
535.557	8077.87
535.923	8126.9
536.288	8128.26
536.653	8144.98
537.019	8177.75
537.384	8205.32
537.749	8275.83
538.114	8307.69
538.479	8326.22
538.845	8385.43
539.21	8378.42
539.575	8363.51
539.94	8460.91
540.305	8521.24
540.67	8475.6
541.034	8517.86
541.399	8552.66
541.764	8556.5
542.129	8560.34
542.494	8652.77
542.858	8704.29
543.223	8745.42
543.587	8806.21
543.952	8770.96
544.316	8806.66
544.681	8868.35
545.045	8905.87
545.41	8958.75
545.774	8933.89
546.138	8989.93
546.503	9065.86
546.867	9099.31
547.231	9130.49
547.595	9066.77
547.959	9139.31
548.324	9187.67
548.688	9161.91
549.052	9221.57
549.416	9304.95
549.779	9318.74
550.143	9353.09
550.507	9355.57
550.871	9386.53
551.235	9381.34
551.599	9456.81
551.962	9490.26
552.326	9485.29
552.689	9544.04
553.053	9575.23
553.417	9590.6
553.78	9728.67
554.143	9673.53
554.507	9677.15
554.87	9708.33
555.234	9917.14
555.597	9798.73
555.96	9813.41
556.323	9812.06
556.686	9915.11
557.05	10000.3
557.413	9953.98
557.776	9978.61
558.139	10025.61
558.502	10066.29
558.865	10084.82
559.228	10135.67
559.59	10121.43
559.953	10181.31
560.316	10295.44
560.679	10243.01
561.041	10337.02
561.404	10271.93
561.767	10415.88
562.129	10328.2
562.492	10510.35
562.854	10529.55
563.217	10536.79
563.579	10482.1
563.941	10639.61
564.304	10631.02
564.666	10728.19
565.028	10753.05
565.39	10759.15
565.753	10821.3
566.115	10892.93
566.477	10847.51
566.839	10939.03
567.201	10952.82
567.563	10998.69
567.925	11047.28
568.287	11040.05
568.648	11047.96
569.01	11133.15
569.372	11164.11
569.734	11223.09
570.095	11236.65
570.457	11335.63
570.819	11341.51
571.18	11388.97
571.542	11490.66
571.903	11516.42
572.265	11533.6
572.626	11629.86
572.987	11631.45
573.349	11725.23
573.71	11791.89
574.071	11794.83
574.432	11899.24
574.794	12076.41
575.155	12002.28
575.516	11992.34
575.877	12113.47
576.238	12233.92
576.599	12350.97
576.96	12391.65
577.32	12497.19
577.681	12580.8
578.042	12647.01
578.403	12728.59
578.763	12856.72
579.124	12977.4
579.485	12993.22
579.845	13208.35
580.206	13238.18
580.566	13368.8
580.927	13496.48
581.287	13643.6
581.648	13781.22
582.008	13988.67
582.368	14009.24
582.728	14238.16
583.089	14302.11
583.449	14571.03
583.809	14703
584.169	14863.68
584.529	15033.16
584.889	15331.46
585.249	15404.23
585.609	15501.85
585.969	15763.31
586.329	15914.72
586.688	16175.28
587.048	16207.6
587.408	16518.77
587.768	16738.2
588.127	16966.9
588.487	17111.08
588.846	17491.86
589.206	17552.65
589.565	17818.63
589.925	18100.88
590.284	18280.76
590.643	18586.74
591.003	18742.45
591.362	19161.19
591.721	19193.51
592.08	19530.67
592.44	19866.03
592.799	20017.44
593.158	20287.49
593.517	20498.11
593.876	20811.09
594.235	21097.64
594.593	21266.45
594.952	21597.29
595.311	21705.08
595.67	22058.97
596.029	22525.62
596.387	22655.56
596.746	22872.05
597.104	23013.29
597.463	23162.22
597.822	23593.84
598.18	23786.15
598.538	24003.32
598.897	24387.04
599.255	24442.86
599.613	24957.87
599.972	25048.04
600.33	25268.83
600.688	25500.01
601.046	25798.98
601.404	26076.49
601.762	26270.61
602.12	26595.35
602.478	26721.22
602.836	27050.02
603.194	27109.91
603.552	27353.29
603.91	27542.89
604.268	27886.39
604.625	27980.39
604.983	28313.49
605.341	28385.81
605.698	28621.28
606.056	28920.93
606.413	28880.71
606.771	29269.4
607.128	29472.78
607.485	29370.19
607.843	29649.73
608.2	29964.3
608.557	30279.32
608.914	30282.03
609.272	30663.26
609.629	30799.3
609.986	31036.59
610.343	30951.84
610.7	31366.29
611.057	31463.47
611.414	31668.66
611.771	31794.31
612.127	31941.87
612.484	32168.53
612.841	32313.39
613.198	32405.14
613.554	32593.15
613.911	32733.72
614.267	32873.37
614.624	33024.33
614.98	33174.38
615.337	33385
615.693	33415.96
616.05	33504.99
616.406	33767.59
616.762	33705.89
617.118	34010.74
617.475	33917.64
617.831	34098.88
618.187	34234.02
618.543	34398.08
618.899	34584.74
619.255	34691.18
619.611	34742.7
619.967	35018.18
620.323	35078.96
620.678	34977.95
621.034	34956.48
621.39	35144.73
621.746	35019.31
622.101	35577.93
622.457	35320.31
622.812	35441.89
623.168	35622.23
623.523	35783.8
623.879	35695.67
624.234	35661.32
624.589	35829.45
624.945	35935.89
625.3	36158.26
625.655	35945.61
626.01	36202.1
626.365	36373.39
626.72	36245.94
627.075	36315.32
627.43	36266.5
627.785	36353.51
628.14	36373.85
628.495	36478.93
628.85	36473.5
629.205	36333.39
629.559	36681.86
629.914	36526.16
630.269	36641.64
630.623	36480.51
630.978	36462.88
631.332	36662.43
631.687	36681.86
632.041	36668.3
632.396	36679.83
632.75	36668.3
633.104	36727.06
633.459	36491.36
633.813	36526.16
634.167	36650
634.521	36651.58
634.875	36769.99
635.229	36640.73
635.583	36664.01
635.937	36623.56
636.291	36630.11
636.645	36621.75
636.999	36566.16
637.352	36705.59
637.706	36466.72
638.06	36676.66
638.413	36659.26
638.767	36486.39
639.121	36704.68
639.474	36373.62
639.828	36493.39
640.181	36454.52
640.534	36490
640.888	36504.01
641.241	36161.87
641.594	36426.5
641.947	36539.94
642.301	36332.49
642.654	36541.75
643.007	36484.35
643.36	36495.65
643.713	36425.37
644.066	36544.91
644.419	36326.16
644.771	36126.62
645.124	35823.35
645.477	35740.64
645.83	35417.26
646.182	35380.65
646.535	35258.17
646.888	35332.52
647.24	35076.25
647.593	35349.47
647.945	35183.59
648.298	35156.02
648.65	34993.77
649.002	34983.83
649.355	35072.41
649.707	35084.61
650.059	35286.64
650.411	35713.52
650.763	35861.32
651.115	36079.16
651.467	36036
651.819	35920.07
652.171	35953.97
652.523	35937.25
652.875	35846.18
653.227	35649.12
653.578	36003.91
653.93	35989.9
654.282	35769.34
654.633	35592.62
654.985	35727.76
655.337	35733.41
655.688	35764.82
656.039	35964.59
656.391	35464.04
656.742	35630.81
657.094	35523.7
657.445	35734.77
657.796	35496.58
658.147	35564.15
658.498	35527.99
658.849	35678.5
659.2	35558.73
659.551	35462.23
659.902	35588.78
660.253	35554.21
660.604	35559.18
660.955	35412.74
661.306	35471.04
661.656	35450.48
662.007	35431.5
662.358	35463.14
662.708	35575.22
663.059	35421.33
663.409	35369.58
663.76	35462.23
664.11	35524.6
664.461	35607.54
664.811	35507.2
665.161	35409.35
665.511	35345.62
665.862	35454.77
666.212	35563.7
666.562	35499.97
666.912	35478.95
667.262	35325.06
667.612	35395.11
667.962	35430.59
668.312	35546.07
668.662	35462.01
669.011	35431.5
669.361	35265.4
669.711	35268.11
670.06	35248.68
670.41	35161.22
670.76	35244.16
671.109	35249.81
671.459	35263.37
671.808	35247.77
672.157	35219.75
672.507	35116.7
672.856	35169.81
673.205	35092.3
673.554	35230.83
673.904	35235.12
674.253	35316.02
674.602	35075.57
674.951	34721.46
675.3	34428.13
675.649	35048.68
675.998	34958.74
676.346	35125.97
676.695	35011.62
677.044	34914
677.393	35041
677.741	34909.7
678.09	34950.83
678.438	34804.62
678.787	34893.88
679.135	34792.87
679.484	34731.86
679.832	34730.73
680.181	34549.94
680.529	34719.88
680.877	34535.25
681.225	34596.04
681.573	34784.96
681.922	34556.49
682.27	34417.97
682.618	34420.22
682.966	34317.63
683.314	34378.19
683.661	34313.34
684.009	34182.27
684.357	34202.6
684.705	34036.73
685.053	34114.92
685.4	34041.48
685.748	33881.93
686.095	33721.71
686.443	33760.13
686.79	33665.89
687.138	33742.95
687.485	33643.52
687.832	33596.29
688.18	33553.36
688.527	33393.81
688.874	33259.8
689.221	33390.42
689.568	33273.36
689.915	33247.15
690.262	33132.35
690.609	33045.35
690.956	33063.65
691.303	32945.46
691.65	32733.49
691.997	32795.41
692.344	32498.69
692.69	32558.35
693.037	32578.92
693.383	32427.96
693.73	32513.16
694.077	32283.33
694.423	32241.53
694.769	32335.99
695.116	32178.25
695.462	32035.88
695.808	31921.31
696.155	32057.8
696.501	31773.97
696.847	31844.93
697.193	31566.51
697.539	31645.83
697.885	31409
698.231	31259.63
698.577	31243.13
698.923	31289.46
699.269	31113.42
699.614	30925.63
699.96	30957.27
700.306	30994.33
700.651	30834.56
700.997	30720.89
701.342	30694.9
701.688	30590.5
702.033	30661.23
702.379	30570.16
702.724	30343.5
703.069	30480.22
703.415	30110.73
703.76	30112.09
704.105	30083.62
704.45	29996.16
704.795	29847.01
705.14	29799.78
705.485	29766.79
705.83	29662.16
706.175	29677.07
706.52	29720.69
706.865	29531.77
707.209	29516.85
707.554	29455.61
707.899	29490.64
708.243	29250.19
708.588	29327.25
708.932	28996.19
709.277	29177.65
709.621	29037.09
709.966	28840.03
710.31	28892.23
710.654	28729.98
710.998	28772.01
711.342	28800.26
711.687	28505.8
712.031	28561.85
712.375	28508.97
712.719	28515.97
713.063	28348.97
713.407	28457.22
713.75	28175.87
714.094	28278.69
714.438	28133.84
714.782	28209.77
715.125	27967.06
715.469	28135.42
715.812	27880.51
716.156	27687.97
716.499	27826.27
716.843	27811.13
717.186	27623.34
717.53	27823.79
717.873	27767.74
718.216	27745.6
718.559	27624.02
718.902	27501.08
719.246	27469.67
719.589	27375.21
719.932	27393.97
720.275	27381.77
720.617	27231.49
720.96	27182.45
721.303	27205.5
721.646	27158.04
721.989	27069.46
722.331	27149.68
722.674	27022.91
723.016	27049.12
723.359	26946.07
723.701	26991.27
724.044	26781.33
724.386	26552.41
724.729	26814.78
725.071	26719.64
725.413	26722.12
725.755	26601.22
726.097	26577.49
726.439	26376.82
726.782	26375.69
727.124	26560.09
727.465	26445.07
727.807	26325.97
728.149	26322.13
728.491	26301.34
728.833	26312.19
729.175	26147.9
729.516	26109.26
729.858	26043.95
730.199	26031.52
730.541	26029.26
730.882	26056.15
731.224	26110.16
731.565	25860.45
731.906	25975.02
732.248	25964.85
732.589	25742.94
732.93	25704.97
733.271	25824.29
733.612	25723.5
733.953	25739.55
734.294	25592.21
734.635	25635.82
734.976	25788.81
735.317	25406
735.658	25466.34
735.999	25504.98
736.339	25484.87
736.68	25501.59
737.021	25446.68
737.361	25271.54
737.702	25442.38
738.042	25310.18
738.383	25270.86
738.723	25290.3
739.063	25215.5
739.404	25311.76
739.744	25064.09
740.084	24961.72
740.424	25117.87
740.764	24927.82
741.104	25053.01
741.444	24900.93
741.784	24848.95
742.124	24780.93
742.464	24867.26
742.804	24775.96
743.143	24730.31
743.483	24701.84
743.823	24575.06
744.162	24700.48
744.502	24663.42
744.841	24558.56
745.181	24663.87
745.52	24563.99
745.86	24546.59
746.199	24486.02
746.538	24439.02
746.877	24443.09
747.216	24462.52
747.556	24392.47
747.895	24330.32
748.234	24306.59
748.573	24335.74
748.911	24117.9
749.25	24245.58
749.589	24168.52
749.928	24117.22
750.267	24172.81
750.605	23971.01
750.944	23986.83
751.283	24001.97
751.621	23941.63
751.96	23920.39
752.298	23808.98
752.636	23891.91
752.975	23671.81
753.313	23612.37
753.651	23693.28
753.989	23550.91
754.327	23632.94
754.666	23481.08
755.004	23502.32
755.342	23619.6
755.679	23498.7
756.017	23305.49
756.355	23495.09
756.693	23264.59
757.031	23297.58
757.368	23310.91
757.706	23215.77
758.044	23216.68
758.381	23189.79
758.719	22977.14
759.056	23105.04
759.394	22920.64
759.731	22908.44
760.068	22872.28
760.405	22628.22
760.743	22790.93
761.08	22801.55
761.417	22639.74
761.754	22613.98
762.091	22533.53
762.428	22406.53
762.765	22330.15
763.102	22355.23
763.438	22279.98
763.775	22129.93
764.112	22131.51
764.449	22160.21
764.785	21991.17
765.122	21929.03
765.458	21884.74
765.795	21751.86
766.131	21637.96
766.467	21697.17
766.804	21553.67
767.14	21472.09
767.476	21478.42
767.812	21319.78
768.148	21390.74
768.485	21249.95
768.821	21168.6
769.157	21122.5
769.492	20997.53
769.828	21007.92
770.164	20797.76
770.5	20770.41
770.836	20819.9
771.171	20607.48
771.507	20588.95
771.842	20579.91
772.178	20387.83
772.513	20476.41
772.849	20342.85
773.184	20365.45
773.519	20241.84
773.855	20203.42
774.19	20108.28
774.525	19976.08
774.86	20035.74
775.195	20072.58
775.53	19871.68
775.865	19758.92
776.2	19655.87
776.535	19567.73
776.87	19569.99
777.205	19440.73
777.539	19371.58
777.874	19459.26
778.209	19249.78
778.543	19210.91
778.878	19145.6
779.212	19146.28
779.547	18913.97
779.881	18940.18
780.215	18905.6
780.55	18840.07
780.884	18805.49
781.218	18752.84
781.552	18685.27
781.886	18514.43
782.22	18453.87
782.554	18394.66
782.888	18157.38
783.222	18171.16
783.556	18035.34
783.889	18036.93
784.223	18016.36
784.557	17849.14
784.89	17916.48
785.224	17801.68
785.557	17773.88
785.891	17703.83
786.224	17629.48
786.558	17601.01
786.891	17474
787.224	17375.7
787.557	17388.81
787.891	17337.74
788.224	17387.68
788.557	17239.89
788.89	17187.68
789.223	17234.46
789.556	17084.64
789.888	16984.98
790.221	16894.58
790.554	16869.05
790.887	16801.03
791.219	16778.2
791.552	16664.76
791.884	16689.84
792.217	16587.02
792.549	16439.45
792.882	16398.1
793.214	16298.22
793.546	16429.51
793.879	16259.35
794.211	16119.24
794.543	16202.85
794.875	16119.24
795.207	16155.85
795.539	16019.35
795.871	16130.08
796.203	15905.68
796.535	15822.97
796.867	15933.48
797.198	15814.61
797.53	15671.11
797.862	15682.41
798.193	15683.77
798.525	15545.24
798.856	15642.19
799.188	15449.65
799.519	15425.7
799.85	15380.73
800.182	15302.54
800.513	15292.37
800.844	15247.62
801.175	15271.58
801.506	15210.56
801.837	15161.07
802.168	15057.34
802.499	15049.66
802.83	14912.26
803.161	14798.37
803.491	14943.67
803.822	14978.02
804.153	14787.07
804.483	14682.44
804.814	14637.02
805.145	14657.58
805.475	14591.14
805.805	14605.6
806.136	14569.22
806.466	14528.09
806.796	14489.9
807.126	14328.1
807.457	14362.45
807.787	14277.7
808.117	14198.84
808.447	14295.1
808.777	14241.55
809.107	14067.77
809.436	14132.17
809.766	14243.81
810.096	14094.88
810.426	14001.1
810.755	14055.56
811.085	14023.47
811.414	13892.63
811.744	13883.14
812.073	13761.79
812.403	13774.44
812.732	13657.16
813.061	13737.83
813.39	13589.13
813.719	13608.57
814.049	13678.85
814.378	13521.34
814.707	13556.14
815.036	13523.15
815.365	13439.31
815.693	13351.63
816.022	13374.22
816.351	13319.08
816.68	13272.76
817.008	13340.33
817.337	13125.19
817.665	13105.76
817.994	13190.05
818.322	13197.05
818.651	13051.97
818.979	13075.25
819.307	13093.1
819.636	12985.31
819.964	13000
820.292	13059.2
820.62	12975.14
820.948	12861.47
821.276	12912.54
821.604	12939.43
821.932	12953.9
822.259	13014.23
822.587	12897.63
822.915	12921.58
823.243	12923.84
823.57	12938.08
823.898	12883.16
824.225	12810.17
824.553	12873.45
824.88	12889.04
825.207	12831.64
825.535	12847.23
825.862	12855.37
826.189	12805.65
826.516	12866.67
826.843	12844.75
827.17	12914.35
827.497	12891.98
827.824	12849.72
828.151	12845.2
828.478	12818.98
828.805	12795.26
829.131	12803.62
829.458	12787.12
829.785	12777.4
830.111	12814.01
830.438	12831.41
830.764	12800.91
831.09	12811.53
831.417	12713.68
831.743	12786.67
832.069	12811.98
832.395	12753.9
832.722	12806.1
833.048	12731.3
833.374	12734.02
833.7	12660.12
834.026	12726.78
834.351	12757.52
834.677	12733.34
835.003	12751.87
835.329	12643.4
835.654	12626.9
835.98	12651.76
836.306	12550.74
836.631	12530.63
836.956	12565.43
837.282	12593.23
837.607	12482.04
837.932	12534.02
838.258	12376.06
838.583	12403.18
838.908	12381.03
839.233	12440.01
839.558	12475.27
839.883	12301.71
840.208	12290.64
840.533	12327.92
840.858	12297.19
841.182	12275.04
841.507	12247.47
841.832	12239.79
842.156	12131.55
842.481	12196.63
842.805	12152.34
843.13	12113.01
843.454	12178.78
843.778	12031.44
844.103	12053.13
844.427	12048.61
844.751	12001.38
845.075	11922.29
845.399	11887.03
845.723	11856.3
846.047	11891.1
846.371	11722.06
846.695	11755.96
847.019	11677.32
847.343	11622.63
847.666	11592.12
847.99	11573.14
848.313	11479.36
848.637	11459.25
848.96	11415.86
849.284	11361.85
849.607	11324.34
849.931	11270.1
850.254	11228.29
850.577	11158.92
850.9	11038.24
851.223	11004.8
851.546	11062.87
851.869	10911.69
852.192	10977.23
852.515	10909.88
852.838	10833.27
853.161	10890.22
853.483	10798.02
853.806	10694.52
854.129	10773.16
854.451	10737.91
854.774	10564.58
855.096	10589.44
855.419	10592.38
855.741	10600.06
856.063	10467.63
856.385	10415.66
856.708	10447.52
857.03	10377.02
857.352	10444.36
857.674	10408.88
857.996	10335.66
858.318	10317.81
858.64	10324.59
858.961	10259.28
859.283	10206.4
859.605	10160.98
859.926	10129.34
860.248	10098.6
860.57	10104.93
860.891	10050.02
861.212	10095.21
861.534	10042.33
861.855	9935.9
862.176	10028.1
862.498	10001.66
862.819	9964.82
863.14	9928.21
863.461	9899.06
863.782	9862.23
864.103	9887.99
864.424	9807.09
864.745	9861.77
865.065	9826.52
865.386	9764.83
865.707	9825.62
866.027	9769.8
866.348	9755.11
866.668	9697.49
866.989	9668.79
867.309	9615.91
867.63	9668.11
867.95	9577.94
868.27	9574.32
868.59	9591.5
868.91	9602.35
869.23	9609.13
869.55	9548.34
869.87	9570.48
870.19	9535.23
870.51	9542.01
870.83	9503.14
871.15	9448.45
871.469	9438.28
871.789	9516.25
872.109	9511.73
872.428	9491.16
872.748	9459.75
873.067	9419.75
873.386	9425.63
873.706	9353.77
874.025	9332.52
874.344	9371.62
874.663	9332.3
874.982	9327.33
875.301	9332.3
875.62	9266.08
875.939	9258.63
876.258	9254.11
876.577	9235.35
876.896	9224.96
877.214	9178.4
877.533	9174.56
877.852	9169.14
878.17	9172.3
878.489	9154.45
878.807	9171.4
879.125	9180.44
879.444	9132.53
879.762	9151.96
880.08	9064.51
880.398	9031.74
880.716	9036.49
881.034	8981.12
881.352	9015.24
881.67	8980.44
881.988	8918.52
882.306	8963.04
882.624	8892.76
882.941	8950.39
883.259	8911.52
883.577	8816.15
883.894	8800.56
884.212	8797.4
884.529	8795.14
884.846	8763.05
885.164	8714.69
885.481	8768.47
885.798	8692.31
886.115	8650.28
886.432	8641.02
886.75	8629.49
887.067	8660.9
887.383	8623.16
887.7	8599.43
888.017	8535.26
888.334	8572.32
888.651	8571.19
888.967	8483.28
889.284	8425.43
889.6	8389.04
889.917	8368.03
890.233	8421.59
890.55	8308.82
890.866	8400.12
891.182	8321.93
891.498	8293.91
891.815	8304.08
892.131	8252.55
892.447	8197.41
892.763	8164.19
893.079	8189.05
893.395	8157.19
893.71	8173.46
894.026	8170.97
894.342	8086.45
894.657	8005.1
894.973	8039.22
895.289	8043.97
895.604	8059.79
895.92	7973.69
896.235	7945.21
896.55	7906.8
896.865	7872.45
897.181	7852.79
897.496	7869.51
897.811	7859.79
898.126	7853.69
898.441	7724.2
898.756	7690.53
899.071	7677.88
899.386	7700.93
899.7	7626.35
900.015	7598.33
900.33	7489.18
900.644	7581.16
900.959	7615.73
901.273	7577.54
901.588	7530.54
901.902	7469.07
902.216	7446.24
902.531	7419.13
902.845	7407.38
903.159	7324.89
903.473	7311.79
903.787	7294.84
904.101	7220.04
904.415	7288.28
904.729	7188.17
905.042	7173.26
905.356	7122.41
905.67	7184.33
905.984	7134.84
906.297	7050.55
906.611	7074.73
906.924	7055.29
907.237	7034.28
907.551	6960.38
907.864	6924.9
908.177	6941.63
908.491	6890.78
908.804	6891.01
909.117	6828.63
909.43	6809.2
909.743	6791.12
910.056	6742.76
910.368	6725.59
910.681	6761.07
910.994	6647.62
911.307	6691.46
911.619	6606.49
911.932	6621.18
912.244	6564.91
912.557	6538.02
912.869	6492.6
913.181	6498.47
913.494	6451.69
913.806	6423.45
914.118	6393.62
914.43	6391.36
914.742	6375.76
915.054	6345.26
915.366	6316.78
915.678	6234.98
915.99	6272.49
916.302	6201.76
916.613	6221.87
916.925	6219.16
917.236	6230.46
917.548	6121.76
917.859	6134.41
918.171	6063.46
918.482	6004.47
918.794	6004.25
919.105	5966.96
919.416	5981.65
919.727	5992.5
920.038	5942.56
920.349	5915.44
920.66	5866.17
920.971	5831.37
921.282	5809.45
921.593	5771.49
921.903	5754.99
922.214	5787.98
922.525	5732.17
922.835	5724.71
923.146	5690.13
923.456	5634.77
923.767	5622.56
924.077	5608.78
924.387	5583.92
924.697	5569.01
925.008	5548.22
925.318	5552.74
925.628	5543.92
925.938	5485.84
926.248	5431.61
926.558	5397.49
926.867	5402.46
927.177	5419.41
927.487	5368.33
927.796	5280.88
928.106	5360.65
928.416	5306.87
928.725	5272.29
929.034	5222.35
929.344	5238.39
929.653	5221.22
929.962	5164.95
930.271	5205.17
930.581	5162.92
930.89	5102.35
931.199	5074.56
931.508	5112.07
931.817	5041.79
932.125	5031.85
932.434	5034.33
932.743	4989.36
933.051	4954.56
933.36	4949.59
933.669	4905.97
933.977	4885.86
934.286	4910.94
934.594	4885.86
934.902	4828.01
935.21	4839.31
935.519	4824.39
935.827	4789.14
936.135	4814.68
936.443	4766.99
936.751	4725.86
937.059	4751.85
937.367	4679.31
937.674	4713.44
937.982	4657.62
938.29	4626.66
938.597	4641.8
938.905	4608.58
939.213	4539.2
939.52	4546.43
939.827	4566.32
940.135	4516.83
940.442	4512.31
940.749	4454.69
941.056	4467.11
941.363	4442.71
941.67	4405.87
941.977	4410.62
942.284	4363.39
942.591	4383.73
942.898	4359.55
943.205	4312.32
943.511	4336.72
943.818	4324.97
944.125	4225.09
944.431	4231.64
944.738	4225.31
945.044	4242.49
945.35	4214.92
945.657	4162.94
945.963	4144.86
946.269	4157.29
946.575	4124.98
946.881	4134.02
947.187	4074.36
947.493	4098.54
947.799	4068.71
948.105	4025.32
948.41	4030.29
948.716	4019.44
949.022	3984.87
949.327	3996.84
949.633	3946.68
949.938	3919.56
950.244	3917.3
950.549	3846.11
950.854	3927.24
951.16	3852.89
951.465	3852.89
951.77	3808.15
952.075	3800.69
952.38	3842.72
952.685	3783.97
952.99	3752.1
953.294	3752.78
953.599	3747.81
953.904	3726.34
954.209	3701.03
954.513	3710.07
954.818	3665.33
955.122	3652.9
955.426	3661.03
955.731	3656.29
956.035	3629.85
956.339	3567.93
956.643	3575.84
956.948	3578.32
957.252	3539.68
957.556	3564.31
957.86	3536.97
958.163	3483.41
958.467	3479.57
958.771	3502.17
959.075	3487.7
959.378	3402.74
959.682	3391.44
959.985	3432.79
960.289	3419.23
960.592	3395.28
960.896	3363.41
961.199	3365.22
961.502	3366.35
961.805	3348.5
962.108	3320.03
962.411	3303.08
962.714	3287.71
963.017	3289.07
963.32	3281.83
963.623	3258.33
963.926	3250.42
964.228	3209.75
964.531	3145.12
964.833	3187.15
965.136	3191.22
965.438	3139.01
965.741	3155.51
966.043	3132.69
966.345	3108.28
966.648	3080.48
966.95	3119.8
967.252	3085.91
967.554	3056.08
967.856	3081.84
968.158	3015.63
968.46	3017.43
968.761	3025.57
969.063	3003.42
969.365	3012.69
969.666	2975.18
969.968	2977.21
970.269	2932.47
970.571	2973.82
970.872	2965.68
971.174	2911.9
971.475	2929.75
971.776	2917.1
972.077	2882.07
972.378	2889.53
972.679	2887.04
972.98	2835.74
973.281	2858.79
973.582	2813.37
973.883	2790.77
974.183	2796.42
974.484	2770.66
974.785	2790.77
975.085	2784.45
975.386	2718.46
975.686	2742.19
975.986	2714.39
976.287	2700.38
976.587	2671.68
976.887	2678.23
977.187	2694.28
977.487	2668.29
977.787	2652.92
978.087	2640.27
978.387	2639.82
978.687	2640.95
978.987	2599.82
979.286	2589.2
979.586	2582.87
979.885	2584
980.185	2532.93
980.484	2576.09
980.784	2515.3
981.083	2502.42
981.382	2494.51
981.682	2513.72
981.981	2464.91
982.28	2483.44
982.579	2486.38
982.878	2470.1
983.177	2443.44
983.475	2448.41
983.774	2413.38
984.073	2383.55
984.372	2393.27
984.67	2388.07
984.969	2394.63
985.267	2368.19
985.566	2363.67
985.864	2362.08
986.162	2345.59
986.461	2310.56
986.759	2338.81
987.057	2282.09
987.355	2297
987.653	2283.67
987.951	2280.51
988.249	2260.62
988.547	2273.95
988.844	2243.9
989.142	2242.99
989.44	2233.95
989.737	2225.37
990.035	2190.34
990.332	2184.24
990.63	2212.26
990.927	2174.07
991.224	2152.82
991.521	2151.24
991.819	2157.12
992.116	2155.08
992.413	2150.11
992.71	2118.02
993.006	2125.48
993.303	2108.31
993.6	2096.1
993.897	2093.62
994.193	2063.79
994.49	2049.55
994.787	2065.82
995.083	2016.56
995.379	2050.68
995.676	2002.32
995.972	1993.96
996.268	1997.8
996.565	2007.97
996.861	1979.72
997.157	1991.93
997.453	1995.54
997.749	1948.76
998.044	1945.82
998.34	1948.31
998.636	1956.67
998.932	1907.63
999.227	1900.4
999.523	1892.72
999.818	1894.98
1000.114	1873.74
1000.409	1892.72
1000.704	1866.96
1001	1860.86
1001.295	1833.06
1001.59	1848.88
1001.885	1809.56
1002.18	1813.62
1002.475	1795.32
1002.77	1836.9
1003.065	1788.77
1003.359	1774.3
1003.654	1784.02
1003.949	1773.85
1004.243	1735.89
1004.538	1726.62
1004.832	1758.48
1005.127	1731.82
1005.421	1736.34
1005.715	1673.74
1006.009	1696.57
1006.304	1695.89
1006.598	1684.59
1006.892	1709.9
1007.186	1649.79
1007.48	1654.98
1007.773	1669.22
1008.067	1659.73
1008.361	1625.61
1008.655	1583.35
1008.948	1602.56
1009.242	1600.3
1009.535	1577.47
1009.829	1569.11
1010.122	1571.15
1010.415	1557.13
1010.708	1572.5
1011.001	1557.13
1011.295	1515.1
1011.588	1533.63
1011.881	1524.37
1012.173	1529.34
1012.466	1481.66
1012.759	1513.52
1013.052	1490.24
1013.344	1473.29
1013.637	1497.02
1013.93	1452.96
1014.222	1470.81
1014.514	1459.06
1014.807	1468.55
1015.099	1429.68
1015.391	1424.03
1015.683	1400.75
1015.976	1416.57
1016.268	1394.43
1016.56	1396.01
1016.851	1360.53
1017.143	1370.7
1017.435	1351.04
1017.727	1352.85
1018.018	1329.8
1018.31	1338.16
1018.602	1328.21
1018.893	1345.16
1019.185	1311.26
1019.476	1303.81
1019.767	1299.74
1020.058	1316.46
1020.35	1290.7
1020.641	1270.81
1020.932	1256.58
1021.223	1278.95
1021.514	1266.97
1021.804	1267.2
1022.095	1271.94
1022.386	1246.63
1022.677	1216.13
1022.967	1219.29
1023.258	1224.94
1023.548	1218.84
1023.839	1218.84
1024.129	1198.73
1024.419	1184.04
1024.709	1160.53
1025	1160.08
1025.29	1142.68
1025.58	1159.18
1025.87	1133.19
1026.16	1120.76
1026.449	1108.56
1026.739	1132.74
1027.029	1127.31
1027.319	1088.67
1027.608	1098.39
1027.898	1111.27
1028.187	1091.84
1028.477	1105.39
1028.766	1062.68
1029.055	1087.09
1029.344	1036.24
1029.634	1064.04
1029.923	1031.95
1030.212	1023.81
1030.501	1062.68
1030.79	1014.78
1031.078	1029.24
1031.367	1034.44
1031.656	1009.13
1031.945	1001.22
1032.233	992.4
1032.522	992.86
1032.81	992.63
1033.099	981.33
1033.387	976.58
1033.675	961.9
1033.963	969.13
1034.251	972.06
1034.54	950.6
1034.828	953.99
1035.116	951.27
1035.403	935.46
1035.691	904.95
1035.979	918.51
1036.267	896.36
1036.554	914.21
1036.842	919.41
1037.129	877.83
1037.417	874.67
1037.704	883.48
1037.992	897.04
1038.279	872.41
1038.566	868.34
1038.853	868.34
1039.14	868.34
