Data from hue_330_FLMS001491_3.txt Node
Date: Mon Feb 06 15:44:47 GMT 2017
User: dcchb
Spectrometer: FLMS00149
Trigger mode: 0
Integration Time (sec): 2.000000E-2
Scans to average: 10
Electric dark correction enabled: true
Nonlinearity correction enabled: false
Boxcar width: 0
XAxis mode: Wavelengths
Number of Pixels in Spectrum: 2048
>>>>>Begin Spectral Data<<<<<
341.393	-20.17
341.776	-20.17
342.16	-20.17
342.543	-51.13
342.927	-68.76
343.31	-68.98
343.693	-67.17
344.077	-68.53
344.46	-50.68
344.843	-49.77
345.226	-33.95
345.61	-44.8
345.993	2.2
346.376	-11.13
346.759	5.37
347.142	21.41
347.525	22.54
347.908	56.44
348.291	71.58
348.674	100.73
349.057	114.74
349.44	133.5
349.823	156.55
350.206	168.75
350.588	204.46
350.971	229.32
351.354	236.1
351.737	232.71
352.119	227.96
352.502	273.16
352.884	301.63
353.267	287.17
353.65	289.43
354.032	282.42
354.414	283.33
354.797	318.35
355.179	319.03
355.562	307.05
355.944	329.65
356.326	335.75
356.709	345.25
357.091	350.22
357.473	330.33
357.855	332.59
358.238	330.1
358.62	329.2
359.002	348.41
359.384	336.66
359.766	342.08
360.148	336.43
360.53	360.61
360.912	351.57
361.294	334.62
361.676	340.73
362.057	348.86
362.439	317.45
362.821	336.88
363.203	320.39
363.584	327.62
363.966	326.04
364.348	342.08
364.729	323.55
365.111	322.42
365.493	329.2
365.874	314.96
366.256	319.48
366.637	319.26
367.019	314.74
367.4	314.06
367.781	312.93
368.163	345.47
368.544	304.34
368.925	304.57
369.306	305.92
369.688	315.87
370.069	314.51
370.45	308.64
370.831	309.54
371.212	319.26
371.593	321.74
371.974	304.79
372.355	309.54
372.736	330.33
373.117	325.36
373.498	299.6
373.879	330.1
374.26	309.09
374.641	304.34
375.021	324
375.402	315.64
375.783	334.4
376.163	336.66
376.544	297.34
376.925	320.61
377.305	342.31
377.686	335.98
378.066	327.84
378.447	309.99
378.827	319.94
379.208	329.43
379.588	325.13
379.968	311.35
380.349	314.29
380.729	331.91
381.109	343.44
381.489	324.23
381.87	317.68
382.25	344.57
382.63	350.67
383.01	345.92
383.39	358.13
383.77	331.91
384.15	365.36
384.53	355.64
384.91	340.95
385.29	341.86
385.67	332.82
386.049	347.73
386.429	348.86
386.809	343.21
387.189	373.94
387.568	353.15
387.948	336.88
388.328	366.49
388.707	365.36
389.087	354.74
389.466	357.9
389.846	355.64
390.225	350.89
390.605	365.36
390.984	368.97
391.363	377.56
391.743	375.07
392.122	387.5
392.501	371.91
392.881	360.39
393.26	400.84
393.639	370.56
394.018	373.04
394.397	378.24
394.776	376.2
395.155	371.46
395.534	388.18
395.913	398.35
396.292	409.88
396.671	383.89
397.05	402.19
397.429	393.38
397.808	386.83
398.186	392.93
398.565	407.39
398.944	394.28
399.323	373.04
399.701	407.62
400.08	389.31
400.458	399.48
400.837	392.48
401.215	405.13
401.594	415.07
401.972	422.53
402.351	380.95
402.729	425.24
403.107	383.44
403.486	409.65
403.864	410.33
404.242	432.47
404.62	413.49
404.999	423.66
405.377	442.64
405.755	428.63
406.133	427.28
406.511	427.28
406.889	449.65
407.267	428.63
407.645	440.16
408.023	440.84
408.401	442.87
408.779	469.76
409.156	448.97
409.534	449.65
409.912	481.06
410.29	460.27
410.667	475.64
411.045	483.32
411.422	497.78
411.8	466.6
412.178	496.2
412.555	492.36
412.933	507.73
413.31	500.95
413.687	518.57
414.065	524.45
414.442	525.13
414.819	525.58
415.197	559.25
415.574	530.55
415.951	556.54
416.328	570.1
416.705	552.92
417.082	568.29
417.46	565.8
417.837	554.51
418.214	580.27
418.591	577.56
418.967	618.46
419.344	585.69
419.721	608.29
420.098	591.57
420.475	636.54
420.852	634.96
421.228	637.21
421.605	631.57
421.982	641.73
422.358	641.73
422.735	680.83
423.111	664.56
423.488	664.33
423.864	672.02
424.241	692.13
424.617	683.32
424.994	683.54
425.37	691
425.746	668.63
426.123	683.09
426.499	710.66
426.875	696.42
427.251	750.43
427.627	738.91
428.003	725.35
428.379	748.62
428.756	737.33
429.132	728.96
429.507	775.97
429.883	785.91
430.259	785.46
430.635	756.99
431.011	801.73
431.387	789.3
431.763	799.02
432.138	832.24
432.514	836.53
432.89	844.22
433.265	861.16
433.641	849.41
434.016	853.93
434.392	859.58
434.767	887.83
435.143	880.6
435.518	874.5
435.894	898.68
436.269	910.2
436.644	914.72
437.02	931.22
437.395	919.69
437.77	944.78
438.145	946.13
438.52	960.82
438.895	955.4
439.271	967.6
439.646	997.21
440.021	1023.19
440.395	999.47
440.77	994.04
441.145	997.88
441.52	1047.6
441.895	1017.54
442.27	1013.93
442.645	1028.39
443.019	1037.66
443.394	1051.67
443.769	1034.49
444.143	1020.93
444.518	1080.82
444.892	1052.57
445.267	1062.97
445.641	1040.37
446.016	1060.93
446.39	1081.95
446.764	1085.56
447.139	1074.94
447.513	1099.35
447.887	1082.63
448.262	1094.15
448.636	1090.31
449.01	1098.67
449.384	1124.89
449.758	1110.2
450.132	1119.01
450.506	1134.6
450.88	1149.52
451.254	1108.84
451.628	1172.57
452.002	1147.26
452.376	1180.48
452.75	1149.52
453.123	1168.73
453.497	1191.78
453.871	1201.04
454.244	1216.41
454.618	1237.88
454.992	1199.01
455.365	1205.79
455.739	1239.01
456.112	1238.56
456.486	1255.73
456.859	1251.89
457.232	1264.32
457.606	1250.53
457.979	1293.47
458.352	1303.86
458.725	1316.75
459.099	1343.19
459.472	1377.76
459.845	1366.24
460.218	1360.81
460.591	1346.57
460.964	1364.43
461.337	1408.04
461.71	1381.6
462.083	1402.39
462.456	1436.52
462.829	1419.12
463.201	1476.29
463.574	1443.75
463.947	1478.55
464.32	1480.36
464.692	1496.63
465.065	1491.66
465.438	1500.92
465.81	1530.52
466.183	1572.33
466.555	1554.48
466.928	1571.65
467.3	1564.2
467.672	1618.66
468.045	1618.21
468.417	1631.09
468.789	1630.64
469.161	1661.37
469.534	1673.8
469.906	1688.26
470.278	1704.31
470.65	1703.85
471.022	1718.77
471.394	1749.28
471.766	1809.61
472.138	1827.92
472.51	1839.44
472.882	1834.02
473.253	1886.9
473.625	1856.84
473.997	1899.1
474.369	1925.54
474.74	1936.39
475.112	1966.9
475.484	1975.48
475.855	2045.09
476.227	2041.47
476.598	2065.43
476.97	2063.39
477.341	2133.45
477.713	2170.06
478.084	2161.02
478.455	2198.3
478.827	2209.83
479.198	2287.57
479.569	2301.58
479.94	2322.59
480.311	2309.26
480.682	2370.28
481.053	2379.09
481.424	2446.21
481.795	2469.71
482.166	2507
482.537	2513.1
482.908	2585.64
483.279	2622.7
483.65	2614.34
484.021	2674
484.391	2666.09
484.762	2734.33
485.133	2714.22
485.503	2774.79
485.874	2792.86
486.244	2812.07
486.615	2866.08
486.985	2882.58
487.356	2964.84
487.726	2965.06
488.097	3012.52
488.467	3055.68
488.837	3113.99
489.207	3093.2
489.578	3124.38
489.948	3171.39
490.318	3222.46
490.688	3218.39
491.058	3227.2
491.428	3272.17
491.798	3347.2
492.168	3370.93
492.538	3343.13
492.908	3370.48
493.278	3398.27
493.648	3402.11
494.017	3492.96
494.387	3500.19
494.757	3560.08
495.126	3574.76
495.496	3598.04
495.866	3612.5
496.235	3633.52
496.605	3674.42
496.974	3686.4
497.344	3685.04
497.713	3699.28
498.082	3734.99
498.452	3764.82
498.821	3737.25
499.19	3784.02
499.559	3833.52
499.928	3850.24
500.298	3877.36
500.667	3874.19
501.036	3871.71
501.405	3905.6
501.774	3919.61
502.143	3937.92
502.512	3959.84
502.88	3998.26
503.249	4006.62
503.618	4013.17
503.987	4003
504.356	4087.07
504.724	4086.16
505.093	4065.15
505.462	4045.49
505.83	4148.08
506.199	4126.16
506.567	4193.96
506.936	4131.81
507.304	4182.66
507.672	4247.97
508.041	4209.1
508.409	4221.53
508.777	4274.63
509.145	4272.6
509.514	4286.61
509.882	4303.79
510.25	4266.27
510.618	4344.24
510.986	4378.59
511.354	4396.21
511.722	4377.23
512.09	4473.27
512.458	4418.36
512.826	4434.86
513.193	4454.29
513.561	4445.02
513.929	4477.57
514.297	4483.89
514.664	4512.59
515.032	4507.85
515.4	4500.16
515.767	4504.46
516.135	4576.55
516.502	4504.68
516.869	4594.62
517.237	4617.45
517.604	4619.94
517.972	4579.94
518.339	4672.81
518.706	4683.44
519.073	4700.16
519.44	4681.18
519.808	4703.1
520.175	4690.22
520.542	4765.92
520.909	4811.79
521.276	4741.06
521.643	4815.64
522.009	4814.05
522.376	4875.52
522.743	4842.98
523.11	4888.4
523.477	4901.51
523.843	4924.56
524.21	4935.41
524.577	5023.99
524.943	5039.13
525.31	5020.6
525.676	5053.82
526.043	5042.3
526.409	5055.86
526.776	5162.52
527.142	5171.78
527.508	5155.74
527.874	5146.25
528.241	5191.67
528.607	5252.01
528.973	5304.89
529.339	5225.34
529.705	5347.15
530.071	5371.1
530.437	5371.78
530.803	5405.23
531.169	5444.09
531.535	5416.98
531.901	5463.08
532.267	5477.31
532.632	5471.44
532.998	5543.07
533.364	5582.85
533.73	5575.39
534.095	5645.9
534.461	5608.84
534.826	5590.08
535.192	5681.38
535.557	5685.22
535.923	5677.08
536.288	5704.2
536.653	5744.88
537.019	5772.9
537.384	5761.83
537.749	5815.61
538.114	5843.18
538.479	5804.99
538.845	5873.46
539.21	5859.9
539.575	5914.36
539.94	5970.86
540.305	5965.66
540.67	5960.69
541.034	5983.97
541.399	6017.19
541.764	6097.41
542.129	6094.92
542.494	6123.85
542.858	6117.97
543.223	6136.51
543.587	6230.74
543.952	6163.62
544.316	6136.96
544.681	6198.2
545.045	6213.11
545.41	6268.93
545.774	6324.97
546.138	6308.7
546.503	6290.63
546.867	6360.45
547.231	6448.14
547.595	6421.47
547.959	6470.06
548.324	6492.43
548.688	6500.34
549.052	6502.82
549.416	6512.31
549.779	6576.72
550.143	6538.3
550.507	6629.83
550.871	6637.74
551.235	6678.19
551.599	6676.15
551.962	6725.19
552.326	6713.89
552.689	6740.56
553.053	6766.09
553.417	6766.77
553.78	6827.11
554.143	6770.16
554.507	6838.18
554.87	6860.1
555.234	6921.57
555.597	6875.92
555.96	6955.92
556.323	6936.71
556.686	6906.65
557.05	6982.58
557.413	6996.37
557.776	7087.67
558.139	7064.39
558.502	7090.38
558.865	7089.93
559.228	7064.84
559.59	7137.61
559.953	7147.1
560.316	7238.62
560.679	7207.66
561.041	7251.5
561.404	7242.24
561.767	7306.64
562.129	7267.55
562.492	7299.19
562.854	7283.82
563.217	7337.6
563.579	7359.98
563.941	7414.89
564.304	7491.5
564.666	7486.3
565.028	7543.25
565.39	7539.18
565.753	7505.06
566.115	7593.42
566.477	7593.87
566.839	7635.45
567.201	7667.54
567.563	7612.17
567.925	7716.12
568.287	7747.76
568.648	7803.13
569.01	7775.56
569.372	7815.78
569.734	7843.35
570.095	7936.68
570.457	7922.45
570.819	7900.53
571.18	7993.41
571.542	8022.11
571.903	8075.66
572.265	8144.59
572.626	8170.8
572.987	8188.2
573.349	8230.46
573.71	8258.03
574.071	8328.76
574.432	8401.98
574.794	8491.25
575.155	8482.43
575.516	8486.27
575.877	8587.06
576.238	8667.96
576.599	8761.52
576.96	8738.92
577.32	8898.47
577.681	8909.99
578.042	9055.75
578.403	9109.31
578.763	9081.51
579.124	9257.78
579.485	9405.12
579.845	9508.17
580.206	9565.57
580.566	9594.27
580.927	9801.72
581.287	9943.18
581.648	10011.43
582.008	10151.54
582.368	10250.3
582.728	10427.24
583.089	10571.87
583.449	10648.48
583.809	10871.07
584.169	11115.81
584.529	11165.3
584.889	11496.59
585.249	11587.89
585.609	11683.03
585.969	11990.14
586.329	12135.44
586.688	12409.33
587.048	12595.32
587.408	12671.02
587.768	12974.07
588.127	13205.92
588.487	13375.19
588.846	13725.46
589.206	13839.81
589.565	14190.76
589.925	14496.74
590.284	14669.61
590.643	14924.3
591.003	15219.88
591.362	15589.14
591.721	15764.95
592.08	16049.92
592.44	16307.09
592.799	16591.6
593.158	16927.18
593.517	17125.59
593.876	17444.46
594.235	17659.82
594.593	18096.19
594.952	18277.88
595.311	18574.82
595.67	18898.66
596.029	19302.03
596.387	19562.37
596.746	19899.31
597.104	20123.48
597.463	20404.6
597.822	20724.14
598.18	20935.44
598.538	21248.2
598.897	21657.23
599.255	21815.64
599.613	22313.03
599.972	22358.9
600.33	22662.62
600.688	22957.98
601.046	23335.38
601.404	23680.68
601.762	23970.39
602.12	24254.67
602.478	24437.95
602.836	24805.17
603.194	24851.04
603.552	25204.03
603.91	25420.74
604.268	25788.64
604.625	26066.6
604.983	26303.66
605.341	26423.43
605.698	26922.17
606.056	27013.24
606.413	27301.6
606.771	27645.09
607.128	27889.61
607.485	27985.2
607.843	28180.22
608.2	28628.8
608.557	28718.74
608.914	28868.56
609.272	29296.57
609.629	29578.37
609.986	29890.23
610.343	29870.12
610.7	30315.08
611.057	30360.05
611.414	30536.99
611.771	30794.61
612.127	31045.68
612.484	31277.54
612.841	31550.07
613.198	31404.09
613.554	31745.1
613.911	32011.31
614.267	32151.87
614.624	32240.68
614.98	32550.5
615.337	32896.48
615.693	32837.95
616.05	32922.69
616.406	33294.44
616.762	33302.57
617.118	33475.45
617.475	33587.31
617.831	33816.23
618.187	33949.79
618.543	34020.74
618.899	34302.54
619.255	34528.53
619.611	34569.88
619.967	34746.6
620.323	35073.6
620.678	34887.84
621.034	34967.16
621.39	35122.41
621.746	35216.87
622.101	35752
622.457	35509.74
622.812	35727.37
623.168	35850.98
623.523	36050.75
623.879	35991.09
624.234	35785.44
624.589	36069.5
624.945	36224.98
625.3	36372.77
625.655	36399.66
626.01	36380.68
626.365	36552.65
626.72	36478.98
627.075	36530.28
627.43	36610.05
627.785	36607.12
628.14	36781.35
628.495	36802.37
628.85	36978.41
629.205	36856.38
629.559	37014.11
629.914	36971.4
630.269	37173.66
630.623	37049.14
630.978	36971.63
631.332	37237.83
631.687	37470.82
632.041	37215.24
632.396	37368.23
632.75	37317.15
633.104	37391.28
633.459	37246.2
633.813	37351.96
634.167	37318.28
634.521	37495.23
634.875	37462.01
635.229	37410.49
635.583	37276.93
635.937	37440.99
636.291	37389.47
636.645	37378.62
636.999	37270.38
637.352	37356.93
637.706	37330.26
638.06	37425.4
638.413	37381.33
638.767	37233.54
639.121	37486.42
639.474	37123.49
639.828	37255.91
640.181	37347.89
640.534	37467.43
640.888	37233.09
641.241	37241.45
641.594	37177.27
641.947	37317.61
642.301	37143.37
642.654	37170.27
643.007	37324.16
643.36	37366.19
643.713	37099.31
644.066	37265.63
644.419	37006.43
644.771	36964.17
645.124	36752.42
645.477	36583.39
645.83	36375.94
646.182	36238.99
646.535	36194.7
646.888	36241.7
647.24	36055.72
647.593	36223.85
647.945	36308.37
648.298	35915.84
648.65	36072.44
649.002	35858.66
649.355	36147.69
649.707	36053.23
650.059	36211.87
650.411	36664.97
650.763	36649.6
651.115	36915.58
651.467	36932.76
651.819	36876.49
652.171	36796.72
652.523	36836.49
652.875	36839.43
653.227	36660.67
653.578	36738.64
653.93	36780.45
654.282	36698.19
654.633	36620
654.985	36707.9
655.337	36654.12
655.688	36755.81
656.039	36827.22
656.391	36460
656.742	36692.76
657.094	36588.81
657.445	36738.19
657.796	36567.34
658.147	36637.85
658.498	36532.09
658.849	36621.81
659.2	36526.21
659.551	36584.29
659.902	36614.12
660.253	36651.64
660.604	36663.39
660.955	36530.06
661.306	36603.95
661.656	36584.07
662.007	36565.31
662.358	36502.26
662.708	36526.21
663.059	36358.99
663.409	36302.94
663.76	36513.33
664.11	36546.55
664.461	36570.06
664.811	36628.81
665.161	36503.16
665.511	36302.94
665.862	36456.61
666.212	36632.2
666.562	36549.72
666.912	36587.91
667.262	36451.19
667.612	36508.81
667.962	36502.71
668.312	36323.96
668.662	36606.89
669.011	36391.08
669.361	36311.53
669.711	36241.7
670.06	36211.87
670.41	36219.1
670.76	36250.06
671.109	36514.69
671.459	36244.19
671.808	36097.07
672.157	36411.19
672.507	36032.22
672.856	36182.04
673.205	36174.36
673.554	36197.41
673.904	36200.8
674.253	36368.25
674.602	36141.59
674.951	35761.49
675.3	35591.1
675.649	36050.75
675.998	36104.98
676.346	36102.5
676.695	36216.39
677.044	35942.73
677.393	35909.96
677.741	36039.45
678.09	35941.82
678.438	35953.57
678.787	35943.41
679.135	36008.71
679.484	35676.97
679.832	35896.4
680.181	35792.9
680.529	35837.65
680.877	35647.37
681.225	35707.71
681.573	35706.35
681.922	35659.12
682.27	35546.81
682.618	35484.66
682.966	35465.9
683.314	35567.82
683.661	35366.25
684.009	35356.08
684.357	35225.46
684.705	35126.7
685.053	35256.87
685.4	34956.54
685.748	35023.66
686.095	34955.18
686.443	34827.73
686.79	34838.35
687.138	34822.53
687.485	34986.59
687.832	34552.93
688.18	34619.37
688.527	34675.64
688.874	34655.53
689.221	34499.15
689.568	34352.49
689.915	34356.1
690.262	34399.27
690.609	34234.3
690.956	34056.22
691.303	34115.66
691.65	33900.97
691.997	33964.93
692.344	33710.7
692.69	33586.18
693.037	33754.08
693.383	33443.13
693.73	33586.63
694.077	33418.27
694.423	33488.33
694.769	33235
695.116	33220.09
695.462	33186.19
695.808	33103.03
696.155	33099.19
696.501	32843.83
696.847	32897.61
697.193	32651.29
697.539	32786.2
697.885	32443.38
698.231	32318.42
698.577	32491.07
698.923	32372.2
699.269	32125.88
699.614	31978.76
699.96	32006.79
700.306	32081.13
700.651	31918.43
700.997	31888.37
701.342	31893.79
701.688	31848.15
702.033	31568.83
702.379	31641.6
702.724	31548.72
703.069	31500.81
703.415	31185.11
703.76	31287.93
704.105	31209.29
704.45	31195.73
704.795	30982.18
705.14	30889.75
705.485	30842.07
705.83	30765.01
706.175	30853.37
706.52	30721.17
706.865	30656.31
707.209	30608.63
707.554	30444.57
707.899	30527.5
708.243	30417.45
708.588	30400.95
708.932	30154.86
709.277	30086.61
709.621	30110.34
709.966	29990.12
710.31	30090.23
710.654	29697.47
710.998	29741.99
711.342	29829.67
711.687	29721.65
712.031	29530.24
712.375	29498.15
712.719	29540.86
713.063	29423.12
713.407	29603.01
713.75	29312.85
714.094	29444.82
714.438	29317.82
714.782	29190.81
715.125	29077.6
715.469	29191.49
715.812	28952.85
716.156	28881.22
716.499	28787.21
716.843	28906.3
717.186	28645.97
717.53	28909.24
717.873	28774.33
718.216	28676.93
718.559	28732.3
718.902	28410.72
719.246	28551.28
719.589	28375.02
719.932	28215.02
720.275	28274.91
720.617	28362.14
720.96	28239.65
721.303	28078.98
721.646	28143.38
721.989	28005.99
722.331	28163.72
722.674	28003.05
723.016	28003.95
723.359	27892.77
723.701	27943.39
724.044	27749.04
724.386	27699.55
724.729	27847.57
725.071	27725.32
725.413	27689.16
725.755	27701.59
726.097	27579.11
726.439	27509.5
726.782	27469.96
727.124	27568.26
727.465	27366.91
727.807	27280.81
728.149	27311.99
728.491	27274.48
728.833	27247.36
729.175	27203.75
729.516	27093.47
729.858	26997.88
730.199	27135.28
730.541	27048.5
730.882	26878.56
731.224	27023.41
731.565	26986.8
731.906	26929.63
732.248	26981.38
732.589	26739.35
732.93	26660.03
733.271	26682.63
733.612	26601.05
733.953	26660.71
734.294	26559.92
734.635	26580.49
734.976	26608.28
735.317	26417.55
735.658	26368.52
735.999	26454.62
736.339	26334.62
736.68	26354.73
737.021	26323.09
737.361	26217.56
737.702	26207.39
738.042	26162.19
738.383	26117.22
738.723	26235.86
739.063	26149.54
739.404	26087.85
739.744	26064.79
740.084	25864.8
740.424	25830.45
740.764	25836.1
741.104	25902.99
741.444	25799.27
741.784	25765.82
742.124	25882.43
742.464	25778.7
742.804	25606.95
743.143	25672.94
743.483	25553.17
743.823	25623.45
744.162	25464.36
744.502	25440.63
744.841	25414.87
745.181	25514.3
745.52	25350.69
745.86	25347.07
746.199	25346.17
746.538	25272.95
746.877	25308.66
747.216	25291.26
747.556	25166.29
747.895	25247.42
748.234	24980.53
748.573	25034.99
748.911	25016.23
749.25	24981.21
749.589	24747.54
749.928	24943.24
750.267	24914.32
750.605	24833.87
750.944	24769.46
751.283	24684.27
751.621	24776.02
751.96	24613.08
752.298	24612.86
752.636	24674.77
752.975	24400.66
753.313	24421.45
753.651	24463.03
753.989	24406.53
754.327	24317.95
754.666	24249.02
755.004	24231.62
755.342	24195.24
755.679	24146.43
756.017	23960.22
756.355	24015.36
756.693	23963.83
757.031	23955.02
757.368	23802.48
757.706	23848.36
758.044	23698.3
758.381	23780.34
758.719	23670.28
759.056	23688.36
759.394	23560.45
759.731	23452.43
760.068	23464.64
760.405	23351.65
760.743	23285.88
761.08	23275.04
761.417	23188.03
761.754	23088.15
762.091	22985.78
762.428	22951.66
762.765	22817.2
763.102	22909.17
763.438	22859.68
763.775	22679.57
764.112	22668.27
764.449	22668.5
764.785	22554.83
765.122	22365.23
765.458	22265.57
765.795	22241.17
766.131	22259.25
766.467	22184.67
766.804	22105.35
767.14	22015.18
767.476	21970.89
767.812	21904
768.148	21874.85
768.485	21685.48
768.821	21642.76
769.157	21487.06
769.492	21494.07
769.828	21463.33
770.164	21291.36
770.5	21320.29
770.836	21224.92
771.171	21031.48
771.507	21078.26
771.842	20944.03
772.178	20991.48
772.513	20805.05
772.849	20882.78
773.184	20734.31
773.519	20767.99
773.855	20619.97
774.19	20506.3
774.525	20395.34
774.86	20457.26
775.195	20313.31
775.53	20285.29
775.865	20033.99
776.2	19998.97
776.535	19896.37
776.87	19952.64
777.205	19830.83
777.539	19708.35
777.874	19723.49
778.209	19627.68
778.543	19601.24
778.878	19452.31
779.212	19542.71
779.547	19356.04
779.881	19267.91
780.215	19189.27
780.55	19167.35
780.884	19034.47
781.218	19039.67
781.552	18960.57
781.886	18900.92
782.22	18929.62
782.554	18753.8
782.888	18602.62
783.222	18511.32
783.556	18481.94
783.889	18377.54
784.223	18394.04
784.557	18338.9
784.89	18400.82
785.224	18220.48
785.557	18050.32
785.891	18022.07
786.224	18070.43
786.558	17952.01
786.891	17728.52
787.224	17820.94
787.557	17731.45
787.891	17704.56
788.224	17728.52
788.557	17633.38
788.89	17622.76
789.223	17574.85
789.556	17447.85
789.888	17420.28
790.221	17292.6
790.554	17194.29
790.887	17173.05
791.219	17064.81
791.552	17062.32
791.884	17027.52
792.217	16973.28
792.549	16882.66
792.882	16721.09
793.214	16599.28
793.546	16774.19
793.879	16523.12
794.211	16552.05
794.543	16603.35
794.875	16576.68
795.207	16511.6
795.539	16390.25
795.871	16389.57
796.203	16258.95
796.535	16115.23
796.867	16166.52
797.198	16037.94
797.53	16061.22
797.862	15980.54
798.193	15979.64
798.525	15798.85
798.856	15904.16
799.188	15734.22
799.519	15633.2
799.85	15681.11
800.182	15679.53
800.513	15583.04
800.844	15474.34
801.175	15578.74
801.506	15523.83
801.837	15478.86
802.168	15399.09
802.499	15309.6
802.83	15190.73
803.161	15210.39
803.491	15224.4
803.822	15204.29
804.153	15066.44
804.483	14979.44
804.814	14970.62
805.145	14875.71
805.475	14833.9
805.805	14803.4
806.136	14792.32
806.466	14829.38
806.796	14795.71
807.126	14645.66
807.457	14611.99
807.787	14573.57
808.117	14516.85
808.447	14494.03
808.777	14544.19
809.107	14426.68
809.436	14479.34
809.766	14329.51
810.096	14312.11
810.426	14203.19
810.755	14233.92
811.085	14166.8
811.414	14229.85
811.744	14088.61
812.073	14023.98
812.403	14080.93
812.732	13934.04
813.061	13984.21
813.39	13883.65
813.719	13925
814.049	13945.34
814.378	13895.85
814.707	13798.45
815.036	13788.73
815.365	13703.54
815.693	13611.79
816.022	13629.87
816.351	13568.17
816.68	13479.59
817.008	13536.76
817.337	13444.34
817.665	13460.83
817.994	13430.32
818.322	13478.69
818.651	13346.03
818.979	13306.03
819.307	13341.97
819.636	13289.76
819.964	13228.97
820.292	13302.64
820.62	13293.83
820.948	13195.08
821.276	13197.34
821.604	13123.67
821.932	13137.23
822.259	13207.51
822.587	13224.23
822.915	13187.39
823.243	13147.85
823.57	13146.04
823.898	13155.98
824.225	13122.76
824.553	13137.23
824.88	13077.34
825.207	13108.98
825.535	13058.13
825.862	13046.38
826.189	13070.79
826.516	13185.81
826.843	13198.01
827.17	13196.21
827.497	13123.21
827.824	13115.08
828.151	13083.89
828.478	13113.27
828.805	13205.25
829.131	13120.95
829.458	13068.75
829.785	13021.3
830.111	13054.97
830.438	13162.54
830.764	13073.5
831.09	13099.03
831.417	13011.35
831.743	13010.45
832.069	13033.73
832.395	13018.58
832.722	13017.91
833.048	12967.06
833.374	12961.18
833.7	12921.41
834.026	12988.3
834.351	13007.74
834.677	12955.31
835.003	12973.84
835.329	12830.57
835.654	12925.25
835.98	12803.9
836.306	12877.35
836.631	12738.37
836.956	12808.65
837.282	12770.68
837.607	12762.32
837.932	12695.43
838.258	12755.09
838.583	12744.24
838.908	12605.94
839.233	12675.99
839.558	12598.93
839.883	12552.16
840.208	12543.57
840.533	12512.61
840.858	12563.91
841.182	12624.24
841.507	12515.32
841.832	12508.54
842.156	12445.72
842.481	12368.43
842.805	12367.3
843.13	12348.55
843.454	12324.37
843.778	12325.27
844.103	12235.78
844.427	12165.95
844.751	12224.25
845.075	12217.25
845.399	12135.9
845.723	12106.74
846.047	12231.03
846.371	12043.02
846.695	12133.18
847.019	11906.52
847.343	11886.18
847.666	11717.6
847.99	11746.98
848.313	11772.52
848.637	11689.58
848.96	11644.61
849.284	11583.82
849.607	11495.69
849.931	11539.75
850.254	11405.75
850.577	11398.74
850.9	11285.07
851.223	11313.77
851.546	11257.27
851.869	11185.86
852.192	11190.16
852.515	11104.06
852.838	10996.26
853.161	11066.09
853.483	11006.89
853.806	10953.1
854.129	10937.06
854.451	10897.28
854.774	10828.81
855.096	10800.56
855.419	10818.87
855.741	10718.31
856.063	10726.67
856.385	10715.82
856.708	10640.12
857.03	10584.98
857.352	10606.22
857.674	10618.65
857.996	10507.46
858.318	10484.41
858.64	10490.06
858.961	10440.57
859.283	10347.47
859.605	10342.27
859.926	10378.2
860.248	10276.51
860.57	10221.14
860.891	10313.57
861.212	10214.14
861.534	10189.73
861.855	10184.99
862.176	10261.82
862.498	10178.88
862.819	10163.97
863.14	10116.06
863.461	10098.21
863.782	10011.43
864.103	10046.46
864.424	9974.14
864.745	10032.9
865.065	9964.65
865.386	9931.66
865.707	9959.68
866.027	9965.33
866.348	9941.38
866.668	9952.22
866.989	9932.34
867.309	9806.69
867.63	9882.17
867.95	9824.77
868.27	9775.96
868.59	9827.26
868.91	9796.07
869.23	9766.69
869.55	9687.37
869.87	9854.37
870.19	9668.62
870.51	9786.13
870.83	9726.47
871.15	9639.01
871.469	9619.8
871.789	9666.81
872.109	9642.18
872.428	9568.51
872.748	9560.37
873.067	9622.06
873.386	9652.8
873.706	9557.88
874.025	9435.63
874.344	9474.04
874.663	9579.8
874.982	9512.01
875.301	9502.07
875.62	9411.45
875.939	9448.06
876.258	9450.32
876.577	9378.91
876.896	9455.51
877.214	9285.58
877.533	9340.49
877.852	9321.73
878.17	9373.93
878.489	9352.47
878.807	9248.06
879.125	9309.53
879.444	9268.63
879.762	9183.66
880.08	9321.51
880.398	9198.12
880.716	9222.53
881.034	9106.82
881.352	9167.39
881.67	9149.76
881.988	9131
882.306	9181.17
882.624	9157.44
882.941	8954.96
883.259	8965.36
883.577	9037.45
883.894	9000.16
884.212	8913.38
884.529	8952.02
884.846	8893.72
885.164	8881.74
885.481	8885.36
885.798	8912.25
886.115	8862.76
886.432	8828.86
886.75	8817.56
887.067	8808.53
887.383	8784.8
887.7	8758.58
888.017	8720.17
888.334	8755.87
888.651	8702.54
888.967	8649.89
889.284	8605.59
889.6	8650.11
889.917	8537.35
890.233	8635.42
890.55	8528.76
890.866	8564.69
891.182	8481.08
891.498	8453.51
891.815	8468.65
892.131	8380.29
892.447	8400.85
892.763	8399.72
893.079	8331.93
893.395	8334.19
893.71	8359.27
894.026	8273.17
894.342	8250.35
894.657	8233.17
894.973	8213.74
895.289	8188.65
895.604	8191.82
895.92	8182.55
896.235	8037.92
896.55	8075.21
896.865	8068.88
897.181	8050.35
897.496	8044.25
897.811	7974.65
898.126	7920.41
898.441	7880.64
898.756	7961.99
899.071	7809
899.386	7841.32
899.7	7756.35
900.015	7814.43
900.33	7696.69
900.644	7661.44
900.959	7685.17
901.273	7636.58
901.588	7609.69
901.902	7554.77
902.216	7608.11
902.531	7529.92
902.845	7543.7
903.159	7419.64
903.473	7484.49
903.787	7428.22
904.101	7357.72
904.415	7389.81
904.729	7343.25
905.042	7264.61
905.356	7266.65
905.67	7232.3
905.984	7312.52
906.297	7221.45
906.611	7193.88
906.924	7167.66
907.237	7127.89
907.551	7073.66
907.864	7043.37
908.177	7024.84
908.491	7066.2
908.804	7031.85
909.117	7000.44
909.43	6920.21
909.743	6907.56
910.056	6896.94
910.368	6875.92
910.681	6823.94
910.994	6789.37
911.307	6821.23
911.619	6713.89
911.932	6764.06
912.244	6677.96
912.557	6656.27
912.869	6648.81
913.181	6602.71
913.494	6615.36
913.806	6558.19
914.118	6543.05
914.43	6457.63
914.742	6491.52
915.054	6472.54
915.366	6409.49
915.678	6459.21
915.99	6376.72
916.302	6317.97
916.613	6269.61
916.925	6312.09
917.236	6307.12
917.548	6217.63
917.859	6252.89
918.171	6229.84
918.482	6186.22
918.794	6121.36
919.105	6134.02
919.416	6060.12
919.727	6089.73
920.038	6098.54
920.349	6045.21
920.66	5981.48
920.971	5956.85
921.282	5917.98
921.593	5882.95
921.903	5902.61
922.214	5867.59
922.525	5863.97
922.835	5775.16
923.146	5768.15
923.456	5771.77
923.767	5745.33
924.077	5710.98
924.387	5688.38
924.697	5657.2
925.008	5661.72
925.318	5581.49
925.628	5614.71
925.938	5518.89
926.248	5563.19
926.558	5546.01
926.867	5479.8
927.177	5486.35
927.487	5434.15
927.796	5408.39
928.106	5396.64
928.416	5377.88
928.725	5384.21
929.034	5346.47
929.344	5353.93
929.653	5290.2
929.962	5320.48
930.271	5259.47
930.581	5202.07
930.89	5213.59
931.199	5200.94
931.508	5176.3
931.817	5178.56
932.125	5173.82
932.434	5121.16
932.743	5085.91
933.051	5015.63
933.36	5035.29
933.669	4993.94
933.977	4981.06
934.286	4940.15
934.594	4930.44
934.902	4917.55
935.21	4924.79
935.519	4888.63
935.827	4883.88
936.135	4850.89
936.443	4809.31
936.751	4791
937.059	4805.24
937.367	4747.39
937.674	4791.91
937.982	4725.47
938.29	4699.48
938.597	4697.9
938.905	4661.52
939.213	4660.61
939.52	4646.15
939.827	4650.22
940.135	4581.52
940.442	4579.48
940.749	4498.58
941.056	4528.86
941.363	4524.34
941.67	4511.24
941.977	4435.53
942.284	4441.18
942.591	4419.94
942.898	4418.58
943.205	4436.66
943.511	4382.43
943.818	4383.56
944.125	4336.1
944.431	4331.58
944.738	4302.43
945.044	4273.28
945.35	4292.26
945.657	4227.4
945.963	4254.75
946.269	4207.06
946.575	4206.39
946.881	4154.86
947.187	4152.83
947.493	4144.24
947.799	4163.68
948.105	4061.76
948.41	4118.71
948.716	4082.32
949.022	4102.89
949.327	4031.48
949.633	3969.33
949.938	4029.22
950.244	3992.61
950.549	3956.68
950.854	3971.14
951.16	3937.24
951.465	3937.69
951.77	3881.88
952.075	3912.16
952.38	3894.53
952.685	3857.92
952.99	3785.38
953.294	3797.13
953.599	3841.65
953.904	3798.26
954.209	3749.22
954.513	3779.96
954.818	3752.39
955.122	3696.34
955.426	3681.65
955.731	3678.49
956.035	3669.45
956.339	3619.74
956.643	3621.09
956.948	3611.15
957.252	3593.52
957.556	3600.53
957.86	3586.52
958.163	3615.67
958.467	3530.47
958.771	3576.12
959.075	3550.81
959.378	3486.41
959.682	3491.15
959.985	3482.56
960.289	3487.31
960.592	3466.29
960.896	3434.88
961.199	3385.84
961.502	3387.2
961.805	3362.57
962.108	3351.49
962.411	3360.53
962.714	3319.86
963.017	3348.1
963.32	3334.09
963.623	3269.91
963.926	3293.42
964.228	3298.61
964.531	3265.62
964.833	3216.58
965.136	3234.66
965.438	3196.7
965.741	3195.11
966.043	3181.1
966.345	3159.18
966.648	3139.3
966.95	3165.06
967.252	3144.27
967.554	3084.83
967.856	3078.96
968.158	3052.52
968.46	3093.65
968.761	3090.48
969.063	3080.99
969.365	2988.11
969.666	3052.74
969.968	3012.07
970.269	3006.64
970.571	2984.72
970.872	2993.99
971.174	2932.52
971.475	2977.04
971.776	2919.41
972.077	2889.59
972.378	2901.34
972.679	2908.57
972.98	2862.69
973.281	2873.31
973.582	2878.29
973.883	2836.48
974.183	2840.77
974.484	2845.29
974.785	2801.23
975.085	2790.15
975.386	2782.47
975.686	2787.21
975.986	2725.52
976.287	2722.36
976.587	2765.29
976.887	2729.36
977.187	2723.26
977.487	2695.92
977.787	2681.91
978.087	2701.34
978.387	2686.43
978.687	2670.61
978.987	2652.3
979.286	2646.65
979.586	2628.8
979.885	2601.91
980.185	2618.18
980.484	2560.33
980.784	2596.03
981.083	2608.69
981.382	2563.49
981.682	2548.13
981.981	2558.07
982.28	2538.18
982.579	2530.95
982.878	2497.05
983.177	2500.89
983.475	2504.06
983.774	2485.75
984.073	2488.69
984.372	2437.39
984.67	2435.81
984.969	2442.82
985.267	2389.94
985.566	2414.12
985.864	2409.37
986.162	2394.23
986.461	2381.12
986.759	2382.71
987.057	2357.62
987.355	2329.83
987.653	2335.25
987.951	2347.45
988.249	2286.44
988.547	2330.28
988.844	2328.02
989.142	2286.44
989.44	2257.96
989.737	2264.52
990.035	2230.17
990.332	2210.05
990.63	2229.04
990.927	2212.09
991.224	2202.15
991.521	2203.95
991.819	2235.36
992.116	2182.48
992.413	2181.58
992.71	2140.68
993.006	2171.19
993.303	2156.27
993.6	2163.05
993.897	2140.23
994.193	2150.4
994.49	2128.02
994.787	2080.34
995.083	2055.03
995.379	2065.88
995.676	2051.87
995.972	2042.38
996.268	2044.86
996.565	2038.53
996.861	2091.19
997.157	2008.7
997.453	2007.12
997.749	1999.66
998.044	1973
998.34	1977.97
998.636	1960.34
998.932	1984.75
999.227	1965.32
999.523	1944.3
999.818	1922.15
1000.114	1928.71
1000.409	1893
1000.704	1885.09
1001	1917.86
1001.295	1867.69
1001.59	1867.01
1001.885	1888.93
1002.18	1881.48
1002.475	1867.01
1002.77	1826.11
1003.065	1800.35
1003.359	1832.66
1003.654	1796.05
1003.949	1816.17
1004.243	1781.82
1004.538	1780.24
1004.832	1761.93
1005.127	1768.48
1005.421	1772.1
1005.715	1760.35
1006.009	1728.94
1006.304	1739.78
1006.598	1696.17
1006.892	1700.46
1007.186	1702.05
1007.48	1689.84
1007.773	1683.06
1008.067	1659.56
1008.361	1631.09
1008.655	1638.09
1008.948	1608.94
1009.242	1631.99
1009.535	1613.69
1009.829	1586.79
1010.122	1593.35
1010.415	1589.05
1010.708	1592.44
1011.001	1584.53
1011.295	1553.35
1011.588	1552.67
1011.881	1552.45
1012.173	1525.1
1012.466	1536.4
1012.759	1539.56
1013.052	1543.86
1013.344	1519.9
1013.637	1496.18
1013.93	1490.07
1014.222	1496.63
1014.514	1458.44
1014.807	1451.2
1015.099	1460.02
1015.391	1441.26
1015.683	1409.62
1015.976	1437.65
1016.268	1418.66
1016.56	1408.95
1016.851	1384.09
1017.143	1408.49
1017.435	1382.73
1017.727	1373.01
1018.018	1357.65
1018.31	1368.95
1018.602	1379.57
1018.893	1331.89
1019.185	1332.11
1019.476	1355.61
1019.767	1333.02
1020.058	1300.7
1020.35	1292.56
1020.641	1315.84
1020.932	1300.93
1021.223	1303.41
1021.514	1245.56
1021.804	1236.07
1022.095	1246.92
1022.386	1261.61
1022.677	1257.76
1022.967	1233.58
1023.258	1223.19
1023.548	1186.13
1023.839	1245.56
1024.129	1223.64
1024.419	1215.96
1024.709	1180.7
1025	1177.09
1025.29	1174.6
1025.58	1177.09
1025.87	1141.16
1026.16	1134.6
1026.449	1167.6
1026.739	1151.78
1027.029	1150.2
1027.319	1128.73
1027.608	1142.96
1027.898	1117.88
1028.187	1111.55
1028.477	1100.48
1028.766	1088.95
1029.055	1091.89
1029.344	1079.46
1029.634	1073.36
1029.923	1073.59
1030.212	1046.92
1030.501	1069.29
1030.79	1032.68
1031.078	1038.33
1031.367	1022.74
1031.656	1036.98
1031.945	1023.19
1032.233	1014.83
1032.522	997.21
1032.81	1008.28
1033.099	1003.98
1033.387	976.42
1033.675	969.86
1033.963	963.76
1034.251	986.81
1034.54	948.17
1034.828	956.75
1035.116	947.72
1035.403	946.13
1035.691	950.2
1035.979	941.61
1036.267	928.05
1036.554	943.2
1036.842	936.42
1037.129	923.08
1037.417	921.95
1037.704	924.21
1037.992	875.63
1038.279	877.43
1038.566	896.42
1038.853	896.42
1039.14	896.42
