Data from hue_34_FLMS001491_00053.txt Node
Date: Tue Feb 07 17:25:49 GMT 2017
User: dcchb
Spectrometer: FLMS00149
Trigger mode: 0
Integration Time (sec): 2.000000E-2
Scans to average: 10
Electric dark correction enabled: true
Nonlinearity correction enabled: false
Boxcar width: 0
XAxis mode: Wavelengths
Number of Pixels in Spectrum: 2048
>>>>>Begin Spectral Data<<<<<
341.393	1.54
341.776	1.54
342.16	1.54
342.543	-75.52
342.927	-61.96
343.31	-54.05
343.693	-68.52
344.077	-67.39
344.46	-47.72
344.843	-50.89
345.226	-30.1
345.61	-53.15
345.993	-31.68
346.376	-21.51
346.759	1.31
347.142	39.96
347.525	38.37
347.908	66.62
348.291	72.95
348.674	85.83
349.057	119.95
349.44	133.74
349.823	146.85
350.206	162.44
350.588	199.27
350.971	213.29
351.354	221.19
351.737	230.91
352.119	246.28
352.502	264.13
352.884	283.11
353.267	271.81
353.65	271.59
354.032	322.44
354.414	332.15
354.797	317.92
355.179	333.96
355.562	328.99
355.944	327.18
356.326	341.64
356.709	338.71
357.091	353.17
357.473	338.71
357.855	338.03
358.238	350.46
358.62	352.72
359.002	364.47
359.384	354.98
359.766	329.67
360.148	339.61
360.53	341.42
360.912	359.04
361.294	318.14
361.676	329.89
362.057	344.81
362.439	336.9
362.821	336.22
363.203	341.64
363.584	300.06
363.966	315.66
364.348	326.73
364.729	334.64
365.111	331.25
365.493	348.88
365.874	305.03
366.256	332.15
366.637	314.75
367.019	325.6
367.4	339.38
367.781	332.38
368.163	333.28
368.544	328.31
368.925	306.16
369.306	312.49
369.688	330.34
370.069	330.34
370.45	331.7
370.831	305.94
371.212	314.3
371.593	288.99
371.974	319.95
372.355	326.28
372.736	345.03
373.117	322.21
373.498	317.24
373.879	313.85
374.26	321.76
374.641	313.85
375.021	322.21
375.402	324.92
375.783	332.38
376.163	330.12
376.544	345.03
376.925	340.29
377.305	338.71
377.686	317.01
378.066	355.2
378.447	331.7
378.827	328.54
379.208	345.03
379.588	350.68
379.968	335.32
380.349	340.97
380.729	347.07
381.109	351.36
381.489	345.03
381.87	339.61
382.25	359.04
382.63	334.19
383.01	370.57
383.39	336.22
383.77	338.71
384.15	340.97
384.53	346.62
384.91	361.08
385.29	340.74
385.67	357.69
386.049	354.98
386.429	347.75
386.809	357.46
387.189	369.67
387.568	340.74
387.948	359.04
388.328	339.16
388.707	366.73
389.087	373.06
389.466	371.93
389.846	392.49
390.225	384.58
390.605	378.48
390.984	368.54
391.363	371.93
391.743	379.61
392.122	369.44
392.501	370.12
392.881	373.51
393.26	366.5
393.639	372.38
394.018	369.67
394.397	376.9
394.776	368.76
395.155	371.47
395.534	385.94
395.913	389.1
396.292	409.89
396.671	397.24
397.05	388.65
397.429	383.45
397.808	394.07
398.186	380.74
398.565	373.73
398.944	399.5
399.323	404.24
399.701	408.31
400.08	382.77
400.458	393.85
400.837	381.64
401.215	393.62
401.594	391.36
401.972	426.39
402.351	404.47
402.729	400.17
403.107	408.31
403.486	406.95
403.864	425.94
404.242	411.02
404.62	412.38
404.999	415.54
405.377	433.62
405.755	431.58
406.133	431.36
406.511	439.27
406.889	427.52
407.267	454.86
407.645	433.17
408.023	437.46
408.401	427.29
408.779	447.63
409.156	453.96
409.534	448.99
409.912	436.56
410.29	457.12
410.667	447.18
411.045	460.06
411.422	445.37
411.8	464.13
412.178	457.57
412.555	472.94
412.933	469.78
413.31	469.32
413.687	472.94
414.065	479.95
414.442	473.84
414.819	479.04
415.197	498.25
415.574	482.43
415.951	502.54
416.328	511.81
416.705	509.1
417.082	486.95
417.46	498.02
417.837	514.52
418.214	499.38
418.591	499.15
418.967	499.61
419.344	519.04
419.721	528.53
420.098	514.75
420.475	532.82
420.852	524.01
421.228	526.5
421.605	535.31
421.982	547.06
422.358	565.82
422.735	543.9
423.111	550
423.488	517.01
423.864	551.58
424.241	530.79
424.617	547.51
424.994	544.8
425.37	564.91
425.746	567.17
426.123	575.54
426.499	555.42
426.875	563.11
427.251	594.52
427.627	586.61
428.003	578.7
428.379	596.1
428.756	592.48
429.132	582.77
429.507	602.65
429.883	613.73
430.259	608.08
430.635	634.29
431.011	616.21
431.387	617.79
431.763	630.68
432.138	642.43
432.514	666.15
432.89	667.96
433.265	694.85
433.641	662.09
434.016	654.4
434.392	672.71
434.767	687.62
435.143	679.94
435.518	688.98
435.894	685.82
436.269	683.78
436.644	700.5
437.02	703.44
437.395	743.67
437.77	706.83
438.145	697.57
438.52	749.54
438.895	745.02
439.271	734.85
439.646	748.86
440.021	767.17
440.395	749.09
440.77	749.54
441.145	740.73
441.52	735.08
441.895	746.38
442.27	775.76
442.645	792.93
443.019	770.11
443.394	781.41
443.769	810.56
444.143	790.22
444.518	805.81
444.892	809.43
445.267	801.97
445.641	798.13
446.016	831.35
446.39	803.33
446.764	824.12
447.139	798.58
447.513	807.62
447.887	813.95
448.262	815.08
448.636	848.3
449.01	837.45
449.384	832.93
449.758	855.3
450.132	839.03
450.506	866.83
450.88	872.03
451.254	865.02
451.628	887.62
452.002	901.85
452.376	897.11
452.75	870.67
453.123	907.96
453.497	915.41
453.871	907.28
454.244	947.73
454.618	947.5
454.992	942.76
455.365	940.05
455.739	958.12
456.112	975.3
456.486	1004.23
456.859	969.2
457.232	992.7
457.606	1009.65
457.979	1017.33
458.352	1030.89
458.725	1048.74
459.099	1044.22
459.472	1055.75
459.845	1057.78
460.218	1089.42
460.591	1118.8
460.964	1108.18
461.337	1124.9
461.71	1138.91
462.083	1130.1
462.456	1164.9
462.829	1165.35
463.201	1196.31
463.574	1198.8
463.947	1194.95
464.32	1222.3
464.692	1227.27
465.065	1256.87
465.438	1284.44
465.81	1292.35
466.183	1284.9
466.555	1294.39
466.928	1305.69
467.3	1325.57
467.672	1347.94
468.045	1381.39
468.417	1396.76
468.789	1397.89
469.161	1435.4
469.534	1429.52
469.906	1465.68
470.278	1472.46
470.65	1510.88
471.022	1558.79
471.394	1593.14
471.766	1596.98
472.138	1622.06
472.51	1667.26
472.882	1647.15
473.253	1690.08
473.625	1749.97
473.997	1770.98
474.369	1794.94
474.74	1779.57
475.112	1864.77
475.484	1884.88
475.855	1938.44
476.227	1963.75
476.598	2027.93
476.97	2042.84
477.341	2107.47
477.713	2160.35
478.084	2156.51
478.455	2245.1
478.827	2296.62
479.198	2372.55
479.569	2386.11
479.94	2463.62
480.311	2520.8
480.682	2583.17
481.053	2640.57
481.424	2665.65
481.795	2777.51
482.166	2834.01
482.537	2865.64
482.908	2991.97
483.279	3007.34
483.65	3082.59
484.021	3164.62
484.391	3270.61
484.762	3317.84
485.133	3345.63
485.503	3437.83
485.874	3582.01
486.244	3647.77
486.615	3733.19
486.985	3763.93
487.356	3872.62
487.726	3940.87
488.097	4047.31
488.467	4085.95
488.837	4227.87
489.207	4297.7
489.578	4373.18
489.948	4466.96
490.318	4546.96
490.688	4643.9
491.058	4733.39
491.428	4858.59
491.798	4917.12
492.168	5087.96
492.538	5082.76
492.908	5202.08
493.278	5280.27
493.648	5367.27
494.017	5435.75
494.387	5515.74
494.757	5591.22
495.126	5694.27
495.496	5754.83
495.866	5829.86
496.235	5944.89
496.605	6006.35
496.974	6114.83
497.344	6191.66
497.713	6229.4
498.082	6335.84
498.452	6430.52
498.821	6476.85
499.19	6477.98
499.559	6602.72
499.928	6648.37
500.298	6722.49
500.667	6844.75
501.036	6793.45
501.405	6870.74
501.774	6943.05
502.143	7034.12
502.512	7084.29
502.88	7212.42
503.249	7204.51
503.618	7307.11
503.987	7404.28
504.356	7379.65
504.724	7465.52
505.093	7580.78
505.462	7598.18
505.83	7630.94
506.199	7778.96
506.567	7802.69
506.936	7784.61
507.304	7934.66
507.672	7998.17
508.041	7996.58
508.409	8149.12
508.777	8220.31
509.145	8290.14
509.514	8286.97
509.882	8346.86
510.25	8359.51
510.618	8393.41
510.986	8461.88
511.354	8520.64
511.722	8593.86
512.09	8651.93
512.458	8636.57
512.826	8756.79
513.193	8778.48
513.561	8886.5
513.929	8973.51
514.297	8978.7
514.664	9060.51
515.032	9081.98
515.4	9166.27
515.767	9168.98
516.135	9269.09
516.502	9195.65
516.869	9349.77
517.237	9348.86
517.604	9363.55
517.972	9478.8
518.339	9521.52
518.706	9601.06
519.073	9546.83
519.44	9606.03
519.808	9704.56
520.175	9736.65
520.542	9819.81
520.909	9895.74
521.276	9908.62
521.643	9952.46
522.009	10051.22
522.376	10074.95
522.743	10193.81
523.11	10210.99
523.477	10336.18
523.843	10410.76
524.21	10501.6
524.577	10501.15
524.943	10624.09
525.31	10641.49
525.676	10678.55
526.043	10765.78
526.409	10784.08
526.776	10849.84
527.142	10904.98
527.508	10995.6
527.874	11095.94
528.241	11140.68
528.607	11170.06
528.973	11264.07
529.339	11291.86
529.705	11359.66
530.071	11420.45
530.437	11502.25
530.803	11556.04
531.169	11563.95
531.535	11725.07
531.901	11666.77
532.267	11766.65
532.632	11767.56
532.998	11919.42
533.364	11944.05
533.73	11990.6
534.095	12029.47
534.461	12111.28
534.826	12081.67
535.192	12224.04
535.557	12266.08
535.923	12333.64
536.288	12342.68
536.653	12412.96
537.019	12412.96
537.384	12447.09
537.749	12550.59
538.114	12590.59
538.479	12548.33
538.845	12638.27
539.21	12666.74
539.575	12772.28
539.94	12747.42
540.305	12874.65
540.67	12896.57
541.034	12876.68
541.399	12988.09
541.764	13053.63
542.129	13127.3
542.494	13093.17
542.858	13174.3
543.223	13213.17
543.587	13366.39
543.952	13237.58
544.316	13377.68
544.681	13364.35
545.045	13510.11
545.41	13513.95
545.774	13559.83
546.138	13643.67
546.503	13668.07
546.867	13682.54
547.231	13778.13
547.595	13829.65
547.959	13861.29
548.324	13904
548.688	13943.32
549.052	14004.34
549.416	14071.68
549.779	14013.6
550.143	14127.5
550.507	14273.03
550.871	14250.2
551.235	14211.79
551.599	14417.21
551.962	14371.33
552.326	14504.66
552.689	14498.11
553.053	14453.59
553.417	14497.66
553.78	14701.49
554.143	14596.64
554.507	14723.86
554.87	14734.03
555.234	14954.59
555.597	14822.62
555.96	14793.69
556.323	14939.23
556.686	14987.59
557.05	15079.34
557.413	15109.39
557.776	15062.16
558.139	15310.29
558.502	15190.52
558.865	15254.7
559.228	15456.27
559.59	15430.74
559.953	15468.7
560.316	15718.19
560.679	15568.14
561.041	15701.92
561.404	15760.9
561.767	15820.33
562.129	15852.2
562.492	16004.06
562.854	15899.88
563.217	15901.69
563.579	15981.46
563.941	16111.85
564.304	16169.25
564.666	16364.05
565.028	16188.68
565.39	16276.14
565.753	16467.1
566.115	16442.69
566.477	16500.31
566.839	16646.07
567.201	16690.82
567.563	16767.43
567.925	16805.39
568.287	16874.99
568.648	16864.82
569.01	16924.94
569.372	17124.48
569.734	16990.47
570.095	17237.02
570.457	17299.62
570.819	17270.24
571.18	17340.52
571.542	17387.3
571.903	17479.05
572.265	17576.67
572.626	17552.49
572.987	17743.9
573.349	17790.22
573.71	17865.93
574.071	17869.09
574.432	18020.05
574.794	18199.48
575.155	18247.84
575.516	18256.43
575.877	18452.81
576.238	18499.36
576.599	18649.41
576.96	18672.91
577.32	18707.04
577.681	19006.69
578.042	19088.72
578.403	19173.69
578.763	19287.81
579.124	19446.9
579.485	19679.67
579.845	19811.64
580.206	19823.62
580.566	20012.54
580.927	20165.98
581.287	20341.12
581.648	20454.11
582.008	20605.74
582.368	20916.02
582.728	21036.01
583.089	21148.1
583.449	21283.24
583.809	21599.84
584.169	21680.29
584.529	21895.43
584.889	22301.52
585.249	22224.91
585.609	22407.5
585.969	22758.46
586.329	22873.48
586.688	23245.22
587.048	23307.82
587.408	23395.05
587.768	23723.4
588.127	23849.73
588.487	24158.87
588.846	24573.1
589.206	24609.25
589.565	24887.66
589.925	25272.74
590.284	25328.33
590.643	25731.26
591.003	25933.51
591.362	26149.33
591.721	26411.01
592.08	26640.61
592.44	26963.77
592.799	27187.04
593.158	27448.5
593.517	27623.41
593.876	27935.27
594.235	28066.34
594.593	28320.57
594.952	28677.62
595.311	28726.21
595.67	29131.62
596.029	29424.49
596.387	29694.32
596.746	29964.59
597.104	30033.07
597.463	30149.22
597.822	30619.49
598.18	30836.89
598.538	30907.17
598.897	31332.69
599.255	31202.3
599.613	31973.13
599.972	32011.77
600.33	32143.52
600.688	32292.22
601.046	32649.49
601.404	32870.51
601.762	33065.3
602.12	33381
602.478	33419.19
602.836	33759.07
603.194	33769.69
603.552	33915
603.91	33969.23
604.268	34477.47
604.625	34491.48
604.983	34815.77
605.341	34874.52
605.698	35338.92
606.056	35385.69
606.413	35534.16
606.771	35771.9
607.128	36046.92
607.485	35917.21
607.843	36084.43
608.2	36380.47
608.557	36725.55
608.914	36713.79
609.272	36964.41
609.629	37059.32
609.986	37292.54
610.343	37209.6
610.7	37756.48
611.057	37742.47
611.414	37946.76
611.771	38000.09
612.127	38305.62
612.484	38409.34
612.841	38591.71
613.198	38430.13
613.554	38788.77
613.911	39111.92
614.267	39061.98
614.624	38989.89
614.98	39262.88
615.337	39464.23
615.693	39463.78
616.05	39657.45
616.406	39965.01
616.762	39754.39
617.118	39903.77
617.475	39812.7
617.831	40152.12
618.187	40200.93
618.543	40514.15
618.899	40688.15
619.255	40570.87
619.611	40612.9
619.967	40861.03
620.323	40924.53
620.678	40864.19
621.034	40803.86
621.39	40900.58
621.746	41094.7
622.101	41480.22
622.457	41251.98
622.812	41328.81
623.168	41512.76
623.523	41621.91
623.879	41720.67
624.234	41505.08
624.589	41756.83
624.945	41723.38
625.3	41930.83
625.655	41927.67
626.01	41960.89
626.365	42001.34
626.72	41928.57
627.075	41948.23
627.43	42010.15
627.785	41971.74
628.14	42149.36
628.495	42202.01
628.85	42204.95
629.205	42000.89
629.559	42243.14
629.914	42207.66
630.269	42253.31
630.623	42139.19
630.978	42010.38
631.332	42444.04
631.687	42399.52
632.041	42300.99
632.396	42346.41
632.75	42188.45
633.104	42399.07
633.459	42176.7
633.813	42255.12
634.167	42215.12
634.521	42239.52
634.875	42361.1
635.229	42432.29
635.583	42143.48
635.937	42147.78
636.291	42296.25
636.645	42139.64
636.999	42083.37
637.352	42278.39
637.706	41907.78
638.06	42186.87
638.413	42130.15
638.767	42062.13
639.121	42150.49
639.474	41902.81
639.828	41942.13
640.181	42091.73
640.534	42201.11
640.888	41880.66
641.241	41891.74
641.594	41959.98
641.947	41972.41
642.301	41826.43
642.654	42003.37
643.007	41888.57
643.36	41818.97
643.713	41836.82
644.066	42009.93
644.419	41845.64
644.771	41455.59
645.124	41084.53
645.477	41104.19
645.83	40844.31
646.182	40796.85
646.535	40536.74
646.888	40738.32
647.24	40496.29
647.593	40720.69
647.945	40632.79
648.298	40524.32
648.65	40431.66
649.002	40324.77
649.355	40418.78
649.707	40462.85
650.059	40682.28
650.411	41022.38
650.763	41249.49
651.115	41413.56
651.467	41330.4
651.819	41392.32
652.171	41201.81
652.523	41382.82
652.875	41271.19
653.227	41006.79
653.578	41389.15
653.93	41307.35
654.282	41052.89
654.633	40978.32
654.985	41083.85
655.337	41129.95
655.688	41138.76
656.039	41313
656.391	40816.96
656.742	40979.67
657.094	41075.49
657.445	41275.93
657.796	40918.88
658.147	40912.78
658.498	41007.69
658.849	41136.28
659.2	40929.05
659.551	40972.67
659.902	41073.68
660.253	40924.76
660.604	40936.51
660.955	40704.88
661.306	40938.77
661.656	40782.84
662.007	40820.35
662.358	40685.22
662.708	40810.64
663.059	40818.32
663.409	40523.86
663.76	40950.07
664.11	40838.66
664.461	40796.4
664.811	40868.49
665.161	40862.61
665.511	40652.9
665.862	40660.81
666.212	40801.14
666.562	40892.22
666.912	40819
667.262	40663.3
667.612	40657.42
667.962	40790.3
668.312	40688.83
668.662	40923.4
669.011	40671.66
669.361	40784.2
669.711	40758.66
670.06	40654.93
670.41	40601.83
670.76	40482.06
671.109	40622.39
671.459	40712.56
671.808	40612
672.157	40644.09
672.507	40473.92
672.856	40533.81
673.205	40554.37
673.554	40651.09
673.904	40404.54
674.253	40738.32
674.602	40431.21
674.951	39904.22
675.3	39819.93
675.649	40466.69
675.998	40362.74
676.346	40286.36
676.695	40460.81
677.044	40150.09
677.393	40186.92
677.741	40369.74
678.09	40161.16
678.438	40117.09
678.787	40205.68
679.135	40224.21
679.484	39972.69
679.832	40077.77
680.181	39928.63
680.529	40033.03
680.877	39812.7
681.225	39769.53
681.573	40083.2
681.922	39697.22
682.27	39572.7
682.618	39753.71
682.966	39593.72
683.314	39701.96
683.661	39643.66
684.009	39315.76
684.357	39358.7
684.705	39324.12
685.053	39441.41
685.4	39292.03
685.748	39138.36
686.095	39138.82
686.443	38913.96
686.79	39040.29
687.138	39074.64
687.485	38845.72
687.832	38773.4
688.18	38763.23
688.527	38657.92
688.874	38607.98
689.221	38481.43
689.568	38544.48
689.915	38537.25
690.262	38484.14
690.609	38291.61
690.956	38152.4
691.303	38196.47
691.65	37832.86
691.997	37955.12
692.344	37713.54
692.69	37677.39
693.037	37702.47
693.383	37455.47
693.73	37556.03
694.077	37465.19
694.423	37368.24
694.769	37127.34
695.116	37033.33
695.462	37122.15
695.808	36997.18
696.155	37008.25
696.501	36735.04
696.847	36800.35
697.193	36456.17
697.539	36608.26
697.885	36433.12
698.231	36404.42
698.577	36351.09
698.923	36378.66
699.269	36167.82
699.614	35873.82
699.96	35914.04
700.306	35899.35
700.651	35936.41
700.997	35618.23
701.342	35659.13
701.688	35451.91
702.033	35457.78
702.379	35318.8
702.724	35409.65
703.069	35352.7
703.415	35039.71
703.76	35072.03
704.105	34961.3
704.45	34918.81
704.795	34723.11
705.14	34633.17
705.485	34490.35
705.83	34388.21
706.175	34476.57
706.52	34372.39
706.865	34343.91
707.209	34332.84
707.554	34072.96
707.899	34237.48
708.243	33958.39
708.588	34015.79
708.932	33668.68
709.277	33665.74
709.621	33773.76
709.966	33602.46
710.31	33788.9
710.654	33239.76
710.998	33376.26
711.342	33481.34
711.687	33286.54
712.031	33118.18
712.375	33125.64
712.719	33120.22
713.063	32935.81
713.407	32981.46
713.75	32906.66
714.094	32867.12
714.438	32642.49
714.782	32709.83
715.125	32656.73
715.469	32552.32
715.812	32458.77
716.156	32258.54
716.499	32254.02
716.843	32410.86
717.186	32215.61
717.53	32376.51
717.873	32297.87
718.216	32133.8
718.559	31999.57
718.902	31902.85
719.246	31976.52
719.589	31850.65
719.932	31623.31
720.275	31799.12
720.617	31701.72
720.96	31621.05
721.303	31448.62
721.646	31511.22
721.989	31309.19
722.331	31437.78
722.674	31368.17
723.016	31295.86
723.359	31199.59
723.701	31413.59
724.044	31140.16
724.386	31063.77
724.729	31113.04
725.071	31074.17
725.413	31027.16
725.755	31024.45
726.097	30801.18
726.439	30665.14
726.782	30781.75
727.124	30838.47
727.465	30698.36
727.807	30743.56
728.149	30571.36
728.491	30591.92
728.833	30678.47
729.175	30452.94
729.516	30471.7
729.858	30443.22
730.199	30481.87
730.541	30343.11
730.882	30203.23
731.224	30271.25
731.565	30152.84
731.906	30157.81
732.248	30104.25
732.589	29982.67
732.93	29952.39
733.271	29965.95
733.612	29920.3
733.953	30013.41
734.294	29828.55
734.635	29738.38
734.976	29819.74
735.317	29639.4
735.658	29710.59
735.999	29660.65
736.339	29506.75
736.68	29609.35
737.021	29433.53
737.361	29339.75
737.702	29562.34
738.042	29354.67
738.383	29350.37
738.723	29446.64
739.063	29181.34
739.404	29376.36
739.744	29186.08
740.084	29133.2
740.424	29211.39
740.764	29147.44
741.104	29154.67
741.444	28953.09
741.784	29019.53
742.124	29010.72
742.464	28844.85
742.804	28855.7
743.143	28862.48
743.483	28864.51
743.823	28676.27
744.162	28681.01
744.502	28709.71
744.841	28582.71
745.181	28724.85
745.52	28597.62
745.86	28508.59
746.199	28555.82
746.538	28401.47
746.877	28406.89
747.216	28409.15
747.556	28358.08
747.895	28347.91
748.234	28189.5
748.573	28118.09
748.911	28088.71
749.25	28095.26
749.589	28001.93
749.928	27990.18
750.267	27920.58
750.605	27848.49
750.944	27793.13
751.283	27713.81
751.621	27789.06
751.96	27549.06
752.298	27667.25
752.636	27711.09
752.975	27516.75
753.313	27422.29
753.651	27594.03
753.989	27372.57
754.327	27215.29
754.666	27142.29
755.004	27217.55
755.342	27360.14
755.679	27299.8
756.017	27022.75
756.355	26974.16
756.693	26861.62
757.031	27115.4
757.368	26761.51
757.706	26708.41
758.044	26690.78
758.381	26749.31
758.719	26628.86
759.056	26684.45
759.394	26548.19
759.731	26322.2
760.068	26269.1
760.405	26326.5
760.743	26113.85
761.08	26286.05
761.417	26029.33
761.754	26010.8
762.091	25848.77
762.428	25944.81
762.765	25694.65
763.102	25747.98
763.438	25654.65
763.775	25599.51
764.112	25551.38
764.449	25586.86
764.785	25459.63
765.122	25264.15
765.458	25227.77
765.795	25197.71
766.131	25113.2
766.467	25072.97
766.804	24864.61
767.14	24693.09
767.476	24805.86
767.812	24653.77
768.148	24698.74
768.485	24578.29
768.821	24351.86
769.157	24409.03
769.492	24365.87
769.828	24229.15
770.164	23988.48
770.5	24019.89
770.836	24015.37
771.171	23762.04
771.507	23755.04
771.842	23590.52
772.178	23683.85
772.513	23654.02
772.849	23426.69
773.184	23363.41
773.519	23350.08
773.855	23235.05
774.19	23129.97
774.525	23065.11
774.86	23005.23
775.195	22907.38
775.53	22927.72
775.865	22699.02
776.2	22649.53
776.535	22512.59
776.87	22573.6
777.205	22452.7
777.539	22310.78
777.874	22382.19
778.209	22125.7
778.543	22126.61
778.878	21955.31
779.212	21984.69
779.547	21852.26
779.881	21823.11
780.215	21726.39
780.55	21794.86
780.884	21662.66
781.218	21561.65
781.552	21542.89
781.886	21285.73
782.22	21255.9
782.554	21168.67
782.888	20901.78
783.222	20963.93
783.556	20896.13
783.889	20752.41
784.223	20649.36
784.557	20630.38
784.89	20680.54
785.224	20536.82
785.557	20436.48
785.891	20422.47
786.224	20352.87
786.558	20290.27
786.891	20132.54
787.224	20052.76
787.557	20017.51
787.891	19969.83
788.224	19888.02
788.557	19915.37
788.89	19822.26
789.223	19819.78
789.556	19716.5
789.888	19598.31
790.221	19549.27
790.554	19308.6
790.887	19334.82
791.219	19307.92
791.552	19281.94
791.884	19173.92
792.217	19073.58
792.549	19006.69
792.882	18843.98
793.214	18775.74
793.546	18849.86
793.879	18781.38
794.211	18669.3
794.543	18669.07
794.875	18544.1
795.207	18636.53
795.539	18452.81
795.871	18377.1
796.203	18293.26
796.535	18131.68
796.867	18141.18
797.198	18134.62
797.53	18113.83
797.862	18041.97
798.193	18059.37
798.525	17974.4
798.856	17897.11
799.188	17742.99
799.519	17693.96
799.85	17562.21
800.182	17667.06
800.513	17665.71
800.844	17479.95
801.175	17596.78
801.506	17428.2
801.837	17380.52
802.168	17390.46
802.499	17330.12
802.83	17185.95
803.161	17176.91
803.491	17160.18
803.822	17194.08
804.153	17008.55
804.483	16917.7
804.814	16766.07
805.145	16868.21
805.475	16811.72
805.805	16747.54
806.136	16754.32
806.466	16712.06
806.796	16642.68
807.126	16544.83
807.457	16456.25
807.787	16471.39
808.117	16408.34
808.447	16399.07
808.777	16342.13
809.107	16350.04
809.436	16234.11
809.766	16200.89
810.096	16097.16
810.426	16100.33
810.755	16160.66
811.085	16090.61
811.414	16071.85
811.744	15816.04
812.073	15912.08
812.403	15900.56
812.732	15810.62
813.061	15679.32
813.39	15747.11
813.719	15598.19
814.049	15738.07
814.378	15679.09
814.707	15539.21
815.036	15583.95
815.365	15416.73
815.693	15393.9
816.022	15366.11
816.351	15347.12
816.68	15259.9
817.008	15201.37
817.337	15108.26
817.665	15120.69
817.994	15207.02
818.322	15132.67
818.651	15062.84
818.979	14978.55
819.307	15079.11
819.636	14944.88
819.964	14931.77
820.292	15006.34
820.62	14962.28
820.948	14850.87
821.276	14958.43
821.604	14816.29
821.932	14885.89
822.259	14886.57
822.587	14886.8
822.915	14799.57
823.243	14904.2
823.57	14746.91
823.898	14844.31
824.225	14837.08
824.553	14728.61
824.88	14773.13
825.207	14861.49
825.535	14826.01
825.862	14823.3
826.189	14735.84
826.516	14766.12
826.843	14802.96
827.17	14796.86
827.497	14818.78
827.824	14823.07
828.151	14798.44
828.478	14748.72
828.805	14819.23
829.131	14724.99
829.458	14710.31
829.785	14652.91
830.111	14687.26
830.438	14784.43
830.764	14748.04
831.09	14770.42
831.417	14642.28
831.743	14739.01
832.069	14604.32
832.395	14757.31
832.722	14680.7
833.048	14624.88
833.374	14670.53
833.7	14594.38
834.026	14601.38
834.351	14615.84
834.677	14600.7
835.003	14579.01
835.329	14597.54
835.654	14534.04
835.98	14495.4
836.306	14496.75
836.631	14444.1
836.956	14589.18
837.282	14446.13
837.607	14440.48
837.932	14423.99
838.258	14332.01
838.583	14292.46
838.908	14290.88
839.233	14259.47
839.558	14325.46
839.883	14192.8
840.208	14167.27
840.533	14162.98
840.858	14169.75
841.182	14154.84
841.507	14139.92
841.832	14023.77
842.156	14029.87
842.481	14045.24
842.805	13888.41
843.13	13912.59
843.454	13893.15
843.778	13840.72
844.103	13887.05
844.427	13843.44
844.751	13822.65
845.075	13704.46
845.399	13700.84
845.723	13674.63
846.047	13620.84
846.371	13539.49
846.695	13576.32
847.019	13411.36
847.343	13330.45
847.666	13219.5
847.99	13307.86
848.313	13273.73
848.637	13151.93
848.96	13092.72
849.284	13144.47
849.607	13018.37
849.931	12981.31
850.254	12939.73
850.577	12847.98
850.9	12741.77
851.223	12763.92
851.546	12694.99
851.869	12611.38
852.192	12651.15
852.515	12574.54
852.838	12485.51
853.161	12474.88
853.483	12423.81
853.806	12354.44
854.129	12467.43
854.451	12360.31
854.774	12288.45
855.096	12235.79
855.419	12151.5
855.741	12164.16
856.063	12062.24
856.385	12037.83
856.708	12032.18
857.03	11962.13
857.352	11882.81
857.674	11964.61
857.996	11926.2
858.318	11811.4
858.64	11851.4
858.961	11715.81
859.283	11727.11
859.605	11683.72
859.926	11803.04
860.248	11629.71
860.57	11623.61
860.891	11647.33
861.212	11619.54
861.534	11543.16
861.855	11521.69
862.176	11463.16
862.498	11418.19
862.819	11449.83
863.14	11428.58
863.461	11434.23
863.782	11354.01
864.103	11370.05
864.424	11352.65
864.745	11398.08
865.065	11253.45
865.386	11303.84
865.707	11234.46
866.027	11196.95
866.348	11222.26
866.668	11185.43
866.989	11105.88
867.309	11085.77
867.63	11188.59
867.95	11082.6
868.27	10959.22
868.59	11011.87
868.91	10968.93
869.23	10963.06
869.55	10943.4
869.87	11034.92
870.19	10916.73
870.51	10923.51
870.83	11016.84
871.15	10904.98
871.469	10900.91
871.789	10862.04
872.109	10831.09
872.428	10850.07
872.748	10878.54
873.067	10829.28
873.386	10797.41
873.706	10759.9
874.025	10771.65
874.344	10704.53
874.663	10762.84
874.982	10739.11
875.301	10719.9
875.62	10676.97
875.939	10617.98
876.258	10601.71
876.577	10604.42
876.896	10663.86
877.214	10546.12
877.533	10581.15
877.852	10563.52
878.17	10559
878.489	10566.69
878.807	10489.17
879.125	10443.52
879.444	10487.82
879.762	10436.75
880.08	10418.44
880.398	10378.44
880.716	10401.49
881.034	10319.23
881.352	10367.14
881.67	10283.98
881.988	10257.09
882.306	10239.01
882.624	10250.31
882.941	10212.8
883.259	10186.81
883.577	10117.66
883.894	10113.14
884.212	10038.79
884.529	10071.11
884.846	10079.47
885.164	10010.54
885.481	9963.31
885.798	10013.71
886.115	9909.75
886.432	9997.89
886.75	9944.78
887.067	9933.26
887.383	9881.96
887.7	9891.45
888.017	9888.51
888.334	9782.53
888.651	9748.63
888.967	9812.58
889.284	9809.42
889.6	9698.23
889.917	9610.78
890.233	9650.78
890.55	9676.99
890.866	9658.91
891.182	9533.72
891.498	9570.1
891.815	9502.53
892.131	9443.78
892.447	9432.93
892.763	9422.99
893.079	9409.2
893.395	9328.07
893.71	9335.31
894.026	9327.4
894.342	9326.72
894.657	9202.2
894.973	9235.65
895.289	9261.41
895.604	9227.51
895.92	9111.36
896.235	9132.37
896.55	9079.94
896.865	9046.5
897.181	9055.31
897.496	8959.04
897.811	8994.07
898.126	8913.4
898.441	8888.76
898.756	8844.24
899.071	8799.05
899.386	8825.04
899.7	8768.31
900.015	8749.56
900.33	8709.11
900.644	8667.53
900.959	8696.9
901.273	8668.88
901.588	8617.58
901.902	8503.91
902.216	8550.24
902.531	8533.74
902.845	8495.78
903.159	8413.3
903.473	8396.57
903.787	8328.33
904.101	8369.91
904.415	8293.52
904.729	8277.48
905.042	8264.83
905.356	8234.32
905.67	8185.05
905.984	8220.53
906.297	8183.92
906.611	8103.47
906.924	8097.82
907.237	8024.15
907.551	7963.36
907.864	8001.56
908.177	7969.24
908.491	7981.67
908.804	7944.38
909.117	7830.26
909.43	7759.3
909.743	7828.23
910.056	7751.84
910.368	7721.34
910.681	7680.66
910.994	7697.61
911.307	7617.61
911.619	7620.55
911.932	7585.75
912.244	7508.23
912.557	7530.16
912.869	7488.8
913.181	7489.48
913.494	7461
913.806	7358.86
914.118	7334.91
914.43	7278.18
914.742	7303.49
915.054	7258.52
915.366	7290.61
915.678	7211.97
915.99	7158.19
916.302	7060.79
916.613	7118.19
916.925	7110.73
917.236	7056.72
917.548	7051.07
917.859	7047.23
918.171	6956.16
918.482	6931.07
918.794	6852.21
919.105	6916.16
919.416	6816.73
919.727	6844.07
920.038	6716.17
920.349	6766.56
920.66	6696.73
920.971	6764.3
921.282	6675.94
921.593	6632.55
921.903	6575.83
922.214	6540.8
922.525	6605.43
922.835	6527.47
923.146	6450.86
923.456	6458.09
923.767	6469.17
924.077	6450.18
924.387	6475.72
924.697	6338.77
925.008	6365.89
925.318	6333.8
925.628	6341.03
925.938	6313.92
926.248	6270.75
926.558	6190.3
926.867	6224.43
927.177	6139.68
927.487	6135.62
927.796	6089.74
928.106	6062.17
928.416	6023.98
928.725	6034.38
929.034	5997.77
929.344	6034.83
929.653	5981.04
929.962	5884.77
930.271	5899.69
930.581	5882.51
930.89	5840.26
931.199	5809.3
931.508	5810.43
931.817	5818.56
932.125	5734.27
932.434	5693.59
932.743	5694.5
933.051	5662.18
933.36	5653.14
933.669	5642.52
933.977	5630.77
934.286	5564.78
934.594	5635.29
934.902	5555.97
935.21	5460.83
935.519	5500.83
935.827	5498.12
936.135	5434.62
936.443	5416.99
936.751	5393.04
937.059	5375.86
937.367	5384
937.674	5336.31
937.982	5341.06
938.29	5302.87
938.597	5218.58
938.905	5253.83
939.213	5210.22
939.52	5198.92
939.827	5169.09
940.135	5129.77
940.442	5121.4
940.749	5091.8
941.056	5084.57
941.363	5063.55
941.67	5023.55
941.977	4993.5
942.284	4968.87
942.591	5019.71
942.898	4915.31
943.205	4971.58
943.511	4941.3
943.818	4921.18
944.125	4839.38
944.431	4859.04
944.738	4779.27
945.044	4767.74
945.35	4774.07
945.657	4728.65
945.963	4759.83
946.269	4694.07
946.575	4713.05
946.881	4648.65
947.187	4686.84
947.493	4599.84
947.799	4615.2
948.105	4630.57
948.41	4570.46
948.716	4557.58
949.022	4553.51
949.327	4571.14
949.633	4506.28
949.938	4493.62
950.244	4474.42
950.549	4437.58
950.854	4403.46
951.16	4368.88
951.465	4395.55
951.77	4349.22
952.075	4391.48
952.38	4305.16
952.685	4307.19
952.99	4240.98
953.294	4315.78
953.599	4265.38
953.904	4246.85
954.209	4197.81
954.513	4190.81
954.818	4197.81
955.122	4163.24
955.426	4149
955.731	4166.18
956.035	4095.22
956.339	4114.2
956.643	4049.12
956.948	4056.57
957.252	4032.62
957.556	4043.69
957.86	4065.39
958.163	3983.81
958.467	3980.19
958.771	3947.65
959.075	3915.56
959.378	3939.52
959.682	3897.03
959.985	3897.26
960.289	3875.56
960.592	3850.93
960.896	3836.47
961.199	3868.56
961.502	3824.04
961.805	3780.65
962.108	3797.82
962.411	3786.75
962.714	3732.29
963.017	3720.31
963.32	3704.49
963.623	3711.05
963.926	3688
964.228	3645.74
964.531	3654.1
964.833	3656.58
965.136	3632.4
965.438	3595.8
965.741	3560.77
966.043	3561.67
966.345	3535.91
966.648	3522.12
966.95	3546.98
967.252	3461.79
967.554	3459.3
967.856	3488.23
968.158	3430.83
968.46	3458.85
968.761	3438.06
969.063	3392.41
969.365	3391.28
969.666	3405.52
969.968	3389.92
970.269	3362.36
970.571	3318.74
970.872	3323.03
971.174	3308.12
971.475	3315.58
971.776	3250.95
972.077	3269.7
972.378	3254.34
972.679	3214.34
972.98	3231.06
973.281	3196.71
973.582	3183.6
973.883	3191.96
974.183	3163.04
974.484	3160.33
974.785	3137.05
975.085	3116.49
975.386	3144.06
975.686	3097.5
975.986	3082.81
976.287	3055.92
976.587	3033.55
976.887	3014.34
977.187	3072.65
977.487	3007.11
977.787	3020.22
978.087	3015.25
978.387	2995.59
978.687	3006.66
978.987	2956.26
979.286	2913.1
979.586	2948.58
979.885	2918.3
980.185	2874.23
980.484	2847.79
980.784	2873.55
981.083	2872.65
981.382	2888.92
981.682	2818.64
981.981	2855.7
982.28	2827.91
982.579	2821.13
982.878	2782.48
983.177	2778.64
983.475	2775.48
983.774	2739.55
984.073	2716.27
984.372	2692.09
984.67	2736.38
984.969	2742.48
985.267	2688.47
985.566	2685.99
985.864	2653.9
986.162	2669.72
986.461	2634.24
986.759	2648.25
987.057	2618.87
987.355	2612.09
987.653	2599.21
987.951	2545.65
988.249	2586.56
988.547	2548.59
988.844	2513.56
989.142	2532.77
989.44	2528.48
989.737	2521.25
990.035	2527.57
990.332	2499.55
990.63	2502.26
990.927	2471.76
991.224	2453
991.521	2443.06
991.819	2440.8
992.116	2440.12
992.413	2410.52
992.71	2404.87
993.006	2411.19
993.303	2378.2
993.6	2379.56
993.897	2374.81
994.193	2358.77
994.49	2294.36
994.787	2314.47
995.083	2314.7
995.379	2314.25
995.676	2303.4
995.972	2257.07
996.268	2248.71
996.565	2255.27
996.861	2257.75
997.157	2214.81
997.453	2221.37
997.749	2218.43
998.044	2180.92
998.34	2193.35
998.636	2217.75
998.932	2181.37
999.227	2168.04
999.523	2152.9
999.818	2148.15
1000.114	2111.77
1000.409	2093.01
1000.704	2109.05
1001	2080.81
1001.295	2085.33
1001.59	2105.21
1001.885	2101.82
1002.18	2082.16
1002.475	2036.51
1002.77	2046.68
1003.065	2008.49
1003.359	1993.13
1003.654	2008.27
1003.949	1948.61
1004.243	1979.79
1004.538	1982.96
1004.832	1960.36
1005.127	1925.78
1005.421	1918.78
1005.715	1926.46
1006.009	1921.72
1006.304	1886.01
1006.598	1890.53
1006.892	1898.66
1007.186	1855.28
1007.48	1859.34
1007.773	1829.29
1008.067	1804.66
1008.361	1806.92
1008.655	1793.13
1008.948	1815.73
1009.242	1778.22
1009.535	1789.52
1009.829	1777.31
1010.122	1784.09
1010.415	1755.84
1010.708	1733.7
1011.001	1715.84
1011.295	1716.75
1011.588	1740.02
1011.881	1705.45
1012.173	1690.08
1012.466	1677.43
1012.759	1660.03
1013.052	1670.87
1013.344	1683.3
1013.637	1632.68
1013.93	1657.09
1014.222	1640.14
1014.514	1633.14
1014.807	1605.57
1015.099	1631.33
1015.391	1609.86
1015.683	1586.81
1015.976	1576.64
1016.268	1559.46
1016.56	1541.84
1016.851	1545.68
1017.143	1528.51
1017.435	1530.09
1017.727	1531.22
1018.018	1519.24
1018.31	1516.98
1018.602	1507.04
1018.893	1467.94
1019.185	1483.31
1019.476	1452.57
1019.767	1456.42
1020.058	1444.89
1020.35	1438.11
1020.641	1449.41
1020.932	1418
1021.223	1414.38
1021.514	1413.71
1021.804	1379.81
1022.095	1392.46
1022.386	1378.23
1022.677	1369.87
1022.967	1341.39
1023.258	1345.91
1023.548	1347.72
1023.839	1347.49
1024.129	1322.63
1024.419	1285.8
1024.709	1308.62
1025	1302.07
1025.29	1284.9
1025.58	1293.93
1025.87	1264.11
1026.16	1268.17
1026.449	1234.95
1026.739	1245.35
1027.029	1253.71
1027.319	1205.8
1027.608	1234.28
1027.898	1198.8
1028.187	1236.08
1028.477	1210.32
1028.766	1205.35
1029.055	1184.79
1029.344	1195.63
1029.634	1172.36
1029.923	1152.24
1030.212	1142.07
1030.501	1152.47
1030.79	1123.77
1031.078	1130.1
1031.367	1095.97
1031.656	1110.21
1031.945	1106.82
1032.233	1098.46
1032.522	1098.91
1032.81	1091
1033.099	1101.4
1033.387	1075.41
1033.675	1085.58
1033.963	1056.2
1034.251	1053.49
1034.54	1045.58
1034.828	1060.04
1035.116	1021.85
1035.403	1006.94
1035.691	1019.14
1035.979	1021.17
1036.267	1008.52
1036.554	1017.33
1036.842	997.22
1037.129	966.94
1037.417	983.43
1037.704	994.51
1037.992	975.98
1038.279	967.62
1038.566	949.54
1038.853	949.54
1039.14	949.54
